10.00000 222.000
10.01995 182.000
10.03989 208.000
10.05984 206.000
10.07979 225.000
10.09973 204.000
10.11968 206.000
10.13963 237.000
10.15958 218.000
10.17952 214.000
10.19947 240.000
10.21942 174.000
10.23936 216.000
10.25931 189.000
10.27926 195.000
10.29920 188.000
10.31915 196.000
10.33910 199.000
10.35905 217.000
10.37899 201.000
10.39894 199.000
10.41889 226.000
10.43883 215.000
10.45878 220.000
10.47873 206.000
10.49867 191.000
10.51862 194.000
10.53857 216.000
10.55851 208.000
10.57846 186.000
10.59841 243.000
10.61836 208.000
10.63830 209.000
10.65825 229.000
10.67820 200.000
10.69814 221.000
10.71809 231.000
10.73804 185.000
10.75798 207.000
10.77793 212.000
10.79788 226.000
10.81783 194.000
10.83777 209.000
10.85772 218.000
10.87767 201.000
10.89761 199.000
10.91756 199.000
10.93751 233.000
10.95745 172.000
10.97740 217.000
10.99735 228.000
11.01730 204.000
11.03724 224.000
11.05719 220.000
11.07714 210.000
11.09708 210.000
11.11703 219.000
11.13698 213.000
11.15692 211.000
11.17687 237.000
11.19682 213.000
11.21676 187.000
11.23671 209.000
11.25666 223.000
11.27661 220.000
11.29655 218.000
11.31650 211.000
11.33645 168.000
11.35639 226.000
11.37634 245.000
11.39629 202.000
11.41623 211.000
11.43618 210.000
11.45613 204.000
11.47608 221.000
11.49602 227.000
11.51597 210.000
11.53592 200.000
11.55586 176.000
11.57581 215.000
11.59576 201.000
11.61570 198.000
11.63565 210.000
11.65560 203.000
11.67554 180.000
11.69549 223.000
11.71544 222.000
11.73539 221.000
11.75533 198.000
11.77528 227.000
11.79523 203.000
11.81517 257.000
11.83512 214.000
11.85507 194.000
11.87501 217.000
11.89496 213.000
11.91491 220.000
11.93486 197.000
11.95480 203.000
11.97475 241.000
11.99470 217.000
12.01464 235.000
12.03459 225.000
12.05454 216.000
12.07448 240.000
12.09443 185.000
12.11438 220.000
12.13432 203.000
12.15427 195.000
12.17422 217.000
12.19417 202.000
12.21411 209.000
12.23406 205.000
12.25401 203.000
12.27395 196.000
12.29390 203.000
12.31385 195.000
12.33379 221.000
12.35374 217.000
12.37369 235.000
12.39364 211.000
12.41358 211.000
12.43353 209.000
12.45348 195.000
12.47342 203.000
12.49337 224.000
12.51332 234.000
12.53326 213.000
12.55321 210.000
12.57316 209.000
12.59311 192.000
12.61305 218.000
12.63300 222.000
12.65295 218.000
12.67289 189.000
12.69284 193.000
12.71279 222.000
12.73273 229.000
12.75268 227.000
12.77263 231.000
12.79257 212.000
12.81252 216.000
12.83247 232.000
12.85242 255.000
12.87236 195.000
12.89231 204.000
12.91226 216.000
12.93220 214.000
12.95215 226.000
12.97210 227.000
12.99204 189.000
13.01199 197.000
13.03194 222.000
13.05189 227.000
13.07183 215.000
13.09178 242.000
13.11173 202.000
13.13167 214.000
13.15162 215.000
13.17157 242.000
13.19151 229.000
13.21146 219.000
13.23141 216.000
13.25135 222.000
13.27130 210.000
13.29125 220.000
13.31120 197.000
13.33114 206.000
13.35109 181.000
13.37104 232.000
13.39098 194.000
13.41093 197.000
13.43088 212.000
13.45082 210.000
13.47077 210.000
13.49072 212.000
13.51067 194.000
13.53061 179.000
13.55056 218.000
13.57051 205.000
13.59045 229.000
13.61040 233.000
13.63035 222.000
13.65029 221.000
13.67024 230.000
13.69019 199.000
13.71013 223.000
13.73008 196.000
13.75003 191.000
13.76998 201.000
13.78992 206.000
13.80987 210.000
13.82982 207.000
13.84976 214.000
13.86971 207.000
13.88966 179.000
13.90960 217.000
13.92955 214.000
13.94950 203.000
13.96945 213.000
13.98939 203.000
14.00934 188.000
14.02929 198.000
14.04923 205.000
14.06918 234.000
14.08913 201.000
14.10907 220.000
14.12902 230.000
14.14897 201.000
14.16892 206.000
14.18886 217.000
14.20881 240.000
14.22876 205.000
14.24870 213.000
14.26865 226.000
14.28860 231.000
14.30854 213.000
14.32849 225.000
14.34844 228.000
14.36838 210.000
14.38833 194.000
14.40828 201.000
14.42823 217.000
14.44817 216.000
14.46812 219.000
14.48807 234.000
14.50801 196.000
14.52796 211.000
14.54791 212.000
14.56785 223.000
14.58780 215.000
14.60775 217.000
14.62770 223.000
14.64764 216.000
14.66759 193.000
14.68754 201.000
14.70748 195.000
14.72743 210.000
14.74738 206.000
14.76732 195.000
14.78727 220.000
14.80722 198.000
14.82716 215.000
14.84711 183.000
14.86706 209.000
14.88701 224.000
14.90695 196.000
14.92690 221.000
14.94685 212.000
14.96679 211.000
14.98674 200.000
15.00669 222.000
15.02663 190.000
15.04658 202.000
15.06653 230.000
15.08648 233.000
15.10642 222.000
15.12637 203.000
15.14632 234.000
15.16626 216.000
15.18621 203.000
15.20616 218.000
15.22610 221.000
15.24605 224.000
15.26600 201.000
15.28594 209.000
15.30589 208.000
15.32584 216.000
15.34579 186.000
15.36573 192.000
15.38568 188.000
15.40563 174.000
15.42557 220.000
15.44552 204.000
15.46547 198.000
15.48541 222.000
15.50536 213.000
15.52531 191.000
15.54526 200.000
15.56520 209.000
15.58515 190.000
15.60510 238.000
15.62504 218.000
15.64499 213.000
15.66494 280.000
15.68488 253.000
15.70483 237.000
15.72478 279.000
15.74472 307.000
15.76467 315.000
15.78462 372.000
15.80457 330.000
15.82451 256.000
15.84446 243.000
15.86441 242.000
15.88435 226.000
15.90430 221.000
15.92425 220.000
15.94419 203.000
15.96414 270.000
15.98409 212.000
16.00404 242.000
16.02398 230.000
16.04393 197.000
16.06388 199.000
16.08382 200.000
16.10377 223.000
16.12372 207.000
16.14366 245.000
16.16361 200.000
16.18356 209.000
16.20351 208.000
16.22345 211.000
16.24340 206.000
16.26335 202.000
16.28329 224.000
16.30324 202.000
16.32319 210.000
16.34313 205.000
16.36308 218.000
16.38303 230.000
16.40297 219.000
16.42292 224.000
16.44287 223.000
16.46282 203.000
16.48276 206.000
16.50271 231.000
16.52266 243.000
16.54260 210.000
16.56255 208.000
16.58250 194.000
16.60244 233.000
16.62239 216.000
16.64234 202.000
16.66229 224.000
16.68223 220.000
16.70218 240.000
16.72213 241.000
16.74207 233.000
16.76202 203.000
16.78197 211.000
16.80191 231.000
16.82186 212.000
16.84181 231.000
16.86175 236.000
16.88170 210.000
16.90165 231.000
16.92160 206.000
16.94154 194.000
16.96149 208.000
16.98144 205.000
17.00138 221.000
17.02133 229.000
17.04128 224.000
17.06122 226.000
17.08117 219.000
17.10112 220.000
17.12107 234.000
17.14101 203.000
17.16096 214.000
17.18091 213.000
17.20085 210.000
17.22080 220.000
17.24075 217.000
17.26069 216.000
17.28064 195.000
17.30059 241.000
17.32053 213.000
17.34048 225.000
17.36043 194.000
17.38038 188.000
17.40032 220.000
17.42027 221.000
17.44022 232.000
17.46016 213.000
17.48011 227.000
17.50006 214.000
17.52000 203.000
17.53995 229.000
17.55990 204.000
17.57985 208.000
17.59979 220.000
17.61974 228.000
17.63969 199.000
17.65963 215.000
17.67958 240.000
17.69953 191.000
17.71947 229.000
17.73942 205.000
17.75937 198.000
17.77932 220.000
17.79926 206.000
17.81921 199.000
17.83916 230.000
17.85910 213.000
17.87905 193.000
17.89900 220.000
17.91894 218.000
17.93889 228.000
17.95884 244.000
17.97878 222.000
17.99873 254.000
18.01868 238.000
18.03863 217.000
18.05857 182.000
18.07852 210.000
18.09847 218.000
18.11841 240.000
18.13836 227.000
18.15831 238.000
18.17825 251.000
18.19820 259.000
18.21815 296.000
18.23810 338.000
18.25804 393.000
18.27799 391.000
18.29794 382.000
18.31788 346.000
18.33783 291.000
18.35778 234.000
18.37772 214.000
18.39767 220.000
18.41762 208.000
18.43756 231.000
18.45751 221.000
18.47746 214.000
18.49741 225.000
18.51735 229.000
18.53730 204.000
18.55725 219.000
18.57719 234.000
18.59714 201.000
18.61709 238.000
18.63703 221.000
18.65698 223.000
18.67693 250.000
18.69688 229.000
18.71682 232.000
18.73677 221.000
18.75672 198.000
18.77666 251.000
18.79661 232.000
18.81656 232.000
18.83650 208.000
18.85645 231.000
18.87640 225.000
18.89634 206.000
18.91629 232.000
18.93624 231.000
18.95619 191.000
18.97613 226.000
18.99608 201.000
19.01603 233.000
19.03597 210.000
19.05592 200.000
19.07587 225.000
19.09581 253.000
19.11576 224.000
19.13571 237.000
19.15566 200.000
19.17560 228.000
19.19555 220.000
19.21550 216.000
19.23544 211.000
19.25539 223.000
19.27534 244.000
19.29528 206.000
19.31523 204.000
19.33518 207.000
19.35513 231.000
19.37507 232.000
19.39502 229.000
19.41497 217.000
19.43491 245.000
19.45486 224.000
19.47481 204.000
19.49475 225.000
19.51470 238.000
19.53465 232.000
19.55459 229.000
19.57454 253.000
19.59449 237.000
19.61444 239.000
19.63438 224.000
19.65433 240.000
19.67428 258.000
19.69422 202.000
19.71417 238.000
19.73412 239.000
19.75406 226.000
19.77401 219.000
19.79396 234.000
19.81391 221.000
19.83385 236.000
19.85380 228.000
19.87375 206.000
19.89369 241.000
19.91364 238.000
19.93359 212.000
19.95353 214.000
19.97348 269.000
19.99343 238.000
20.01337 252.000
20.03332 252.000
20.05327 266.000
20.07322 267.000
20.09316 307.000
20.11311 298.000
20.13306 296.000
20.15300 226.000
20.17295 281.000
20.19290 286.000
20.21284 281.000
20.23279 296.000
20.25274 265.000
20.27269 301.000
20.29263 289.000
20.31258 247.000
20.33253 283.000
20.35247 256.000
20.37242 350.000
20.39237 356.000
20.41231 463.000
20.43226 530.000
20.45221 656.000
20.47215 759.000
20.49210 914.000
20.51205 1040.000
20.53200 1107.000
20.55194 1125.000
20.57189 1121.000
20.59184 1023.000
20.61178 1036.000
20.63173 877.000
20.65168 878.000
20.67162 878.000
20.69157 784.000
20.71152 857.000
20.73147 782.000
20.75141 713.000
20.77136 662.000
20.79131 662.000
20.81125 611.000
20.83120 573.000
20.85115 465.000
20.87109 422.000
20.89104 405.000
20.91099 362.000
20.93094 320.000
20.95088 291.000
20.97083 290.000
20.99078 278.000
21.01072 258.000
21.03067 255.000
21.05062 267.000
21.07056 250.000
21.09051 258.000
21.11046 260.000
21.13040 249.000
21.15035 235.000
21.17030 254.000
21.19025 264.000
21.21019 250.000
21.23014 249.000
21.25009 251.000
21.27003 239.000
21.28998 250.000
21.30993 220.000
21.32987 235.000
21.34982 218.000
21.36977 223.000
21.38972 259.000
21.40966 262.000
21.42961 227.000
21.44956 189.000
21.46950 236.000
21.48945 226.000
21.50940 242.000
21.52934 247.000
21.54929 243.000
21.56924 220.000
21.58918 236.000
21.60913 223.000
21.62908 236.000
21.64903 242.000
21.66897 214.000
21.68892 229.000
21.70887 228.000
21.72881 234.000
21.74876 226.000
21.76871 220.000
21.78865 248.000
21.80860 231.000
21.82855 232.000
21.84850 248.000
21.86844 254.000
21.88839 236.000
21.90834 260.000
21.92828 236.000
21.94823 241.000
21.96818 226.000
21.98812 262.000
22.00807 248.000
22.02802 225.000
22.04796 219.000
22.06791 242.000
22.08786 275.000
22.10781 254.000
22.12775 248.000
22.14770 231.000
22.16765 248.000
22.18759 267.000
22.20754 227.000
22.22749 263.000
22.24743 227.000
22.26738 237.000
22.28733 257.000
22.30728 247.000
22.32722 273.000
22.34717 268.000
22.36712 235.000
22.38706 250.000
22.40701 243.000
22.42696 247.000
22.44690 226.000
22.46685 263.000
22.48680 219.000
22.50675 247.000
22.52669 232.000
22.54664 249.000
22.56659 231.000
22.58653 233.000
22.60648 240.000
22.62643 234.000
22.64637 242.000
22.66632 259.000
22.68627 245.000
22.70621 219.000
22.72616 232.000
22.74611 234.000
22.76606 243.000
22.78600 243.000
22.80595 241.000
22.82590 240.000
22.84584 237.000
22.86579 247.000
22.88574 240.000
22.90568 252.000
22.92563 251.000
22.94558 275.000
22.96553 235.000
22.98547 217.000
23.00542 247.000
23.02537 266.000
23.04531 248.000
23.06526 207.000
23.08521 261.000
23.10515 270.000
23.12510 217.000
23.14505 223.000
23.16499 262.000
23.18494 246.000
23.20489 232.000
23.22484 271.000
23.24478 235.000
23.26473 229.000
23.28468 232.000
23.30462 224.000
23.32457 248.000
23.34452 266.000
23.36446 252.000
23.38441 254.000
23.40436 259.000
23.42431 217.000
23.44425 262.000
23.46420 235.000
23.48415 243.000
23.50409 246.000
23.52404 242.000
23.54399 252.000
23.56393 251.000
23.58388 212.000
23.60383 244.000
23.62377 254.000
23.64372 263.000
23.66367 256.000
23.68362 271.000
23.70356 217.000
23.72351 261.000
23.74346 270.000
23.76340 250.000
23.78335 255.000
23.80330 266.000
23.82324 246.000
23.84319 241.000
23.86314 246.000
23.88309 275.000
23.90303 255.000
23.92298 260.000
23.94293 264.000
23.96287 234.000
23.98282 250.000
24.00277 276.000
24.02271 254.000
24.04266 258.000
24.06261 242.000
24.08256 265.000
24.10250 245.000
24.12245 269.000
24.14240 254.000
24.16234 260.000
24.18229 243.000
24.20224 245.000
24.22218 265.000
24.24213 252.000
24.26208 249.000
24.28202 274.000
24.30197 219.000
24.32192 272.000
24.34187 274.000
24.36181 258.000
24.38176 275.000
24.40171 298.000
24.42165 246.000
24.44160 300.000
24.46155 239.000
24.48149 273.000
24.50144 268.000
24.52139 243.000
24.54134 271.000
24.56128 252.000
24.58123 252.000
24.60118 289.000
24.62112 285.000
24.64107 273.000
24.66102 275.000
24.68096 304.000
24.70091 295.000
24.72086 293.000
24.74080 312.000
24.76075 287.000
24.78070 292.000
24.80065 280.000
24.82059 258.000
24.84054 303.000
24.86049 272.000
24.88043 237.000
24.90038 257.000
24.92033 268.000
24.94027 246.000
24.96022 280.000
24.98017 282.000
25.00012 293.000
25.02006 246.000
25.04001 262.000
25.05996 264.000
25.07990 271.000
25.09985 267.000
25.11980 245.000
25.13974 267.000
25.15969 245.000
25.17964 279.000
25.19958 266.000
25.21953 276.000
25.23948 284.000
25.25943 251.000
25.27937 274.000
25.29932 289.000
25.31927 263.000
25.33921 260.000
25.35916 276.000
25.37911 262.000
25.39905 273.000
25.41900 258.000
25.43895 276.000
25.45890 286.000
25.47884 266.000
25.49879 298.000
25.51874 333.000
25.53868 240.000
25.55863 268.000
25.57858 279.000
25.59852 263.000
25.61847 301.000
25.63842 292.000
25.65837 250.000
25.67831 260.000
25.69826 277.000
25.71821 289.000
25.73815 246.000
25.75810 290.000
25.77805 289.000
25.79799 279.000
25.81794 262.000
25.83789 287.000
25.85783 327.000
25.87778 271.000
25.89773 293.000
25.91768 296.000
25.93762 290.000
25.95757 303.000
25.97752 291.000
25.99746 324.000
26.01741 304.000
26.03736 288.000
26.05730 301.000
26.07725 307.000
26.09720 314.000
26.11715 334.000
26.13709 297.000
26.15704 289.000
26.17699 291.000
26.19693 323.000
26.21688 281.000
26.23683 288.000
26.25677 295.000
26.27672 290.000
26.29667 302.000
26.31661 303.000
26.33656 300.000
26.35651 277.000
26.37646 269.000
26.39640 317.000
26.41635 293.000
26.43630 268.000
26.45624 273.000
26.47619 309.000
26.49614 318.000
26.51608 280.000
26.53603 280.000
26.55598 288.000
26.57593 299.000
26.59587 304.000
26.61582 299.000
26.63577 303.000
26.65571 293.000
26.67566 313.000
26.69561 296.000
26.71555 289.000
26.73550 300.000
26.75545 293.000
26.77539 310.000
26.79534 318.000
26.81529 294.000
26.83524 302.000
26.85518 271.000
26.87513 301.000
26.89508 305.000
26.91502 274.000
26.93497 290.000
26.95492 308.000
26.97486 308.000
26.99481 285.000
27.01476 317.000
27.03471 323.000
27.05465 312.000
27.07460 302.000
27.09455 299.000
27.11449 291.000
27.13444 299.000
27.15439 315.000
27.17433 308.000
27.19428 313.000
27.21423 291.000
27.23417 301.000
27.25412 281.000
27.27407 299.000
27.29402 328.000
27.31396 275.000
27.33391 303.000
27.35386 313.000
27.37380 299.000
27.39375 320.000
27.41370 291.000
27.43364 290.000
27.45359 326.000
27.47354 298.000
27.49349 289.000
27.51343 296.000
27.53338 288.000
27.55333 308.000
27.57327 295.000
27.59322 311.000
27.61317 293.000
27.63311 294.000
27.65306 314.000
27.67301 301.000
27.69296 300.000
27.71290 316.000
27.73285 266.000
27.75280 291.000
27.77274 296.000
27.79269 300.000
27.81264 302.000
27.83258 308.000
27.85253 328.000
27.87248 312.000
27.89242 272.000
27.91237 318.000
27.93232 321.000
27.95227 271.000
27.97221 289.000
27.99216 294.000
28.01211 324.000
28.03205 340.000
28.05200 308.000
28.07195 352.000
28.09189 295.000
28.11184 302.000
28.13179 306.000
28.15174 310.000
28.17168 319.000
28.19163 302.000
28.21158 292.000
28.23152 307.000
28.25147 307.000
28.27142 310.000
28.29136 315.000
28.31131 299.000
28.33126 321.000
28.35120 326.000
28.37115 286.000
28.39110 293.000
28.41105 347.000
28.43099 332.000
28.45094 298.000
28.47089 315.000
28.49083 307.000
28.51078 337.000
28.53073 292.000
28.55067 350.000
28.57062 340.000
28.59057 341.000
28.61052 354.000
28.63046 315.000
28.65041 335.000
28.67036 331.000
28.69030 333.000
28.71025 301.000
28.73020 295.000
28.75014 304.000
28.77009 302.000
28.79004 338.000
28.80998 331.000
28.82993 331.000
28.84988 328.000
28.86983 328.000
28.88977 329.000
28.90972 344.000
28.92967 344.000
28.94961 304.000
28.96956 311.000
28.98951 294.000
29.00945 356.000
29.02940 327.000
29.04935 338.000
29.06930 332.000
29.08924 328.000
29.10919 346.000
29.12914 320.000
29.14908 302.000
29.16903 318.000
29.18898 319.000
29.20892 315.000
29.22887 358.000
29.24882 301.000
29.26877 356.000
29.28871 349.000
29.30866 341.000
29.32861 337.000
29.34855 364.000
29.36850 371.000
29.38845 332.000
29.40839 366.000
29.42834 336.000
29.44829 379.000
29.46823 352.000
29.48818 361.000
29.50813 373.000
29.52808 374.000
29.54802 392.000
29.56797 406.000
29.58792 385.000
29.60786 386.000
29.62781 368.000
29.64776 388.000
29.66770 385.000
29.68765 380.000
29.70760 333.000
29.72755 369.000
29.74749 348.000
29.76744 339.000
29.78739 342.000
29.80733 365.000
29.82728 347.000
29.84723 344.000
29.86717 369.000
29.88712 393.000
29.90707 365.000
29.92701 386.000
29.94696 404.000
29.96691 508.000
29.98686 524.000
30.00680 514.000
30.02675 522.000
30.04670 606.000
30.06664 584.000
30.08659 618.000
30.10654 559.000
30.12648 515.000
30.14643 499.000
30.16638 444.000
30.18633 429.000
30.20627 392.000
30.22622 337.000
30.24617 407.000
30.26611 348.000
30.28606 350.000
30.30601 337.000
30.32595 317.000
30.34590 351.000
30.36585 318.000
30.38579 309.000
30.40574 341.000
30.42569 333.000
30.44564 326.000
30.46558 306.000
30.48553 346.000
30.50548 342.000
30.52542 345.000
30.54537 316.000
30.56532 345.000
30.58526 323.000
30.60521 360.000
30.62516 339.000
30.64511 337.000
30.66505 356.000
30.68500 379.000
30.70495 398.000
30.72489 349.000
30.74484 366.000
30.76479 385.000
30.78473 367.000
30.80468 361.000
30.82463 366.000
30.84458 353.000
30.86452 331.000
30.88447 345.000
30.90442 364.000
30.92436 334.000
30.94431 334.000
30.96426 330.000
30.98420 348.000
31.00415 361.000
31.02410 359.000
31.04404 371.000
31.06399 366.000
31.08394 322.000
31.10389 347.000
31.12383 348.000
31.14378 362.000
31.16373 370.000
31.18367 346.000
31.20362 324.000
31.22357 332.000
31.24351 335.000
31.26346 319.000
31.28341 351.000
31.30336 390.000
31.32330 352.000
31.34325 315.000
31.36320 330.000
31.38314 342.000
31.40309 336.000
31.42304 332.000
31.44298 332.000
31.46293 310.000
31.48288 353.000
31.50282 365.000
31.52277 337.000
31.54272 338.000
31.56267 316.000
31.58261 353.000
31.60256 338.000
31.62251 346.000
31.64245 341.000
31.66240 305.000
31.68235 322.000
31.70229 351.000
31.72224 358.000
31.74219 310.000
31.76214 346.000
31.78208 361.000
31.80203 345.000
31.82198 381.000
31.84192 370.000
31.86187 361.000
31.88182 358.000
31.90176 336.000
31.92171 336.000
31.94166 332.000
31.96160 357.000
31.98155 337.000
32.00150 347.000
32.02145 326.000
32.04139 323.000
32.06134 380.000
32.08129 338.000
32.10123 323.000
32.12118 366.000
32.14113 332.000
32.16107 347.000
32.18102 330.000
32.20097 363.000
32.22092 339.000
32.24086 313.000
32.26081 378.000
32.28076 335.000
32.30070 369.000
32.32065 372.000
32.34060 347.000
32.36054 362.000
32.38049 359.000
32.40044 381.000
32.42039 394.000
32.44033 404.000
32.46028 436.000
32.48023 452.000
32.50017 484.000
32.52012 504.000
32.54007 512.000
32.56001 460.000
32.57996 415.000
32.59991 426.000
32.61985 445.000
32.63980 400.000
32.65975 395.000
32.67970 379.000
32.69964 311.000
32.71959 379.000
32.73954 357.000
32.75948 357.000
32.77943 332.000
32.79938 359.000
32.81932 369.000
32.83927 370.000
32.85922 369.000
32.87917 351.000
32.89911 302.000
32.91906 334.000
32.93901 355.000
32.95895 321.000
32.97890 349.000
32.99885 319.000
33.01879 366.000
33.03874 345.000
33.05869 353.000
33.07863 356.000
33.09858 334.000
33.11853 357.000
33.13848 388.000
33.15842 354.000
33.17837 396.000
33.19832 389.000
33.21826 373.000
33.23821 480.000
33.25816 446.000
33.27810 470.000
33.29805 463.000
33.31800 485.000
33.33795 520.000
33.35789 513.000
33.37784 543.000
33.39779 530.000
33.41773 551.000
33.43768 560.000
33.45763 531.000
33.47757 560.000
33.49752 483.000
33.51747 535.000
33.53741 491.000
33.55736 495.000
33.57731 553.000
33.59726 514.000
33.61720 514.000
33.63715 535.000
33.65710 593.000
33.67704 573.000
33.69699 630.000
33.71694 696.000
33.73688 722.000
33.75683 773.000
33.77678 828.000
33.79673 835.000
33.81667 855.000
33.83662 804.000
33.85657 930.000
33.87651 902.000
33.89646 876.000
33.91641 881.000
33.93635 899.000
33.95630 921.000
33.97625 875.000
33.99620 879.000
34.01614 929.000
34.03609 908.000
34.05604 883.000
34.07598 847.000
34.09593 896.000
34.11588 864.000
34.13582 890.000
34.15577 852.000
34.17572 810.000
34.19566 772.000
34.21561 761.000
34.23556 733.000
34.25551 648.000
34.27545 636.000
34.29540 649.000
34.31535 600.000
34.33529 577.000
34.35524 541.000
34.37519 493.000
34.39513 467.000
34.41508 452.000
34.43503 457.000
34.45498 415.000
34.47492 452.000
34.49487 396.000
34.51482 413.000
34.53476 395.000
34.55471 403.000
34.57466 377.000
34.59460 382.000
34.61455 402.000
34.63450 404.000
34.65444 379.000
34.67439 391.000
34.69434 419.000
34.71429 371.000
34.73423 383.000
34.75418 378.000
34.77413 381.000
34.79407 369.000
34.81402 411.000
34.83397 389.000
34.85391 394.000
34.87386 408.000
34.89381 393.000
34.91376 392.000
34.93370 414.000
34.95365 366.000
34.97360 418.000
34.99354 437.000
35.01349 426.000
35.03344 393.000
35.05338 461.000
35.07333 381.000
35.09328 430.000
35.11322 400.000
35.13317 399.000
35.15312 450.000
35.17307 437.000
35.19301 467.000
35.21296 466.000
35.23291 565.000
35.25285 578.000
35.27280 591.000
35.29275 679.000
35.31269 785.000
35.33264 921.000
35.35259 1099.000
35.37254 1312.000
35.39248 1577.000
35.41243 1894.000
35.43238 2005.000
35.45232 2036.000
35.47227 2161.000
35.49222 2151.000
35.51216 2289.000
35.53211 2552.000
35.55206 2470.000
35.57201 2086.000
35.59195 1777.000
35.61190 1630.000
35.63185 1505.000
35.65179 1299.000
35.67174 1010.000
35.69169 824.000
35.71163 708.000
35.73158 630.000
35.75153 557.000
35.77147 471.000
35.79142 495.000
35.81137 446.000
35.83132 457.000
35.85126 440.000
35.87121 434.000
35.89116 420.000
35.91110 383.000
35.93105 407.000
35.95100 355.000
35.97094 420.000
35.99089 407.000
36.01084 387.000
36.03079 381.000
36.05073 377.000
36.07068 362.000
36.09063 354.000
36.11057 334.000
36.13052 373.000
36.15047 361.000
36.17041 362.000
36.19036 351.000
36.21031 369.000
36.23025 333.000
36.25020 374.000
36.27015 333.000
36.29010 359.000
36.31004 347.000
36.32999 330.000
36.34994 377.000
36.36988 364.000
36.38983 349.000
36.40978 318.000
36.42972 296.000
36.44967 333.000
36.46962 358.000
36.48957 314.000
36.50951 345.000
36.52946 338.000
36.54941 313.000
36.56935 328.000
36.58930 337.000
36.60925 334.000
36.62919 345.000
36.64914 319.000
36.66909 318.000
36.68903 344.000
36.70898 312.000
36.72893 320.000
36.74888 307.000
36.76882 316.000
36.78877 304.000
36.80872 333.000
36.82866 311.000
36.84861 308.000
36.86856 283.000
36.88850 321.000
36.90845 316.000
36.92840 302.000
36.94835 344.000
36.96829 379.000
36.98824 354.000
37.00819 398.000
37.02813 406.000
37.04808 442.000
37.06803 391.000
37.08797 340.000
37.10792 362.000
37.12787 370.000
37.14781 387.000
37.16776 362.000
37.18771 405.000
37.20766 417.000
37.22760 436.000
37.24755 441.000
37.26750 429.000
37.28744 447.000
37.30739 450.000
37.32734 421.000
37.34728 395.000
37.36723 428.000
37.38718 342.000
37.40713 329.000
37.42707 329.000
37.44702 343.000
37.46697 325.000
37.48691 342.000
37.50686 309.000
37.52681 303.000
37.54675 320.000
37.56670 329.000
37.58665 328.000
37.60660 315.000
37.62654 352.000
37.64649 346.000
37.66644 356.000
37.68638 297.000
37.70633 359.000
37.72628 314.000
37.74622 359.000
37.76617 343.000
37.78612 335.000
37.80606 311.000
37.82601 349.000
37.84596 323.000
37.86591 323.000
37.88585 328.000
37.90580 317.000
37.92575 330.000
37.94569 356.000
37.96564 343.000
37.98559 338.000
38.00553 335.000
38.02548 331.000
38.04543 344.000
38.06538 332.000
38.08532 355.000
38.10527 351.000
38.12522 344.000
38.14516 366.000
38.16511 374.000
38.18506 358.000
38.20500 353.000
38.22495 370.000
38.24490 351.000
38.26484 393.000
38.28479 378.000
38.30474 364.000
38.32469 392.000
38.34463 412.000
38.36458 439.000
38.38453 398.000
38.40447 456.000
38.42442 421.000
38.44437 406.000
38.46431 422.000
38.48426 447.000
38.50421 438.000
38.52416 484.000
38.54410 489.000
38.56405 569.000
38.58400 596.000
38.60394 673.000
38.62389 749.000
38.64384 944.000
38.66378 1027.000
38.68373 1290.000
38.70368 1510.000
38.72362 1832.000
38.74357 1878.000
38.76352 1789.000
38.78347 1578.000
38.80341 1538.000
38.82336 1521.000
38.84331 1386.000
38.86325 1265.000
38.88320 1165.000
38.90315 1073.000
38.92309 1019.000
38.94304 926.000
38.96299 832.000
38.98294 773.000
39.00288 653.000
39.02283 632.000
39.04278 617.000
39.06272 521.000
39.08267 484.000
39.10262 442.000
39.12256 468.000
39.14251 410.000
39.16246 433.000
39.18241 428.000
39.20235 384.000
39.22230 373.000
39.24225 384.000
39.26219 340.000
39.28214 350.000
39.30209 346.000
39.32203 359.000
39.34198 351.000
39.36193 351.000
39.38187 337.000
39.40182 357.000
39.42177 340.000
39.44172 368.000
39.46166 324.000
39.48161 314.000
39.50156 350.000
39.52150 309.000
39.54145 352.000
39.56140 363.000
39.58134 346.000
39.60129 340.000
39.62124 333.000
39.64119 322.000
39.66113 368.000
39.68108 336.000
39.70103 296.000
39.72097 323.000
39.74092 339.000
39.76087 312.000
39.78081 334.000
39.80076 377.000
39.82071 338.000
39.84065 300.000
39.86060 315.000
39.88055 348.000
39.90050 338.000
39.92044 321.000
39.94039 327.000
39.96034 290.000
39.98028 348.000
40.00023 344.000
40.02018 300.000
40.04012 296.000
40.06007 302.000
40.08002 334.000
40.09997 333.000
40.11991 322.000
40.13986 312.000
40.15981 310.000
40.17975 318.000
40.19970 323.000
40.21965 307.000
40.23959 348.000
40.25954 312.000
40.27949 309.000
40.29943 309.000
40.31938 301.000
40.33933 311.000
40.35928 338.000
40.37922 292.000
40.39917 293.000
40.41912 313.000
40.43906 288.000
40.45901 304.000
40.47896 297.000
40.49890 280.000
40.51885 308.000
40.53880 321.000
40.55875 309.000
40.57869 340.000
40.59864 313.000
40.61859 314.000
40.63853 299.000
40.65848 322.000
40.67843 283.000
40.69837 302.000
40.71832 338.000
40.73827 302.000
40.75822 324.000
40.77816 304.000
40.79811 313.000
40.81806 291.000
40.83800 311.000
40.85795 280.000
40.87790 332.000
40.89784 262.000
40.91779 311.000
40.93774 303.000
40.95768 312.000
40.97763 311.000
40.99758 358.000
41.01753 311.000
41.03747 298.000
41.05742 321.000
41.07737 303.000
41.09731 324.000
41.11726 303.000
41.13721 330.000
41.15715 337.000
41.17710 287.000
41.19705 315.000
41.21700 301.000
41.23694 305.000
41.25689 293.000
41.27684 293.000
41.29678 331.000
41.31673 293.000
41.33668 299.000
41.35662 295.000
41.37657 335.000
41.39652 305.000
41.41646 276.000
41.43641 308.000
41.45636 318.000
41.47631 326.000
41.49625 298.000
41.51620 286.000
41.53615 297.000
41.55609 319.000
41.57604 333.000
41.59599 280.000
41.61593 310.000
41.63588 314.000
41.65583 322.000
41.67578 294.000
41.69572 295.000
41.71567 315.000
41.73562 289.000
41.75556 330.000
41.77551 308.000
41.79546 324.000
41.81540 282.000
41.83535 325.000
41.85530 307.000
41.87524 317.000
41.89519 350.000
41.91514 333.000
41.93509 300.000
41.95503 353.000
41.97498 325.000
41.99493 299.000
42.01487 310.000
42.03482 315.000
42.05477 314.000
42.07471 343.000
42.09466 296.000
42.11461 302.000
42.13456 335.000
42.15450 301.000
42.17445 357.000
42.19440 314.000
42.21434 303.000
42.23429 338.000
42.25424 334.000
42.27418 318.000
42.29413 307.000
42.31408 335.000
42.33403 324.000
42.35397 338.000
42.37392 326.000
42.39387 323.000
42.41381 321.000
42.43376 310.000
42.45371 333.000
42.47365 303.000
42.49360 360.000
42.51355 312.000
42.53349 284.000
42.55344 310.000
42.57339 306.000
42.59334 345.000
42.61328 333.000
42.63323 323.000
42.65318 320.000
42.67312 291.000
42.69307 337.000
42.71302 289.000
42.73296 320.000
42.75291 327.000
42.77286 324.000
42.79281 323.000
42.81275 325.000
42.83270 362.000
42.85265 335.000
42.87259 326.000
42.89254 349.000
42.91249 401.000
42.93243 433.000
42.95238 456.000
42.97233 490.000
42.99227 492.000
43.01222 522.000
43.03217 569.000
43.05212 526.000
43.07206 514.000
43.09201 523.000
43.11196 529.000
43.13190 469.000
43.15185 483.000
43.17180 488.000
43.19174 408.000
43.21169 440.000
43.23164 457.000
43.25159 492.000
43.27153 559.000
43.29148 556.000
43.31143 518.000
43.33137 454.000
43.35132 486.000
43.37127 433.000
43.39121 445.000
43.41116 446.000
43.43111 425.000
43.45105 383.000
43.47100 330.000
43.49095 334.000
43.51090 343.000
43.53084 309.000
43.55079 284.000
43.57074 332.000
43.59068 338.000
43.61063 310.000
43.63058 322.000
43.65052 361.000
43.67047 299.000
43.69042 296.000
43.71037 299.000
43.73031 279.000
43.75026 262.000
43.77021 299.000
43.79015 302.000
43.81010 294.000
43.83005 284.000
43.84999 323.000
43.86994 264.000
43.88989 292.000
43.90984 277.000
43.92978 295.000
43.94973 316.000
43.96968 275.000
43.98962 317.000
44.00957 270.000
44.02952 269.000
44.04946 308.000
44.06941 292.000
44.08936 295.000
44.10930 282.000
44.12925 306.000
44.14920 294.000
44.16915 326.000
44.18909 310.000
44.20904 297.000
44.22899 288.000
44.24893 290.000
44.26888 294.000
44.28883 265.000
44.30877 285.000
44.32872 292.000
44.34867 290.000
44.36862 308.000
44.38856 308.000
44.40851 297.000
44.42846 302.000
44.44840 311.000
44.46835 267.000
44.48830 295.000
44.50824 278.000
44.52819 289.000
44.54814 311.000
44.56808 304.000
44.58803 277.000
44.60798 274.000
44.62793 335.000
44.64787 291.000
44.66782 342.000
44.68777 285.000
44.70771 312.000
44.72766 287.000
44.74761 289.000
44.76755 284.000
44.78750 303.000
44.80745 261.000
44.82740 275.000
44.84734 277.000
44.86729 293.000
44.88724 292.000
44.90718 291.000
44.92713 306.000
44.94708 314.000
44.96702 313.000
44.98697 299.000
45.00692 302.000
45.02686 269.000
45.04681 296.000
45.06676 307.000
45.08671 302.000
45.10665 296.000
45.12660 278.000
45.14655 298.000
45.16649 319.000
45.18644 294.000
45.20639 290.000
45.22633 289.000
45.24628 285.000
45.26623 297.000
45.28618 325.000
45.30612 310.000
45.32607 297.000
45.34602 279.000
45.36596 328.000
45.38591 290.000
45.40586 286.000
45.42580 269.000
45.44575 283.000
45.46570 309.000
45.48565 292.000
45.50559 290.000
45.52554 289.000
45.54549 300.000
45.56543 290.000
45.58538 293.000
45.60533 308.000
45.62527 267.000
45.64522 316.000
45.66517 300.000
45.68511 277.000
45.70506 290.000
45.72501 324.000
45.74496 282.000
45.76490 293.000
45.78485 305.000
45.80480 282.000
45.82474 288.000
45.84469 257.000
45.86464 268.000
45.88458 302.000
45.90453 273.000
45.92448 293.000
45.94443 277.000
45.96437 286.000
45.98432 283.000
46.00427 279.000
46.02421 293.000
46.04416 283.000
46.06411 289.000
46.08405 289.000
46.10400 277.000
46.12395 271.000
46.14389 276.000
46.16384 273.000
46.18379 305.000
46.20374 307.000
46.22368 284.000
46.24363 335.000
46.26358 347.000
46.28352 305.000
46.30347 305.000
46.32342 318.000
46.34336 309.000
46.36331 295.000
46.38326 277.000
46.40321 306.000
46.42315 301.000
46.44310 298.000
46.46305 299.000
46.48299 268.000
46.50294 295.000
46.52289 287.000
46.54283 281.000
46.56278 295.000
46.58273 293.000
46.60267 296.000
46.62262 300.000
46.64257 282.000
46.66252 284.000
46.68246 289.000
46.70241 320.000
46.72236 270.000
46.74230 294.000
46.76225 285.000
46.78220 295.000
46.80214 271.000
46.82209 289.000
46.84204 286.000
46.86199 270.000
46.88193 252.000
46.90188 291.000
46.92183 278.000
46.94177 301.000
46.96172 264.000
46.98167 248.000
47.00161 302.000
47.02156 274.000
47.04151 267.000
47.06146 279.000
47.08140 268.000
47.10135 311.000
47.12130 273.000
47.14124 278.000
47.16119 315.000
47.18114 288.000
47.20108 281.000
47.22103 284.000
47.24098 281.000
47.26092 271.000
47.28087 284.000
47.30082 266.000
47.32077 281.000
47.34071 273.000
47.36066 289.000
47.38061 285.000
47.40055 266.000
47.42050 290.000
47.44045 267.000
47.46039 288.000
47.48034 278.000
47.50029 247.000
47.52024 267.000
47.54018 266.000
47.56013 277.000
47.58008 270.000
47.60002 289.000
47.61997 313.000
47.63992 267.000
47.65986 274.000
47.67981 258.000
47.69976 279.000
47.71970 283.000
47.73965 276.000
47.75960 301.000
47.77955 286.000
47.79949 284.000
47.81944 271.000
47.83939 282.000
47.85933 264.000
47.87928 278.000
47.89923 264.000
47.91917 312.000
47.93912 300.000
47.95907 301.000
47.97902 302.000
47.99896 341.000
48.01891 290.000
48.03886 327.000
48.05880 318.000
48.07875 304.000
48.09870 314.000
48.11864 311.000
48.13859 310.000
48.15854 320.000
48.17848 305.000
48.19843 294.000
48.21838 306.000
48.23833 307.000
48.25827 303.000
48.27822 311.000
48.29817 301.000
48.31811 324.000
48.33806 312.000
48.35801 341.000
48.37795 335.000
48.39790 370.000
48.41785 349.000
48.43780 325.000
48.45774 390.000
48.47769 370.000
48.49764 361.000
48.51758 377.000
48.53753 404.000
48.55748 404.000
48.57742 406.000
48.59737 453.000
48.61732 472.000
48.63726 548.000
48.65721 583.000
48.67716 650.000
48.69711 694.000
48.71705 676.000
48.73700 649.000
48.75695 588.000
48.77689 566.000
48.79684 580.000
48.81679 532.000
48.83673 528.000
48.85668 536.000
48.87663 479.000
48.89658 445.000
48.91652 413.000
48.93647 367.000
48.95642 385.000
48.97636 356.000
48.99631 376.000
49.01626 317.000
49.03620 350.000
49.05615 372.000
49.07610 316.000
49.09605 344.000
49.11599 296.000
49.13594 357.000
49.15589 321.000
49.17583 341.000
49.19578 321.000
49.21573 290.000
49.23567 347.000
49.25562 290.000
49.27557 303.000
49.29551 308.000
49.31546 307.000
49.33541 268.000
49.35536 291.000
49.37530 286.000
49.39525 289.000
49.41520 278.000
49.43514 287.000
49.45509 303.000
49.47504 301.000
49.49498 311.000
49.51493 311.000
49.53488 258.000
49.55483 291.000
49.57477 298.000
49.59472 301.000
49.61467 305.000
49.63461 253.000
49.65456 295.000
49.67451 279.000
49.69445 294.000
49.71440 290.000
49.73435 309.000
49.75429 295.000
49.77424 286.000
49.79419 298.000
49.81414 315.000
49.83408 259.000
49.85403 286.000
49.87398 305.000
49.89392 316.000
49.91387 310.000
49.93382 334.000
49.95376 312.000
49.97371 298.000
49.99366 294.000
50.01361 274.000
50.03355 278.000
50.05350 286.000
50.07345 322.000
50.09339 305.000
50.11334 287.000
50.13329 276.000
50.15323 288.000
50.17318 297.000
50.19313 254.000
50.21307 265.000
50.23302 289.000
50.25297 282.000
50.27292 283.000
50.29286 272.000
50.31281 265.000
50.33276 282.000
50.35270 282.000
50.37265 281.000
50.39260 256.000
50.41254 275.000
50.43249 271.000
50.45244 288.000
50.47239 295.000
50.49233 266.000
50.51228 253.000
50.53223 247.000
50.55217 269.000
50.57212 282.000
50.59207 255.000
50.61201 266.000
50.63196 277.000
50.65191 280.000
50.67186 273.000
50.69180 273.000
50.71175 277.000
50.73170 268.000
50.75164 265.000
50.77159 288.000
50.79154 248.000
50.81148 271.000
50.83143 279.000
50.85138 266.000
50.87132 248.000
50.89127 294.000
50.91122 274.000
50.93117 261.000
50.95111 274.000
50.97106 253.000
50.99101 286.000
51.01095 275.000
51.03090 286.000
51.05085 263.000
51.07079 284.000
51.09074 273.000
51.11069 270.000
51.13064 236.000
51.15058 277.000
51.17053 263.000
51.19048 276.000
51.21042 287.000
51.23037 313.000
51.25032 246.000
51.27026 293.000
51.29021 293.000
51.31016 259.000
51.33010 294.000
51.35005 271.000
51.37000 292.000
51.38995 283.000
51.40989 285.000
51.42984 296.000
51.44979 298.000
51.46973 292.000
51.48968 305.000
51.50963 297.000
51.52957 296.000
51.54952 291.000
51.56947 291.000
51.58942 269.000
51.60936 261.000
51.62931 257.000
51.64926 286.000
51.66920 271.000
51.68915 263.000
51.70910 297.000
51.72904 265.000
51.74899 273.000
51.76894 278.000
51.78888 248.000
51.80883 262.000
51.82878 277.000
51.84873 264.000
51.86867 284.000
51.88862 273.000
51.90857 289.000
51.92851 276.000
51.94846 276.000
51.96841 269.000
51.98835 285.000
52.00830 279.000
52.02825 248.000
52.04820 248.000
52.06814 293.000
52.08809 235.000
52.10804 275.000
52.12798 232.000
52.14793 254.000
52.16788 282.000
52.18782 245.000
52.20777 269.000
52.22772 291.000
52.24767 272.000
52.26761 260.000
52.28756 253.000
52.30751 296.000
52.32745 258.000
52.34740 254.000
52.36735 263.000
52.38729 281.000
52.40724 271.000
52.42719 286.000
52.44713 260.000
52.46708 280.000
52.48703 273.000
52.50698 256.000
52.52692 277.000
52.54687 248.000
52.56682 297.000
52.58676 282.000
52.60671 284.000
52.62666 287.000
52.64660 264.000
52.66655 289.000
52.68650 296.000
52.70645 261.000
52.72639 261.000
52.74634 274.000
52.76629 266.000
52.78623 268.000
52.80618 262.000
52.82613 291.000
52.84607 296.000
52.86602 316.000
52.88597 256.000
52.90591 287.000
52.92586 310.000
52.94581 293.000
52.96576 318.000
52.98570 296.000
53.00565 300.000
53.02560 281.000
53.04554 272.000
53.06549 267.000
53.08544 331.000
53.10538 304.000
53.12533 330.000
53.14528 311.000
53.16523 283.000
53.18517 293.000
53.20512 286.000
53.22507 333.000
53.24501 316.000
53.26496 311.000
53.28491 365.000
53.30485 355.000
53.32480 346.000
53.34475 344.000
53.36469 407.000
53.38464 379.000
53.40459 391.000
53.42454 399.000
53.44448 420.000
53.46443 431.000
53.48438 470.000
53.50432 403.000
53.52427 416.000
53.54422 399.000
53.56416 448.000
53.58411 405.000
53.60406 386.000
53.62401 390.000
53.64395 346.000
53.66390 377.000
53.68385 311.000
53.70379 348.000
53.72374 308.000
53.74369 312.000
53.76363 317.000
53.78358 332.000
53.80353 325.000
53.82348 322.000
53.84342 287.000
53.86337 298.000
53.88332 295.000
53.90326 290.000
53.92321 254.000
53.94316 262.000
53.96310 252.000
53.98305 265.000
54.00300 286.000
54.02294 298.000
54.04289 275.000
54.06284 256.000
54.08279 272.000
54.10273 285.000
54.12268 282.000
54.14263 271.000
54.16257 291.000
54.18252 251.000
54.20247 269.000
54.22241 288.000
54.24236 241.000
54.26231 266.000
54.28226 291.000
54.30220 248.000
54.32215 235.000
54.34210 246.000
54.36204 234.000
54.38199 265.000
54.40194 276.000
54.42188 267.000
54.44183 267.000
54.46178 278.000
54.48172 267.000
54.50167 253.000
54.52162 287.000
54.54157 266.000
54.56151 291.000
54.58146 286.000
54.60141 286.000
54.62135 263.000
54.64130 272.000
54.66125 274.000
54.68119 260.000
54.70114 279.000
54.72109 269.000
54.74104 288.000
54.76098 287.000
54.78093 263.000
54.80088 255.000
54.82082 270.000
54.84077 255.000
54.86072 274.000
54.88066 298.000
54.90061 262.000
54.92056 278.000
54.94050 253.000
54.96045 280.000
54.98040 261.000
55.00035 273.000
55.02029 292.000
55.04024 300.000
55.06019 296.000
55.08013 283.000
55.10008 312.000
55.12003 251.000
55.13997 245.000
55.15992 241.000
55.17987 278.000
55.19982 253.000
55.21976 271.000
55.23971 275.000
55.25966 272.000
55.27960 294.000
55.29955 285.000
55.31950 269.000
55.33944 286.000
55.35939 278.000
55.37934 289.000
55.39929 305.000
55.41923 280.000
55.43918 257.000
55.45913 287.000
55.47907 274.000
55.49902 270.000
55.51897 303.000
55.53891 280.000
55.55886 284.000
55.57881 252.000
55.59875 267.000
55.61870 241.000
55.63865 276.000
55.65860 254.000
55.67854 279.000
55.69849 301.000
55.71844 278.000
55.73838 291.000
55.75833 299.000
55.77828 289.000
55.79822 293.000
55.81817 275.000
55.83812 281.000
55.85807 286.000
55.87801 295.000
55.89796 281.000
55.91791 272.000
55.93785 297.000
55.95780 276.000
55.97775 281.000
55.99769 274.000
56.01764 281.000
56.03759 297.000
56.05753 262.000
56.07748 251.000
56.09743 275.000
56.11738 309.000
56.13732 297.000
56.15727 277.000
56.17722 289.000
56.19716 286.000
56.21711 309.000
56.23706 253.000
56.25700 278.000
56.27695 261.000
56.29690 269.000
56.31685 279.000
56.33679 267.000
56.35674 286.000
56.37669 268.000
56.39663 257.000
56.41658 283.000
56.43653 283.000
56.45647 280.000
56.47642 275.000
56.49637 254.000
56.51631 293.000
56.53626 295.000
56.55621 294.000
56.57616 299.000
56.59610 296.000
56.61605 323.000
56.63600 318.000
56.65594 314.000
56.67589 305.000
56.69584 325.000
56.71578 298.000
56.73573 364.000
56.75568 298.000
56.77563 351.000
56.79557 349.000
56.81552 341.000
56.83547 404.000
56.85541 412.000
56.87536 428.000
56.89531 474.000
56.91525 485.000
56.93520 451.000
56.95515 451.000
56.97510 409.000
56.99504 411.000
57.01499 388.000
57.03494 432.000
57.05488 397.000
57.07483 399.000
57.09478 397.000
57.11472 361.000
57.13467 331.000
57.15462 342.000
57.17456 321.000
57.19451 294.000
57.21446 312.000
57.23441 302.000
57.25435 268.000
57.27430 254.000
57.29425 278.000
57.31419 250.000
57.33414 304.000
57.35409 299.000
57.37403 255.000
57.39398 258.000
57.41393 272.000
57.43388 301.000
57.45382 308.000
57.47377 273.000
57.49372 296.000
57.51366 265.000
57.53361 282.000
57.55356 275.000
57.57350 256.000
57.59345 270.000
57.61340 308.000
57.63334 286.000
57.65329 263.000
57.67324 296.000
57.69319 306.000
57.71313 283.000
57.73308 275.000
57.75303 322.000
57.77297 302.000
57.79292 293.000
57.81287 276.000
57.83281 256.000
57.85276 297.000
57.87271 265.000
57.89266 277.000
57.91260 296.000
57.93255 312.000
57.95250 326.000
57.97244 280.000
57.99239 306.000
58.01234 281.000
58.03228 308.000
58.05223 342.000
58.07218 317.000
58.09212 300.000
58.11207 298.000
58.13202 341.000
58.15197 329.000
58.17191 349.000
58.19186 323.000
58.21181 402.000
58.23175 387.000
58.25170 423.000
58.27165 430.000
58.29159 469.000
58.31154 447.000
58.33149 511.000
58.35144 392.000
58.37138 387.000
58.39133 464.000
58.41128 403.000
58.43122 401.000
58.45117 424.000
58.47112 357.000
58.49106 379.000
58.51101 354.000
58.53096 331.000
58.55090 339.000
58.57085 282.000
58.59080 303.000
58.61075 273.000
58.63069 309.000
58.65064 267.000
58.67059 284.000
58.69053 301.000
58.71048 281.000
58.73043 295.000
58.75037 295.000
58.77032 269.000
58.79027 275.000
58.81022 281.000
58.83016 273.000
58.85011 284.000
58.87006 293.000
58.89000 266.000
58.90995 279.000
58.92990 277.000
58.94984 272.000
58.96979 271.000
58.98974 295.000
59.00969 257.000
59.02963 251.000
59.04958 259.000
59.06953 260.000
59.08947 276.000
59.10942 258.000
59.12937 275.000
59.14931 269.000
59.16926 294.000
59.18921 280.000
59.20915 269.000
59.22910 245.000
59.24905 286.000
59.26900 265.000
59.28894 269.000
59.30889 270.000
59.32884 251.000
59.34878 251.000
59.36873 267.000
59.38868 271.000
59.40862 228.000
59.42857 281.000
59.44852 270.000
59.46847 273.000
59.48841 293.000
59.50836 315.000
59.52831 275.000
59.54825 285.000
59.56820 260.000
59.58815 277.000
59.60809 266.000
59.62804 268.000
59.64799 296.000
59.66793 269.000
59.68788 266.000
59.70783 271.000
59.72778 253.000
59.74772 275.000
59.76767 293.000
59.78762 272.000
59.80756 292.000
59.82751 283.000
59.84746 298.000
59.86740 306.000
59.88735 288.000
59.90730 266.000
59.92725 313.000
59.94719 305.000
59.96714 300.000
59.98709 313.000
60.00703 302.000
60.02698 304.000
60.04693 303.000
60.06687 286.000
60.08682 322.000
60.10677 301.000
60.12671 295.000
60.14666 318.000
60.16661 276.000
60.18656 291.000
60.20650 311.000
60.22645 301.000
60.24640 341.000
60.26634 345.000
60.28629 323.000
60.30624 337.000
60.32618 329.000
60.34613 364.000
60.36608 336.000
60.38603 370.000
60.40597 382.000
60.42592 333.000
60.44587 373.000
60.46581 338.000
60.48576 370.000
60.50571 410.000
60.52565 396.000
60.54560 427.000
60.56555 372.000
60.58550 389.000
60.60544 385.000
60.62539 410.000
60.64534 381.000
60.66528 373.000
60.68523 408.000
60.70518 428.000
60.72512 374.000
60.74507 393.000
60.76502 406.000
60.78496 382.000
60.80491 397.000
60.82486 390.000
60.84481 418.000
60.86475 393.000
60.88470 402.000
60.90465 382.000
60.92459 352.000
60.94454 351.000
60.96449 384.000
60.98443 354.000
61.00438 377.000
61.02433 409.000
61.04428 345.000
61.06422 359.000
61.08417 364.000
61.10412 389.000
61.12406 354.000
61.14401 382.000
61.16396 365.000
61.18390 403.000
61.20385 413.000
61.22380 366.000
61.24374 355.000
61.26369 373.000
61.28364 388.000
61.30359 384.000
61.32353 390.000
61.34348 395.000
61.36343 426.000
61.38337 434.000
61.40332 417.000
61.42327 435.000
61.44321 469.000
61.46316 477.000
61.48311 552.000
61.50306 586.000
61.52300 650.000
61.54295 631.000
61.56290 590.000
61.58284 622.000
61.60279 521.000
61.62274 531.000
61.64268 538.000
61.66263 482.000
61.68258 476.000
61.70252 528.000
61.72247 476.000
61.74242 425.000
61.76237 452.000
61.78231 412.000
61.80226 402.000
61.82221 334.000
61.84215 338.000
61.86210 374.000
61.88205 319.000
61.90199 353.000
61.92194 324.000
61.94189 327.000
61.96184 340.000
61.98178 319.000
62.00173 321.000
62.02168 285.000
62.04162 292.000
62.06157 338.000
62.08152 343.000
62.10146 307.000
62.12141 292.000
62.14136 314.000
62.16131 298.000
62.18125 324.000
62.20120 317.000
62.22115 341.000
62.24109 331.000
62.26104 335.000
62.28099 342.000
62.30093 347.000
62.32088 361.000
62.34083 353.000
62.36077 342.000
62.38072 374.000
62.40067 393.000
62.42062 433.000
62.44056 417.000
62.46051 465.000
62.48046 448.000
62.50040 447.000
62.52035 467.000
62.54030 419.000
62.56024 413.000
62.58019 425.000
62.60014 406.000
62.62009 425.000
62.64003 410.000
62.65998 371.000
62.67993 330.000
62.69987 402.000
62.71982 358.000
62.73977 376.000
62.75971 356.000
62.77966 325.000
62.79961 333.000
62.81955 313.000
62.83950 367.000
62.85945 349.000
62.87940 355.000
62.89934 338.000
62.91929 320.000
62.93924 344.000
62.95918 318.000
62.97913 324.000
62.99908 289.000
63.01902 338.000
63.03897 303.000
63.05892 310.000
63.07887 307.000
63.09881 278.000
63.11876 290.000
63.13871 304.000
63.15865 304.000
63.17860 276.000
63.19855 253.000
63.21849 285.000
63.23844 238.000
63.25839 288.000
63.27833 278.000
63.29828 259.000
63.31823 305.000
63.33818 259.000
63.35812 287.000
63.37807 284.000
63.39802 272.000
63.41796 264.000
63.43791 267.000
63.45786 264.000
63.47780 278.000
63.49775 271.000
63.51770 261.000
63.53765 260.000
63.55759 274.000
63.57754 257.000
63.59749 297.000
63.61743 273.000
63.63738 259.000
63.65733 296.000
63.67727 252.000
63.69722 303.000
63.71717 285.000
63.73712 269.000
63.75706 282.000
63.77701 291.000
63.79696 260.000
63.81690 266.000
63.83685 261.000
63.85680 307.000
63.87674 253.000
63.89669 277.000
63.91664 310.000
63.93658 296.000
63.95653 280.000
63.97648 291.000
63.99643 233.000
64.01637 282.000
64.03632 276.000
64.05627 251.000
64.07621 276.000
64.09616 289.000
64.11611 268.000
64.13605 267.000
64.15600 255.000
64.17595 237.000
64.19590 271.000
64.21584 253.000
64.23579 247.000
64.25574 249.000
64.27568 307.000
64.29563 273.000
64.31558 279.000
64.33552 297.000
64.35547 253.000
64.37542 271.000
64.39536 274.000
64.41531 270.000
64.43526 267.000
64.45521 277.000
64.47515 297.000
64.49510 280.000
64.51505 271.000
64.53499 274.000
64.55494 273.000
64.57489 294.000
64.59483 283.000
64.61478 287.000
64.63473 300.000
64.65468 300.000
64.67462 312.000
64.69457 263.000
64.71452 283.000
64.73446 282.000
64.75441 289.000
64.77436 280.000
64.79430 309.000
64.81425 299.000
64.83420 311.000
64.85414 281.000
64.87409 282.000
64.89404 289.000
64.91399 302.000
64.93393 271.000
64.95388 299.000
64.97383 275.000
64.99377 269.000
65.01372 292.000
65.03367 285.000
65.05361 273.000
65.07356 267.000
65.09351 275.000
65.11346 257.000
65.13340 280.000
65.15335 316.000
65.17330 274.000
65.19324 281.000
65.21319 290.000
65.23314 283.000
65.25308 289.000
65.27303 271.000
65.29298 279.000
65.31293 257.000
65.33287 285.000
65.35282 280.000
65.37277 290.000
65.39271 300.000
65.41266 302.000
65.43261 246.000
65.45255 269.000
65.47250 330.000
65.49245 338.000
65.51239 328.000
65.53234 290.000
65.55229 306.000
65.57224 288.000
65.59218 303.000
65.61213 296.000
65.63208 320.000
65.65202 329.000
65.67197 336.000
65.69192 347.000
65.71186 358.000
65.73181 382.000
65.75176 348.000
65.77171 349.000
65.79165 406.000
65.81160 389.000
65.83155 415.000
65.85149 394.000
65.87144 395.000
65.89139 369.000
65.91133 377.000
65.93128 376.000
65.95123 369.000
65.97117 415.000
65.99112 389.000
66.01107 394.000
66.03102 423.000
66.05096 396.000
66.07091 389.000
66.09086 416.000
66.11080 413.000
66.13075 430.000
66.15070 406.000
66.17064 454.000
66.19059 526.000
66.21054 514.000
66.23049 499.000
66.25043 461.000
66.27038 445.000
66.29033 471.000
66.31027 378.000
66.33022 417.000
66.35017 393.000
66.37011 398.000
66.39006 398.000
66.41001 396.000
66.42995 381.000
66.44990 400.000
66.46985 322.000
66.48980 354.000
66.50974 336.000
66.52969 290.000
66.54964 294.000
66.56958 329.000
66.58953 305.000
66.60948 268.000
66.62942 278.000
66.64937 279.000
66.66932 294.000
66.68927 291.000
66.70921 279.000
66.72916 270.000
66.74911 305.000
66.76905 283.000
66.78900 288.000
66.80895 249.000
66.82889 277.000
66.84884 296.000
66.86879 299.000
66.88874 285.000
66.90868 284.000
66.92863 232.000
66.94858 273.000
66.96852 264.000
66.98847 274.000
67.00842 261.000
67.02836 302.000
67.04831 282.000
67.06826 290.000
67.08820 273.000
67.10815 248.000
67.12810 260.000
67.14805 272.000
67.16799 293.000
67.18794 272.000
67.20789 263.000
67.22783 290.000
67.24778 276.000
67.26773 257.000
67.28767 233.000
67.30762 265.000
67.32757 252.000
67.34752 266.000
67.36746 264.000
67.38741 273.000
67.40736 263.000
67.42730 309.000
67.44725 279.000
67.46720 293.000
67.48714 239.000
67.50709 318.000
67.52704 293.000
67.54698 307.000
67.56693 305.000
67.58688 270.000
67.60683 285.000
67.62677 306.000
67.64672 286.000
67.66667 297.000
67.68661 317.000
67.70656 292.000
67.72651 278.000
67.74645 326.000
67.76640 280.000
67.78635 328.000
67.80630 316.000
67.82624 296.000
67.84619 335.000
67.86614 324.000
67.88608 364.000
67.90603 358.000
67.92598 357.000
67.94592 359.000
67.96587 366.000
67.98582 382.000
68.00576 418.000
68.02571 436.000
68.04566 393.000
68.06561 447.000
68.08555 440.000
68.10550 464.000
68.12545 445.000
68.14539 494.000
68.16534 434.000
68.18529 404.000
68.20523 412.000
68.22518 418.000
68.24513 390.000
68.26508 381.000
68.28502 373.000
68.30497 336.000
68.32492 365.000
68.34486 361.000
68.36481 357.000
68.38476 290.000
68.40470 303.000
68.42465 311.000
68.44460 323.000
68.46455 281.000
68.48449 279.000
68.50444 285.000
68.52439 285.000
68.54433 292.000
68.56428 289.000
68.58423 292.000
68.60417 272.000
68.62412 257.000
68.64407 243.000
68.66401 250.000
68.68396 265.000
68.70391 262.000
68.72386 242.000
68.74380 279.000
68.76375 250.000
68.78370 270.000
68.80364 286.000
68.82359 269.000
68.84354 277.000
68.86348 280.000
68.88343 265.000
68.90338 282.000
68.92333 252.000
68.94327 279.000
68.96322 280.000
68.98317 242.000
69.00311 250.000
69.02306 244.000
69.04301 261.000
69.06295 286.000
69.08290 264.000
69.10285 246.000
69.12279 275.000
69.14274 247.000
69.16269 260.000
69.18264 285.000
69.20258 257.000
69.22253 260.000
69.24248 255.000
69.26242 251.000
69.28237 272.000
69.30232 244.000
69.32226 233.000
69.34221 257.000
69.36216 230.000
69.38211 232.000
69.40205 257.000
69.42200 254.000
69.44195 266.000
69.46189 262.000
69.48184 247.000
69.50179 253.000
69.52173 274.000
69.54168 230.000
69.56163 286.000
69.58157 274.000
69.60152 268.000
69.62147 237.000
69.64142 257.000
69.66136 261.000
69.68131 251.000
69.70126 255.000
69.72120 265.000
69.74115 306.000
69.76110 284.000
69.78104 276.000
69.80099 237.000
69.82094 225.000
69.84089 237.000
69.86083 263.000
69.88078 249.000
69.90073 226.000
69.92067 283.000
69.94062 264.000
69.96057 261.000
69.98051 274.000
70.00046 246.000
70.02041 257.000
70.04035 256.000
70.06030 284.000
70.08025 272.000
70.10020 254.000
70.12014 259.000
70.14009 275.000
70.16004 275.000
70.17998 260.000
70.19993 215.000
70.21988 268.000
70.23982 248.000
70.25977 257.000
70.27972 240.000
70.29967 234.000
70.31961 259.000
70.33956 250.000
70.35951 276.000
70.37945 253.000
70.39940 240.000
70.41935 272.000
70.43929 290.000
70.45924 266.000
70.47919 250.000
70.49914 275.000
70.51908 256.000
70.53903 262.000
70.55898 266.000
70.57892 248.000
70.59887 256.000
70.61882 260.000
70.63876 261.000
70.65871 282.000
70.67866 266.000
70.69860 274.000
70.71855 277.000
70.73850 253.000
70.75845 301.000
70.77839 282.000
70.79834 266.000
70.81829 245.000
70.83823 280.000
70.85818 284.000
70.87813 257.000
70.89807 269.000
70.91802 294.000
70.93797 271.000
70.95792 290.000
70.97786 282.000
70.99781 308.000
71.01776 276.000
71.03770 277.000
71.05765 286.000
71.07760 257.000
71.09754 279.000
71.11749 259.000
71.13744 294.000
71.15738 255.000
71.17733 261.000
71.19728 279.000
71.21723 307.000
71.23717 257.000
71.25712 284.000
71.27707 279.000
71.29701 259.000
71.31696 291.000
71.33691 273.000
71.35685 288.000
71.37680 293.000
71.39675 265.000
71.41670 281.000
71.43664 260.000
71.45659 280.000
71.47654 281.000
71.49648 262.000
71.51643 311.000
71.53638 252.000
71.55632 264.000
71.57627 258.000
71.59622 301.000
71.61616 287.000
71.63611 264.000
71.65606 282.000
71.67601 280.000
71.69595 265.000
71.71590 303.000
71.73585 296.000
71.75579 262.000
71.77574 289.000
71.79569 249.000
71.81563 306.000
71.83558 264.000
71.85553 280.000
71.87548 271.000
71.89542 312.000
71.91537 280.000
71.93532 299.000
71.95526 244.000
71.97521 290.000
71.99516 293.000
72.01510 278.000
72.03505 262.000
72.05500 268.000
72.07495 261.000
72.09489 269.000
72.11484 287.000
72.13479 304.000
72.15473 311.000
72.17468 289.000
72.19463 296.000
72.21457 261.000
72.23452 285.000
72.25447 298.000
72.27441 307.000
72.29436 268.000
72.31431 302.000
72.33426 314.000
72.35420 343.000
72.37415 371.000
72.39410 347.000
72.41404 368.000
72.43399 351.000
72.45394 356.000
72.47388 327.000
72.49383 349.000
72.51378 360.000
72.53373 317.000
72.55367 301.000
72.57362 337.000
72.59357 278.000
72.61351 334.000
72.63346 322.000
72.65341 276.000
72.67335 310.000
72.69330 299.000
72.71325 293.000
72.73319 287.000
72.75314 277.000
72.77309 247.000
72.79304 243.000
72.81298 229.000
72.83293 280.000
72.85288 281.000
72.87282 252.000
72.89277 219.000
72.91272 267.000
72.93266 291.000
72.95261 285.000
72.97256 273.000
72.99251 288.000
73.01245 275.000
73.03240 258.000
73.05235 226.000
73.07229 285.000
73.09224 225.000
73.11219 232.000
73.13213 268.000
73.15208 244.000
73.17203 287.000
73.19197 247.000
73.21192 275.000
73.23187 226.000
73.25182 281.000
73.27176 280.000
73.29171 241.000
73.31166 245.000
73.33160 258.000
73.35155 296.000
73.37150 240.000
73.39144 275.000
73.41139 255.000
73.43134 231.000
73.45129 254.000
73.47123 289.000
73.49118 269.000
73.51113 280.000
73.53107 247.000
73.55102 265.000
73.57097 253.000
73.59091 269.000
73.61086 282.000
73.63081 259.000
73.65076 275.000
73.67070 283.000
73.69065 275.000
73.71060 283.000
73.73054 267.000
73.75049 246.000
73.77044 272.000
73.79038 281.000
73.81033 292.000
73.83028 284.000
73.85022 275.000
73.87017 271.000
73.89012 298.000
73.91007 288.000
73.93001 291.000
73.94996 289.000
73.96991 267.000
73.98985 273.000
74.00980 267.000
74.02975 303.000
74.04969 292.000
74.06964 284.000
74.08959 273.000
74.10954 279.000
74.12948 285.000
74.14943 304.000
74.16938 270.000
74.18932 276.000
74.20927 286.000
74.22922 262.000
74.24916 248.000
74.26911 279.000
74.28906 262.000
74.30900 240.000
74.32895 269.000
74.34890 277.000
74.36885 274.000
74.38879 206.000
74.40874 285.000
74.42869 261.000
74.44863 268.000
74.46858 249.000
74.48853 244.000
74.50847 259.000
74.52842 273.000
74.54837 275.000
74.56832 247.000
74.58826 252.000
74.60821 301.000
74.62816 294.000
74.64810 260.000
74.66805 273.000
74.68800 279.000
74.70794 285.000
74.72789 289.000
74.74784 298.000
74.76778 280.000
74.78773 254.000
74.80768 286.000
74.82763 323.000
74.84757 283.000
74.86752 277.000
74.88747 296.000
74.90741 296.000
74.92736 328.000
74.94731 332.000
74.96725 361.000
74.98720 398.000
75.00715 350.000
75.02710 377.000
75.04704 360.000
75.06699 363.000
75.08694 332.000
75.10688 351.000
75.12683 339.000
75.14678 352.000
75.16672 335.000
75.18667 345.000
75.20662 360.000
75.22657 342.000
75.24651 371.000
75.26646 386.000
75.28641 377.000
75.30635 335.000
75.32630 367.000
75.34625 402.000
75.36619 329.000
75.38614 297.000
75.40609 347.000
75.42603 345.000
75.44598 325.000
75.46593 336.000
75.48588 311.000
75.50582 316.000
75.52577 308.000
75.54572 269.000
75.56566 305.000
75.58561 269.000
75.60556 282.000
75.62550 285.000
75.64545 282.000
75.66540 282.000
75.68535 258.000
75.70529 254.000
75.72524 273.000
75.74519 260.000
75.76513 245.000
75.78508 275.000
75.80503 270.000
75.82497 280.000
75.84492 227.000
75.86487 269.000
75.88481 269.000
75.90476 259.000
75.92471 243.000
75.94466 231.000
75.96460 296.000
75.98455 273.000
76.00450 251.000
76.02444 244.000
76.04439 234.000
76.06434 248.000
76.08428 255.000
76.10423 233.000
76.12418 252.000
76.14413 270.000
76.16407 255.000
76.18402 237.000
76.20397 249.000
76.22391 270.000
76.24386 245.000
76.26381 278.000
76.28375 254.000
76.30370 256.000
76.32365 276.000
76.34359 258.000
76.36354 250.000
76.38349 237.000
76.40344 245.000
76.42338 267.000
76.44333 274.000
76.46328 250.000
76.48322 229.000
76.50317 269.000
76.52312 257.000
76.54306 249.000
76.56301 253.000
76.58296 246.000
76.60291 275.000
76.62285 282.000
76.64280 237.000
76.66275 270.000
76.68269 248.000
76.70264 244.000
76.72259 269.000
76.74253 264.000
76.76248 236.000
76.78243 268.000
76.80238 256.000
76.82232 259.000
76.84227 268.000
76.86222 264.000
76.88216 234.000
76.90211 239.000
76.92206 256.000
76.94200 278.000
76.96195 228.000
76.98190 249.000
77.00184 268.000
77.02179 239.000
77.04174 248.000
77.06169 257.000
77.08163 259.000
77.10158 251.000
77.12153 245.000
77.14147 254.000
77.16142 248.000
77.18137 244.000
77.20131 280.000
77.22126 275.000
77.24121 250.000
77.26116 268.000
77.28110 223.000
77.30105 258.000
77.32100 244.000
77.34094 279.000
77.36089 241.000
77.38084 236.000
77.40078 248.000
77.42073 272.000
77.44068 272.000
77.46062 241.000
77.48057 249.000
77.50052 252.000
77.52047 207.000
77.54041 258.000
77.56036 243.000
77.58031 260.000
77.60025 274.000
77.62020 282.000
77.64015 276.000
77.66009 223.000
77.68004 262.000
77.69999 227.000
77.71994 276.000
77.73988 263.000
77.75983 247.000
77.77978 241.000
77.79972 244.000
77.81967 246.000
77.83962 248.000
77.85956 237.000
77.87951 223.000
77.89946 245.000
77.91940 249.000
77.93935 278.000
77.95930 230.000
77.97925 228.000
77.99919 276.000
78.01914 247.000
78.03909 274.000
78.05903 259.000
78.07898 263.000
78.09893 256.000
78.11887 250.000
78.13882 247.000
78.15877 258.000
78.17872 269.000
78.19866 246.000
78.21861 265.000
78.23856 237.000
78.25850 247.000
78.27845 250.000
78.29840 230.000
78.31834 253.000
78.33829 228.000
78.35824 258.000
78.37819 254.000
78.39813 233.000
78.41808 284.000
78.43803 272.000
78.45797 253.000
78.47792 263.000
78.49787 233.000
78.51781 290.000
78.53776 262.000
78.55771 246.000
78.57765 277.000
78.59760 242.000
78.61755 253.000
78.63750 254.000
78.65744 240.000
78.67739 230.000
78.69734 270.000
78.71728 246.000
78.73723 265.000
78.75718 235.000
78.77712 252.000
78.79707 254.000
78.81702 239.000
78.83697 241.000
78.85691 256.000
78.87686 257.000
78.89681 244.000
78.91675 231.000
78.93670 256.000
78.95665 263.000
78.97659 271.000
78.99654 252.000
79.01649 258.000
79.03643 282.000
79.05638 248.000
79.07633 254.000
79.09628 267.000
79.11622 268.000
79.13617 295.000
79.15612 266.000
79.17606 240.000
79.19601 271.000
79.21596 245.000
79.23590 291.000
79.25585 244.000
79.27580 248.000
79.29575 253.000
79.31569 256.000
79.33564 257.000
79.35559 257.000
79.37553 261.000
79.39548 229.000
79.41543 268.000
79.43537 248.000
79.45532 246.000
79.47527 252.000
79.49521 261.000
79.51516 261.000
79.53511 258.000
79.55506 256.000
79.57500 276.000
79.59495 277.000
79.61490 246.000
79.63484 233.000
79.65479 243.000
79.67474 278.000
79.69468 240.000
79.71463 227.000
79.73458 267.000
79.75453 295.000
79.77447 253.000
79.79442 297.000
79.81437 272.000
79.83431 271.000
79.85426 265.000
79.87421 274.000
79.89415 241.000
79.91410 276.000
79.93405 245.000
79.95399 238.000
79.97394 276.000
79.99389 250.000
80.01384 259.000
80.03378 265.000
80.05373 247.000
80.07368 269.000
80.09362 281.000
80.11357 255.000
80.13352 245.000
80.15346 252.000
80.17341 299.000
80.19336 254.000
80.21331 250.000
80.23325 248.000
80.25320 279.000
80.27315 269.000
80.29309 259.000
80.31304 254.000
80.33299 286.000
80.35293 245.000
80.37288 271.000
80.39283 283.000
80.41278 273.000
80.43272 249.000
80.45267 266.000
80.47262 251.000
80.49256 248.000
80.51251 256.000
80.53246 275.000
80.55240 275.000
80.57235 254.000
80.59230 238.000
80.61224 263.000
80.63219 260.000
80.65214 239.000
80.67209 254.000
80.69203 235.000
80.71198 254.000
80.73193 273.000
80.75187 269.000
80.77182 259.000
80.79177 277.000
80.81171 252.000
80.83166 258.000
80.85161 256.000
80.87156 269.000
80.89150 265.000
80.91145 232.000
80.93140 253.000
80.95134 283.000
80.97129 292.000
80.99124 292.000
81.01118 221.000
81.03113 268.000
81.05108 266.000
81.07102 249.000
81.09097 268.000
81.11092 285.000
81.13087 290.000
81.15081 275.000
81.17076 256.000
81.19071 271.000
81.21065 250.000
81.23060 284.000
81.25055 254.000
81.27049 306.000
81.29044 250.000
81.31039 260.000
81.33034 250.000
81.35028 263.000
81.37023 248.000
81.39018 273.000
81.41012 257.000
81.43007 253.000
81.45002 263.000
81.46996 252.000
81.48991 276.000
81.50986 241.000
81.52980 292.000
81.54975 256.000
81.56970 301.000
81.58965 279.000
81.60959 298.000
81.62954 273.000
81.64949 292.000
81.66943 293.000
81.68938 237.000
81.70933 266.000
81.72927 283.000
81.74922 254.000
81.76917 288.000
81.78912 257.000
81.80906 277.000
81.82901 238.000
81.84896 269.000
81.86890 278.000
81.88885 286.000
81.90880 283.000
81.92874 253.000
81.94869 259.000
81.96864 278.000
81.98859 296.000
82.00853 258.000
82.02848 272.000
82.04843 261.000
82.06837 269.000
82.08832 264.000
82.10827 289.000
82.12821 270.000
82.14816 286.000
82.16811 316.000
82.18805 278.000
82.20800 289.000
82.22795 305.000
82.24790 307.000
82.26784 284.000
82.28779 274.000
82.30774 313.000
82.32768 310.000
82.34763 309.000
82.36758 290.000
82.38752 313.000
82.40747 294.000
82.42742 327.000
82.44737 289.000
82.46731 270.000
82.48726 277.000
82.50721 275.000
82.52715 255.000
82.54710 266.000
82.56705 309.000
82.58699 281.000
82.60694 293.000
82.62689 283.000
82.64683 297.000
82.66678 296.000
82.68673 275.000
82.70668 279.000
82.72662 246.000
82.74657 275.000
82.76652 260.000
82.78646 269.000
82.80641 256.000
82.82636 236.000
82.84630 277.000
82.86625 274.000
82.88620 284.000
82.90615 238.000
82.92609 271.000
82.94604 313.000
82.96599 268.000
82.98593 263.000
83.00588 279.000
83.02583 309.000
83.04577 282.000
83.06572 277.000
83.08567 316.000
83.10561 308.000
83.12556 270.000
83.14551 315.000
83.16546 279.000
83.18540 285.000
83.20535 297.000
83.22530 297.000
83.24524 286.000
83.26519 247.000
83.28514 272.000
83.30508 284.000
83.32503 275.000
83.34498 281.000
83.36493 314.000
83.38487 270.000
83.40482 308.000
83.42477 290.000
83.44471 302.000
83.46466 295.000
83.48461 279.000
83.50455 287.000
83.52450 298.000
83.54445 274.000
83.56440 278.000
83.58434 313.000
83.60429 304.000
83.62424 298.000
83.64418 295.000
83.66413 288.000
83.68408 294.000
83.70402 259.000
83.72397 321.000
83.74392 311.000
83.76386 260.000
83.78381 263.000
83.80376 295.000
83.82371 286.000
83.84365 266.000
83.86360 272.000
83.88355 278.000
83.90349 268.000
83.92344 264.000
83.94339 260.000
83.96333 274.000
83.98328 233.000
84.00323 273.000
84.02318 262.000
84.04312 263.000
84.06307 249.000
84.08302 266.000
84.10296 263.000
84.12291 255.000
84.14286 240.000
84.16280 271.000
84.18275 252.000
84.20270 294.000
84.22264 276.000
84.24259 222.000
84.26254 253.000
84.28249 234.000
84.30243 271.000
84.32238 249.000
84.34233 220.000
84.36227 246.000
84.38222 237.000
84.40217 248.000
84.42211 254.000
84.44206 267.000
84.46201 254.000
84.48196 251.000
84.50190 235.000
84.52185 237.000
84.54180 273.000
84.56174 227.000
84.58169 259.000
84.60164 253.000
84.62158 242.000
84.64153 255.000
84.66148 254.000
84.68142 257.000
84.70137 228.000
84.72132 242.000
84.74127 252.000
84.76121 233.000
84.78116 263.000
84.80111 246.000
84.82105 250.000
84.84100 246.000
84.86095 241.000
84.88089 250.000
84.90084 254.000
84.92079 270.000
84.94074 230.000
84.96068 220.000
84.98063 277.000
85.00058 229.000
85.02052 244.000
85.04047 267.000
85.06042 262.000
85.08036 239.000
85.10031 240.000
85.12026 236.000
85.14021 268.000
85.16015 246.000
85.18010 264.000
85.20005 251.000
85.21999 238.000
85.23994 266.000
85.25989 211.000
85.27983 264.000
85.29978 242.000
85.31973 271.000
85.33967 254.000
85.35962 234.000
85.37957 251.000
85.39952 258.000
85.41946 243.000
85.43941 243.000
85.45936 257.000
85.47930 261.000
85.49925 268.000
85.51920 227.000
85.53914 249.000
85.55909 231.000
85.57904 232.000
85.59899 256.000
85.61893 254.000
85.63888 254.000
85.65883 257.000
85.67877 235.000
85.69872 261.000
85.71867 244.000
85.73861 252.000
85.75856 288.000
85.77851 242.000
85.79845 264.000
85.81840 228.000
85.83835 248.000
85.85830 261.000
85.87824 239.000
85.89819 234.000
85.91814 235.000
85.93808 252.000
85.95803 269.000
85.97798 265.000
85.99792 268.000
86.01787 248.000
86.03782 242.000
86.05777 263.000
86.07771 275.000
86.09766 264.000
86.11761 245.000
86.13755 270.000
86.15750 236.000
86.17745 263.000
86.19739 248.000
86.21734 242.000
86.23729 240.000
86.25723 266.000
86.27718 246.000
86.29713 263.000
86.31708 289.000
86.33702 270.000
86.35697 276.000
86.37692 277.000
86.39686 243.000
86.41681 258.000
86.43676 284.000
86.45670 276.000
86.47665 261.000
86.49660 256.000
86.51655 251.000
86.53649 288.000
86.55644 274.000
86.57639 260.000
86.59633 273.000
86.61628 267.000
86.63623 264.000
86.65617 279.000
86.67612 267.000
86.69607 254.000
86.71602 281.000
86.73596 279.000
86.75591 238.000
86.77586 278.000
86.79580 260.000
86.81575 269.000
86.83570 276.000
86.85564 311.000
86.87559 281.000
86.89554 287.000
86.91548 259.000
86.93543 241.000
86.95538 258.000
86.97533 274.000
86.99527 245.000
87.01522 278.000
87.03517 254.000
87.05511 250.000
87.07506 239.000
87.09501 275.000
87.11495 240.000
87.13490 247.000
87.15485 255.000
87.17480 238.000
87.19474 244.000
87.21469 240.000
87.23464 258.000
87.25458 240.000
87.27453 260.000
87.29448 247.000
87.31442 243.000
87.33437 258.000
87.35432 237.000
87.37426 246.000
87.39421 266.000
87.41416 262.000
87.43411 237.000
87.45405 272.000
87.47400 254.000
87.49395 234.000
87.51389 233.000
87.53384 231.000
87.55379 257.000
87.57373 252.000
87.59368 270.000
87.61363 238.000
87.63358 255.000
87.65352 236.000
87.67347 264.000
87.69342 227.000
87.71336 254.000
87.73331 240.000
87.75326 241.000
87.77320 261.000
87.79315 236.000
87.81310 284.000
87.83304 296.000
87.85299 249.000
87.87294 246.000
87.89289 237.000
87.91283 242.000
87.93278 240.000
87.95273 250.000
87.97267 261.000
87.99262 268.000
88.01257 257.000
88.03251 265.000
88.05246 243.000
88.07241 224.000
88.09236 252.000
88.11230 243.000
88.13225 264.000
88.15220 239.000
88.17214 268.000
88.19209 279.000
88.21204 247.000
88.23198 243.000
88.25193 252.000
88.27188 257.000
88.29183 235.000
88.31177 248.000
88.33172 246.000
88.35167 233.000
88.37161 230.000
88.39156 255.000
88.41151 261.000
88.43145 252.000
88.45140 262.000
88.47135 263.000
88.49129 265.000
88.51124 269.000
88.53119 257.000
88.55114 259.000
88.57108 267.000
88.59103 258.000
88.61098 271.000
88.63092 261.000
88.65087 278.000
88.67082 240.000
88.69076 244.000
88.71071 269.000
88.73066 227.000
88.75061 256.000
88.77055 263.000
88.79050 238.000
88.81045 257.000
88.83039 267.000
88.85034 245.000
88.87029 261.000
88.89023 261.000
88.91018 262.000
88.93013 259.000
88.95007 258.000
88.97002 251.000
88.98997 262.000
89.00992 254.000
89.02986 244.000
89.04981 244.000
89.06976 273.000
89.08970 272.000
89.10965 229.000
89.12960 261.000
89.14954 256.000
89.16949 284.000
89.18944 249.000
89.20939 293.000
89.22933 257.000
89.24928 255.000
89.26923 267.000
89.28917 265.000
89.30912 300.000
89.32907 279.000
89.34901 287.000
89.36896 285.000
89.38891 287.000
89.40885 293.000
89.42880 260.000
89.44875 317.000
89.46870 298.000
89.48864 273.000
89.50859 333.000
89.52854 344.000
89.54848 320.000
89.56843 318.000
89.58838 299.000
89.60832 333.000
89.62827 303.000
89.64822 319.000
89.66817 318.000
89.68811 328.000
89.70806 294.000
89.72801 295.000
89.74795 350.000
89.76790 284.000
89.78785 324.000
89.80779 302.000
89.82774 279.000
89.84769 332.000
89.86764 317.000
89.88758 315.000
89.90753 302.000
89.92748 309.000
89.94742 315.000
89.96737 311.000
89.98732 323.000
90.00726 304.000
