10.00000 99.000
10.01995 88.000
10.03989 103.000
10.05984 88.000
10.07979 92.000
10.09973 92.000
10.11968 83.000
10.13963 92.000
10.15958 81.000
10.17952 73.000
10.19947 107.000
10.21942 102.000
10.23936 98.000
10.25931 99.000
10.27926 88.000
10.29920 102.000
10.31915 84.000
10.33910 93.000
10.35905 76.000
10.37899 103.000
10.39894 86.000
10.41889 81.000
10.43883 105.000
10.45878 85.000
10.47873 78.000
10.49867 75.000
10.51862 87.000
10.53857 105.000
10.55851 93.000
10.57846 86.000
10.59841 98.000
10.61836 92.000
10.63830 93.000
10.65825 91.000
10.67820 87.000
10.69814 95.000
10.71809 104.000
10.73804 90.000
10.75798 92.000
10.77793 88.000
10.79788 75.000
10.81783 93.000
10.83777 91.000
10.85772 108.000
10.87767 80.000
10.89761 82.000
10.91756 103.000
10.93751 97.000
10.95745 94.000
10.97740 106.000
10.99735 75.000
11.01730 89.000
11.03724 96.000
11.05719 111.000
11.07714 99.000
11.09708 106.000
11.11703 100.000
11.13698 76.000
11.15692 94.000
11.17687 90.000
11.19682 85.000
11.21676 96.000
11.23671 106.000
11.25666 89.000
11.27661 93.000
11.29655 84.000
11.31650 103.000
11.33645 113.000
11.35639 108.000
11.37634 87.000
11.39629 119.000
11.41623 101.000
11.43618 81.000
11.45613 85.000
11.47608 85.000
11.49602 112.000
11.51597 78.000
11.53592 111.000
11.55586 102.000
11.57581 92.000
11.59576 88.000
11.61570 113.000
11.63565 90.000
11.65560 103.000
11.67554 105.000
11.69549 98.000
11.71544 88.000
11.73539 110.000
11.75533 97.000
11.77528 121.000
11.79523 89.000
11.81517 98.000
11.83512 88.000
11.85507 96.000
11.87501 100.000
11.89496 88.000
11.91491 93.000
11.93486 83.000
11.95480 104.000
11.97475 95.000
11.99470 92.000
12.01464 92.000
12.03459 91.000
12.05454 89.000
12.07448 108.000
12.09443 95.000
12.11438 93.000
12.13432 100.000
12.15427 93.000
12.17422 122.000
12.19417 94.000
12.21411 84.000
12.23406 89.000
12.25401 102.000
12.27395 87.000
12.29390 94.000
12.31385 89.000
12.33379 85.000
12.35374 101.000
12.37369 108.000
12.39364 105.000
12.41358 80.000
12.43353 115.000
12.45348 90.000
12.47342 88.000
12.49337 102.000
12.51332 102.000
12.53326 113.000
12.55321 113.000
12.57316 82.000
12.59311 91.000
12.61305 107.000
12.63300 93.000
12.65295 113.000
12.67289 86.000
12.69284 110.000
12.71279 81.000
12.73273 107.000
12.75268 94.000
12.77263 107.000
12.79257 103.000
12.81252 92.000
12.83247 102.000
12.85242 84.000
12.87236 87.000
12.89231 104.000
12.91226 111.000
12.93220 89.000
12.95215 102.000
12.97210 102.000
12.99204 93.000
13.01199 95.000
13.03194 110.000
13.05189 104.000
13.07183 99.000
13.09178 93.000
13.11173 101.000
13.13167 103.000
13.15162 92.000
13.17157 83.000
13.19151 90.000
13.21146 93.000
13.23141 97.000
13.25135 98.000
13.27130 82.000
13.29125 96.000
13.31120 102.000
13.33114 94.000
13.35109 97.000
13.37104 107.000
13.39098 95.000
13.41093 120.000
13.43088 104.000
13.45082 97.000
13.47077 93.000
13.49072 104.000
13.51067 100.000
13.53061 104.000
13.55056 97.000
13.57051 111.000
13.59045 106.000
13.61040 93.000
13.63035 102.000
13.65029 99.000
13.67024 115.000
13.69019 104.000
13.71013 108.000
13.73008 112.000
13.75003 102.000
13.76998 127.000
13.78992 99.000
13.80987 108.000
13.82982 98.000
13.84976 106.000
13.86971 105.000
13.88966 102.000
13.90960 96.000
13.92955 101.000
13.94950 119.000
13.96945 102.000
13.98939 105.000
14.00934 115.000
14.02929 93.000
14.04923 107.000
14.06918 113.000
14.08913 85.000
14.10907 90.000
14.12902 100.000
14.14897 92.000
14.16892 110.000
14.18886 104.000
14.20881 98.000
14.22876 117.000
14.24870 119.000
14.26865 105.000
14.28860 103.000
14.30854 110.000
14.32849 112.000
14.34844 119.000
14.36838 103.000
14.38833 104.000
14.40828 114.000
14.42823 117.000
14.44817 106.000
14.46812 109.000
14.48807 105.000
14.50801 100.000
14.52796 120.000
14.54791 92.000
14.56785 91.000
14.58780 93.000
14.60775 101.000
14.62770 104.000
14.64764 85.000
14.66759 97.000
14.68754 101.000
14.70748 111.000
14.72743 105.000
14.74738 105.000
14.76732 121.000
14.78727 110.000
14.80722 88.000
14.82716 100.000
14.84711 102.000
14.86706 111.000
14.88701 117.000
14.90695 107.000
14.92690 104.000
14.94685 91.000
14.96679 106.000
14.98674 99.000
15.00669 111.000
15.02663 138.000
15.04658 110.000
15.06653 116.000
15.08648 120.000
15.10642 118.000
15.12637 119.000
15.14632 126.000
15.16626 112.000
15.18621 130.000
15.20616 125.000
15.22610 139.000
15.24605 139.000
15.26600 127.000
15.28594 136.000
15.30589 144.000
15.32584 135.000
15.34579 148.000
15.36573 122.000
15.38568 134.000
15.40563 178.000
15.42557 159.000
15.44552 171.000
15.46547 154.000
15.48541 160.000
15.50536 148.000
15.52531 187.000
15.54526 204.000
15.56520 225.000
15.58515 227.000
15.60510 250.000
15.62504 277.000
15.64499 295.000
15.66494 353.000
15.68488 448.000
15.70483 548.000
15.72478 691.000
15.74472 929.000
15.76467 1312.000
15.78462 1907.000
15.80457 3056.000
15.82451 4803.000
15.84446 6509.000
15.86441 8816.000
15.88435 10505.000
15.90430 10345.000
15.92425 8359.000
15.94419 5398.000
15.96414 2961.000
15.98409 1345.000
16.00404 618.000
16.02398 452.000
16.04393 338.000
16.06388 296.000
16.08382 272.000
16.10377 227.000
16.12372 218.000
16.14366 188.000
16.16361 190.000
16.18356 175.000
16.20351 175.000
16.22345 165.000
16.24340 178.000
16.26335 170.000
16.28329 148.000
16.30324 158.000
16.32319 150.000
16.34313 155.000
16.36308 138.000
16.38303 143.000
16.40297 147.000
16.42292 145.000
16.44287 132.000
16.46282 148.000
16.48276 125.000
16.50271 123.000
16.52266 124.000
16.54260 128.000
16.56255 121.000
16.58250 139.000
16.60244 117.000
16.62239 119.000
16.64234 115.000
16.66229 109.000
16.68223 122.000
16.70218 116.000
16.72213 134.000
16.74207 118.000
16.76202 120.000
16.78197 121.000
16.80191 115.000
16.82186 107.000
16.84181 105.000
16.86175 112.000
16.88170 95.000
16.90165 118.000
16.92160 107.000
16.94154 96.000
16.96149 112.000
16.98144 107.000
17.00138 114.000
17.02133 115.000
17.04128 111.000
17.06122 111.000
17.08117 127.000
17.10112 111.000
17.12107 123.000
17.14101 105.000
17.16096 116.000
17.18091 101.000
17.20085 108.000
17.22080 93.000
17.24075 104.000
17.26069 112.000
17.28064 112.000
17.30059 89.000
17.32053 102.000
17.34048 83.000
17.36043 89.000
17.38038 104.000
17.40032 104.000
17.42027 103.000
17.44022 107.000
17.46016 104.000
17.48011 108.000
17.50006 91.000
17.52000 93.000
17.53995 118.000
17.55990 100.000
17.57985 86.000
17.59979 113.000
17.61974 118.000
17.63969 121.000
17.65963 111.000
17.67958 85.000
17.69953 116.000
17.71947 105.000
17.73942 95.000
17.75937 109.000
17.77932 100.000
17.79926 110.000
17.81921 105.000
17.83916 113.000
17.85910 125.000
17.87905 115.000
17.89900 117.000
17.91894 121.000
17.93889 98.000
17.95884 112.000
17.97878 85.000
17.99873 115.000
18.01868 97.000
18.03863 91.000
18.05857 104.000
18.07852 106.000
18.09847 108.000
18.11841 120.000
18.13836 114.000
18.15831 83.000
18.17825 110.000
18.19820 99.000
18.21815 105.000
18.23810 107.000
18.25804 105.000
18.27799 87.000
18.29794 110.000
18.31788 127.000
18.33783 108.000
18.35778 109.000
18.37772 116.000
18.39767 120.000
18.41762 132.000
18.43756 120.000
18.45751 143.000
18.47746 124.000
18.49741 138.000
18.51735 130.000
18.53730 124.000
18.55725 124.000
18.57719 111.000
18.59714 117.000
18.61709 109.000
18.63703 104.000
18.65698 110.000
18.67693 96.000
18.69688 109.000
18.71682 136.000
18.73677 101.000
18.75672 101.000
18.77666 101.000
18.79661 124.000
18.81656 95.000
18.83650 105.000
18.85645 90.000
18.87640 106.000
18.89634 106.000
18.91629 109.000
18.93624 110.000
18.95619 94.000
18.97613 109.000
18.99608 95.000
19.01603 120.000
19.03597 128.000
19.05592 102.000
19.07587 110.000
19.09581 103.000
19.11576 115.000
19.13571 108.000
19.15566 117.000
19.17560 88.000
19.19555 116.000
19.21550 121.000
19.23544 112.000
19.25539 103.000
19.27534 105.000
19.29528 118.000
19.31523 90.000
19.33518 106.000
19.35513 98.000
19.37507 122.000
19.39502 95.000
19.41497 101.000
19.43491 115.000
19.45486 98.000
19.47481 131.000
19.49475 111.000
19.51470 102.000
19.53465 114.000
19.55459 133.000
19.57454 106.000
19.59449 110.000
19.61444 91.000
19.63438 130.000
19.65433 122.000
19.67428 120.000
19.69422 107.000
19.71417 110.000
19.73412 95.000
19.75406 100.000
19.77401 125.000
19.79396 113.000
19.81391 116.000
19.83385 104.000
19.85380 105.000
19.87375 93.000
19.89369 100.000
19.91364 113.000
19.93359 100.000
19.95353 98.000
19.97348 115.000
19.99343 105.000
20.01337 91.000
20.03332 98.000
20.05327 115.000
20.07322 95.000
20.09316 119.000
20.11311 113.000
20.13306 93.000
20.15300 116.000
20.17295 101.000
20.19290 116.000
20.21284 114.000
20.23279 98.000
20.25274 96.000
20.27269 96.000
20.29263 115.000
20.31258 108.000
20.33253 103.000
20.35247 103.000
20.37242 114.000
20.39237 122.000
20.41231 116.000
20.43226 105.000
20.45221 87.000
20.47215 101.000
20.49210 93.000
20.51205 99.000
20.53200 136.000
20.55194 97.000
20.57189 139.000
20.59184 116.000
20.61178 115.000
20.63173 91.000
20.65168 98.000
20.67162 114.000
20.69157 120.000
20.71152 102.000
20.73147 130.000
20.75141 113.000
20.77136 96.000
20.79131 115.000
20.81125 130.000
20.83120 117.000
20.85115 115.000
20.87109 96.000
20.89104 128.000
20.91099 117.000
20.93094 120.000
20.95088 119.000
20.97083 131.000
20.99078 131.000
21.01072 121.000
21.03067 109.000
21.05062 106.000
21.07056 115.000
21.09051 104.000
21.11046 130.000
21.13040 123.000
21.15035 158.000
21.17030 148.000
21.19025 140.000
21.21019 157.000
21.23014 164.000
21.25009 128.000
21.27003 110.000
21.28998 131.000
21.30993 97.000
21.32987 130.000
21.34982 141.000
21.36977 122.000
21.38972 110.000
21.40966 127.000
21.42961 114.000
21.44956 129.000
21.46950 133.000
21.48945 121.000
21.50940 113.000
21.52934 101.000
21.54929 106.000
21.56924 132.000
21.58918 102.000
21.60913 128.000
21.62908 110.000
21.64903 101.000
21.66897 114.000
21.68892 113.000
21.70887 106.000
21.72881 81.000
21.74876 117.000
21.76871 121.000
21.78865 98.000
21.80860 132.000
21.82855 123.000
21.84850 117.000
21.86844 111.000
21.88839 114.000
21.90834 149.000
21.92828 135.000
21.94823 105.000
21.96818 105.000
21.98812 140.000
22.00807 121.000
22.02802 127.000
22.04796 126.000
22.06791 147.000
22.08786 145.000
22.10781 117.000
22.12775 138.000
22.14770 118.000
22.16765 115.000
22.18759 107.000
22.20754 106.000
22.22749 99.000
22.24743 109.000
22.26738 107.000
22.28733 90.000
22.30728 106.000
22.32722 107.000
22.34717 100.000
22.36712 105.000
22.38706 96.000
22.40701 109.000
22.42696 125.000
22.44690 105.000
22.46685 127.000
22.48680 101.000
22.50675 109.000
22.52669 109.000
22.54664 97.000
22.56659 112.000
22.58653 114.000
22.60648 108.000
22.62643 119.000
22.64637 112.000
22.66632 98.000
22.68627 114.000
22.70621 131.000
22.72616 102.000
22.74611 128.000
22.76606 101.000
22.78600 113.000
22.80595 129.000
22.82590 91.000
22.84584 114.000
22.86579 134.000
22.88574 111.000
22.90568 109.000
22.92563 111.000
22.94558 103.000
22.96553 105.000
22.98547 94.000
23.00542 105.000
23.02537 93.000
23.04531 135.000
23.06526 114.000
23.08521 127.000
23.10515 103.000
23.12510 110.000
23.14505 109.000
23.16499 125.000
23.18494 107.000
23.20489 95.000
23.22484 97.000
23.24478 128.000
23.26473 109.000
23.28468 114.000
23.30462 118.000
23.32457 82.000
23.34452 102.000
23.36446 121.000
23.38441 119.000
23.40436 109.000
23.42431 108.000
23.44425 127.000
23.46420 115.000
23.48415 112.000
23.50409 113.000
23.52404 134.000
23.54399 116.000
23.56393 96.000
23.58388 116.000
23.60383 105.000
23.62377 116.000
23.64372 107.000
23.66367 129.000
23.68362 131.000
23.70356 136.000
23.72351 101.000
23.74346 130.000
23.76340 102.000
23.78335 116.000
23.80330 111.000
23.82324 107.000
23.84319 118.000
23.86314 122.000
23.88309 129.000
23.90303 104.000
23.92298 98.000
23.94293 121.000
23.96287 133.000
23.98282 111.000
24.00277 140.000
24.02271 106.000
24.04266 130.000
24.06261 121.000
24.08256 120.000
24.10250 115.000
24.12245 122.000
24.14240 126.000
24.16234 126.000
24.18229 116.000
24.20224 124.000
24.22218 123.000
24.24213 110.000
24.26208 105.000
24.28202 107.000
24.30197 116.000
24.32192 96.000
24.34187 141.000
24.36181 124.000
24.38176 118.000
24.40171 128.000
24.42165 122.000
24.44160 101.000
24.46155 121.000
24.48149 111.000
24.50144 118.000
24.52139 106.000
24.54134 93.000
24.56128 117.000
24.58123 111.000
24.60118 132.000
24.62112 142.000
24.64107 99.000
24.66102 135.000
24.68096 104.000
24.70091 124.000
24.72086 111.000
24.74080 92.000
24.76075 133.000
24.78070 100.000
24.80065 105.000
24.82059 109.000
24.84054 114.000
24.86049 120.000
24.88043 123.000
24.90038 108.000
24.92033 105.000
24.94027 125.000
24.96022 99.000
24.98017 120.000
25.00012 141.000
25.02006 114.000
25.04001 109.000
25.05996 115.000
25.07990 132.000
25.09985 130.000
25.11980 117.000
25.13974 119.000
25.15969 109.000
25.17964 120.000
25.19958 107.000
25.21953 130.000
25.23948 95.000
25.25943 126.000
25.27937 96.000
25.29932 125.000
25.31927 124.000
25.33921 124.000
25.35916 110.000
25.37911 132.000
25.39905 110.000
25.41900 109.000
25.43895 100.000
25.45890 117.000
25.47884 119.000
25.49879 110.000
25.51874 113.000
25.53868 125.000
25.55863 104.000
25.57858 104.000
25.59852 124.000
25.61847 127.000
25.63842 127.000
25.65837 142.000
25.67831 117.000
25.69826 104.000
25.71821 125.000
25.73815 134.000
25.75810 129.000
25.77805 127.000
25.79799 120.000
25.81794 132.000
25.83789 114.000
25.85783 123.000
25.87778 139.000
25.89773 120.000
25.91768 141.000
25.93762 119.000
25.95757 102.000
25.97752 142.000
25.99746 119.000
26.01741 137.000
26.03736 136.000
26.05730 104.000
26.07725 125.000
26.09720 132.000
26.11715 127.000
26.13709 154.000
26.15704 120.000
26.17699 131.000
26.19693 126.000
26.21688 127.000
26.23683 145.000
26.25677 109.000
26.27672 149.000
26.29667 111.000
26.31661 138.000
26.33656 134.000
26.35651 123.000
26.37646 135.000
26.39640 135.000
26.41635 120.000
26.43630 121.000
26.45624 121.000
26.47619 121.000
26.49614 129.000
26.51608 132.000
26.53603 131.000
26.55598 130.000
26.57593 127.000
26.59587 134.000
26.61582 127.000
26.63577 122.000
26.65571 151.000
26.67566 123.000
26.69561 139.000
26.71555 143.000
26.73550 108.000
26.75545 132.000
26.77539 113.000
26.79534 128.000
26.81529 150.000
26.83524 141.000
26.85518 144.000
26.87513 140.000
26.89508 145.000
26.91502 142.000
26.93497 124.000
26.95492 137.000
26.97486 137.000
26.99481 132.000
27.01476 121.000
27.03471 110.000
27.05465 142.000
27.07460 111.000
27.09455 122.000
27.11449 145.000
27.13444 142.000
27.15439 135.000
27.17433 112.000
27.19428 134.000
27.21423 118.000
27.23417 146.000
27.25412 156.000
27.27407 159.000
27.29402 172.000
27.31396 146.000
27.33391 147.000
27.35386 121.000
27.37380 139.000
27.39375 131.000
27.41370 136.000
27.43364 128.000
27.45359 132.000
27.47354 127.000
27.49349 138.000
27.51343 133.000
27.53338 148.000
27.55333 143.000
27.57327 128.000
27.59322 117.000
27.61317 123.000
27.63311 131.000
27.65306 131.000
27.67301 138.000
27.69296 139.000
27.71290 124.000
27.73285 130.000
27.75280 161.000
27.77274 131.000
27.79269 111.000
27.81264 123.000
27.83258 116.000
27.85253 126.000
27.87248 136.000
27.89242 133.000
27.91237 135.000
27.93232 120.000
27.95227 142.000
27.97221 128.000
27.99216 154.000
28.01211 136.000
28.03205 136.000
28.05200 128.000
28.07195 143.000
28.09189 149.000
28.11184 138.000
28.13179 130.000
28.15174 133.000
28.17168 132.000
28.19163 155.000
28.21158 137.000
28.23152 138.000
28.25147 137.000
28.27142 135.000
28.29136 130.000
28.31131 153.000
28.33126 136.000
28.35120 157.000
28.37115 137.000
28.39110 158.000
28.41105 133.000
28.43099 158.000
28.45094 154.000
28.47089 150.000
28.49083 168.000
28.51078 144.000
28.53073 137.000
28.55067 142.000
28.57062 133.000
28.59057 152.000
28.61052 147.000
28.63046 129.000
28.65041 135.000
28.67036 138.000
28.69030 121.000
28.71025 143.000
28.73020 153.000
28.75014 137.000
28.77009 152.000
28.79004 134.000
28.80998 144.000
28.82993 150.000
28.84988 146.000
28.86983 133.000
28.88977 134.000
28.90972 141.000
28.92967 149.000
28.94961 151.000
28.96956 124.000
28.98951 108.000
29.00945 128.000
29.02940 143.000
29.04935 148.000
29.06930 150.000
29.08924 136.000
29.10919 125.000
29.12914 123.000
29.14908 128.000
29.16903 130.000
29.18898 135.000
29.20892 145.000
29.22887 148.000
29.24882 144.000
29.26877 136.000
29.28871 129.000
29.30866 139.000
29.32861 136.000
29.34855 140.000
29.36850 153.000
29.38845 132.000
29.40839 117.000
29.42834 142.000
29.44829 139.000
29.46823 142.000
29.48818 133.000
29.50813 121.000
29.52808 153.000
29.54802 145.000
29.56797 130.000
29.58792 138.000
29.60786 144.000
29.62781 147.000
29.64776 140.000
29.66770 136.000
29.68765 147.000
29.70760 151.000
29.72755 129.000
29.74749 164.000
29.76744 157.000
29.78739 137.000
29.80733 143.000
29.82728 113.000
29.84723 138.000
29.86717 130.000
29.88712 151.000
29.90707 151.000
29.92701 128.000
29.94696 152.000
29.96691 134.000
29.98686 127.000
30.00680 139.000
30.02675 142.000
30.04670 146.000
30.06664 150.000
30.08659 136.000
30.10654 137.000
30.12648 157.000
30.14643 155.000
30.16638 141.000
30.18633 153.000
30.20627 132.000
30.22622 122.000
30.24617 160.000
30.26611 155.000
30.28606 162.000
30.30601 132.000
30.32595 138.000
30.34590 150.000
30.36585 150.000
30.38579 148.000
30.40574 144.000
30.42569 147.000
30.44564 164.000
30.46558 132.000
30.48553 123.000
30.50548 147.000
30.52542 148.000
30.54537 137.000
30.56532 134.000
30.58526 129.000
30.60521 127.000
30.62516 133.000
30.64511 131.000
30.66505 149.000
30.68500 122.000
30.70495 134.000
30.72489 143.000
30.74484 176.000
30.76479 140.000
30.78473 145.000
30.80468 140.000
30.82463 121.000
30.84458 133.000
30.86452 134.000
30.88447 129.000
30.90442 161.000
30.92436 149.000
30.94431 154.000
30.96426 153.000
30.98420 135.000
31.00415 154.000
31.02410 174.000
31.04404 139.000
31.06399 136.000
31.08394 131.000
31.10389 148.000
31.12383 148.000
31.14378 147.000
31.16373 150.000
31.18367 139.000
31.20362 155.000
31.22357 147.000
31.24351 149.000
31.26346 157.000
31.28341 128.000
31.30336 136.000
31.32330 146.000
31.34325 138.000
31.36320 159.000
31.38314 131.000
31.40309 135.000
31.42304 152.000
31.44298 160.000
31.46293 141.000
31.48288 150.000
31.50282 153.000
31.52277 169.000
31.54272 155.000
31.56267 153.000
31.58261 153.000
31.60256 148.000
31.62251 139.000
31.64245 166.000
31.66240 169.000
31.68235 148.000
31.70229 185.000
31.72224 168.000
31.74219 187.000
31.76214 185.000
31.78208 199.000
31.80203 202.000
31.82198 208.000
31.84192 215.000
31.86187 258.000
31.88182 265.000
31.90176 329.000
31.92171 346.000
31.94166 448.000
31.96160 518.000
31.98155 640.000
32.00150 792.000
32.02145 875.000
32.04139 878.000
32.06134 987.000
32.08129 950.000
32.10123 828.000
32.12118 618.000
32.14113 532.000
32.16107 444.000
32.18102 387.000
32.20097 294.000
32.22092 202.000
32.24086 177.000
32.26081 147.000
32.28076 155.000
32.30070 171.000
32.32065 141.000
32.34060 146.000
32.36054 148.000
32.38049 155.000
32.40044 152.000
32.42039 170.000
32.44033 125.000
32.46028 147.000
32.48023 171.000
32.50017 165.000
32.52012 125.000
32.54007 141.000
32.56001 134.000
32.57996 139.000
32.59991 135.000
32.61985 150.000
32.63980 151.000
32.65975 140.000
32.67970 123.000
32.69964 150.000
32.71959 134.000
32.73954 165.000
32.75948 132.000
32.77943 138.000
32.79938 139.000
32.81932 149.000
32.83927 128.000
32.85922 122.000
32.87917 137.000
32.89911 143.000
32.91906 153.000
32.93901 138.000
32.95895 134.000
32.97890 160.000
32.99885 135.000
33.01879 137.000
33.03874 123.000
33.05869 123.000
33.07863 119.000
33.09858 118.000
33.11853 150.000
33.13848 146.000
33.15842 131.000
33.17837 121.000
33.19832 144.000
33.21826 128.000
33.23821 128.000
33.25816 141.000
33.27810 112.000
33.29805 138.000
33.31800 120.000
33.33795 129.000
33.35789 135.000
33.37784 128.000
33.39779 112.000
33.41773 147.000
33.43768 142.000
33.45763 153.000
33.47757 139.000
33.49752 139.000
33.51747 130.000
33.53741 126.000
33.55736 140.000
33.57731 140.000
33.59726 144.000
33.61720 135.000
33.63715 137.000
33.65710 141.000
33.67704 148.000
33.69699 138.000
33.71694 140.000
33.73688 130.000
33.75683 132.000
33.77678 149.000
33.79673 129.000
33.81667 141.000
33.83662 108.000
33.85657 129.000
33.87651 131.000
33.89646 144.000
33.91641 142.000
33.93635 133.000
33.95630 129.000
33.97625 137.000
33.99620 135.000
34.01614 121.000
34.03609 135.000
34.05604 119.000
34.07598 118.000
34.09593 122.000
34.11588 129.000
34.13582 137.000
34.15577 122.000
34.17572 135.000
34.19566 169.000
34.21561 138.000
34.23556 145.000
34.25551 148.000
34.27545 138.000
34.29540 145.000
34.31535 147.000
34.33529 131.000
34.35524 128.000
34.37519 134.000
34.39513 141.000
34.41508 131.000
34.43503 119.000
34.45498 123.000
34.47492 121.000
34.49487 137.000
34.51482 132.000
34.53476 144.000
34.55471 142.000
34.57466 132.000
34.59460 140.000
34.61455 129.000
34.63450 136.000
34.65444 129.000
34.67439 142.000
34.69434 165.000
34.71429 137.000
34.73423 149.000
34.75418 159.000
34.77413 154.000
34.79407 161.000
34.81402 170.000
34.83397 142.000
34.85391 158.000
34.87386 152.000
34.89381 168.000
34.91376 151.000
34.93370 138.000
34.95365 148.000
34.97360 152.000
34.99354 159.000
35.01349 122.000
35.03344 129.000
35.05338 128.000
35.07333 131.000
35.09328 157.000
35.11322 119.000
35.13317 164.000
35.15312 127.000
35.17307 126.000
35.19301 152.000
35.21296 126.000
35.23291 138.000
35.25285 121.000
35.27280 142.000
35.29275 140.000
35.31269 144.000
35.33264 125.000
35.35259 134.000
35.37254 145.000
35.39248 133.000
35.41243 146.000
35.43238 146.000
35.45232 146.000
35.47227 140.000
35.49222 143.000
35.51216 172.000
35.53211 158.000
35.55206 156.000
35.57201 161.000
35.59195 184.000
35.61190 189.000
35.63185 173.000
35.65179 156.000
35.67174 195.000
35.69169 175.000
35.71163 178.000
35.73158 197.000
35.75153 199.000
35.77147 229.000
35.79142 246.000
35.81137 260.000
35.83132 268.000
35.85126 313.000
35.87121 369.000
35.89116 432.000
35.91110 586.000
35.93105 684.000
35.95100 989.000
35.97094 1275.000
35.99089 1356.000
36.01084 1264.000
36.03079 1029.000
36.05073 948.000
36.07068 903.000
36.09063 757.000
36.11057 585.000
36.13052 423.000
36.15047 305.000
36.17041 230.000
36.19036 178.000
36.21031 165.000
36.23025 159.000
36.25020 149.000
36.27015 167.000
36.29010 184.000
36.31004 141.000
36.32999 140.000
36.34994 147.000
36.36988 146.000
36.38983 155.000
36.40978 175.000
36.42972 148.000
36.44967 138.000
36.46962 156.000
36.48957 154.000
36.50951 137.000
36.52946 157.000
36.54941 159.000
36.56935 166.000
36.58930 176.000
36.60925 174.000
36.62919 177.000
36.64914 173.000
36.66909 145.000
36.68903 153.000
36.70898 156.000
36.72893 156.000
36.74888 144.000
36.76882 174.000
36.78877 179.000
36.80872 166.000
36.82866 199.000
36.84861 200.000
36.86856 241.000
36.88850 258.000
36.90845 278.000
36.92840 281.000
36.94835 238.000
36.96829 224.000
36.98824 220.000
37.00819 241.000
37.02813 190.000
37.04808 187.000
37.06803 203.000
37.08797 206.000
37.10792 235.000
37.12787 242.000
37.14781 242.000
37.16776 292.000
37.18771 365.000
37.20766 477.000
37.22760 668.000
37.24755 1002.000
37.26750 1372.000
37.28744 1671.000
37.30739 1449.000
37.32734 1256.000
37.34728 1184.000
37.36723 1131.000
37.38718 1129.000
37.40713 891.000
37.42707 628.000
37.44702 438.000
37.46697 339.000
37.48691 246.000
37.50686 246.000
37.52681 208.000
37.54675 207.000
37.56670 192.000
37.58665 195.000
37.60660 194.000
37.62654 180.000
37.64649 184.000
37.66644 148.000
37.68638 141.000
37.70633 139.000
37.72628 162.000
37.74622 130.000
37.76617 115.000
37.78612 147.000
37.80606 146.000
37.82601 147.000
37.84596 154.000
37.86591 148.000
37.88585 147.000
37.90580 151.000
37.92575 130.000
37.94569 124.000
37.96564 139.000
37.98559 120.000
38.00553 155.000
38.02548 151.000
38.04543 139.000
38.06538 119.000
38.08532 131.000
38.10527 121.000
38.12522 134.000
38.14516 122.000
38.16511 134.000
38.18506 140.000
38.20500 143.000
38.22495 126.000
38.24490 118.000
38.26484 132.000
38.28479 146.000
38.30474 114.000
38.32469 152.000
38.34463 165.000
38.36458 130.000
38.38453 138.000
38.40447 135.000
38.42442 141.000
38.44437 154.000
38.46431 121.000
38.48426 127.000
38.50421 159.000
38.52416 143.000
38.54410 126.000
38.56405 145.000
38.58400 126.000
38.60394 142.000
38.62389 134.000
38.64384 164.000
38.66378 145.000
38.68373 148.000
38.70368 137.000
38.72362 145.000
38.74357 138.000
38.76352 157.000
38.78347 128.000
38.80341 142.000
38.82336 113.000
38.84331 165.000
38.86325 171.000
38.88320 162.000
38.90315 145.000
38.92309 153.000
38.94304 148.000
38.96299 145.000
38.98294 148.000
39.00288 157.000
39.02283 150.000
39.04278 169.000
39.06272 173.000
39.08267 169.000
39.10262 170.000
39.12256 159.000
39.14251 170.000
39.16246 183.000
39.18241 192.000
39.20235 187.000
39.22230 212.000
39.24225 202.000
39.26219 191.000
39.28214 231.000
39.30209 255.000
39.32203 265.000
39.34198 308.000
39.36193 314.000
39.38187 397.000
39.40182 416.000
39.42177 555.000
39.44172 707.000
39.46166 959.000
39.48161 1363.000
39.50156 1800.000
39.52150 2341.000
39.54145 2724.000
39.56140 2667.000
39.58134 1972.000
39.60129 1639.000
39.62124 1490.000
39.64119 1553.000
39.66113 1384.000
39.68108 1007.000
39.70103 616.000
39.72097 427.000
39.74092 382.000
39.76087 271.000
39.78081 213.000
39.80076 213.000
39.82071 179.000
39.84065 171.000
39.86060 164.000
39.88055 178.000
39.90050 162.000
39.92044 156.000
39.94039 150.000
39.96034 160.000
39.98028 148.000
40.00023 145.000
40.02018 138.000
40.04012 138.000
40.06007 121.000
40.08002 140.000
40.09997 158.000
40.11991 147.000
40.13986 125.000
40.15981 142.000
40.17975 150.000
40.19970 145.000
40.21965 128.000
40.23959 163.000
40.25954 134.000
40.27949 155.000
40.29943 124.000
40.31938 134.000
40.33933 112.000
40.35928 131.000
40.37922 137.000
40.39917 125.000
40.41912 125.000
40.43906 153.000
40.45901 153.000
40.47896 142.000
40.49890 141.000
40.51885 120.000
40.53880 128.000
40.55875 142.000
40.57869 137.000
40.59864 132.000
40.61859 119.000
40.63853 144.000
40.65848 117.000
40.67843 126.000
40.69837 129.000
40.71832 122.000
40.73827 125.000
40.75822 138.000
40.77816 141.000
40.79811 142.000
40.81806 137.000
40.83800 149.000
40.85795 133.000
40.87790 132.000
40.89784 114.000
40.91779 132.000
40.93774 138.000
40.95768 110.000
40.97763 127.000
40.99758 136.000
41.01753 125.000
41.03747 124.000
41.05742 140.000
41.07737 139.000
41.09731 130.000
41.11726 132.000
41.13721 133.000
41.15715 135.000
41.17710 126.000
41.19705 122.000
41.21700 132.000
41.23694 120.000
41.25689 135.000
41.27684 122.000
41.29678 117.000
41.31673 135.000
41.33668 120.000
41.35662 127.000
41.37657 120.000
41.39652 133.000
41.41646 144.000
41.43641 158.000
41.45636 142.000
41.47631 142.000
41.49625 123.000
41.51620 133.000
41.53615 138.000
41.55609 135.000
41.57604 114.000
41.59599 136.000
41.61593 126.000
41.63588 154.000
41.65583 124.000
41.67578 140.000
41.69572 121.000
41.71567 134.000
41.73562 117.000
41.75556 135.000
41.77551 143.000
41.79546 153.000
41.81540 130.000
41.83535 125.000
41.85530 137.000
41.87524 143.000
41.89519 141.000
41.91514 146.000
41.93509 121.000
41.95503 151.000
41.97498 140.000
41.99493 121.000
42.01487 124.000
42.03482 115.000
42.05477 136.000
42.07471 137.000
42.09466 123.000
42.11461 129.000
42.13456 133.000
42.15450 138.000
42.17445 131.000
42.19440 141.000
42.21434 117.000
42.23429 145.000
42.25424 115.000
42.27418 129.000
42.29413 133.000
42.31408 109.000
42.33403 116.000
42.35397 115.000
42.37392 154.000
42.39387 130.000
42.41381 148.000
42.43376 155.000
42.45371 132.000
42.47365 151.000
42.49360 133.000
42.51355 168.000
42.53349 124.000
42.55344 150.000
42.57339 167.000
42.59334 184.000
42.61328 169.000
42.63323 165.000
42.65318 184.000
42.67312 165.000
42.69307 169.000
42.71302 182.000
42.73296 148.000
42.75291 158.000
42.77286 181.000
42.79281 143.000
42.81275 156.000
42.83270 141.000
42.85265 167.000
42.87259 174.000
42.89254 150.000
42.91249 190.000
42.93243 193.000
42.95238 153.000
42.97233 190.000
42.99227 190.000
43.01222 217.000
43.03217 185.000
43.05212 204.000
43.07206 221.000
43.09201 234.000
43.11196 262.000
43.13190 310.000
43.15185 319.000
43.17180 362.000
43.19174 378.000
43.21169 472.000
43.23164 588.000
43.25159 794.000
43.27153 1307.000
43.29148 1956.000
43.31143 2772.000
43.33137 2840.000
43.35132 2113.000
43.37127 1416.000
43.39121 1315.000
43.41116 1596.000
43.43111 1631.000
43.45105 1530.000
43.47100 1101.000
43.49095 765.000
43.51090 638.000
43.53084 595.000
43.55079 578.000
43.57074 677.000
43.59068 809.000
43.61063 1023.000
43.63058 1116.000
43.65052 1148.000
43.67047 993.000
43.69042 739.000
43.71037 722.000
43.73031 677.000
43.75026 684.000
43.77021 621.000
43.79015 473.000
43.81010 354.000
43.83005 311.000
43.84999 232.000
43.86994 187.000
43.88989 208.000
43.90984 200.000
43.92978 176.000
43.94973 161.000
43.96968 160.000
43.98962 155.000
44.00957 157.000
44.02952 147.000
44.04946 157.000
44.06941 143.000
44.08936 136.000
44.10930 132.000
44.12925 145.000
44.14920 155.000
44.16915 140.000
44.18909 147.000
44.20904 144.000
44.22899 163.000
44.24893 142.000
44.26888 141.000
44.28883 142.000
44.30877 137.000
44.32872 121.000
44.34867 143.000
44.36862 120.000
44.38856 142.000
44.40851 131.000
44.42846 128.000
44.44840 144.000
44.46835 150.000
44.48830 114.000
44.50824 141.000
44.52819 126.000
44.54814 145.000
44.56808 145.000
44.58803 126.000
44.60798 137.000
44.62793 152.000
44.64787 133.000
44.66782 133.000
44.68777 136.000
44.70771 105.000
44.72766 136.000
44.74761 133.000
44.76755 124.000
44.78750 122.000
44.80745 112.000
44.82740 128.000
44.84734 127.000
44.86729 119.000
44.88724 163.000
44.90718 128.000
44.92713 112.000
44.94708 137.000
44.96702 130.000
44.98697 125.000
45.00692 127.000
45.02686 135.000
45.04681 141.000
45.06676 143.000
45.08671 138.000
45.10665 126.000
45.12660 136.000
45.14655 126.000
45.16649 152.000
45.18644 111.000
45.20639 114.000
45.22633 138.000
45.24628 137.000
45.26623 148.000
45.28618 143.000
45.30612 148.000
45.32607 137.000
45.34602 119.000
45.36596 121.000
45.38591 139.000
45.40586 118.000
45.42580 137.000
45.44575 129.000
45.46570 115.000
45.48565 147.000
45.50559 139.000
45.52554 118.000
45.54549 121.000
45.56543 115.000
45.58538 126.000
45.60533 119.000
45.62527 129.000
45.64522 120.000
45.66517 115.000
45.68511 127.000
45.70506 127.000
45.72501 127.000
45.74496 118.000
45.76490 115.000
45.78485 129.000
45.80480 111.000
45.82474 125.000
45.84469 129.000
45.86464 109.000
45.88458 108.000
45.90453 117.000
45.92448 129.000
45.94443 127.000
45.96437 128.000
45.98432 122.000
46.00427 108.000
46.02421 135.000
46.04416 117.000
46.06411 122.000
46.08405 133.000
46.10400 126.000
46.12395 110.000
46.14389 126.000
46.16384 133.000
46.18379 129.000
46.20374 127.000
46.22368 131.000
46.24363 125.000
46.26358 122.000
46.28352 94.000
46.30347 125.000
46.32342 111.000
46.34336 111.000
46.36331 120.000
46.38326 135.000
46.40321 136.000
46.42315 107.000
46.44310 128.000
46.46305 119.000
46.48299 104.000
46.50294 138.000
46.52289 108.000
46.54283 131.000
46.56278 121.000
46.58273 124.000
46.60267 129.000
46.62262 114.000
46.64257 144.000
46.66252 123.000
46.68246 119.000
46.70241 115.000
46.72236 120.000
46.74230 100.000
46.76225 143.000
46.78220 116.000
46.80214 122.000
46.82209 117.000
46.84204 132.000
46.86199 113.000
46.88193 107.000
46.90188 101.000
46.92183 117.000
46.94177 110.000
46.96172 112.000
46.98167 117.000
47.00161 126.000
47.02156 123.000
47.04151 127.000
47.06146 113.000
47.08140 121.000
47.10135 103.000
47.12130 124.000
47.14124 130.000
47.16119 128.000
47.18114 120.000
47.20108 126.000
47.22103 116.000
47.24098 122.000
47.26092 123.000
47.28087 112.000
47.30082 130.000
47.32077 119.000
47.34071 117.000
47.36066 120.000
47.38061 120.000
47.40055 122.000
47.42050 128.000
47.44045 124.000
47.46039 110.000
47.48034 121.000
47.50029 129.000
47.52024 127.000
47.54018 127.000
47.56013 114.000
47.58008 119.000
47.60002 137.000
47.61997 138.000
47.63992 116.000
47.65986 142.000
47.67981 111.000
47.69976 105.000
47.71970 128.000
47.73965 122.000
47.75960 131.000
47.77955 111.000
47.79949 137.000
47.81944 135.000
47.83939 127.000
47.85933 126.000
47.87928 115.000
47.89923 129.000
47.91917 114.000
47.93912 112.000
47.95907 131.000
47.97902 127.000
47.99896 132.000
48.01891 116.000
48.03886 125.000
48.05880 163.000
48.07875 139.000
48.09870 129.000
48.11864 125.000
48.13859 134.000
48.15854 130.000
48.17848 116.000
48.19843 142.000
48.21838 140.000
48.23833 131.000
48.25827 133.000
48.27822 136.000
48.29817 147.000
48.31811 121.000
48.33806 139.000
48.35801 123.000
48.37795 173.000
48.39790 147.000
48.41785 163.000
48.43780 159.000
48.45774 158.000
48.47769 185.000
48.49764 170.000
48.51758 198.000
48.53753 186.000
48.55748 186.000
48.57742 240.000
48.59737 215.000
48.61732 210.000
48.63726 238.000
48.65721 275.000
48.67716 268.000
48.69711 319.000
48.71705 352.000
48.73700 384.000
48.75695 432.000
48.77689 530.000
48.79684 603.000
48.81679 854.000
48.83673 1118.000
48.85668 1508.000
48.87663 1945.000
48.89658 2187.000
48.91652 2215.000
48.93647 1909.000
48.95642 1605.000
48.97636 1343.000
48.99631 1341.000
49.01626 1370.000
49.03620 1347.000
49.05615 1129.000
49.07610 881.000
49.09605 682.000
49.11599 473.000
49.13594 376.000
49.15589 309.000
49.17583 293.000
49.19578 248.000
49.21573 198.000
49.23567 181.000
49.25562 195.000
49.27557 171.000
49.29551 172.000
49.31546 169.000
49.33541 143.000
49.35536 164.000
49.37530 169.000
49.39525 165.000
49.41520 125.000
49.43514 143.000
49.45509 130.000
49.47504 144.000
49.49498 151.000
49.51493 140.000
49.53488 153.000
49.55483 117.000
49.57477 113.000
49.59472 127.000
49.61467 143.000
49.63461 138.000
49.65456 136.000
49.67451 148.000
49.69445 136.000
49.71440 138.000
49.73435 146.000
49.75429 128.000
49.77424 119.000
49.79419 116.000
49.81414 120.000
49.83408 140.000
49.85403 122.000
49.87398 135.000
49.89392 140.000
49.91387 114.000
49.93382 117.000
49.95376 127.000
49.97371 140.000
49.99366 136.000
50.01361 109.000
50.03355 109.000
50.05350 132.000
50.07345 120.000
50.09339 150.000
50.11334 107.000
50.13329 119.000
50.15323 143.000
50.17318 130.000
50.19313 131.000
50.21307 126.000
50.23302 111.000
50.25297 123.000
50.27292 108.000
50.29286 129.000
50.31281 135.000
50.33276 125.000
50.35270 118.000
50.37265 130.000
50.39260 123.000
50.41254 130.000
50.43249 115.000
50.45244 119.000
50.47239 104.000
50.49233 115.000
50.51228 129.000
50.53223 130.000
50.55217 128.000
50.57212 120.000
50.59207 140.000
50.61201 119.000
50.63196 111.000
50.65191 134.000
50.67186 115.000
50.69180 119.000
50.71175 116.000
50.73170 134.000
50.75164 130.000
50.77159 128.000
50.79154 134.000
50.81148 130.000
50.83143 101.000
50.85138 130.000
50.87132 129.000
50.89127 128.000
50.91122 129.000
50.93117 100.000
50.95111 123.000
50.97106 125.000
50.99101 105.000
51.01095 103.000
51.03090 136.000
51.05085 128.000
51.07079 109.000
51.09074 121.000
51.11069 92.000
51.13064 117.000
51.15058 110.000
51.17053 111.000
51.19048 131.000
51.21042 117.000
51.23037 123.000
51.25032 111.000
51.27026 130.000
51.29021 117.000
51.31016 113.000
51.33010 115.000
51.35005 130.000
51.37000 122.000
51.38995 107.000
51.40989 127.000
51.42984 121.000
51.44979 115.000
51.46973 110.000
51.48968 104.000
51.50963 107.000
51.52957 126.000
51.54952 115.000
51.56947 136.000
51.58942 124.000
51.60936 121.000
51.62931 111.000
51.64926 115.000
51.66920 131.000
51.68915 129.000
51.70910 115.000
51.72904 123.000
51.74899 126.000
51.76894 101.000
51.78888 114.000
51.80883 108.000
51.82878 110.000
51.84873 120.000
51.86867 114.000
51.88862 104.000
51.90857 113.000
51.92851 115.000
51.94846 124.000
51.96841 129.000
51.98835 97.000
52.00830 116.000
52.02825 104.000
52.04820 114.000
52.06814 125.000
52.08809 100.000
52.10804 130.000
52.12798 111.000
52.14793 122.000
52.16788 127.000
52.18782 114.000
52.20777 110.000
52.22772 114.000
52.24767 119.000
52.26761 119.000
52.28756 129.000
52.30751 111.000
52.32745 116.000
52.34740 118.000
52.36735 132.000
52.38729 123.000
52.40724 126.000
52.42719 124.000
52.44713 123.000
52.46708 124.000
52.48703 97.000
52.50698 111.000
52.52692 109.000
52.54687 107.000
52.56682 108.000
52.58676 122.000
52.60671 128.000
52.62666 119.000
52.64660 106.000
52.66655 111.000
52.68650 107.000
52.70645 86.000
52.72639 121.000
52.74634 130.000
52.76629 110.000
52.78623 110.000
52.80618 108.000
52.82613 127.000
52.84607 114.000
52.86602 101.000
52.88597 150.000
52.90591 104.000
52.92586 122.000
52.94581 128.000
52.96576 99.000
52.98570 108.000
53.00565 116.000
53.02560 95.000
53.04554 119.000
53.06549 107.000
53.08544 113.000
53.10538 116.000
53.12533 103.000
53.14528 124.000
53.16523 107.000
53.18517 125.000
53.20512 131.000
53.22507 119.000
53.24501 123.000
53.26496 99.000
53.28491 111.000
53.30485 114.000
53.32480 94.000
53.34475 97.000
53.36469 105.000
53.38464 115.000
53.40459 125.000
53.42454 108.000
53.44448 131.000
53.46443 119.000
53.48438 107.000
53.50432 100.000
53.52427 132.000
53.54422 101.000
53.56416 134.000
53.58411 118.000
53.60406 123.000
53.62401 121.000
53.64395 105.000
53.66390 118.000
53.68385 135.000
53.70379 101.000
53.72374 119.000
53.74369 126.000
53.76363 113.000
53.78358 120.000
53.80353 100.000
53.82348 121.000
53.84342 126.000
53.86337 118.000
53.88332 106.000
53.90326 98.000
53.92321 119.000
53.94316 126.000
53.96310 109.000
53.98305 121.000
54.00300 133.000
54.02294 123.000
54.04289 113.000
54.06284 114.000
54.08279 103.000
54.10273 137.000
54.12268 125.000
54.14263 121.000
54.16257 107.000
54.18252 122.000
54.20247 106.000
54.22241 103.000
54.24236 112.000
54.26231 131.000
54.28226 109.000
54.30220 110.000
54.32215 105.000
54.34210 111.000
54.36204 126.000
54.38199 135.000
54.40194 132.000
54.42188 111.000
54.44183 127.000
54.46178 106.000
54.48172 109.000
54.50167 104.000
54.52162 104.000
54.54157 128.000
54.56151 122.000
54.58146 106.000
54.60141 113.000
54.62135 110.000
54.64130 110.000
54.66125 106.000
54.68119 122.000
54.70114 123.000
54.72109 117.000
54.74104 118.000
54.76098 139.000
54.78093 118.000
54.80088 99.000
54.82082 119.000
54.84077 140.000
54.86072 131.000
54.88066 117.000
54.90061 107.000
54.92056 128.000
54.94050 109.000
54.96045 130.000
54.98040 122.000
55.00035 104.000
55.02029 133.000
55.04024 83.000
55.06019 110.000
55.08013 108.000
55.10008 103.000
55.12003 119.000
55.13997 103.000
55.15992 113.000
55.17987 131.000
55.19982 109.000
55.21976 113.000
55.23971 144.000
55.25966 113.000
55.27960 100.000
55.29955 123.000
55.31950 129.000
55.33944 122.000
55.35939 130.000
55.37934 94.000
55.39929 107.000
55.41923 130.000
55.43918 136.000
55.45913 135.000
55.47907 141.000
55.49902 111.000
55.51897 118.000
55.53891 122.000
55.55886 104.000
55.57881 108.000
55.59875 114.000
55.61870 144.000
55.63865 118.000
55.65860 104.000
55.67854 125.000
55.69849 120.000
55.71844 99.000
55.73838 111.000
55.75833 104.000
55.77828 105.000
55.79822 107.000
55.81817 117.000
55.83812 116.000
55.85807 116.000
55.87801 126.000
55.89796 112.000
55.91791 96.000
55.93785 129.000
55.95780 117.000
55.97775 91.000
55.99769 127.000
56.01764 92.000
56.03759 136.000
56.05753 108.000
56.07748 92.000
56.09743 120.000
56.11738 118.000
56.13732 107.000
56.15727 130.000
56.17722 108.000
56.19716 109.000
56.21711 107.000
56.23706 106.000
56.25700 138.000
56.27695 101.000
56.29690 97.000
56.31685 120.000
56.33679 121.000
56.35674 109.000
56.37669 104.000
56.39663 108.000
56.41658 124.000
56.43653 108.000
56.45647 125.000
56.47642 132.000
56.49637 110.000
56.51631 118.000
56.53626 126.000
56.55621 135.000
56.57616 100.000
56.59610 116.000
56.61605 111.000
56.63600 103.000
56.65594 106.000
56.67589 118.000
56.69584 122.000
56.71578 104.000
56.73573 100.000
56.75568 90.000
56.77563 131.000
56.79557 133.000
56.81552 108.000
56.83547 121.000
56.85541 100.000
56.87536 113.000
56.89531 122.000
56.91525 128.000
56.93520 124.000
56.95515 131.000
56.97510 120.000
56.99504 136.000
57.01499 126.000
57.03494 118.000
57.05488 99.000
57.07483 122.000
57.09478 118.000
57.11472 111.000
57.13467 136.000
57.15462 119.000
57.17456 115.000
57.19451 114.000
57.21446 112.000
57.23441 116.000
57.25435 132.000
57.27430 126.000
57.29425 131.000
57.31419 130.000
57.33414 116.000
57.35409 115.000
57.37403 112.000
57.39398 123.000
57.41393 106.000
57.43388 121.000
57.45382 121.000
57.47377 112.000
57.49372 136.000
57.51366 114.000
57.53361 116.000
57.55356 130.000
57.57350 117.000
57.59345 107.000
57.61340 103.000
57.63334 125.000
57.65329 109.000
57.67324 123.000
57.69319 128.000
57.71313 106.000
57.73308 116.000
57.75303 120.000
57.77297 117.000
57.79292 106.000
57.81287 120.000
57.83281 102.000
57.85276 109.000
57.87271 107.000
57.89266 131.000
57.91260 109.000
57.93255 114.000
57.95250 134.000
57.97244 93.000
57.99239 124.000
58.01234 122.000
58.03228 107.000
58.05223 112.000
58.07218 118.000
58.09212 127.000
58.11207 111.000
58.13202 129.000
58.15197 129.000
58.17191 125.000
58.19186 117.000
58.21181 130.000
58.23175 98.000
58.25170 102.000
58.27165 113.000
58.29159 105.000
58.31154 103.000
58.33149 127.000
58.35144 102.000
58.37138 121.000
58.39133 114.000
58.41128 118.000
58.43122 121.000
58.45117 108.000
58.47112 126.000
58.49106 102.000
58.51101 122.000
58.53096 107.000
58.55090 108.000
58.57085 107.000
58.59080 109.000
58.61075 127.000
58.63069 124.000
58.65064 124.000
58.67059 129.000
58.69053 141.000
58.71048 122.000
58.73043 111.000
58.75037 124.000
58.77032 118.000
58.79027 136.000
58.81022 128.000
58.83016 129.000
58.85011 128.000
58.87006 126.000
58.89000 124.000
58.90995 108.000
58.92990 120.000
58.94984 109.000
58.96979 119.000
58.98974 120.000
59.00969 117.000
59.02963 130.000
59.04958 123.000
59.06953 125.000
59.08947 135.000
59.10942 124.000
59.12937 106.000
59.14931 117.000
59.16926 138.000
59.18921 122.000
59.20915 109.000
59.22910 99.000
59.24905 113.000
59.26900 112.000
59.28894 113.000
59.30889 114.000
59.32884 103.000
59.34878 129.000
59.36873 114.000
59.38868 121.000
59.40862 143.000
59.42857 129.000
59.44852 102.000
59.46847 124.000
59.48841 110.000
59.50836 123.000
59.52831 103.000
59.54825 129.000
59.56820 110.000
59.58815 126.000
59.60809 118.000
59.62804 102.000
59.64799 121.000
59.66793 126.000
59.68788 99.000
59.70783 120.000
59.72778 104.000
59.74772 113.000
59.76767 115.000
59.78762 119.000
59.80756 112.000
59.82751 119.000
59.84746 124.000
59.86740 112.000
59.88735 113.000
59.90730 112.000
59.92725 122.000
59.94719 121.000
59.96714 133.000
59.98709 101.000
60.00703 119.000
60.02698 105.000
60.04693 121.000
60.06687 113.000
60.08682 134.000
60.10677 108.000
60.12671 111.000
60.14666 110.000
60.16661 119.000
60.18656 105.000
60.20650 104.000
60.22645 108.000
60.24640 111.000
60.26634 138.000
60.28629 100.000
60.30624 92.000
60.32618 118.000
60.34613 117.000
60.36608 112.000
60.38603 106.000
60.40597 121.000
60.42592 107.000
60.44587 112.000
60.46581 109.000
60.48576 128.000
60.50571 99.000
60.52565 133.000
60.54560 137.000
60.56555 117.000
60.58550 109.000
60.60544 99.000
60.62539 115.000
60.64534 114.000
60.66528 129.000
60.68523 126.000
60.70518 123.000
60.72512 119.000
60.74507 93.000
60.76502 112.000
60.78496 119.000
60.80491 96.000
60.82486 104.000
60.84481 121.000
60.86475 109.000
60.88470 122.000
60.90465 126.000
60.92459 133.000
60.94454 138.000
60.96449 134.000
60.98443 112.000
61.00438 126.000
61.02433 121.000
61.04428 117.000
61.06422 142.000
61.08417 135.000
61.10412 135.000
61.12406 136.000
61.14401 122.000
61.16396 110.000
61.18390 129.000
61.20385 121.000
61.22380 126.000
61.24374 127.000
61.26369 127.000
61.28364 122.000
61.30359 134.000
61.32353 111.000
61.34348 141.000
61.36343 134.000
61.38337 136.000
61.40332 164.000
61.42327 131.000
61.44321 111.000
61.46316 129.000
61.48311 127.000
61.50306 113.000
61.52300 140.000
61.54295 134.000
61.56290 135.000
61.58284 129.000
61.60279 166.000
61.62274 139.000
61.64268 131.000
61.66263 156.000
61.68258 128.000
61.70252 149.000
61.72247 142.000
61.74242 151.000
61.76237 163.000
61.78231 172.000
61.80226 193.000
61.82221 198.000
61.84215 177.000
61.86210 204.000
61.88205 236.000
61.90199 224.000
61.92194 255.000
61.94189 278.000
61.96184 279.000
61.98178 357.000
62.00173 434.000
62.02168 475.000
62.04162 478.000
62.06157 565.000
62.08152 642.000
62.10146 730.000
62.12141 733.000
62.14136 784.000
62.16131 800.000
62.18125 745.000
62.20120 626.000
62.22115 625.000
62.24109 574.000
62.26104 523.000
62.28099 530.000
62.30093 503.000
62.32088 493.000
62.34083 453.000
62.36077 369.000
62.38072 346.000
62.40067 283.000
62.42062 273.000
62.44056 244.000
62.46051 221.000
62.48046 202.000
62.50040 202.000
62.52035 211.000
62.54030 191.000
62.56024 183.000
62.58019 177.000
62.60014 186.000
62.62009 214.000
62.64003 201.000
62.65998 237.000
62.67993 247.000
62.69987 229.000
62.71982 223.000
62.73977 251.000
62.75971 253.000
62.77966 309.000
62.79961 398.000
62.81955 540.000
62.83950 687.000
62.85945 814.000
62.87940 963.000
62.89934 921.000
62.91929 979.000
62.93924 977.000
62.95918 794.000
62.97913 703.000
62.99908 624.000
63.01902 577.000
63.03897 637.000
63.05892 618.000
63.07887 591.000
63.09881 616.000
63.11876 487.000
63.13871 460.000
63.15865 349.000
63.17860 300.000
63.19855 236.000
63.21849 234.000
63.23844 210.000
63.25839 189.000
63.27833 171.000
63.29828 177.000
63.31823 152.000
63.33818 164.000
63.35812 146.000
63.37807 144.000
63.39802 122.000
63.41796 142.000
63.43791 146.000
63.45786 145.000
63.47780 157.000
63.49775 138.000
63.51770 141.000
63.53765 116.000
63.55759 133.000
63.57754 111.000
63.59749 136.000
63.61743 122.000
63.63738 157.000
63.65733 151.000
63.67727 134.000
63.69722 128.000
63.71717 122.000
63.73712 119.000
63.75706 131.000
63.77701 144.000
63.79696 139.000
63.81690 124.000
63.83685 120.000
63.85680 131.000
63.87674 109.000
63.89669 154.000
63.91664 132.000
63.93658 124.000
63.95653 137.000
63.97648 134.000
63.99643 123.000
64.01637 139.000
64.03632 136.000
64.05627 171.000
64.07621 119.000
64.09616 155.000
64.11611 151.000
64.13605 115.000
64.15600 114.000
64.17595 125.000
64.19590 134.000
64.21584 138.000
64.23579 154.000
64.25574 141.000
64.27568 144.000
64.29563 132.000
64.31558 151.000
64.33552 151.000
64.35547 164.000
64.37542 188.000
64.39536 194.000
64.41531 196.000
64.43526 209.000
64.45521 261.000
64.47515 273.000
64.49510 301.000
64.51505 323.000
64.53499 362.000
64.55494 407.000
64.57489 438.000
64.59483 499.000
64.61478 577.000
64.63473 594.000
64.65468 695.000
64.67462 655.000
64.69457 586.000
64.71452 551.000
64.73446 489.000
64.75441 459.000
64.77436 418.000
64.79430 406.000
64.81425 437.000
64.83420 425.000
64.85414 360.000
64.87409 353.000
64.89404 292.000
64.91399 275.000
64.93393 199.000
64.95388 222.000
64.97383 174.000
64.99377 191.000
65.01372 133.000
65.03367 132.000
65.05361 126.000
65.07356 153.000
65.09351 124.000
65.11346 145.000
65.13340 128.000
65.15335 120.000
65.17330 148.000
65.19324 111.000
65.21319 153.000
65.23314 108.000
65.25308 125.000
65.27303 110.000
65.29298 144.000
65.31293 137.000
65.33287 143.000
65.35282 128.000
65.37277 118.000
65.39271 125.000
65.41266 129.000
65.43261 129.000
65.45255 125.000
65.47250 120.000
65.49245 127.000
65.51239 137.000
65.53234 119.000
65.55229 134.000
65.57224 130.000
65.59218 129.000
65.61213 126.000
65.63208 111.000
65.65202 92.000
65.67197 122.000
65.69192 98.000
65.71186 106.000
65.73181 128.000
65.75176 130.000
65.77171 105.000
65.79165 106.000
65.81160 112.000
65.83155 109.000
65.85149 106.000
65.87144 131.000
65.89139 131.000
65.91133 116.000
65.93128 125.000
65.95123 113.000
65.97117 139.000
65.99112 109.000
66.01107 112.000
66.03102 139.000
66.05096 102.000
66.07091 131.000
66.09086 137.000
66.11080 128.000
66.13075 125.000
66.15070 129.000
66.17064 114.000
66.19059 125.000
66.21054 131.000
66.23049 121.000
66.25043 123.000
66.27038 104.000
66.29033 125.000
66.31027 126.000
66.33022 123.000
66.35017 117.000
66.37011 117.000
66.39006 126.000
66.41001 121.000
66.42995 133.000
66.44990 132.000
66.46985 119.000
66.48980 163.000
66.50974 115.000
66.52969 142.000
66.54964 139.000
66.56958 129.000
66.58953 149.000
66.60948 141.000
66.62942 170.000
66.64937 165.000
66.66932 158.000
66.68927 141.000
66.70921 151.000
66.72916 163.000
66.74911 162.000
66.76905 205.000
66.78900 205.000
66.80895 224.000
66.82889 215.000
66.84884 253.000
66.86879 285.000
66.88874 315.000
66.90868 348.000
66.92863 331.000
66.94858 389.000
66.96852 452.000
66.98847 468.000
67.00842 543.000
67.02836 535.000
67.04831 580.000
67.06826 562.000
67.08820 516.000
67.10815 450.000
67.12810 399.000
67.14805 348.000
67.16799 334.000
67.18794 324.000
67.20789 334.000
67.22783 319.000
67.24778 314.000
67.26773 322.000
67.28767 274.000
67.30762 239.000
67.32757 195.000
67.34752 189.000
67.36746 171.000
67.38741 139.000
67.40736 167.000
67.42730 149.000
67.44725 126.000
67.46720 144.000
67.48714 130.000
67.50709 131.000
67.52704 120.000
67.54698 125.000
67.56693 118.000
67.58688 111.000
67.60683 132.000
67.62677 143.000
67.64672 107.000
67.66667 103.000
67.68661 102.000
67.70656 125.000
67.72651 131.000
67.74645 116.000
67.76640 135.000
67.78635 124.000
67.80630 130.000
67.82624 148.000
67.84619 107.000
67.86614 117.000
67.88608 106.000
67.90603 115.000
67.92598 116.000
67.94592 120.000
67.96587 125.000
67.98582 118.000
68.00576 132.000
68.02571 116.000
68.04566 116.000
68.06561 122.000
68.08555 115.000
68.10550 135.000
68.12545 129.000
68.14539 116.000
68.16534 123.000
68.18529 117.000
68.20523 115.000
68.22518 121.000
68.24513 110.000
68.26508 110.000
68.28502 108.000
68.30497 111.000
68.32492 127.000
68.34486 105.000
68.36481 118.000
68.38476 120.000
68.40470 103.000
68.42465 115.000
68.44460 124.000
68.46455 114.000
68.48449 114.000
68.50444 124.000
68.52439 105.000
68.54433 123.000
68.56428 114.000
68.58423 123.000
68.60417 119.000
68.62412 116.000
68.64407 111.000
68.66401 126.000
68.68396 128.000
68.70391 104.000
68.72386 103.000
68.74380 89.000
68.76375 106.000
68.78370 132.000
68.80364 111.000
68.82359 123.000
68.84354 94.000
68.86348 113.000
68.88343 99.000
68.90338 112.000
68.92333 109.000
68.94327 113.000
68.96322 88.000
68.98317 109.000
69.00311 100.000
69.02306 93.000
69.04301 105.000
69.06295 98.000
69.08290 102.000
69.10285 113.000
69.12279 122.000
69.14274 88.000
69.16269 129.000
69.18264 122.000
69.20258 122.000
69.22253 115.000
69.24248 135.000
69.26242 117.000
69.28237 115.000
69.30232 101.000
69.32226 119.000
69.34221 110.000
69.36216 106.000
69.38211 119.000
69.40205 138.000
69.42200 112.000
69.44195 119.000
69.46189 127.000
69.48184 125.000
69.50179 102.000
69.52173 121.000
69.54168 131.000
69.56163 96.000
69.58157 129.000
69.60152 112.000
69.62147 104.000
69.64142 124.000
69.66136 134.000
69.68131 113.000
69.70126 122.000
69.72120 108.000
69.74115 108.000
69.76110 120.000
69.78104 133.000
69.80099 101.000
69.82094 132.000
69.84089 147.000
69.86083 105.000
69.88078 136.000
69.90073 120.000
69.92067 148.000
69.94062 128.000
69.96057 144.000
69.98051 142.000
70.00046 122.000
70.02041 110.000
70.04035 123.000
70.06030 123.000
70.08025 109.000
70.10020 110.000
70.12014 108.000
70.14009 97.000
70.16004 122.000
70.17998 103.000
70.19993 128.000
70.21988 118.000
70.23982 102.000
70.25977 100.000
70.27972 101.000
70.29967 115.000
70.31961 123.000
70.33956 121.000
70.35951 126.000
70.37945 99.000
70.39940 115.000
70.41935 96.000
70.43929 104.000
70.45924 112.000
70.47919 109.000
70.49914 127.000
70.51908 111.000
70.53903 106.000
70.55898 107.000
70.57892 114.000
70.59887 118.000
70.61882 113.000
70.63876 109.000
70.65871 109.000
70.67866 118.000
70.69860 115.000
70.71855 104.000
70.73850 115.000
70.75845 116.000
70.77839 143.000
70.79834 95.000
70.81829 118.000
70.83823 110.000
70.85818 110.000
70.87813 98.000
70.89807 119.000
70.91802 128.000
70.93797 137.000
70.95792 117.000
70.97786 97.000
70.99781 106.000
71.01776 108.000
71.03770 132.000
71.05765 86.000
71.07760 96.000
71.09754 111.000
71.11749 109.000
71.13744 116.000
71.15738 119.000
71.17733 92.000
71.19728 101.000
71.21723 124.000
71.23717 140.000
71.25712 127.000
71.27707 109.000
71.29701 117.000
71.31696 103.000
71.33691 131.000
71.35685 99.000
71.37680 100.000
71.39675 104.000
71.41670 115.000
71.43664 105.000
71.45659 107.000
71.47654 118.000
71.49648 110.000
71.51643 101.000
71.53638 133.000
71.55632 120.000
71.57627 105.000
71.59622 95.000
71.61616 122.000
71.63611 125.000
71.65606 107.000
71.67601 107.000
71.69595 136.000
71.71590 108.000
71.73585 124.000
71.75579 103.000
71.77574 125.000
71.79569 117.000
71.81563 109.000
71.83558 129.000
71.85553 117.000
71.87548 109.000
71.89542 87.000
71.91537 96.000
71.93532 118.000
71.95526 90.000
71.97521 120.000
71.99516 104.000
72.01510 114.000
72.03505 110.000
72.05500 112.000
72.07495 93.000
72.09489 108.000
72.11484 113.000
72.13479 117.000
72.15473 90.000
72.17468 103.000
72.19463 102.000
72.21457 133.000
72.23452 119.000
72.25447 114.000
72.27441 110.000
72.29436 122.000
72.31431 100.000
72.33426 111.000
72.35420 102.000
72.37415 132.000
72.39410 111.000
72.41404 128.000
72.43399 109.000
72.45394 100.000
72.47388 127.000
72.49383 115.000
72.51378 105.000
72.53373 102.000
72.55367 116.000
72.57362 110.000
72.59357 117.000
72.61351 125.000
72.63346 109.000
72.65341 101.000
72.67335 92.000
72.69330 109.000
72.71325 140.000
72.73319 115.000
72.75314 106.000
72.77309 104.000
72.79304 123.000
72.81298 114.000
72.83293 126.000
72.85288 108.000
72.87282 132.000
72.89277 141.000
72.91272 130.000
72.93266 104.000
72.95261 102.000
72.97256 123.000
72.99251 119.000
73.01245 97.000
73.03240 124.000
73.05235 133.000
73.07229 114.000
73.09224 110.000
73.11219 113.000
73.13213 116.000
73.15208 126.000
73.17203 99.000
73.19197 107.000
73.21192 109.000
73.23187 110.000
73.25182 100.000
73.27176 121.000
73.29171 106.000
73.31166 135.000
73.33160 113.000
73.35155 107.000
73.37150 126.000
73.39144 123.000
73.41139 113.000
73.43134 124.000
73.45129 113.000
73.47123 115.000
73.49118 129.000
73.51113 120.000
73.53107 143.000
73.55102 111.000
73.57097 130.000
73.59091 99.000
73.61086 113.000
73.63081 127.000
73.65076 127.000
73.67070 114.000
73.69065 115.000
73.71060 140.000
73.73054 136.000
73.75049 143.000
73.77044 154.000
73.79038 120.000
73.81033 164.000
73.83028 177.000
73.85022 202.000
73.87017 212.000
73.89012 250.000
73.91007 252.000
73.93001 297.000
73.94996 324.000
73.96991 278.000
73.98985 285.000
74.00980 241.000
74.02975 226.000
74.04969 199.000
74.06964 189.000
74.08959 197.000
74.10954 205.000
74.12948 194.000
74.14943 224.000
74.16938 223.000
74.18932 197.000
74.20927 198.000
74.22922 167.000
74.24916 132.000
74.26911 138.000
74.28906 143.000
74.30900 140.000
74.32895 107.000
74.34890 127.000
74.36885 110.000
74.38879 119.000
74.40874 114.000
74.42869 113.000
74.44863 116.000
74.46858 117.000
74.48853 113.000
74.50847 112.000
74.52842 114.000
74.54837 115.000
74.56832 125.000
74.58826 124.000
74.60821 124.000
74.62816 112.000
74.64810 117.000
74.66805 118.000
74.68800 123.000
74.70794 117.000
74.72789 119.000
74.74784 135.000
74.76778 120.000
74.78773 123.000
74.80768 128.000
74.82763 141.000
74.84757 120.000
74.86752 119.000
74.88747 112.000
74.90741 112.000
74.92736 116.000
74.94731 90.000
74.96725 135.000
74.98720 123.000
75.00715 136.000
75.02710 129.000
75.04704 111.000
75.06699 117.000
75.08694 120.000
75.10688 146.000
75.12683 125.000
75.14678 130.000
75.16672 124.000
75.18667 146.000
75.20662 130.000
75.22657 135.000
75.24651 157.000
75.26646 155.000
75.28641 156.000
75.30635 174.000
75.32630 209.000
75.34625 252.000
75.36619 278.000
75.38614 347.000
75.40609 429.000
75.42603 418.000
75.44598 385.000
75.46593 363.000
75.48588 341.000
75.50582 291.000
75.52577 271.000
75.54572 240.000
75.56566 242.000
75.58561 271.000
75.60556 250.000
75.62550 271.000
75.64545 300.000
75.66540 283.000
75.68535 241.000
75.70529 239.000
75.72524 208.000
75.74519 164.000
75.76513 145.000
75.78508 157.000
75.80503 155.000
75.82497 130.000
75.84492 127.000
75.86487 128.000
75.88481 124.000
75.90476 133.000
75.92471 124.000
75.94466 113.000
75.96460 138.000
75.98455 136.000
76.00450 143.000
76.02444 140.000
76.04439 126.000
76.06434 124.000
76.08428 137.000
76.10423 137.000
76.12418 155.000
76.14413 135.000
76.16407 150.000
76.18402 196.000
76.20397 151.000
76.22391 170.000
76.24386 171.000
76.26381 188.000
76.28375 182.000
76.30370 163.000
76.32365 167.000
76.34359 141.000
76.36354 129.000
76.38349 155.000
76.40344 135.000
76.42338 153.000
76.44333 150.000
76.46328 147.000
76.48322 136.000
76.50317 144.000
76.52312 154.000
76.54306 126.000
76.56301 126.000
76.58296 111.000
76.60291 112.000
76.62285 137.000
76.64280 110.000
76.66275 111.000
76.68269 139.000
76.70264 120.000
76.72259 112.000
76.74253 125.000
76.76248 123.000
76.78243 130.000
76.80238 117.000
76.82232 104.000
76.84227 126.000
76.86222 119.000
76.88216 113.000
76.90211 123.000
76.92206 112.000
76.94200 112.000
76.96195 111.000
76.98190 117.000
77.00184 128.000
77.02179 109.000
77.04174 140.000
77.06169 118.000
77.08163 108.000
77.10158 117.000
77.12153 121.000
77.14147 144.000
77.16142 120.000
77.18137 125.000
77.20131 119.000
77.22126 107.000
77.24121 118.000
77.26116 120.000
77.28110 100.000
77.30105 121.000
77.32100 121.000
77.34094 125.000
77.36089 102.000
77.38084 103.000
77.40078 118.000
77.42073 120.000
77.44068 104.000
77.46062 126.000
77.48057 122.000
77.50052 100.000
77.52047 116.000
77.54041 93.000
77.56036 125.000
77.58031 92.000
77.60025 116.000
77.62020 139.000
77.64015 104.000
77.66009 119.000
77.68004 94.000
77.69999 129.000
77.71994 111.000
77.73988 119.000
77.75983 109.000
77.77978 99.000
77.79972 117.000
77.81967 140.000
77.83962 121.000
77.85956 122.000
77.87951 111.000
77.89946 144.000
77.91940 140.000
77.93935 118.000
77.95930 129.000
77.97925 134.000
77.99919 137.000
78.01914 142.000
78.03909 139.000
78.05903 149.000
78.07898 157.000
78.09893 138.000
78.11887 165.000
78.13882 164.000
78.15877 194.000
78.17872 190.000
78.19866 203.000
78.21861 225.000
78.23856 200.000
78.25850 264.000
78.27845 258.000
78.29840 267.000
78.31834 317.000
78.33829 301.000
78.35824 295.000
78.37819 348.000
78.39813 336.000
78.41808 383.000
78.43803 405.000
78.45797 383.000
78.47792 399.000
78.49787 397.000
78.51781 384.000
78.53776 328.000
78.55771 303.000
78.57765 334.000
78.59760 304.000
78.61755 257.000
78.63750 225.000
78.65744 255.000
78.67739 247.000
78.69734 257.000
78.71728 231.000
78.73723 228.000
78.75718 217.000
78.77712 199.000
78.79707 184.000
78.81702 170.000
78.83697 154.000
78.85691 157.000
78.87686 118.000
78.89681 140.000
78.91675 129.000
78.93670 145.000
78.95665 115.000
78.97659 104.000
78.99654 140.000
79.01649 126.000
79.03643 124.000
79.05638 154.000
79.07633 151.000
79.09628 135.000
79.11622 163.000
79.13617 117.000
79.15612 157.000
79.17606 133.000
79.19601 111.000
79.21596 148.000
79.23590 173.000
79.25585 153.000
79.27580 173.000
79.29575 190.000
79.31569 194.000
79.33564 236.000
79.35559 288.000
79.37553 320.000
79.39548 325.000
79.41543 316.000
79.43537 298.000
79.45532 258.000
79.47527 242.000
79.49521 215.000
79.51516 242.000
79.53511 220.000
79.55506 198.000
79.57500 232.000
79.59495 227.000
79.61490 248.000
79.63484 244.000
79.65479 235.000
79.67474 214.000
79.69468 176.000
79.71463 194.000
79.73458 190.000
79.75453 155.000
79.77447 149.000
79.79442 133.000
79.81437 148.000
79.83431 148.000
79.85426 119.000
79.87421 142.000
79.89415 114.000
79.91410 133.000
79.93405 122.000
79.95399 125.000
79.97394 127.000
79.99389 127.000
80.01384 86.000
80.03378 102.000
80.05373 115.000
80.07368 126.000
80.09362 110.000
80.11357 107.000
80.13352 110.000
80.15346 117.000
80.17341 123.000
80.19336 109.000
80.21331 138.000
80.23325 113.000
80.25320 125.000
80.27315 121.000
80.29309 119.000
80.31304 127.000
80.33299 120.000
80.35293 124.000
80.37288 104.000
80.39283 116.000
80.41278 113.000
80.43272 91.000
80.45267 139.000
80.47262 110.000
80.49256 119.000
80.51251 103.000
80.53246 113.000
80.55240 116.000
80.57235 116.000
80.59230 121.000
80.61224 120.000
80.63219 119.000
80.65214 114.000
80.67209 88.000
80.69203 127.000
80.71198 121.000
80.73193 121.000
80.75187 99.000
80.77182 98.000
80.79177 102.000
80.81171 108.000
80.83166 99.000
80.85161 117.000
80.87156 122.000
80.89150 111.000
80.91145 129.000
80.93140 114.000
80.95134 113.000
80.97129 113.000
80.99124 109.000
81.01118 109.000
81.03113 123.000
81.05108 106.000
81.07102 119.000
81.09097 149.000
81.11092 140.000
81.13087 127.000
81.15081 114.000
81.17076 120.000
81.19071 125.000
81.21065 140.000
81.23060 123.000
81.25055 136.000
81.27049 110.000
81.29044 126.000
81.31039 130.000
81.33034 136.000
81.35028 125.000
81.37023 103.000
81.39018 119.000
81.41012 130.000
81.43007 130.000
81.45002 124.000
81.46996 117.000
81.48991 134.000
81.50986 112.000
81.52980 130.000
81.54975 133.000
81.56970 112.000
81.58965 99.000
81.60959 120.000
81.62954 115.000
81.64949 110.000
81.66943 113.000
81.68938 107.000
81.70933 88.000
81.72927 108.000
81.74922 101.000
81.76917 93.000
81.78912 114.000
81.80906 122.000
81.82901 92.000
81.84896 96.000
81.86890 121.000
81.88885 117.000
81.90880 89.000
81.92874 120.000
81.94869 117.000
81.96864 127.000
81.98859 123.000
82.00853 103.000
82.02848 115.000
82.04843 114.000
82.06837 114.000
82.08832 101.000
82.10827 108.000
82.12821 100.000
82.14816 117.000
82.16811 99.000
82.18805 103.000
82.20800 118.000
82.22795 90.000
82.24790 105.000
82.26784 117.000
82.28779 130.000
82.30774 106.000
82.32768 107.000
82.34763 101.000
82.36758 120.000
82.38752 108.000
82.40747 110.000
82.42742 117.000
82.44737 117.000
82.46731 97.000
82.48726 115.000
82.50721 121.000
82.52715 114.000
82.54710 105.000
82.56705 107.000
82.58699 95.000
82.60694 109.000
82.62689 111.000
82.64683 95.000
82.66678 111.000
82.68673 110.000
82.70668 112.000
82.72662 106.000
82.74657 125.000
82.76652 88.000
82.78646 108.000
82.80641 90.000
82.82636 120.000
82.84630 116.000
82.86625 101.000
82.88620 134.000
82.90615 125.000
82.92609 107.000
82.94604 111.000
82.96599 108.000
82.98593 116.000
83.00588 107.000
83.02583 103.000
83.04577 132.000
83.06572 98.000
83.08567 115.000
83.10561 117.000
83.12556 133.000
83.14551 107.000
83.16546 106.000
83.18540 121.000
83.20535 114.000
83.22530 114.000
83.24524 117.000
83.26519 96.000
83.28514 132.000
83.30508 104.000
83.32503 109.000
83.34498 112.000
83.36493 109.000
83.38487 129.000
83.40482 105.000
83.42477 102.000
83.44471 114.000
83.46466 118.000
83.48461 97.000
83.50455 113.000
83.52450 111.000
83.54445 103.000
83.56440 102.000
83.58434 93.000
83.60429 105.000
83.62424 114.000
83.64418 101.000
83.66413 120.000
83.68408 89.000
83.70402 131.000
83.72397 99.000
83.74392 103.000
83.76386 123.000
83.78381 111.000
83.80376 111.000
83.82371 103.000
83.84365 119.000
83.86360 105.000
83.88355 91.000
83.90349 131.000
83.92344 114.000
83.94339 97.000
83.96333 127.000
83.98328 111.000
84.00323 105.000
84.02318 120.000
84.04312 121.000
84.06307 103.000
84.08302 112.000
84.10296 115.000
84.12291 100.000
84.14286 115.000
84.16280 117.000
84.18275 120.000
84.20270 110.000
84.22264 101.000
84.24259 101.000
84.26254 105.000
84.28249 115.000
84.30243 118.000
84.32238 129.000
84.34233 110.000
84.36227 128.000
84.38222 118.000
84.40217 115.000
84.42211 120.000
84.44206 97.000
84.46201 119.000
84.48196 113.000
84.50190 104.000
84.52185 142.000
84.54180 107.000
84.56174 106.000
84.58169 129.000
84.60164 119.000
84.62158 133.000
84.64153 128.000
84.66148 114.000
84.68142 132.000
84.70137 127.000
84.72132 125.000
84.74127 152.000
84.76121 132.000
84.78116 111.000
84.80111 133.000
84.82105 140.000
84.84100 157.000
84.86095 157.000
84.88089 153.000
84.90084 206.000
84.92079 193.000
84.94074 212.000
84.96068 255.000
84.98063 228.000
85.00058 238.000
85.02052 262.000
85.04047 294.000
85.06042 287.000
85.08036 306.000
85.10031 320.000
85.12026 273.000
85.14021 239.000
85.16015 232.000
85.18010 205.000
85.20005 218.000
85.21999 190.000
85.23994 190.000
85.25989 201.000
85.27983 202.000
85.29978 195.000
85.31973 231.000
85.33967 226.000
85.35962 204.000
85.37957 200.000
85.39952 188.000
85.41946 154.000
85.43941 145.000
85.45936 140.000
85.47930 116.000
85.49925 151.000
85.51920 134.000
85.53914 115.000
85.55909 117.000
85.57904 127.000
85.59899 110.000
85.61893 116.000
85.63888 123.000
85.65883 120.000
85.67877 108.000
85.69872 129.000
85.71867 101.000
85.73861 137.000
85.75856 122.000
85.77851 113.000
85.79845 98.000
85.81840 100.000
85.83835 110.000
85.85830 87.000
85.87824 97.000
85.89819 107.000
85.91814 111.000
85.93808 102.000
85.95803 103.000
85.97798 108.000
85.99792 90.000
86.01787 118.000
86.03782 109.000
86.05777 95.000
86.07771 91.000
86.09766 128.000
86.11761 120.000
86.13755 112.000
86.15750 126.000
86.17745 106.000
86.19739 100.000
86.21734 93.000
86.23729 99.000
86.25723 132.000
86.27718 109.000
86.29713 116.000
86.31708 105.000
86.33702 104.000
86.35697 103.000
86.37692 103.000
86.39686 101.000
86.41681 108.000
86.43676 91.000
86.45670 127.000
86.47665 93.000
86.49660 112.000
86.51655 111.000
86.53649 98.000
86.55644 96.000
86.57639 89.000
86.59633 95.000
86.61628 93.000
86.63623 113.000
86.65617 130.000
86.67612 125.000
86.69607 124.000
86.71602 101.000
86.73596 121.000
86.75591 106.000
86.77586 102.000
86.79580 122.000
86.81575 104.000
86.83570 117.000
86.85564 112.000
86.87559 115.000
86.89554 133.000
86.91548 121.000
86.93543 114.000
86.95538 117.000
86.97533 113.000
86.99527 131.000
87.01522 127.000
87.03517 143.000
87.05511 129.000
87.07506 128.000
87.09501 131.000
87.11495 123.000
87.13490 129.000
87.15485 117.000
87.17480 133.000
87.19474 117.000
87.21469 136.000
87.23464 126.000
87.25458 148.000
87.27453 122.000
87.29448 118.000
87.31442 132.000
87.33437 137.000
87.35432 123.000
87.37426 143.000
87.39421 131.000
87.41416 141.000
87.43411 118.000
87.45405 135.000
87.47400 134.000
87.49395 119.000
87.51389 139.000
87.53384 140.000
87.55379 105.000
87.57373 125.000
87.59368 124.000
87.61363 131.000
87.63358 115.000
87.65352 131.000
87.67347 148.000
87.69342 118.000
87.71336 121.000
87.73331 137.000
87.75326 119.000
87.77320 138.000
87.79315 125.000
87.81310 129.000
87.83304 130.000
87.85299 122.000
87.87294 112.000
87.89289 104.000
87.91283 125.000
87.93278 107.000
87.95273 113.000
87.97267 129.000
87.99262 130.000
88.01257 119.000
88.03251 106.000
88.05246 109.000
88.07241 115.000
88.09236 130.000
88.11230 90.000
88.13225 83.000
88.15220 106.000
88.17214 92.000
88.19209 132.000
88.21204 103.000
88.23198 104.000
88.25193 107.000
88.27188 126.000
88.29183 118.000
88.31177 103.000
88.33172 102.000
88.35167 104.000
88.37161 98.000
88.39156 119.000
88.41151 132.000
88.43145 109.000
88.45140 110.000
88.47135 123.000
88.49129 107.000
88.51124 116.000
88.53119 112.000
88.55114 106.000
88.57108 107.000
88.59103 105.000
88.61098 116.000
88.63092 98.000
88.65087 95.000
88.67082 103.000
88.69076 98.000
88.71071 118.000
88.73066 108.000
88.75061 113.000
88.77055 110.000
88.79050 110.000
88.81045 94.000
88.83039 102.000
88.85034 100.000
88.87029 113.000
88.89023 94.000
88.91018 102.000
88.93013 106.000
88.95007 104.000
88.97002 85.000
88.98997 133.000
89.00992 110.000
89.02986 123.000
89.04981 110.000
89.06976 100.000
89.08970 116.000
89.10965 112.000
89.12960 120.000
89.14954 106.000
89.16949 111.000
89.18944 117.000
89.20939 126.000
89.22933 108.000
89.24928 107.000
89.26923 113.000
89.28917 125.000
89.30912 113.000
89.32907 92.000
89.34901 111.000
89.36896 112.000
89.38891 110.000
89.40885 106.000
89.42880 109.000
89.44875 113.000
89.46870 110.000
89.48864 93.000
89.50859 122.000
89.52854 114.000
89.54848 125.000
89.56843 99.000
89.58838 117.000
89.60832 92.000
89.62827 98.000
89.64822 102.000
89.66817 110.000
89.68811 84.000
89.70806 100.000
89.72801 122.000
89.74795 108.000
89.76790 103.000
89.78785 113.000
89.80779 133.000
89.82774 122.000
89.84769 100.000
89.86764 99.000
89.88758 110.000
89.90753 104.000
89.92748 112.000
89.94742 106.000
89.96737 105.000
89.98732 110.000
90.00726 105.000
