10.00000 188.000
10.01995 185.000
10.03989 151.000
10.05984 152.000
10.07979 172.000
10.09973 157.000
10.11968 178.000
10.13963 173.000
10.15958 196.000
10.17952 182.000
10.19947 157.000
10.21942 153.000
10.23936 148.000
10.25931 185.000
10.27926 158.000
10.29920 171.000
10.31915 154.000
10.33910 163.000
10.35905 181.000
10.37899 178.000
10.39894 177.000
10.41889 186.000
10.43883 168.000
10.45878 174.000
10.47873 187.000
10.49867 203.000
10.51862 175.000
10.53857 184.000
10.55851 189.000
10.57846 171.000
10.59841 176.000
10.61836 174.000
10.63830 173.000
10.65825 185.000
10.67820 166.000
10.69814 158.000
10.71809 163.000
10.73804 186.000
10.75798 169.000
10.77793 186.000
10.79788 179.000
10.81783 158.000
10.83777 172.000
10.85772 178.000
10.87767 187.000
10.89761 157.000
10.91756 188.000
10.93751 197.000
10.95745 180.000
10.97740 179.000
10.99735 174.000
11.01730 187.000
11.03724 174.000
11.05719 168.000
11.07714 171.000
11.09708 175.000
11.11703 188.000
11.13698 169.000
11.15692 175.000
11.17687 178.000
11.19682 197.000
11.21676 155.000
11.23671 186.000
11.25666 164.000
11.27661 174.000
11.29655 167.000
11.31650 201.000
11.33645 178.000
11.35639 197.000
11.37634 187.000
11.39629 167.000
11.41623 162.000
11.43618 180.000
11.45613 200.000
11.47608 187.000
11.49602 183.000
11.51597 173.000
11.53592 163.000
11.55586 188.000
11.57581 185.000
11.59576 175.000
11.61570 181.000
11.63565 198.000
11.65560 180.000
11.67554 186.000
11.69549 175.000
11.71544 195.000
11.73539 183.000
11.75533 181.000
11.77528 187.000
11.79523 182.000
11.81517 187.000
11.83512 178.000
11.85507 190.000
11.87501 198.000
11.89496 184.000
11.91491 179.000
11.93486 183.000
11.95480 178.000
11.97475 171.000
11.99470 174.000
12.01464 160.000
12.03459 188.000
12.05454 179.000
12.07448 169.000
12.09443 176.000
12.11438 199.000
12.13432 169.000
12.15427 197.000
12.17422 182.000
12.19417 186.000
12.21411 170.000
12.23406 165.000
12.25401 175.000
12.27395 200.000
12.29390 162.000
12.31385 171.000
12.33379 181.000
12.35374 200.000
12.37369 204.000
12.39364 181.000
12.41358 168.000
12.43353 175.000
12.45348 187.000
12.47342 203.000
12.49337 189.000
12.51332 195.000
12.53326 199.000
12.55321 141.000
12.57316 181.000
12.59311 173.000
12.61305 209.000
12.63300 179.000
12.65295 190.000
12.67289 157.000
12.69284 194.000
12.71279 181.000
12.73273 178.000
12.75268 175.000
12.77263 188.000
12.79257 203.000
12.81252 191.000
12.83247 177.000
12.85242 187.000
12.87236 200.000
12.89231 178.000
12.91226 184.000
12.93220 198.000
12.95215 176.000
12.97210 221.000
12.99204 191.000
13.01199 183.000
13.03194 197.000
13.05189 175.000
13.07183 163.000
13.09178 219.000
13.11173 184.000
13.13167 200.000
13.15162 186.000
13.17157 200.000
13.19151 171.000
13.21146 174.000
13.23141 158.000
13.25135 167.000
13.27130 164.000
13.29125 203.000
13.31120 182.000
13.33114 175.000
13.35109 181.000
13.37104 173.000
13.39098 185.000
13.41093 193.000
13.43088 179.000
13.45082 186.000
13.47077 180.000
13.49072 184.000
13.51067 202.000
13.53061 188.000
13.55056 214.000
13.57051 192.000
13.59045 201.000
13.61040 197.000
13.63035 181.000
13.65029 197.000
13.67024 186.000
13.69019 189.000
13.71013 205.000
13.73008 197.000
13.75003 172.000
13.76998 176.000
13.78992 205.000
13.80987 183.000
13.82982 195.000
13.84976 199.000
13.86971 194.000
13.88966 179.000
13.90960 191.000
13.92955 174.000
13.94950 201.000
13.96945 182.000
13.98939 191.000
14.00934 213.000
14.02929 181.000
14.04923 184.000
14.06918 172.000
14.08913 180.000
14.10907 189.000
14.12902 215.000
14.14897 170.000
14.16892 191.000
14.18886 186.000
14.20881 194.000
14.22876 195.000
14.24870 202.000
14.26865 166.000
14.28860 184.000
14.30854 182.000
14.32849 180.000
14.34844 173.000
14.36838 200.000
14.38833 200.000
14.40828 217.000
14.42823 197.000
14.44817 197.000
14.46812 170.000
14.48807 193.000
14.50801 213.000
14.52796 212.000
14.54791 204.000
14.56785 192.000
14.58780 198.000
14.60775 162.000
14.62770 176.000
14.64764 195.000
14.66759 196.000
14.68754 189.000
14.70748 191.000
14.72743 168.000
14.74738 202.000
14.76732 202.000
14.78727 183.000
14.80722 198.000
14.82716 213.000
14.84711 210.000
14.86706 191.000
14.88701 223.000
14.90695 220.000
14.92690 201.000
14.94685 211.000
14.96679 207.000
14.98674 177.000
15.00669 211.000
15.02663 185.000
15.04658 205.000
15.06653 227.000
15.08648 192.000
15.10642 218.000
15.12637 211.000
15.14632 211.000
15.16626 215.000
15.18621 229.000
15.20616 220.000
15.22610 214.000
15.24605 235.000
15.26600 195.000
15.28594 234.000
15.30589 218.000
15.32584 234.000
15.34579 238.000
15.36573 248.000
15.38568 249.000
15.40563 233.000
15.42557 226.000
15.44552 226.000
15.46547 232.000
15.48541 262.000
15.50536 208.000
15.52531 261.000
15.54526 272.000
15.56520 248.000
15.58515 277.000
15.60510 268.000
15.62504 278.000
15.64499 327.000
15.66494 279.000
15.68488 334.000
15.70483 353.000
15.72478 374.000
15.74472 425.000
15.76467 492.000
15.78462 616.000
15.80457 811.000
15.82451 1146.000
15.84446 1844.000
15.86441 2847.000
15.88435 4345.000
15.90430 6453.000
15.92425 7600.000
15.94419 7775.000
15.96414 6530.000
15.98409 4112.000
16.00404 2526.000
16.02398 1246.000
16.04393 660.000
16.06388 506.000
16.08382 399.000
16.10377 377.000
16.12372 292.000
16.14366 281.000
16.16361 312.000
16.18356 265.000
16.20351 289.000
16.22345 253.000
16.24340 248.000
16.26335 259.000
16.28329 227.000
16.30324 267.000
16.32319 234.000
16.34313 229.000
16.36308 214.000
16.38303 241.000
16.40297 226.000
16.42292 223.000
16.44287 234.000
16.46282 231.000
16.48276 205.000
16.50271 227.000
16.52266 217.000
16.54260 220.000
16.56255 223.000
16.58250 199.000
16.60244 225.000
16.62239 190.000
16.64234 182.000
16.66229 198.000
16.68223 222.000
16.70218 189.000
16.72213 211.000
16.74207 201.000
16.76202 201.000
16.78197 191.000
16.80191 226.000
16.82186 226.000
16.84181 244.000
16.86175 234.000
16.88170 217.000
16.90165 217.000
16.92160 231.000
16.94154 254.000
16.96149 229.000
16.98144 202.000
17.00138 208.000
17.02133 205.000
17.04128 205.000
17.06122 204.000
17.08117 198.000
17.10112 208.000
17.12107 205.000
17.14101 193.000
17.16096 185.000
17.18091 195.000
17.20085 199.000
17.22080 210.000
17.24075 192.000
17.26069 188.000
17.28064 217.000
17.30059 199.000
17.32053 198.000
17.34048 200.000
17.36043 194.000
17.38038 184.000
17.40032 198.000
17.42027 208.000
17.44022 200.000
17.46016 179.000
17.48011 226.000
17.50006 204.000
17.52000 212.000
17.53995 225.000
17.55990 211.000
17.57985 219.000
17.59979 223.000
17.61974 196.000
17.63969 202.000
17.65963 210.000
17.67958 195.000
17.69953 201.000
17.71947 202.000
17.73942 196.000
17.75937 222.000
17.77932 216.000
17.79926 172.000
17.81921 191.000
17.83916 210.000
17.85910 218.000
17.87905 225.000
17.89900 189.000
17.91894 196.000
17.93889 201.000
17.95884 218.000
17.97878 208.000
17.99873 196.000
18.01868 188.000
18.03863 197.000
18.05857 190.000
18.07852 238.000
18.09847 216.000
18.11841 207.000
18.13836 222.000
18.15831 214.000
18.17825 200.000
18.19820 183.000
18.21815 200.000
18.23810 197.000
18.25804 198.000
18.27799 181.000
18.29794 202.000
18.31788 222.000
18.33783 191.000
18.35778 190.000
18.37772 183.000
18.39767 184.000
18.41762 184.000
18.43756 209.000
18.45751 225.000
18.47746 216.000
18.49741 204.000
18.51735 226.000
18.53730 232.000
18.55725 197.000
18.57719 215.000
18.59714 204.000
18.61709 224.000
18.63703 199.000
18.65698 216.000
18.67693 195.000
18.69688 199.000
18.71682 207.000
18.73677 173.000
18.75672 214.000
18.77666 203.000
18.79661 208.000
18.81656 184.000
18.83650 218.000
18.85645 197.000
18.87640 176.000
18.89634 213.000
18.91629 213.000
18.93624 197.000
18.95619 205.000
18.97613 230.000
18.99608 214.000
19.01603 200.000
19.03597 191.000
19.05592 210.000
19.07587 214.000
19.09581 229.000
19.11576 215.000
19.13571 210.000
19.15566 212.000
19.17560 224.000
19.19555 213.000
19.21550 183.000
19.23544 208.000
19.25539 212.000
19.27534 223.000
19.29528 218.000
19.31523 222.000
19.33518 199.000
19.35513 175.000
19.37507 195.000
19.39502 216.000
19.41497 197.000
19.43491 211.000
19.45486 194.000
19.47481 198.000
19.49475 223.000
19.51470 193.000
19.53465 214.000
19.55459 201.000
19.57454 207.000
19.59449 201.000
19.61444 220.000
19.63438 194.000
19.65433 184.000
19.67428 207.000
19.69422 200.000
19.71417 218.000
19.73412 204.000
19.75406 231.000
19.77401 211.000
19.79396 206.000
19.81391 200.000
19.83385 202.000
19.85380 219.000
19.87375 214.000
19.89369 237.000
19.91364 202.000
19.93359 192.000
19.95353 188.000
19.97348 196.000
19.99343 221.000
20.01337 204.000
20.03332 219.000
20.05327 204.000
20.07322 205.000
20.09316 195.000
20.11311 216.000
20.13306 202.000
20.15300 197.000
20.17295 208.000
20.19290 204.000
20.21284 177.000
20.23279 225.000
20.25274 198.000
20.27269 214.000
20.29263 230.000
20.31258 222.000
20.33253 214.000
20.35247 205.000
20.37242 235.000
20.39237 189.000
20.41231 208.000
20.43226 231.000
20.45221 224.000
20.47215 221.000
20.49210 205.000
20.51205 209.000
20.53200 232.000
20.55194 227.000
20.57189 208.000
20.59184 211.000
20.61178 209.000
20.63173 241.000
20.65168 256.000
20.67162 254.000
20.69157 201.000
20.71152 240.000
20.73147 216.000
20.75141 198.000
20.77136 201.000
20.79131 214.000
20.81125 244.000
20.83120 222.000
20.85115 207.000
20.87109 195.000
20.89104 213.000
20.91099 220.000
20.93094 228.000
20.95088 209.000
20.97083 207.000
20.99078 223.000
21.01072 201.000
21.03067 238.000
21.05062 228.000
21.07056 242.000
21.09051 270.000
21.11046 280.000
21.13040 310.000
21.15035 280.000
21.17030 337.000
21.19025 369.000
21.21019 300.000
21.23014 316.000
21.25009 271.000
21.27003 260.000
21.28998 269.000
21.30993 202.000
21.32987 214.000
21.34982 221.000
21.36977 226.000
21.38972 217.000
21.40966 222.000
21.42961 228.000
21.44956 202.000
21.46950 235.000
21.48945 248.000
21.50940 217.000
21.52934 212.000
21.54929 215.000
21.56924 203.000
21.58918 238.000
21.60913 230.000
21.62908 189.000
21.64903 225.000
21.66897 228.000
21.68892 213.000
21.70887 206.000
21.72881 216.000
21.74876 225.000
21.76871 201.000
21.78865 206.000
21.80860 209.000
21.82855 214.000
21.84850 215.000
21.86844 208.000
21.88839 220.000
21.90834 224.000
21.92828 245.000
21.94823 223.000
21.96818 230.000
21.98812 228.000
22.00807 230.000
22.02802 222.000
22.04796 246.000
22.06791 233.000
22.08786 242.000
22.10781 236.000
22.12775 249.000
22.14770 223.000
22.16765 233.000
22.18759 203.000
22.20754 223.000
22.22749 218.000
22.24743 204.000
22.26738 193.000
22.28733 194.000
22.30728 218.000
22.32722 232.000
22.34717 210.000
22.36712 209.000
22.38706 193.000
22.40701 211.000
22.42696 210.000
22.44690 220.000
22.46685 249.000
22.48680 224.000
22.50675 238.000
22.52669 200.000
22.54664 240.000
22.56659 242.000
22.58653 244.000
22.60648 215.000
22.62643 204.000
22.64637 214.000
22.66632 219.000
22.68627 208.000
22.70621 207.000
22.72616 231.000
22.74611 217.000
22.76606 226.000
22.78600 229.000
22.80595 210.000
22.82590 220.000
22.84584 230.000
22.86579 208.000
22.88574 210.000
22.90568 200.000
22.92563 209.000
22.94558 219.000
22.96553 204.000
22.98547 228.000
23.00542 217.000
23.02537 217.000
23.04531 208.000
23.06526 231.000
23.08521 220.000
23.10515 208.000
23.12510 201.000
23.14505 245.000
23.16499 231.000
23.18494 251.000
23.20489 242.000
23.22484 224.000
23.24478 198.000
23.26473 215.000
23.28468 216.000
23.30462 224.000
23.32457 219.000
23.34452 189.000
23.36446 225.000
23.38441 214.000
23.40436 199.000
23.42431 215.000
23.44425 236.000
23.46420 201.000
23.48415 204.000
23.50409 228.000
23.52404 231.000
23.54399 207.000
23.56393 265.000
23.58388 225.000
23.60383 221.000
23.62377 238.000
23.64372 212.000
23.66367 226.000
23.68362 211.000
23.70356 218.000
23.72351 199.000
23.74346 207.000
23.76340 240.000
23.78335 231.000
23.80330 230.000
23.82324 244.000
23.84319 218.000
23.86314 235.000
23.88309 240.000
23.90303 243.000
23.92298 230.000
23.94293 214.000
23.96287 225.000
23.98282 231.000
24.00277 214.000
24.02271 213.000
24.04266 227.000
24.06261 221.000
24.08256 212.000
24.10250 209.000
24.12245 231.000
24.14240 197.000
24.16234 233.000
24.18229 227.000
24.20224 237.000
24.22218 206.000
24.24213 190.000
24.26208 233.000
24.28202 216.000
24.30197 236.000
24.32192 201.000
24.34187 215.000
24.36181 240.000
24.38176 218.000
24.40171 216.000
24.42165 221.000
24.44160 218.000
24.46155 239.000
24.48149 219.000
24.50144 226.000
24.52139 244.000
24.54134 215.000
24.56128 244.000
24.58123 210.000
24.60118 232.000
24.62112 233.000
24.64107 213.000
24.66102 231.000
24.68096 226.000
24.70091 219.000
24.72086 238.000
24.74080 231.000
24.76075 231.000
24.78070 224.000
24.80065 229.000
24.82059 204.000
24.84054 227.000
24.86049 236.000
24.88043 228.000
24.90038 218.000
24.92033 220.000
24.94027 217.000
24.96022 211.000
24.98017 252.000
25.00012 222.000
25.02006 223.000
25.04001 234.000
25.05996 257.000
25.07990 238.000
25.09985 236.000
25.11980 254.000
25.13974 239.000
25.15969 230.000
25.17964 217.000
25.19958 236.000
25.21953 220.000
25.23948 176.000
25.25943 195.000
25.27937 210.000
25.29932 244.000
25.31927 214.000
25.33921 238.000
25.35916 224.000
25.37911 242.000
25.39905 249.000
25.41900 207.000
25.43895 203.000
25.45890 230.000
25.47884 195.000
25.49879 214.000
25.51874 189.000
25.53868 242.000
25.55863 195.000
25.57858 235.000
25.59852 219.000
25.61847 219.000
25.63842 211.000
25.65837 207.000
25.67831 236.000
25.69826 213.000
25.71821 226.000
25.73815 214.000
25.75810 249.000
25.77805 234.000
25.79799 201.000
25.81794 230.000
25.83789 225.000
25.85783 224.000
25.87778 269.000
25.89773 241.000
25.91768 255.000
25.93762 226.000
25.95757 230.000
25.97752 239.000
25.99746 196.000
26.01741 253.000
26.03736 246.000
26.05730 204.000
26.07725 243.000
26.09720 256.000
26.11715 204.000
26.13709 248.000
26.15704 215.000
26.17699 216.000
26.19693 236.000
26.21688 229.000
26.23683 236.000
26.25677 226.000
26.27672 208.000
26.29667 223.000
26.31661 255.000
26.33656 227.000
26.35651 222.000
26.37646 238.000
26.39640 218.000
26.41635 227.000
26.43630 207.000
26.45624 263.000
26.47619 244.000
26.49614 217.000
26.51608 225.000
26.53603 255.000
26.55598 234.000
26.57593 253.000
26.59587 258.000
26.61582 234.000
26.63577 239.000
26.65571 222.000
26.67566 233.000
26.69561 231.000
26.71555 230.000
26.73550 239.000
26.75545 240.000
26.77539 242.000
26.79534 228.000
26.81529 228.000
26.83524 226.000
26.85518 226.000
26.87513 222.000
26.89508 188.000
26.91502 223.000
26.93497 233.000
26.95492 208.000
26.97486 235.000
26.99481 240.000
27.01476 228.000
27.03471 234.000
27.05465 209.000
27.07460 239.000
27.09455 248.000
27.11449 248.000
27.13444 243.000
27.15439 250.000
27.17433 227.000
27.19428 262.000
27.21423 279.000
27.23417 279.000
27.25412 265.000
27.27407 290.000
27.29402 297.000
27.31396 282.000
27.33391 264.000
27.35386 245.000
27.37380 247.000
27.39375 220.000
27.41370 214.000
27.43364 258.000
27.45359 210.000
27.47354 208.000
27.49349 237.000
27.51343 227.000
27.53338 252.000
27.55333 234.000
27.57327 243.000
27.59322 266.000
27.61317 271.000
27.63311 237.000
27.65306 230.000
27.67301 235.000
27.69296 216.000
27.71290 207.000
27.73285 246.000
27.75280 244.000
27.77274 224.000
27.79269 215.000
27.81264 229.000
27.83258 240.000
27.85253 223.000
27.87248 214.000
27.89242 249.000
27.91237 263.000
27.93232 222.000
27.95227 230.000
27.97221 261.000
27.99216 241.000
28.01211 248.000
28.03205 270.000
28.05200 262.000
28.07195 236.000
28.09189 267.000
28.11184 213.000
28.13179 236.000
28.15174 230.000
28.17168 243.000
28.19163 285.000
28.21158 251.000
28.23152 261.000
28.25147 204.000
28.27142 260.000
28.29136 256.000
28.31131 271.000
28.33126 283.000
28.35120 275.000
28.37115 264.000
28.39110 289.000
28.41105 334.000
28.43099 330.000
28.45094 316.000
28.47089 331.000
28.49083 341.000
28.51078 314.000
28.53073 284.000
28.55067 282.000
28.57062 263.000
28.59057 286.000
28.61052 244.000
28.63046 254.000
28.65041 220.000
28.67036 243.000
28.69030 249.000
28.71025 239.000
28.73020 241.000
28.75014 239.000
28.77009 216.000
28.79004 264.000
28.80998 252.000
28.82993 281.000
28.84988 239.000
28.86983 251.000
28.88977 241.000
28.90972 249.000
28.92967 230.000
28.94961 248.000
28.96956 256.000
28.98951 240.000
29.00945 233.000
29.02940 252.000
29.04935 239.000
29.06930 250.000
29.08924 254.000
29.10919 219.000
29.12914 239.000
29.14908 245.000
29.16903 228.000
29.18898 234.000
29.20892 242.000
29.22887 245.000
29.24882 249.000
29.26877 281.000
29.28871 242.000
29.30866 294.000
29.32861 252.000
29.34855 286.000
29.36850 312.000
29.38845 347.000
29.40839 319.000
29.42834 335.000
29.44829 329.000
29.46823 329.000
29.48818 327.000
29.50813 291.000
29.52808 322.000
29.54802 297.000
29.56797 285.000
29.58792 273.000
29.60786 261.000
29.62781 266.000
29.64776 244.000
29.66770 254.000
29.68765 258.000
29.70760 251.000
29.72755 275.000
29.74749 264.000
29.76744 223.000
29.78739 270.000
29.80733 253.000
29.82728 254.000
29.84723 225.000
29.86717 264.000
29.88712 223.000
29.90707 256.000
29.92701 221.000
29.94696 259.000
29.96691 271.000
29.98686 262.000
30.00680 238.000
30.02675 226.000
30.04670 272.000
30.06664 249.000
30.08659 274.000
30.10654 247.000
30.12648 252.000
30.14643 216.000
30.16638 254.000
30.18633 208.000
30.20627 245.000
30.22622 230.000
30.24617 256.000
30.26611 251.000
30.28606 250.000
30.30601 222.000
30.32595 248.000
30.34590 249.000
30.36585 218.000
30.38579 238.000
30.40574 238.000
30.42569 245.000
30.44564 253.000
30.46558 263.000
30.48553 240.000
30.50548 223.000
30.52542 253.000
30.54537 265.000
30.56532 223.000
30.58526 245.000
30.60521 247.000
30.62516 246.000
30.64511 218.000
30.66505 234.000
30.68500 237.000
30.70495 261.000
30.72489 221.000
30.74484 260.000
30.76479 242.000
30.78473 222.000
30.80468 258.000
30.82463 222.000
30.84458 240.000
30.86452 255.000
30.88447 250.000
30.90442 250.000
30.92436 242.000
30.94431 249.000
30.96426 242.000
30.98420 240.000
31.00415 253.000
31.02410 256.000
31.04404 232.000
31.06399 234.000
31.08394 254.000
31.10389 256.000
31.12383 255.000
31.14378 255.000
31.16373 273.000
31.18367 270.000
31.20362 248.000
31.22357 244.000
31.24351 260.000
31.26346 262.000
31.28341 276.000
31.30336 235.000
31.32330 275.000
31.34325 220.000
31.36320 255.000
31.38314 248.000
31.40309 281.000
31.42304 239.000
31.44298 241.000
31.46293 251.000
31.48288 253.000
31.50282 244.000
31.52277 249.000
31.54272 268.000
31.56267 244.000
31.58261 249.000
31.60256 259.000
31.62251 271.000
31.64245 300.000
31.66240 249.000
31.68235 296.000
31.70229 302.000
31.72224 302.000
31.74219 283.000
31.76214 292.000
31.78208 274.000
31.80203 307.000
31.82198 275.000
31.84192 308.000
31.86187 302.000
31.88182 272.000
31.90176 290.000
31.92171 302.000
31.94166 289.000
31.96160 314.000
31.98155 354.000
32.00150 351.000
32.02145 452.000
32.04139 567.000
32.06134 681.000
32.08129 984.000
32.10123 1052.000
32.12118 1073.000
32.14113 925.000
32.16107 833.000
32.18102 719.000
32.20097 639.000
32.22092 552.000
32.24086 443.000
32.26081 331.000
32.28076 303.000
32.30070 299.000
32.32065 301.000
32.34060 288.000
32.36054 263.000
32.38049 277.000
32.40044 254.000
32.42039 279.000
32.44033 280.000
32.46028 294.000
32.48023 292.000
32.50017 333.000
32.52012 343.000
32.54007 329.000
32.56001 342.000
32.57996 356.000
32.59991 368.000
32.61985 344.000
32.63980 328.000
32.65975 338.000
32.67970 330.000
32.69964 287.000
32.71959 289.000
32.73954 259.000
32.75948 223.000
32.77943 275.000
32.79938 250.000
32.81932 269.000
32.83927 255.000
32.85922 244.000
32.87917 261.000
32.89911 262.000
32.91906 265.000
32.93901 245.000
32.95895 247.000
32.97890 298.000
32.99885 243.000
33.01879 247.000
33.03874 241.000
33.05869 237.000
33.07863 237.000
33.09858 247.000
33.11853 266.000
33.13848 258.000
33.15842 248.000
33.17837 288.000
33.19832 261.000
33.21826 268.000
33.23821 247.000
33.25816 235.000
33.27810 244.000
33.29805 269.000
33.31800 261.000
33.33795 268.000
33.35789 263.000
33.37784 230.000
33.39779 251.000
33.41773 251.000
33.43768 246.000
33.45763 283.000
33.47757 231.000
33.49752 243.000
33.51747 243.000
33.53741 262.000
33.55736 265.000
33.57731 270.000
33.59726 240.000
33.61720 253.000
33.63715 278.000
33.65710 273.000
33.67704 243.000
33.69699 268.000
33.71694 253.000
33.73688 268.000
33.75683 233.000
33.77678 263.000
33.79673 267.000
33.81667 268.000
33.83662 280.000
33.85657 240.000
33.87651 241.000
33.89646 246.000
33.91641 243.000
33.93635 260.000
33.95630 226.000
33.97625 252.000
33.99620 250.000
34.01614 244.000
34.03609 273.000
34.05604 266.000
34.07598 234.000
34.09593 249.000
34.11588 248.000
34.13582 263.000
34.15577 264.000
34.17572 263.000
34.19566 266.000
34.21561 290.000
34.23556 253.000
34.25551 256.000
34.27545 257.000
34.29540 231.000
34.31535 254.000
34.33529 249.000
34.35524 244.000
34.37519 254.000
34.39513 256.000
34.41508 298.000
34.43503 234.000
34.45498 285.000
34.47492 247.000
34.49487 245.000
34.51482 283.000
34.53476 241.000
34.55471 254.000
34.57466 279.000
34.59460 281.000
34.61455 255.000
34.63450 267.000
34.65444 257.000
34.67439 281.000
34.69434 268.000
34.71429 305.000
34.73423 293.000
34.75418 300.000
34.77413 328.000
34.79407 303.000
34.81402 358.000
34.83397 365.000
34.85391 393.000
34.87386 378.000
34.89381 426.000
34.91376 424.000
34.93370 420.000
34.95365 366.000
34.97360 383.000
34.99354 381.000
35.01349 350.000
35.03344 308.000
35.05338 314.000
35.07333 280.000
35.09328 299.000
35.11322 303.000
35.13317 277.000
35.15312 298.000
35.17307 303.000
35.19301 277.000
35.21296 318.000
35.23291 276.000
35.25285 299.000
35.27280 319.000
35.29275 315.000
35.31269 316.000
35.33264 322.000
35.35259 384.000
35.37254 397.000
35.39248 447.000
35.41243 489.000
35.43238 593.000
35.45232 720.000
35.47227 863.000
35.49222 940.000
35.51216 1049.000
35.53211 1028.000
35.55206 1120.000
35.57201 1229.000
35.59195 1403.000
35.61190 1283.000
35.63185 1245.000
35.65179 1266.000
35.67174 1175.000
35.69169 998.000
35.71163 898.000
35.73158 878.000
35.75153 709.000
35.77147 677.000
35.79142 542.000
35.81137 581.000
35.83132 586.000
35.85126 762.000
35.87121 794.000
35.89116 963.000
35.91110 979.000
35.93105 1068.000
35.95100 1150.000
35.97094 1177.000
35.99089 1017.000
36.01084 886.000
36.03079 750.000
36.05073 703.000
36.07068 641.000
36.09063 529.000
36.11057 471.000
36.13052 378.000
36.15047 327.000
36.17041 296.000
36.19036 300.000
36.21031 326.000
36.23025 273.000
36.25020 278.000
36.27015 301.000
36.29010 304.000
36.31004 292.000
36.32999 269.000
36.34994 301.000
36.36988 298.000
36.38983 277.000
36.40978 285.000
36.42972 311.000
36.44967 323.000
36.46962 315.000
36.48957 281.000
36.50951 321.000
36.52946 315.000
36.54941 312.000
36.56935 349.000
36.58930 345.000
36.60925 322.000
36.62919 324.000
36.64914 315.000
36.66909 324.000
36.68903 336.000
36.70898 313.000
36.72893 321.000
36.74888 294.000
36.76882 293.000
36.78877 326.000
36.80872 359.000
36.82866 338.000
36.84861 363.000
36.86856 387.000
36.88850 382.000
36.90845 427.000
36.92840 367.000
36.94835 401.000
36.96829 373.000
36.98824 363.000
37.00819 418.000
37.02813 399.000
37.04808 479.000
37.06803 464.000
37.08797 562.000
37.10792 750.000
37.12787 958.000
37.14781 1128.000
37.16776 1374.000
37.18771 1373.000
37.20766 1362.000
37.22760 1279.000
37.24755 1102.000
37.26750 1034.000
37.28744 981.000
37.30739 776.000
37.32734 691.000
37.34728 509.000
37.36723 456.000
37.38718 401.000
37.40713 356.000
37.42707 312.000
37.44702 350.000
37.46697 297.000
37.48691 285.000
37.50686 280.000
37.52681 301.000
37.54675 294.000
37.56670 276.000
37.58665 282.000
37.60660 274.000
37.62654 302.000
37.64649 277.000
37.66644 272.000
37.68638 296.000
37.70633 239.000
37.72628 299.000
37.74622 280.000
37.76617 294.000
37.78612 281.000
37.80606 279.000
37.82601 264.000
37.84596 273.000
37.86591 278.000
37.88585 274.000
37.90580 253.000
37.92575 274.000
37.94569 284.000
37.96564 273.000
37.98559 264.000
38.00553 290.000
38.02548 278.000
38.04543 275.000
38.06538 304.000
38.08532 250.000
38.10527 271.000
38.12522 259.000
38.14516 298.000
38.16511 280.000
38.18506 281.000
38.20500 299.000
38.22495 261.000
38.24490 311.000
38.26484 299.000
38.28479 305.000
38.30474 278.000
38.32469 299.000
38.34463 352.000
38.36458 334.000
38.38453 315.000
38.40447 306.000
38.42442 354.000
38.44437 368.000
38.46431 332.000
38.48426 384.000
38.50421 390.000
38.52416 392.000
38.54410 456.000
38.56405 485.000
38.58400 541.000
38.60394 593.000
38.62389 642.000
38.64384 850.000
38.66378 942.000
38.68373 1087.000
38.70368 1154.000
38.72362 1239.000
38.74357 1288.000
38.76352 1387.000
38.78347 1270.000
38.80341 1170.000
38.82336 1035.000
38.84331 983.000
38.86325 936.000
38.88320 827.000
38.90315 783.000
38.92309 700.000
38.94304 633.000
38.96299 637.000
38.98294 634.000
39.00288 580.000
39.02283 593.000
39.04278 580.000
39.06272 541.000
39.08267 537.000
39.10262 528.000
39.12256 523.000
39.14251 445.000
39.16246 471.000
39.18241 418.000
39.20235 396.000
39.22230 430.000
39.24225 390.000
39.26219 432.000
39.28214 416.000
39.30209 470.000
39.32203 462.000
39.34198 490.000
39.36193 544.000
39.38187 655.000
39.40182 827.000
39.42177 1045.000
39.44172 1268.000
39.46166 1435.000
39.48161 1605.000
39.50156 1737.000
39.52150 1731.000
39.54145 1802.000
39.56140 1613.000
39.58134 1515.000
39.60129 1332.000
39.62124 1143.000
39.64119 1000.000
39.66113 926.000
39.68108 736.000
39.70103 577.000
39.72097 446.000
39.74092 437.000
39.76087 415.000
39.78081 401.000
39.80076 336.000
39.82071 330.000
39.84065 339.000
39.86060 280.000
39.88055 302.000
39.90050 312.000
39.92044 289.000
39.94039 313.000
39.96034 284.000
39.98028 293.000
40.00023 271.000
40.02018 296.000
40.04012 275.000
40.06007 271.000
40.08002 292.000
40.09997 285.000
40.11991 289.000
40.13986 271.000
40.15981 256.000
40.17975 272.000
40.19970 262.000
40.21965 273.000
40.23959 288.000
40.25954 244.000
40.27949 224.000
40.29943 264.000
40.31938 267.000
40.33933 273.000
40.35928 267.000
40.37922 260.000
40.39917 267.000
40.41912 252.000
40.43906 233.000
40.45901 261.000
40.47896 256.000
40.49890 303.000
40.51885 251.000
40.53880 229.000
40.55875 288.000
40.57869 249.000
40.59864 259.000
40.61859 267.000
40.63853 295.000
40.65848 256.000
40.67843 251.000
40.69837 264.000
40.71832 275.000
40.73827 248.000
40.75822 230.000
40.77816 253.000
40.79811 280.000
40.81806 245.000
40.83800 244.000
40.85795 260.000
40.87790 256.000
40.89784 245.000
40.91779 247.000
40.93774 266.000
40.95768 229.000
40.97763 258.000
40.99758 251.000
41.01753 266.000
41.03747 248.000
41.05742 274.000
41.07737 242.000
41.09731 255.000
41.11726 245.000
41.13721 248.000
41.15715 261.000
41.17710 251.000
41.19705 276.000
41.21700 266.000
41.23694 276.000
41.25689 263.000
41.27684 263.000
41.29678 251.000
41.31673 247.000
41.33668 249.000
41.35662 277.000
41.37657 266.000
41.39652 263.000
41.41646 265.000
41.43641 277.000
41.45636 251.000
41.47631 258.000
41.49625 260.000
41.51620 251.000
41.53615 251.000
41.55609 264.000
41.57604 237.000
41.59599 238.000
41.61593 222.000
41.63588 269.000
41.65583 263.000
41.67578 234.000
41.69572 246.000
41.71567 292.000
41.73562 259.000
41.75556 246.000
41.77551 252.000
41.79546 258.000
41.81540 272.000
41.83535 265.000
41.85530 256.000
41.87524 264.000
41.89519 255.000
41.91514 264.000
41.93509 269.000
41.95503 242.000
41.97498 254.000
41.99493 244.000
42.01487 265.000
42.03482 274.000
42.05477 262.000
42.07471 280.000
42.09466 232.000
42.11461 275.000
42.13456 256.000
42.15450 268.000
42.17445 295.000
42.19440 281.000
42.21434 275.000
42.23429 256.000
42.25424 276.000
42.27418 242.000
42.29413 272.000
42.31408 260.000
42.33403 276.000
42.35397 263.000
42.37392 272.000
42.39387 293.000
42.41381 281.000
42.43376 254.000
42.45371 282.000
42.47365 334.000
42.49360 292.000
42.51355 279.000
42.53349 299.000
42.55344 312.000
42.57339 298.000
42.59334 296.000
42.61328 315.000
42.63323 313.000
42.65318 288.000
42.67312 327.000
42.69307 306.000
42.71302 290.000
42.73296 299.000
42.75291 308.000
42.77286 308.000
42.79281 312.000
42.81275 292.000
42.83270 347.000
42.85265 324.000
42.87259 324.000
42.89254 351.000
42.91249 367.000
42.93243 392.000
42.95238 412.000
42.97233 506.000
42.99227 528.000
43.01222 570.000
43.03217 619.000
43.05212 637.000
43.07206 832.000
43.09201 908.000
43.11196 980.000
43.13190 1107.000
43.15185 1245.000
43.17180 1276.000
43.19174 1314.000
43.21169 1287.000
43.23164 1416.000
43.25159 1340.000
43.27153 1256.000
43.29148 1157.000
43.31143 1142.000
43.33137 1042.000
43.35132 969.000
43.37127 824.000
43.39121 769.000
43.41116 685.000
43.43111 630.000
43.45105 585.000
43.47100 585.000
43.49095 557.000
43.51090 633.000
43.53084 641.000
43.55079 750.000
43.57074 817.000
43.59068 864.000
43.61063 859.000
43.63058 834.000
43.65052 837.000
43.67047 817.000
43.69042 773.000
43.71037 723.000
43.73031 658.000
43.75026 581.000
43.77021 533.000
43.79015 472.000
43.81010 462.000
43.83005 361.000
43.84999 389.000
43.86994 350.000
43.88989 320.000
43.90984 321.000
43.92978 286.000
43.94973 324.000
43.96968 290.000
43.98962 298.000
44.00957 276.000
44.02952 287.000
44.04946 262.000
44.06941 269.000
44.08936 297.000
44.10930 235.000
44.12925 261.000
44.14920 272.000
44.16915 257.000
44.18909 280.000
44.20904 265.000
44.22899 259.000
44.24893 244.000
44.26888 247.000
44.28883 249.000
44.30877 260.000
44.32872 263.000
44.34867 256.000
44.36862 278.000
44.38856 264.000
44.40851 249.000
44.42846 274.000
44.44840 252.000
44.46835 257.000
44.48830 280.000
44.50824 253.000
44.52819 249.000
44.54814 236.000
44.56808 251.000
44.58803 279.000
44.60798 237.000
44.62793 259.000
44.64787 244.000
44.66782 270.000
44.68777 263.000
44.70771 228.000
44.72766 277.000
44.74761 262.000
44.76755 270.000
44.78750 226.000
44.80745 286.000
44.82740 260.000
44.84734 271.000
44.86729 259.000
44.88724 296.000
44.90718 272.000
44.92713 266.000
44.94708 257.000
44.96702 285.000
44.98697 281.000
45.00692 278.000
45.02686 246.000
45.04681 307.000
45.06676 265.000
45.08671 251.000
45.10665 261.000
45.12660 266.000
45.14655 299.000
45.16649 256.000
45.18644 278.000
45.20639 255.000
45.22633 254.000
45.24628 236.000
45.26623 254.000
45.28618 257.000
45.30612 246.000
45.32607 269.000
45.34602 276.000
45.36596 258.000
45.38591 266.000
45.40586 231.000
45.42580 271.000
45.44575 274.000
45.46570 258.000
45.48565 240.000
45.50559 242.000
45.52554 281.000
45.54549 249.000
45.56543 276.000
45.58538 254.000
45.60533 246.000
45.62527 263.000
45.64522 236.000
45.66517 246.000
45.68511 264.000
45.70506 250.000
45.72501 263.000
45.74496 307.000
45.76490 226.000
45.78485 306.000
45.80480 283.000
45.82474 255.000
45.84469 251.000
45.86464 237.000
45.88458 248.000
45.90453 265.000
45.92448 258.000
45.94443 247.000
45.96437 259.000
45.98432 243.000
46.00427 253.000
46.02421 261.000
46.04416 239.000
46.06411 242.000
46.08405 254.000
46.10400 253.000
46.12395 244.000
46.14389 255.000
46.16384 261.000
46.18379 247.000
46.20374 268.000
46.22368 250.000
46.24363 263.000
46.26358 263.000
46.28352 274.000
46.30347 265.000
46.32342 254.000
46.34336 280.000
46.36331 252.000
46.38326 263.000
46.40321 261.000
46.42315 275.000
46.44310 275.000
46.46305 236.000
46.48299 229.000
46.50294 251.000
46.52289 235.000
46.54283 224.000
46.56278 250.000
46.58273 258.000
46.60267 272.000
46.62262 256.000
46.64257 258.000
46.66252 221.000
46.68246 212.000
46.70241 260.000
46.72236 260.000
46.74230 249.000
46.76225 268.000
46.78220 257.000
46.80214 224.000
46.82209 260.000
46.84204 266.000
46.86199 243.000
46.88193 248.000
46.90188 271.000
46.92183 245.000
46.94177 241.000
46.96172 229.000
46.98167 245.000
47.00161 232.000
47.02156 254.000
47.04151 238.000
47.06146 249.000
47.08140 243.000
47.10135 270.000
47.12130 277.000
47.14124 252.000
47.16119 279.000
47.18114 231.000
47.20108 235.000
47.22103 253.000
47.24098 249.000
47.26092 272.000
47.28087 260.000
47.30082 243.000
47.32077 267.000
47.34071 262.000
47.36066 246.000
47.38061 273.000
47.40055 262.000
47.42050 234.000
47.44045 259.000
47.46039 229.000
47.48034 291.000
47.50029 241.000
47.52024 259.000
47.54018 218.000
47.56013 233.000
47.58008 254.000
47.60002 262.000
47.61997 249.000
47.63992 265.000
47.65986 252.000
47.67981 269.000
47.69976 256.000
47.71970 255.000
47.73965 230.000
47.75960 246.000
47.77955 253.000
47.79949 259.000
47.81944 258.000
47.83939 252.000
47.85933 252.000
47.87928 242.000
47.89923 237.000
47.91917 283.000
47.93912 271.000
47.95907 260.000
47.97902 243.000
47.99896 282.000
48.01891 257.000
48.03886 246.000
48.05880 287.000
48.07875 280.000
48.09870 267.000
48.11864 252.000
48.13859 289.000
48.15854 334.000
48.17848 286.000
48.19843 327.000
48.21838 276.000
48.23833 287.000
48.25827 282.000
48.27822 297.000
48.29817 298.000
48.31811 296.000
48.33806 283.000
48.35801 296.000
48.37795 294.000
48.39790 282.000
48.41785 268.000
48.43780 302.000
48.45774 292.000
48.47769 309.000
48.49764 298.000
48.51758 315.000
48.53753 342.000
48.55748 354.000
48.57742 343.000
48.59737 377.000
48.61732 403.000
48.63726 403.000
48.65721 430.000
48.67716 432.000
48.69711 445.000
48.71705 523.000
48.73700 566.000
48.75695 719.000
48.77689 743.000
48.79684 892.000
48.81679 1056.000
48.83673 1308.000
48.85668 1514.000
48.87663 1647.000
48.89658 1755.000
48.91652 1759.000
48.93647 1802.000
48.95642 1658.000
48.97636 1647.000
48.99631 1512.000
49.01626 1408.000
49.03620 1245.000
49.05615 1199.000
49.07610 1048.000
49.09605 932.000
49.11599 811.000
49.13594 705.000
49.15589 635.000
49.17583 517.000
49.19578 454.000
49.21573 459.000
49.23567 362.000
49.25562 373.000
49.27557 346.000
49.29551 385.000
49.31546 317.000
49.33541 314.000
49.35536 305.000
49.37530 312.000
49.39525 326.000
49.41520 290.000
49.43514 278.000
49.45509 285.000
49.47504 256.000
49.49498 275.000
49.51493 276.000
49.53488 282.000
49.55483 257.000
49.57477 266.000
49.59472 250.000
49.61467 255.000
49.63461 254.000
49.65456 262.000
49.67451 277.000
49.69445 271.000
49.71440 294.000
49.73435 258.000
49.75429 290.000
49.77424 231.000
49.79419 260.000
49.81414 240.000
49.83408 273.000
49.85403 231.000
49.87398 275.000
49.89392 256.000
49.91387 268.000
49.93382 253.000
49.95376 289.000
49.97371 244.000
49.99366 241.000
50.01361 260.000
50.03355 264.000
50.05350 281.000
50.07345 271.000
50.09339 249.000
50.11334 262.000
50.13329 270.000
50.15323 269.000
50.17318 241.000
50.19313 266.000
50.21307 278.000
50.23302 293.000
50.25297 249.000
50.27292 262.000
50.29286 271.000
50.31281 267.000
50.33276 283.000
50.35270 232.000
50.37265 247.000
50.39260 258.000
50.41254 262.000
50.43249 250.000
50.45244 263.000
50.47239 244.000
50.49233 237.000
50.51228 274.000
50.53223 229.000
50.55217 228.000
50.57212 251.000
50.59207 264.000
50.61201 259.000
50.63196 256.000
50.65191 249.000
50.67186 232.000
50.69180 240.000
50.71175 250.000
50.73170 254.000
50.75164 247.000
50.77159 235.000
50.79154 241.000
50.81148 228.000
50.83143 248.000
50.85138 247.000
50.87132 250.000
50.89127 247.000
50.91122 245.000
50.93117 263.000
50.95111 245.000
50.97106 258.000
50.99101 258.000
51.01095 261.000
51.03090 268.000
51.05085 243.000
51.07079 263.000
51.09074 242.000
51.11069 252.000
51.13064 219.000
51.15058 284.000
51.17053 269.000
51.19048 241.000
51.21042 249.000
51.23037 255.000
51.25032 243.000
51.27026 254.000
51.29021 289.000
51.31016 240.000
51.33010 261.000
51.35005 246.000
51.37000 276.000
51.38995 251.000
51.40989 225.000
51.42984 245.000
51.44979 279.000
51.46973 262.000
51.48968 255.000
51.50963 245.000
51.52957 251.000
51.54952 265.000
51.56947 259.000
51.58942 262.000
51.60936 253.000
51.62931 237.000
51.64926 268.000
51.66920 251.000
51.68915 229.000
51.70910 254.000
51.72904 258.000
51.74899 240.000
51.76894 249.000
51.78888 225.000
51.80883 248.000
51.82878 236.000
51.84873 232.000
51.86867 221.000
51.88862 270.000
51.90857 227.000
51.92851 269.000
51.94846 246.000
51.96841 268.000
51.98835 253.000
52.00830 244.000
52.02825 276.000
52.04820 261.000
52.06814 253.000
52.08809 283.000
52.10804 244.000
52.12798 276.000
52.14793 304.000
52.16788 305.000
52.18782 276.000
52.20777 284.000
52.22772 258.000
52.24767 266.000
52.26761 278.000
52.28756 274.000
52.30751 268.000
52.32745 283.000
52.34740 260.000
52.36735 262.000
52.38729 249.000
52.40724 265.000
52.42719 244.000
52.44713 249.000
52.46708 260.000
52.48703 231.000
52.50698 279.000
52.52692 244.000
52.54687 237.000
52.56682 242.000
52.58676 230.000
52.60671 280.000
52.62666 223.000
52.64660 219.000
52.66655 246.000
52.68650 269.000
52.70645 227.000
52.72639 249.000
52.74634 241.000
52.76629 243.000
52.78623 251.000
52.80618 246.000
52.82613 264.000
52.84607 266.000
52.86602 231.000
52.88597 253.000
52.90591 271.000
52.92586 233.000
52.94581 268.000
52.96576 220.000
52.98570 245.000
53.00565 256.000
53.02560 225.000
53.04554 272.000
53.06549 250.000
53.08544 262.000
53.10538 246.000
53.12533 259.000
53.14528 244.000
53.16523 274.000
53.18517 270.000
53.20512 288.000
53.22507 252.000
53.24501 262.000
53.26496 286.000
53.28491 264.000
53.30485 300.000
53.32480 280.000
53.34475 308.000
53.36469 285.000
53.38464 285.000
53.40459 286.000
53.42454 264.000
53.44448 301.000
53.46443 285.000
53.48438 318.000
53.50432 304.000
53.52427 308.000
53.54422 291.000
53.56416 296.000
53.58411 303.000
53.60406 301.000
53.62401 304.000
53.64395 286.000
53.66390 275.000
53.68385 305.000
53.70379 297.000
53.72374 279.000
53.74369 251.000
53.76363 282.000
53.78358 283.000
53.80353 263.000
53.82348 273.000
53.84342 252.000
53.86337 284.000
53.88332 256.000
53.90326 280.000
53.92321 284.000
53.94316 280.000
53.96310 250.000
53.98305 265.000
54.00300 260.000
54.02294 257.000
54.04289 227.000
54.06284 264.000
54.08279 260.000
54.10273 244.000
54.12268 235.000
54.14263 248.000
54.16257 263.000
54.18252 204.000
54.20247 247.000
54.22241 252.000
54.24236 250.000
54.26231 262.000
54.28226 248.000
54.30220 247.000
54.32215 252.000
54.34210 252.000
54.36204 253.000
54.38199 283.000
54.40194 243.000
54.42188 278.000
54.44183 230.000
54.46178 272.000
54.48172 249.000
54.50167 299.000
54.52162 229.000
54.54157 238.000
54.56151 255.000
54.58146 266.000
54.60141 260.000
54.62135 253.000
54.64130 211.000
54.66125 262.000
54.68119 219.000
54.70114 253.000
54.72109 237.000
54.74104 263.000
54.76098 262.000
54.78093 220.000
54.80088 245.000
54.82082 235.000
54.84077 254.000
54.86072 254.000
54.88066 241.000
54.90061 266.000
54.92056 245.000
54.94050 269.000
54.96045 250.000
54.98040 253.000
55.00035 249.000
55.02029 243.000
55.04024 229.000
55.06019 265.000
55.08013 245.000
55.10008 242.000
55.12003 249.000
55.13997 256.000
55.15992 254.000
55.17987 245.000
55.19982 269.000
55.21976 254.000
55.23971 261.000
55.25966 225.000
55.27960 269.000
55.29955 258.000
55.31950 257.000
55.33944 247.000
55.35939 278.000
55.37934 271.000
55.39929 256.000
55.41923 241.000
55.43918 216.000
55.45913 258.000
55.47907 238.000
55.49902 228.000
55.51897 230.000
55.53891 231.000
55.55886 260.000
55.57881 235.000
55.59875 267.000
55.61870 254.000
55.63865 242.000
55.65860 242.000
55.67854 248.000
55.69849 234.000
55.71844 265.000
55.73838 249.000
55.75833 241.000
55.77828 213.000
55.79822 252.000
55.81817 245.000
55.83812 251.000
55.85807 236.000
55.87801 244.000
55.89796 240.000
55.91791 256.000
55.93785 227.000
55.95780 247.000
55.97775 237.000
55.99769 259.000
56.01764 257.000
56.03759 223.000
56.05753 245.000
56.07748 242.000
56.09743 258.000
56.11738 233.000
56.13732 230.000
56.15727 259.000
56.17722 273.000
56.19716 243.000
56.21711 282.000
56.23706 247.000
56.25700 251.000
56.27695 246.000
56.29690 244.000
56.31685 239.000
56.33679 249.000
56.35674 261.000
56.37669 231.000
56.39663 262.000
56.41658 240.000
56.43653 248.000
56.45647 258.000
56.47642 284.000
56.49637 265.000
56.51631 265.000
56.53626 248.000
56.55621 253.000
56.57616 253.000
56.59610 259.000
56.61605 237.000
56.63600 273.000
56.65594 254.000
56.67589 293.000
56.69584 252.000
56.71578 255.000
56.73573 251.000
56.75568 263.000
56.77563 318.000
56.79557 264.000
56.81552 278.000
56.83547 238.000
56.85541 254.000
56.87536 276.000
56.89531 254.000
56.91525 243.000
56.93520 243.000
56.95515 255.000
56.97510 291.000
56.99504 249.000
57.01499 256.000
57.03494 276.000
57.05488 254.000
57.07483 269.000
57.09478 254.000
57.11472 250.000
57.13467 280.000
57.15462 283.000
57.17456 240.000
57.19451 290.000
57.21446 241.000
57.23441 229.000
57.25435 267.000
57.27430 233.000
57.29425 267.000
57.31419 239.000
57.33414 253.000
57.35409 240.000
57.37403 249.000
57.39398 270.000
57.41393 249.000
57.43388 256.000
57.45382 256.000
57.47377 247.000
57.49372 249.000
57.51366 254.000
57.53361 243.000
57.55356 265.000
57.57350 267.000
57.59345 252.000
57.61340 248.000
57.63334 269.000
57.65329 274.000
57.67324 266.000
57.69319 248.000
57.71313 265.000
57.73308 263.000
57.75303 224.000
57.77297 252.000
57.79292 240.000
57.81287 252.000
57.83281 229.000
57.85276 237.000
57.87271 239.000
57.89266 248.000
57.91260 258.000
57.93255 282.000
57.95250 261.000
57.97244 284.000
57.99239 264.000
58.01234 259.000
58.03228 224.000
58.05223 291.000
58.07218 276.000
58.09212 262.000
58.11207 284.000
58.13202 326.000
58.15197 307.000
58.17191 334.000
58.19186 334.000
58.21181 331.000
58.23175 361.000
58.25170 369.000
58.27165 372.000
58.29159 374.000
58.31154 409.000
58.33149 368.000
58.35144 373.000
58.37138 358.000
58.39133 318.000
58.41128 334.000
58.43122 368.000
58.45117 342.000
58.47112 335.000
58.49106 303.000
58.51101 305.000
58.53096 275.000
58.55090 284.000
58.57085 287.000
58.59080 292.000
58.61075 236.000
58.63069 253.000
58.65064 237.000
58.67059 283.000
58.69053 243.000
58.71048 252.000
58.73043 253.000
58.75037 262.000
58.77032 271.000
58.79027 235.000
58.81022 253.000
58.83016 249.000
58.85011 243.000
58.87006 243.000
58.89000 250.000
58.90995 247.000
58.92990 251.000
58.94984 261.000
58.96979 289.000
58.98974 295.000
59.00969 280.000
59.02963 256.000
59.04958 243.000
59.06953 233.000
59.08947 237.000
59.10942 271.000
59.12937 269.000
59.14931 258.000
59.16926 284.000
59.18921 247.000
59.20915 260.000
59.22910 261.000
59.24905 250.000
59.26900 238.000
59.28894 263.000
59.30889 265.000
59.32884 246.000
59.34878 254.000
59.36873 251.000
59.38868 234.000
59.40862 245.000
59.42857 258.000
59.44852 253.000
59.46847 257.000
59.48841 281.000
59.50836 254.000
59.52831 235.000
59.54825 229.000
59.56820 233.000
59.58815 278.000
59.60809 263.000
59.62804 254.000
59.64799 246.000
59.66793 259.000
59.68788 260.000
59.70783 261.000
59.72778 266.000
59.74772 271.000
59.76767 275.000
59.78762 240.000
59.80756 276.000
59.82751 231.000
59.84746 240.000
59.86740 251.000
59.88735 283.000
59.90730 248.000
59.92725 239.000
59.94719 246.000
59.96714 261.000
59.98709 263.000
60.00703 258.000
60.02698 269.000
60.04693 222.000
60.06687 277.000
60.08682 253.000
60.10677 248.000
60.12671 250.000
60.14666 249.000
60.16661 252.000
60.18656 245.000
60.20650 239.000
60.22645 262.000
60.24640 263.000
60.26634 267.000
60.28629 255.000
60.30624 265.000
60.32618 246.000
60.34613 295.000
60.36608 263.000
60.38603 245.000
60.40597 233.000
60.42592 267.000
60.44587 273.000
60.46581 252.000
60.48576 237.000
60.50571 286.000
60.52565 257.000
60.54560 255.000
60.56555 271.000
60.58550 274.000
60.60544 279.000
60.62539 224.000
60.64534 277.000
60.66528 246.000
60.68523 232.000
60.70518 268.000
60.72512 249.000
60.74507 298.000
60.76502 253.000
60.78496 233.000
60.80491 265.000
60.82486 259.000
60.84481 270.000
60.86475 276.000
60.88470 255.000
60.90465 288.000
60.92459 273.000
60.94454 236.000
60.96449 279.000
60.98443 267.000
61.00438 258.000
61.02433 261.000
61.04428 227.000
61.06422 276.000
61.08417 261.000
61.10412 254.000
61.12406 275.000
61.14401 291.000
61.16396 286.000
61.18390 285.000
61.20385 255.000
61.22380 283.000
61.24374 288.000
61.26369 257.000
61.28364 271.000
61.30359 279.000
61.32353 284.000
61.34348 286.000
61.36343 317.000
61.38337 283.000
61.40332 277.000
61.42327 301.000
61.44321 326.000
61.46316 338.000
61.48311 326.000
61.50306 355.000
61.52300 367.000
61.54295 385.000
61.56290 408.000
61.58284 445.000
61.60279 490.000
61.62274 435.000
61.64268 483.000
61.66263 402.000
61.68258 452.000
61.70252 435.000
61.72247 408.000
61.74242 415.000
61.76237 468.000
61.78231 423.000
61.80226 416.000
61.82221 406.000
61.84215 421.000
61.86210 405.000
61.88205 402.000
61.90199 392.000
61.92194 378.000
61.94189 403.000
61.96184 415.000
61.98178 426.000
62.00173 400.000
62.02168 429.000
62.04162 456.000
62.06157 488.000
62.08152 556.000
62.10146 637.000
62.12141 700.000
62.14136 769.000
62.16131 759.000
62.18125 799.000
62.20120 754.000
62.22115 789.000
62.24109 723.000
62.26104 679.000
62.28099 695.000
62.30093 651.000
62.32088 624.000
62.34083 642.000
62.36077 619.000
62.38072 552.000
62.40067 569.000
62.42062 606.000
62.44056 513.000
62.46051 552.000
62.48046 537.000
62.50040 543.000
62.52035 550.000
62.54030 524.000
62.56024 536.000
62.58019 617.000
62.60014 680.000
62.62009 687.000
62.64003 782.000
62.65998 779.000
62.67993 803.000
62.69987 828.000
62.71982 818.000
62.73977 725.000
62.75971 768.000
62.77966 726.000
62.79961 748.000
62.81955 689.000
62.83950 643.000
62.85945 673.000
62.87940 622.000
62.89934 567.000
62.91929 509.000
62.93924 498.000
62.95918 442.000
62.97913 456.000
62.99908 428.000
63.01902 377.000
63.03897 371.000
63.05892 358.000
63.07887 292.000
63.09881 334.000
63.11876 337.000
63.13871 283.000
63.15865 312.000
63.17860 313.000
63.19855 324.000
63.21849 278.000
63.23844 267.000
63.25839 277.000
63.27833 299.000
63.29828 247.000
63.31823 256.000
63.33818 261.000
63.35812 276.000
63.37807 285.000
63.39802 258.000
63.41796 267.000
63.43791 263.000
63.45786 280.000
63.47780 271.000
63.49775 280.000
63.51770 253.000
63.53765 272.000
63.55759 299.000
63.57754 269.000
63.59749 291.000
63.61743 278.000
63.63738 259.000
63.65733 269.000
63.67727 287.000
63.69722 286.000
63.71717 275.000
63.73712 281.000
63.75706 253.000
63.77701 302.000
63.79696 240.000
63.81690 292.000
63.83685 243.000
63.85680 260.000
63.87674 293.000
63.89669 259.000
63.91664 268.000
63.93658 261.000
63.95653 276.000
63.97648 271.000
63.99643 297.000
64.01637 279.000
64.03632 252.000
64.05627 265.000
64.07621 276.000
64.09616 275.000
64.11611 308.000
64.13605 281.000
64.15600 292.000
64.17595 293.000
64.19590 300.000
64.21584 257.000
64.23579 302.000
64.25574 294.000
64.27568 284.000
64.29563 310.000
64.31558 315.000
64.33552 308.000
64.35547 399.000
64.37542 383.000
64.39536 457.000
64.41531 467.000
64.43526 533.000
64.45521 640.000
64.47515 624.000
64.49510 696.000
64.51505 597.000
64.53499 531.000
64.55494 519.000
64.57489 500.000
64.59483 599.000
64.61478 585.000
64.63473 641.000
64.65468 669.000
64.67462 573.000
64.69457 548.000
64.71452 467.000
64.73446 424.000
64.75441 418.000
64.77436 369.000
64.79430 379.000
64.81425 408.000
64.83420 371.000
64.85414 386.000
64.87409 333.000
64.89404 353.000
64.91399 334.000
64.93393 279.000
64.95388 297.000
64.97383 282.000
64.99377 303.000
65.01372 289.000
65.03367 284.000
65.05361 294.000
65.07356 318.000
65.09351 279.000
65.11346 291.000
65.13340 274.000
65.15335 273.000
65.17330 272.000
65.19324 271.000
65.21319 300.000
65.23314 296.000
65.25308 301.000
65.27303 284.000
65.29298 283.000
65.31293 274.000
65.33287 256.000
65.35282 256.000
65.37277 283.000
65.39271 314.000
65.41266 302.000
65.43261 250.000
65.45255 303.000
65.47250 309.000
65.49245 290.000
65.51239 309.000
65.53234 331.000
65.55229 345.000
65.57224 336.000
65.59218 318.000
65.61213 414.000
65.63208 316.000
65.65202 363.000
65.67197 383.000
65.69192 350.000
65.71186 366.000
65.73181 346.000
65.75176 329.000
65.77171 337.000
65.79165 365.000
65.81160 353.000
65.83155 367.000
65.85149 370.000
65.87144 392.000
65.89139 337.000
65.91133 379.000
65.93128 306.000
65.95123 361.000
65.97117 352.000
65.99112 365.000
66.01107 354.000
66.03102 339.000
66.05096 335.000
66.07091 332.000
66.09086 289.000
66.11080 333.000
66.13075 329.000
66.15070 331.000
66.17064 302.000
66.19059 349.000
66.21054 328.000
66.23049 312.000
66.25043 385.000
66.27038 338.000
66.29033 368.000
66.31027 379.000
66.33022 416.000
66.35017 396.000
66.37011 389.000
66.39006 383.000
66.41001 437.000
66.42995 393.000
66.44990 369.000
66.46985 381.000
66.48980 373.000
66.50974 375.000
66.52969 423.000
66.54964 354.000
66.56958 359.000
66.58953 394.000
66.60948 345.000
66.62942 343.000
66.64937 347.000
66.66932 328.000
66.68927 353.000
66.70921 341.000
66.72916 369.000
66.74911 332.000
66.76905 412.000
66.78900 395.000
66.80895 428.000
66.82889 502.000
66.84884 488.000
66.86879 528.000
66.88874 556.000
66.90868 502.000
66.92863 517.000
66.94858 484.000
66.96852 490.000
66.98847 513.000
67.00842 572.000
67.02836 602.000
67.04831 555.000
67.06826 577.000
67.08820 513.000
67.10815 491.000
67.12810 459.000
67.14805 444.000
67.16799 440.000
67.18794 408.000
67.20789 399.000
67.22783 394.000
67.24778 384.000
67.26773 383.000
67.28767 337.000
67.30762 359.000
67.32757 299.000
67.34752 289.000
67.36746 304.000
67.38741 302.000
67.40736 283.000
67.42730 276.000
67.44725 319.000
67.46720 271.000
67.48714 283.000
67.50709 258.000
67.52704 295.000
67.54698 267.000
67.56693 291.000
67.58688 276.000
67.60683 276.000
67.62677 296.000
67.64672 303.000
67.66667 315.000
67.68661 309.000
67.70656 283.000
67.72651 268.000
67.74645 326.000
67.76640 330.000
67.78635 312.000
67.80630 402.000
67.82624 340.000
67.84619 324.000
67.86614 346.000
67.88608 383.000
67.90603 325.000
67.92598 337.000
67.94592 366.000
67.96587 386.000
67.98582 390.000
68.00576 401.000
68.02571 367.000
68.04566 383.000
68.06561 393.000
68.08555 374.000
68.10550 389.000
68.12545 427.000
68.14539 408.000
68.16534 363.000
68.18529 380.000
68.20523 354.000
68.22518 403.000
68.24513 326.000
68.26508 335.000
68.28502 393.000
68.30497 365.000
68.32492 320.000
68.34486 302.000
68.36481 337.000
68.38476 291.000
68.40470 319.000
68.42465 304.000
68.44460 295.000
68.46455 279.000
68.48449 282.000
68.50444 279.000
68.52439 321.000
68.54433 278.000
68.56428 272.000
68.58423 271.000
68.60417 268.000
68.62412 253.000
68.64407 271.000
68.66401 260.000
68.68396 269.000
68.70391 254.000
68.72386 289.000
68.74380 302.000
68.76375 241.000
68.78370 279.000
68.80364 288.000
68.82359 274.000
68.84354 241.000
68.86348 236.000
68.88343 239.000
68.90338 270.000
68.92333 250.000
68.94327 258.000
68.96322 235.000
68.98317 251.000
69.00311 283.000
69.02306 264.000
69.04301 268.000
69.06295 254.000
69.08290 247.000
69.10285 259.000
69.12279 263.000
69.14274 256.000
69.16269 269.000
69.18264 246.000
69.20258 256.000
69.22253 254.000
69.24248 265.000
69.26242 248.000
69.28237 261.000
69.30232 285.000
69.32226 258.000
69.34221 253.000
69.36216 267.000
69.38211 243.000
69.40205 283.000
69.42200 281.000
69.44195 289.000
69.46189 273.000
69.48184 274.000
69.50179 247.000
69.52173 211.000
69.54168 263.000
69.56163 261.000
69.58157 265.000
69.60152 303.000
69.62147 243.000
69.64142 284.000
69.66136 229.000
69.68131 256.000
69.70126 291.000
69.72120 260.000
69.74115 236.000
69.76110 256.000
69.78104 243.000
69.80099 261.000
69.82094 256.000
69.84089 262.000
69.86083 265.000
69.88078 254.000
69.90073 266.000
69.92067 249.000
69.94062 269.000
69.96057 240.000
69.98051 278.000
70.00046 243.000
70.02041 265.000
70.04035 266.000
70.06030 273.000
70.08025 278.000
70.10020 253.000
70.12014 272.000
70.14009 267.000
70.16004 287.000
70.17998 261.000
70.19993 260.000
70.21988 245.000
70.23982 259.000
70.25977 269.000
70.27972 231.000
70.29967 246.000
70.31961 246.000
70.33956 249.000
70.35951 220.000
70.37945 261.000
70.39940 255.000
70.41935 266.000
70.43929 242.000
70.45924 267.000
70.47919 244.000
70.49914 261.000
70.51908 275.000
70.53903 285.000
70.55898 241.000
70.57892 260.000
70.59887 258.000
70.61882 240.000
70.63876 247.000
70.65871 249.000
70.67866 268.000
70.69860 239.000
70.71855 245.000
70.73850 263.000
70.75845 279.000
70.77839 273.000
70.79834 291.000
70.81829 254.000
70.83823 266.000
70.85818 261.000
70.87813 264.000
70.89807 246.000
70.91802 285.000
70.93797 264.000
70.95792 304.000
70.97786 317.000
70.99781 253.000
71.01776 247.000
71.03770 241.000
71.05765 255.000
71.07760 280.000
71.09754 239.000
71.11749 248.000
71.13744 251.000
71.15738 266.000
71.17733 258.000
71.19728 238.000
71.21723 230.000
71.23717 236.000
71.25712 297.000
71.27707 269.000
71.29701 248.000
71.31696 249.000
71.33691 235.000
71.35685 247.000
71.37680 264.000
71.39675 243.000
71.41670 252.000
71.43664 245.000
71.45659 253.000
71.47654 271.000
71.49648 250.000
71.51643 272.000
71.53638 249.000
71.55632 236.000
71.57627 246.000
71.59622 251.000
71.61616 245.000
71.63611 253.000
71.65606 275.000
71.67601 265.000
71.69595 258.000
71.71590 275.000
71.73585 266.000
71.75579 267.000
71.77574 275.000
71.79569 242.000
71.81563 246.000
71.83558 281.000
71.85553 254.000
71.87548 272.000
71.89542 274.000
71.91537 206.000
71.93532 254.000
71.95526 231.000
71.97521 249.000
71.99516 248.000
72.01510 244.000
72.03505 269.000
72.05500 240.000
72.07495 271.000
72.09489 278.000
72.11484 245.000
72.13479 250.000
72.15473 261.000
72.17468 280.000
72.19463 291.000
72.21457 262.000
72.23452 263.000
72.25447 285.000
72.27441 281.000
72.29436 296.000
72.31431 299.000
72.33426 295.000
72.35420 319.000
72.37415 311.000
72.39410 268.000
72.41404 322.000
72.43399 307.000
72.45394 313.000
72.47388 321.000
72.49383 308.000
72.51378 280.000
72.53373 294.000
72.55367 286.000
72.57362 300.000
72.59357 297.000
72.61351 259.000
72.63346 290.000
72.65341 294.000
72.67335 300.000
72.69330 287.000
72.71325 294.000
72.73319 269.000
72.75314 302.000
72.77309 282.000
72.79304 241.000
72.81298 270.000
72.83293 277.000
72.85288 247.000
72.87282 255.000
72.89277 236.000
72.91272 273.000
72.93266 264.000
72.95261 255.000
72.97256 229.000
72.99251 275.000
73.01245 272.000
73.03240 271.000
73.05235 249.000
73.07229 257.000
73.09224 282.000
73.11219 257.000
73.13213 255.000
73.15208 257.000
73.17203 286.000
73.19197 241.000
73.21192 235.000
73.23187 244.000
73.25182 243.000
73.27176 249.000
73.29171 235.000
73.31166 249.000
73.33160 240.000
73.35155 254.000
73.37150 270.000
73.39144 241.000
73.41139 245.000
73.43134 252.000
73.45129 253.000
73.47123 296.000
73.49118 291.000
73.51113 250.000
73.53107 277.000
73.55102 291.000
73.57097 290.000
73.59091 261.000
73.61086 263.000
73.63081 272.000
73.65076 313.000
73.67070 272.000
73.69065 279.000
73.71060 317.000
73.73054 320.000
73.75049 300.000
73.77044 357.000
73.79038 369.000
73.81033 408.000
73.83028 373.000
73.85022 356.000
73.87017 369.000
73.89012 340.000
73.91007 341.000
73.93001 345.000
73.94996 366.000
73.96991 335.000
73.98985 317.000
74.00980 350.000
74.02975 367.000
74.04969 345.000
74.06964 326.000
74.08959 320.000
74.10954 318.000
74.12948 315.000
74.14943 290.000
74.16938 297.000
74.18932 259.000
74.20927 304.000
74.22922 294.000
74.24916 271.000
74.26911 289.000
74.28906 271.000
74.30900 286.000
74.32895 302.000
74.34890 293.000
74.36885 248.000
74.38879 279.000
74.40874 255.000
74.42869 319.000
74.44863 279.000
74.46858 266.000
74.48853 239.000
74.50847 289.000
74.52842 259.000
74.54837 300.000
74.56832 267.000
74.58826 298.000
74.60821 258.000
74.62816 240.000
74.64810 262.000
74.66805 259.000
74.68800 267.000
74.70794 258.000
74.72789 279.000
74.74784 298.000
74.76778 277.000
74.78773 323.000
74.80768 291.000
74.82763 324.000
74.84757 301.000
74.86752 325.000
74.88747 323.000
74.90741 339.000
74.92736 341.000
74.94731 346.000
74.96725 379.000
74.98720 380.000
75.00715 375.000
75.02710 412.000
75.04704 435.000
75.06699 419.000
75.08694 427.000
75.10688 420.000
75.12683 477.000
75.14678 452.000
75.16672 476.000
75.18667 452.000
75.20662 462.000
75.22657 455.000
75.24651 459.000
75.26646 470.000
75.28641 441.000
75.30635 404.000
75.32630 425.000
75.34625 442.000
75.36619 453.000
75.38614 394.000
75.40609 420.000
75.42603 397.000
75.44598 413.000
75.46593 372.000
75.48588 378.000
75.50582 374.000
75.52577 368.000
75.54572 339.000
75.56566 331.000
75.58561 346.000
75.60556 271.000
75.62550 300.000
75.64545 287.000
75.66540 302.000
75.68535 315.000
75.70529 291.000
75.72524 308.000
75.74519 294.000
75.76513 289.000
75.78508 259.000
75.80503 302.000
75.82497 248.000
75.84492 254.000
75.86487 261.000
75.88481 266.000
75.90476 297.000
75.92471 269.000
75.94466 274.000
75.96460 285.000
75.98455 270.000
76.00450 296.000
76.02444 293.000
76.04439 295.000
76.06434 332.000
76.08428 327.000
76.10423 280.000
76.12418 307.000
76.14413 315.000
76.16407 296.000
76.18402 290.000
76.20397 307.000
76.22391 281.000
76.24386 274.000
76.26381 275.000
76.28375 284.000
76.30370 322.000
76.32365 295.000
76.34359 307.000
76.36354 298.000
76.38349 296.000
76.40344 295.000
76.42338 268.000
76.44333 294.000
76.46328 265.000
76.48322 279.000
76.50317 272.000
76.52312 266.000
76.54306 252.000
76.56301 268.000
76.58296 281.000
76.60291 242.000
76.62285 262.000
76.64280 271.000
76.66275 239.000
76.68269 258.000
76.70264 255.000
76.72259 280.000
76.74253 268.000
76.76248 294.000
76.78243 250.000
76.80238 253.000
76.82232 241.000
76.84227 287.000
76.86222 254.000
76.88216 240.000
76.90211 281.000
76.92206 244.000
76.94200 248.000
76.96195 252.000
76.98190 270.000
77.00184 246.000
77.02179 249.000
77.04174 272.000
77.06169 263.000
77.08163 240.000
77.10158 271.000
77.12153 271.000
77.14147 257.000
77.16142 248.000
77.18137 259.000
77.20131 240.000
77.22126 234.000
77.24121 265.000
77.26116 266.000
77.28110 271.000
77.30105 273.000
77.32100 247.000
77.34094 221.000
77.36089 235.000
77.38084 271.000
77.40078 275.000
77.42073 254.000
77.44068 268.000
77.46062 270.000
77.48057 273.000
77.50052 254.000
77.52047 244.000
77.54041 255.000
77.56036 261.000
77.58031 267.000
77.60025 268.000
77.62020 240.000
77.64015 269.000
77.66009 246.000
77.68004 256.000
77.69999 249.000
77.71994 269.000
77.73988 250.000
77.75983 278.000
77.77978 248.000
77.79972 269.000
77.81967 256.000
77.83962 270.000
77.85956 292.000
77.87951 308.000
77.89946 252.000
77.91940 276.000
77.93935 286.000
77.95930 280.000
77.97925 236.000
77.99919 283.000
78.01914 262.000
78.03909 279.000
78.05903 278.000
78.07898 275.000
78.09893 281.000
78.11887 314.000
78.13882 296.000
78.15877 362.000
78.17872 334.000
78.19866 382.000
78.21861 378.000
78.23856 358.000
78.25850 370.000
78.27845 406.000
78.29840 402.000
78.31834 399.000
78.33829 419.000
78.35824 416.000
78.37819 455.000
78.39813 490.000
78.41808 471.000
78.43803 512.000
78.45797 447.000
78.47792 439.000
78.49787 451.000
78.51781 438.000
78.53776 427.000
78.55771 394.000
78.57765 387.000
78.59760 355.000
78.61755 356.000
78.63750 399.000
78.65744 371.000
78.67739 387.000
78.69734 375.000
78.71728 347.000
78.73723 341.000
78.75718 359.000
78.77712 345.000
78.79707 324.000
78.81702 291.000
78.83697 324.000
78.85691 305.000
78.87686 279.000
78.89681 310.000
78.91675 311.000
78.93670 306.000
78.95665 281.000
78.97659 340.000
78.99654 312.000
79.01649 343.000
79.03643 377.000
79.05638 390.000
79.07633 423.000
79.09628 399.000
79.11622 387.000
79.13617 388.000
79.15612 380.000
79.17606 387.000
79.19601 376.000
79.21596 388.000
79.23590 393.000
79.25585 330.000
79.27580 345.000
79.29575 379.000
79.31569 341.000
79.33564 329.000
79.35559 390.000
79.37553 344.000
79.39548 325.000
79.41543 344.000
79.43537 329.000
79.45532 295.000
79.47527 311.000
79.49521 316.000
79.51516 330.000
79.53511 335.000
79.55506 272.000
79.57500 286.000
79.59495 278.000
79.61490 261.000
79.63484 266.000
79.65479 263.000
79.67474 288.000
79.69468 276.000
79.71463 265.000
79.73458 252.000
79.75453 252.000
79.77447 280.000
79.79442 232.000
79.81437 255.000
79.83431 258.000
79.85426 261.000
79.87421 261.000
79.89415 263.000
79.91410 247.000
79.93405 299.000
79.95399 237.000
79.97394 282.000
79.99389 289.000
80.01384 282.000
80.03378 280.000
80.05373 251.000
80.07368 240.000
80.09362 237.000
80.11357 269.000
80.13352 267.000
80.15346 243.000
80.17341 249.000
80.19336 262.000
80.21331 299.000
80.23325 300.000
80.25320 276.000
80.27315 240.000
80.29309 254.000
80.31304 270.000
80.33299 267.000
80.35293 273.000
80.37288 252.000
80.39283 289.000
80.41278 281.000
80.43272 266.000
80.45267 252.000
80.47262 286.000
80.49256 267.000
80.51251 269.000
80.53246 259.000
80.55240 298.000
80.57235 284.000
80.59230 278.000
80.61224 261.000
80.63219 270.000
80.65214 268.000
80.67209 219.000
80.69203 263.000
80.71198 242.000
80.73193 254.000
80.75187 287.000
80.77182 284.000
80.79177 235.000
80.81171 254.000
80.83166 254.000
80.85161 238.000
80.87156 251.000
80.89150 243.000
80.91145 251.000
80.93140 278.000
80.95134 271.000
80.97129 270.000
80.99124 232.000
81.01118 270.000
81.03113 251.000
81.05108 229.000
81.07102 270.000
81.09097 253.000
81.11092 285.000
81.13087 259.000
81.15081 304.000
81.17076 273.000
81.19071 272.000
81.21065 294.000
81.23060 268.000
81.25055 287.000
81.27049 259.000
81.29044 260.000
81.31039 257.000
81.33034 280.000
81.35028 266.000
81.37023 258.000
81.39018 262.000
81.41012 282.000
81.43007 276.000
81.45002 261.000
81.46996 237.000
81.48991 267.000
81.50986 284.000
81.52980 233.000
81.54975 232.000
81.56970 258.000
81.58965 260.000
81.60959 277.000
81.62954 237.000
81.64949 255.000
81.66943 268.000
81.68938 251.000
81.70933 264.000
81.72927 252.000
81.74922 262.000
81.76917 262.000
81.78912 239.000
81.80906 226.000
81.82901 274.000
81.84896 259.000
81.86890 247.000
81.88885 235.000
81.90880 250.000
81.92874 263.000
81.94869 260.000
81.96864 254.000
81.98859 247.000
82.00853 272.000
82.02848 246.000
82.04843 229.000
82.06837 269.000
82.08832 242.000
82.10827 240.000
82.12821 255.000
82.14816 263.000
82.16811 243.000
82.18805 259.000
82.20800 254.000
82.22795 255.000
82.24790 265.000
82.26784 264.000
82.28779 249.000
82.30774 248.000
82.32768 269.000
82.34763 289.000
82.36758 275.000
82.38752 261.000
82.40747 273.000
82.42742 260.000
82.44737 263.000
82.46731 281.000
82.48726 296.000
82.50721 293.000
82.52715 286.000
82.54710 320.000
82.56705 273.000
82.58699 287.000
82.60694 281.000
82.62689 308.000
82.64683 281.000
82.66678 296.000
82.68673 301.000
82.70668 281.000
82.72662 297.000
82.74657 274.000
82.76652 280.000
82.78646 314.000
82.80641 288.000
82.82636 261.000
82.84630 289.000
82.86625 286.000
82.88620 304.000
82.90615 279.000
82.92609 277.000
82.94604 298.000
82.96599 299.000
82.98593 290.000
83.00588 310.000
83.02583 276.000
83.04577 291.000
83.06572 289.000
83.08567 270.000
83.10561 294.000
83.12556 274.000
83.14551 297.000
83.16546 284.000
83.18540 291.000
83.20535 318.000
83.22530 289.000
83.24524 249.000
83.26519 276.000
83.28514 263.000
83.30508 254.000
83.32503 288.000
83.34498 269.000
83.36493 251.000
83.38487 275.000
83.40482 276.000
83.42477 289.000
83.44471 261.000
83.46466 258.000
83.48461 292.000
83.50455 272.000
83.52450 281.000
83.54445 274.000
83.56440 274.000
83.58434 291.000
83.60429 261.000
83.62424 293.000
83.64418 288.000
83.66413 291.000
83.68408 283.000
83.70402 279.000
83.72397 317.000
83.74392 270.000
83.76386 296.000
83.78381 275.000
83.80376 279.000
83.82371 274.000
83.84365 273.000
83.86360 283.000
83.88355 287.000
83.90349 254.000
83.92344 288.000
83.94339 259.000
83.96333 279.000
83.98328 282.000
84.00323 311.000
84.02318 267.000
84.04312 270.000
84.06307 260.000
84.08302 290.000
84.10296 285.000
84.12291 283.000
84.14286 260.000
84.16280 273.000
84.18275 278.000
84.20270 283.000
84.22264 275.000
84.24259 247.000
84.26254 244.000
84.28249 266.000
84.30243 265.000
84.32238 281.000
84.34233 244.000
84.36227 280.000
84.38222 238.000
84.40217 281.000
84.42211 267.000
84.44206 265.000
84.46201 296.000
84.48196 294.000
84.50190 300.000
84.52185 282.000
84.54180 272.000
84.56174 265.000
84.58169 262.000
84.60164 312.000
84.62158 276.000
84.64153 258.000
84.66148 262.000
84.68142 291.000
84.70137 266.000
84.72132 311.000
84.74127 265.000
84.76121 303.000
84.78116 317.000
84.80111 332.000
84.82105 341.000
84.84100 347.000
84.86095 353.000
84.88089 352.000
84.90084 365.000
84.92079 349.000
84.94074 346.000
84.96068 363.000
84.98063 363.000
85.00058 410.000
85.02052 364.000
85.04047 367.000
85.06042 363.000
85.08036 335.000
85.10031 324.000
85.12026 311.000
85.14021 320.000
85.16015 350.000
85.18010 292.000
85.20005 333.000
85.21999 345.000
85.23994 308.000
85.25989 296.000
85.27983 320.000
85.29978 331.000
85.31973 279.000
85.33967 310.000
85.35962 295.000
85.37957 304.000
85.39952 294.000
85.41946 286.000
85.43941 288.000
85.45936 283.000
85.47930 274.000
85.49925 235.000
85.51920 277.000
85.53914 290.000
85.55909 242.000
85.57904 288.000
85.59899 277.000
85.61893 267.000
85.63888 290.000
85.65883 244.000
85.67877 311.000
85.69872 267.000
85.71867 264.000
85.73861 283.000
85.75856 235.000
85.77851 288.000
85.79845 255.000
85.81840 263.000
85.83835 260.000
85.85830 253.000
85.87824 238.000
85.89819 237.000
85.91814 255.000
85.93808 267.000
85.95803 246.000
85.97798 265.000
85.99792 269.000
86.01787 265.000
86.03782 227.000
86.05777 266.000
86.07771 253.000
86.09766 248.000
86.11761 279.000
86.13755 256.000
86.15750 281.000
86.17745 229.000
86.19739 286.000
86.21734 256.000
86.23729 280.000
86.25723 215.000
86.27718 239.000
86.29713 276.000
86.31708 253.000
86.33702 283.000
86.35697 243.000
86.37692 257.000
86.39686 250.000
86.41681 253.000
86.43676 274.000
86.45670 253.000
86.47665 264.000
86.49660 247.000
86.51655 277.000
86.53649 258.000
86.55644 242.000
86.57639 256.000
86.59633 294.000
86.61628 228.000
86.63623 250.000
86.65617 271.000
86.67612 269.000
86.69607 255.000
86.71602 270.000
86.73596 272.000
86.75591 268.000
86.77586 289.000
86.79580 263.000
86.81575 231.000
86.83570 268.000
86.85564 283.000
86.87559 256.000
86.89554 250.000
86.91548 291.000
86.93543 236.000
86.95538 261.000
86.97533 285.000
86.99527 296.000
87.01522 277.000
87.03517 297.000
87.05511 254.000
87.07506 251.000
87.09501 289.000
87.11495 247.000
87.13490 287.000
87.15485 243.000
87.17480 307.000
87.19474 274.000
87.21469 271.000
87.23464 271.000
87.25458 277.000
87.27453 262.000
87.29448 294.000
87.31442 293.000
87.33437 303.000
87.35432 292.000
87.37426 278.000
87.39421 277.000
87.41416 287.000
87.43411 312.000
87.45405 251.000
87.47400 269.000
87.49395 269.000
87.51389 264.000
87.53384 255.000
87.55379 264.000
87.57373 295.000
87.59368 301.000
87.61363 306.000
87.63358 261.000
87.65352 242.000
87.67347 269.000
87.69342 304.000
87.71336 285.000
87.73331 258.000
87.75326 283.000
87.77320 262.000
87.79315 267.000
87.81310 273.000
87.83304 282.000
87.85299 290.000
87.87294 291.000
87.89289 257.000
87.91283 263.000
87.93278 262.000
87.95273 266.000
87.97267 243.000
87.99262 260.000
88.01257 263.000
88.03251 261.000
88.05246 276.000
88.07241 263.000
88.09236 247.000
88.11230 251.000
88.13225 268.000
88.15220 256.000
88.17214 273.000
88.19209 271.000
88.21204 271.000
88.23198 249.000
88.25193 276.000
88.27188 279.000
88.29183 249.000
88.31177 249.000
88.33172 243.000
88.35167 258.000
88.37161 273.000
88.39156 282.000
88.41151 243.000
88.43145 271.000
88.45140 237.000
88.47135 264.000
88.49129 234.000
88.51124 272.000
88.53119 270.000
88.55114 262.000
88.57108 252.000
88.59103 237.000
88.61098 261.000
88.63092 254.000
88.65087 268.000
88.67082 274.000
88.69076 242.000
88.71071 278.000
88.73066 235.000
88.75061 277.000
88.77055 235.000
88.79050 260.000
88.81045 268.000
88.83039 253.000
88.85034 278.000
88.87029 274.000
88.89023 236.000
88.91018 249.000
88.93013 258.000
88.95007 259.000
88.97002 249.000
88.98997 277.000
89.00992 248.000
89.02986 250.000
89.04981 253.000
89.06976 258.000
89.08970 262.000
89.10965 229.000
89.12960 285.000
89.14954 280.000
89.16949 248.000
89.18944 224.000
89.20939 264.000
89.22933 283.000
89.24928 254.000
89.26923 242.000
89.28917 273.000
89.30912 275.000
89.32907 262.000
89.34901 262.000
89.36896 268.000
89.38891 250.000
89.40885 233.000
89.42880 294.000
89.44875 252.000
89.46870 281.000
89.48864 265.000
89.50859 261.000
89.52854 231.000
89.54848 275.000
89.56843 271.000
89.58838 279.000
89.60832 294.000
89.62827 252.000
89.64822 296.000
89.66817 271.000
89.68811 289.000
89.70806 253.000
89.72801 289.000
89.74795 254.000
89.76790 277.000
89.78785 278.000
89.80779 276.000
89.82774 256.000
89.84769 305.000
89.86764 280.000
89.88758 243.000
89.90753 322.000
89.92748 256.000
89.94742 260.000
89.96737 283.000
89.98732 254.000
90.00726 258.000
