10.00000 224.000
10.01995 230.000
10.03989 254.000
10.05984 234.000
10.07979 221.000
10.09973 212.000
10.11968 254.000
10.13963 237.000
10.15958 243.000
10.17952 259.000
10.19947 254.000
10.21942 218.000
10.23936 231.000
10.25931 239.000
10.27926 245.000
10.29920 226.000
10.31915 251.000
10.33910 287.000
10.35905 244.000
10.37899 224.000
10.39894 252.000
10.41889 223.000
10.43883 243.000
10.45878 259.000
10.47873 239.000
10.49867 241.000
10.51862 248.000
10.53857 232.000
10.55851 243.000
10.57846 236.000
10.59841 233.000
10.61836 251.000
10.63830 218.000
10.65825 223.000
10.67820 226.000
10.69814 252.000
10.71809 258.000
10.73804 220.000
10.75798 245.000
10.77793 226.000
10.79788 258.000
10.81783 235.000
10.83777 249.000
10.85772 238.000
10.87767 231.000
10.89761 238.000
10.91756 210.000
10.93751 220.000
10.95745 217.000
10.97740 227.000
10.99735 251.000
11.01730 244.000
11.03724 225.000
11.05719 253.000
11.07714 236.000
11.09708 225.000
11.11703 217.000
11.13698 232.000
11.15692 253.000
11.17687 257.000
11.19682 234.000
11.21676 279.000
11.23671 221.000
11.25666 250.000
11.27661 243.000
11.29655 227.000
11.31650 215.000
11.33645 225.000
11.35639 234.000
11.37634 224.000
11.39629 219.000
11.41623 259.000
11.43618 214.000
11.45613 241.000
11.47608 255.000
11.49602 255.000
11.51597 236.000
11.53592 228.000
11.55586 244.000
11.57581 234.000
11.59576 227.000
11.61570 239.000
11.63565 249.000
11.65560 259.000
11.67554 229.000
11.69549 236.000
11.71544 213.000
11.73539 239.000
11.75533 231.000
11.77528 225.000
11.79523 244.000
11.81517 260.000
11.83512 221.000
11.85507 250.000
11.87501 249.000
11.89496 235.000
11.91491 232.000
11.93486 230.000
11.95480 228.000
11.97475 236.000
11.99470 242.000
12.01464 246.000
12.03459 231.000
12.05454 242.000
12.07448 219.000
12.09443 231.000
12.11438 219.000
12.13432 241.000
12.15427 232.000
12.17422 226.000
12.19417 239.000
12.21411 201.000
12.23406 250.000
12.25401 225.000
12.27395 242.000
12.29390 242.000
12.31385 222.000
12.33379 249.000
12.35374 260.000
12.37369 242.000
12.39364 211.000
12.41358 222.000
12.43353 237.000
12.45348 230.000
12.47342 238.000
12.49337 240.000
12.51332 241.000
12.53326 213.000
12.55321 255.000
12.57316 248.000
12.59311 219.000
12.61305 214.000
12.63300 242.000
12.65295 223.000
12.67289 231.000
12.69284 235.000
12.71279 234.000
12.73273 215.000
12.75268 235.000
12.77263 241.000
12.79257 241.000
12.81252 211.000
12.83247 217.000
12.85242 222.000
12.87236 268.000
12.89231 218.000
12.91226 246.000
12.93220 230.000
12.95215 231.000
12.97210 241.000
12.99204 228.000
13.01199 233.000
13.03194 210.000
13.05189 260.000
13.07183 264.000
13.09178 224.000
13.11173 249.000
13.13167 240.000
13.15162 219.000
13.17157 239.000
13.19151 230.000
13.21146 232.000
13.23141 259.000
13.25135 228.000
13.27130 212.000
13.29125 204.000
13.31120 229.000
13.33114 240.000
13.35109 236.000
13.37104 250.000
13.39098 215.000
13.41093 251.000
13.43088 219.000
13.45082 214.000
13.47077 229.000
13.49072 223.000
13.51067 231.000
13.53061 212.000
13.55056 246.000
13.57051 221.000
13.59045 235.000
13.61040 213.000
13.63035 235.000
13.65029 267.000
13.67024 242.000
13.69019 228.000
13.71013 218.000
13.73008 219.000
13.75003 258.000
13.76998 242.000
13.78992 223.000
13.80987 216.000
13.82982 225.000
13.84976 217.000
13.86971 242.000
13.88966 202.000
13.90960 238.000
13.92955 242.000
13.94950 229.000
13.96945 238.000
13.98939 214.000
14.00934 233.000
14.02929 209.000
14.04923 237.000
14.06918 206.000
14.08913 218.000
14.10907 247.000
14.12902 221.000
14.14897 236.000
14.16892 252.000
14.18886 223.000
14.20881 201.000
14.22876 230.000
14.24870 252.000
14.26865 227.000
14.28860 244.000
14.30854 235.000
14.32849 242.000
14.34844 212.000
14.36838 219.000
14.38833 234.000
14.40828 252.000
14.42823 234.000
14.44817 228.000
14.46812 228.000
14.48807 208.000
14.50801 228.000
14.52796 232.000
14.54791 258.000
14.56785 222.000
14.58780 227.000
14.60775 220.000
14.62770 258.000
14.64764 232.000
14.66759 227.000
14.68754 225.000
14.70748 214.000
14.72743 229.000
14.74738 233.000
14.76732 235.000
14.78727 250.000
14.80722 253.000
14.82716 228.000
14.84711 227.000
14.86706 264.000
14.88701 228.000
14.90695 232.000
14.92690 228.000
14.94685 232.000
14.96679 228.000
14.98674 246.000
15.00669 222.000
15.02663 218.000
15.04658 229.000
15.06653 211.000
15.08648 249.000
15.10642 214.000
15.12637 232.000
15.14632 239.000
15.16626 242.000
15.18621 241.000
15.20616 229.000
15.22610 228.000
15.24605 218.000
15.26600 208.000
15.28594 218.000
15.30589 244.000
15.32584 262.000
15.34579 251.000
15.36573 240.000
15.38568 232.000
15.40563 234.000
15.42557 200.000
15.44552 221.000
15.46547 222.000
15.48541 228.000
15.50536 237.000
15.52531 222.000
15.54526 242.000
15.56520 224.000
15.58515 220.000
15.60510 208.000
15.62504 215.000
15.64499 245.000
15.66494 218.000
15.68488 237.000
15.70483 242.000
15.72478 241.000
15.74472 230.000
15.76467 228.000
15.78462 225.000
15.80457 246.000
15.82451 245.000
15.84446 229.000
15.86441 221.000
15.88435 237.000
15.90430 210.000
15.92425 223.000
15.94419 232.000
15.96414 228.000
15.98409 246.000
16.00404 245.000
16.02398 225.000
16.04393 228.000
16.06388 231.000
16.08382 252.000
16.10377 231.000
16.12372 243.000
16.14366 245.000
16.16361 236.000
16.18356 201.000
16.20351 222.000
16.22345 243.000
16.24340 268.000
16.26335 205.000
16.28329 233.000
16.30324 259.000
16.32319 202.000
16.34313 197.000
16.36308 251.000
16.38303 229.000
16.40297 248.000
16.42292 224.000
16.44287 233.000
16.46282 250.000
16.48276 217.000
16.50271 235.000
16.52266 241.000
16.54260 237.000
16.56255 244.000
16.58250 238.000
16.60244 247.000
16.62239 224.000
16.64234 223.000
16.66229 241.000
16.68223 229.000
16.70218 211.000
16.72213 233.000
16.74207 221.000
16.76202 230.000
16.78197 214.000
16.80191 233.000
16.82186 227.000
16.84181 241.000
16.86175 227.000
16.88170 238.000
16.90165 224.000
16.92160 245.000
16.94154 238.000
16.96149 216.000
16.98144 221.000
17.00138 206.000
17.02133 236.000
17.04128 205.000
17.06122 230.000
17.08117 232.000
17.10112 220.000
17.12107 208.000
17.14101 226.000
17.16096 224.000
17.18091 220.000
17.20085 258.000
17.22080 211.000
17.24075 233.000
17.26069 231.000
17.28064 245.000
17.30059 214.000
17.32053 248.000
17.34048 247.000
17.36043 229.000
17.38038 238.000
17.40032 220.000
17.42027 217.000
17.44022 250.000
17.46016 219.000
17.48011 217.000
17.50006 213.000
17.52000 228.000
17.53995 227.000
17.55990 234.000
17.57985 244.000
17.59979 208.000
17.61974 209.000
17.63969 186.000
17.65963 228.000
17.67958 237.000
17.69953 226.000
17.71947 233.000
17.73942 211.000
17.75937 222.000
17.77932 218.000
17.79926 225.000
17.81921 242.000
17.83916 237.000
17.85910 231.000
17.87905 227.000
17.89900 244.000
17.91894 225.000
17.93889 226.000
17.95884 226.000
17.97878 214.000
17.99873 234.000
18.01868 226.000
18.03863 227.000
18.05857 224.000
18.07852 246.000
18.09847 247.000
18.11841 214.000
18.13836 249.000
18.15831 216.000
18.17825 226.000
18.19820 215.000
18.21815 224.000
18.23810 242.000
18.25804 248.000
18.27799 262.000
18.29794 246.000
18.31788 199.000
18.33783 233.000
18.35778 228.000
18.37772 221.000
18.39767 223.000
18.41762 262.000
18.43756 221.000
18.45751 216.000
18.47746 227.000
18.49741 235.000
18.51735 218.000
18.53730 258.000
18.55725 241.000
18.57719 230.000
18.59714 230.000
18.61709 233.000
18.63703 238.000
18.65698 225.000
18.67693 222.000
18.69688 234.000
18.71682 227.000
18.73677 210.000
18.75672 220.000
18.77666 241.000
18.79661 230.000
18.81656 212.000
18.83650 225.000
18.85645 215.000
18.87640 230.000
18.89634 227.000
18.91629 199.000
18.93624 234.000
18.95619 231.000
18.97613 267.000
18.99608 222.000
19.01603 211.000
19.03597 226.000
19.05592 237.000
19.07587 207.000
19.09581 237.000
19.11576 227.000
19.13571 233.000
19.15566 235.000
19.17560 210.000
19.19555 244.000
19.21550 230.000
19.23544 256.000
19.25539 215.000
19.27534 225.000
19.29528 234.000
19.31523 213.000
19.33518 205.000
19.35513 226.000
19.37507 237.000
19.39502 245.000
19.41497 231.000
19.43491 242.000
19.45486 243.000
19.47481 234.000
19.49475 226.000
19.51470 236.000
19.53465 220.000
19.55459 258.000
19.57454 236.000
19.59449 254.000
19.61444 217.000
19.63438 243.000
19.65433 252.000
19.67428 255.000
19.69422 238.000
19.71417 253.000
19.73412 247.000
19.75406 267.000
19.77401 252.000
19.79396 269.000
19.81391 247.000
19.83385 272.000
19.85380 259.000
19.87375 250.000
19.89369 282.000
19.91364 303.000
19.93359 333.000
19.95353 330.000
19.97348 406.000
19.99343 489.000
20.01337 537.000
20.03332 690.000
20.05327 666.000
20.07322 616.000
20.09316 627.000
20.11311 520.000
20.13306 481.000
20.15300 494.000
20.17295 561.000
20.19290 517.000
20.21284 522.000
20.23279 476.000
20.25274 486.000
20.27269 437.000
20.29263 409.000
20.31258 350.000
20.33253 332.000
20.35247 374.000
20.37242 344.000
20.39237 394.000
20.41231 425.000
20.43226 523.000
20.45221 559.000
20.47215 732.000
20.49210 784.000
20.51205 879.000
20.53200 924.000
20.55194 953.000
20.57189 1027.000
20.59184 1083.000
20.61178 1363.000
20.63173 1619.000
20.65168 1619.000
20.67162 1578.000
20.69157 1523.000
20.71152 1274.000
20.73147 1046.000
20.75141 961.000
20.77136 740.000
20.79131 669.000
20.81125 566.000
20.83120 513.000
20.85115 433.000
20.87109 394.000
20.89104 362.000
20.91099 360.000
20.93094 352.000
20.95088 340.000
20.97083 297.000
20.99078 258.000
21.01072 290.000
21.03067 298.000
21.05062 266.000
21.07056 270.000
21.09051 253.000
21.11046 263.000
21.13040 271.000
21.15035 271.000
21.17030 218.000
21.19025 245.000
21.21019 250.000
21.23014 250.000
21.25009 250.000
21.27003 259.000
21.28998 253.000
21.30993 226.000
21.32987 224.000
21.34982 201.000
21.36977 249.000
21.38972 240.000
21.40966 225.000
21.42961 230.000
21.44956 210.000
21.46950 237.000
21.48945 229.000
21.50940 241.000
21.52934 248.000
21.54929 250.000
21.56924 210.000
21.58918 233.000
21.60913 221.000
21.62908 230.000
21.64903 230.000
21.66897 250.000
21.68892 248.000
21.70887 241.000
21.72881 252.000
21.74876 230.000
21.76871 276.000
21.78865 226.000
21.80860 243.000
21.82855 247.000
21.84850 251.000
21.86844 254.000
21.88839 220.000
21.90834 228.000
21.92828 239.000
21.94823 222.000
21.96818 247.000
21.98812 226.000
22.00807 237.000
22.02802 257.000
22.04796 211.000
22.06791 225.000
22.08786 241.000
22.10781 219.000
22.12775 254.000
22.14770 241.000
22.16765 234.000
22.18759 229.000
22.20754 234.000
22.22749 244.000
22.24743 241.000
22.26738 222.000
22.28733 231.000
22.30728 227.000
22.32722 234.000
22.34717 228.000
22.36712 250.000
22.38706 220.000
22.40701 230.000
22.42696 243.000
22.44690 220.000
22.46685 221.000
22.48680 245.000
22.50675 243.000
22.52669 222.000
22.54664 229.000
22.56659 207.000
22.58653 248.000
22.60648 243.000
22.62643 254.000
22.64637 244.000
22.66632 222.000
22.68627 212.000
22.70621 245.000
22.72616 231.000
22.74611 209.000
22.76606 244.000
22.78600 244.000
22.80595 245.000
22.82590 234.000
22.84584 234.000
22.86579 251.000
22.88574 255.000
22.90568 231.000
22.92563 243.000
22.94558 221.000
22.96553 229.000
22.98547 248.000
23.00542 226.000
23.02537 241.000
23.04531 233.000
23.06526 255.000
23.08521 239.000
23.10515 258.000
23.12510 247.000
23.14505 253.000
23.16499 230.000
23.18494 226.000
23.20489 237.000
23.22484 252.000
23.24478 243.000
23.26473 221.000
23.28468 240.000
23.30462 234.000
23.32457 228.000
23.34452 261.000
23.36446 253.000
23.38441 242.000
23.40436 234.000
23.42431 241.000
23.44425 245.000
23.46420 247.000
23.48415 245.000
23.50409 247.000
23.52404 239.000
23.54399 225.000
23.56393 246.000
23.58388 268.000
23.60383 196.000
23.62377 241.000
23.64372 237.000
23.66367 258.000
23.68362 228.000
23.70356 256.000
23.72351 235.000
23.74346 221.000
23.76340 237.000
23.78335 236.000
23.80330 247.000
23.82324 218.000
23.84319 208.000
23.86314 257.000
23.88309 241.000
23.90303 265.000
23.92298 244.000
23.94293 233.000
23.96287 240.000
23.98282 235.000
24.00277 240.000
24.02271 233.000
24.04266 241.000
24.06261 226.000
24.08256 236.000
24.10250 213.000
24.12245 227.000
24.14240 215.000
24.16234 231.000
24.18229 237.000
24.20224 248.000
24.22218 266.000
24.24213 243.000
24.26208 252.000
24.28202 228.000
24.30197 206.000
24.32192 229.000
24.34187 235.000
24.36181 211.000
24.38176 249.000
24.40171 227.000
24.42165 255.000
24.44160 256.000
24.46155 228.000
24.48149 238.000
24.50144 209.000
24.52139 241.000
24.54134 223.000
24.56128 246.000
24.58123 228.000
24.60118 247.000
24.62112 279.000
24.64107 234.000
24.66102 287.000
24.68096 249.000
24.70091 285.000
24.72086 265.000
24.74080 297.000
24.76075 280.000
24.78070 286.000
24.80065 233.000
24.82059 248.000
24.84054 281.000
24.86049 250.000
24.88043 241.000
24.90038 244.000
24.92033 267.000
24.94027 283.000
24.96022 239.000
24.98017 243.000
25.00012 237.000
25.02006 212.000
25.04001 224.000
25.05996 240.000
25.07990 210.000
25.09985 258.000
25.11980 240.000
25.13974 241.000
25.15969 275.000
25.17964 244.000
25.19958 233.000
25.21953 241.000
25.23948 232.000
25.25943 268.000
25.27937 261.000
25.29932 247.000
25.31927 229.000
25.33921 285.000
25.35916 247.000
25.37911 230.000
25.39905 255.000
25.41900 240.000
25.43895 235.000
25.45890 228.000
25.47884 243.000
25.49879 246.000
25.51874 259.000
25.53868 227.000
25.55863 249.000
25.57858 250.000
25.59852 223.000
25.61847 230.000
25.63842 252.000
25.65837 257.000
25.67831 280.000
25.69826 253.000
25.71821 249.000
25.73815 230.000
25.75810 254.000
25.77805 229.000
25.79799 245.000
25.81794 254.000
25.83789 260.000
25.85783 249.000
25.87778 252.000
25.89773 249.000
25.91768 257.000
25.93762 267.000
25.95757 297.000
25.97752 278.000
25.99746 278.000
26.01741 340.000
26.03736 329.000
26.05730 361.000
26.07725 338.000
26.09720 265.000
26.11715 347.000
26.13709 296.000
26.15704 321.000
26.17699 297.000
26.19693 271.000
26.21688 281.000
26.23683 292.000
26.25677 273.000
26.27672 286.000
26.29667 294.000
26.31661 284.000
26.33656 269.000
26.35651 251.000
26.37646 283.000
26.39640 258.000
26.41635 264.000
26.43630 290.000
26.45624 275.000
26.47619 249.000
26.49614 253.000
26.51608 278.000
26.53603 248.000
26.55598 250.000
26.57593 262.000
26.59587 270.000
26.61582 248.000
26.63577 257.000
26.65571 244.000
26.67566 259.000
26.69561 243.000
26.71555 294.000
26.73550 241.000
26.75545 259.000
26.77539 230.000
26.79534 253.000
26.81529 252.000
26.83524 224.000
26.85518 275.000
26.87513 285.000
26.89508 258.000
26.91502 231.000
26.93497 250.000
26.95492 270.000
26.97486 219.000
26.99481 258.000
27.01476 253.000
27.03471 243.000
27.05465 275.000
27.07460 257.000
27.09455 237.000
27.11449 251.000
27.13444 255.000
27.15439 267.000
27.17433 256.000
27.19428 284.000
27.21423 247.000
27.23417 255.000
27.25412 251.000
27.27407 257.000
27.29402 215.000
27.31396 274.000
27.33391 246.000
27.35386 254.000
27.37380 233.000
27.39375 273.000
27.41370 269.000
27.43364 273.000
27.45359 281.000
27.47354 251.000
27.49349 243.000
27.51343 255.000
27.53338 260.000
27.55333 224.000
27.57327 241.000
27.59322 228.000
27.61317 257.000
27.63311 249.000
27.65306 270.000
27.67301 253.000
27.69296 246.000
27.71290 225.000
27.73285 267.000
27.75280 247.000
27.77274 255.000
27.79269 244.000
27.81264 256.000
27.83258 232.000
27.85253 253.000
27.87248 237.000
27.89242 237.000
27.91237 253.000
27.93232 255.000
27.95227 245.000
27.97221 252.000
27.99216 265.000
28.01211 277.000
28.03205 241.000
28.05200 297.000
28.07195 265.000
28.09189 257.000
28.11184 217.000
28.13179 256.000
28.15174 252.000
28.17168 254.000
28.19163 232.000
28.21158 262.000
28.23152 265.000
28.25147 256.000
28.27142 263.000
28.29136 259.000
28.31131 261.000
28.33126 260.000
28.35120 289.000
28.37115 247.000
28.39110 235.000
28.41105 249.000
28.43099 297.000
28.45094 260.000
28.47089 285.000
28.49083 273.000
28.51078 285.000
28.53073 261.000
28.55067 255.000
28.57062 276.000
28.59057 274.000
28.61052 255.000
28.63046 275.000
28.65041 217.000
28.67036 256.000
28.69030 253.000
28.71025 261.000
28.73020 283.000
28.75014 252.000
28.77009 249.000
28.79004 263.000
28.80998 280.000
28.82993 236.000
28.84988 246.000
28.86983 261.000
28.88977 252.000
28.90972 258.000
28.92967 270.000
28.94961 253.000
28.96956 255.000
28.98951 259.000
29.00945 273.000
29.02940 275.000
29.04935 248.000
29.06930 262.000
29.08924 251.000
29.10919 250.000
29.12914 259.000
29.14908 266.000
29.16903 278.000
29.18898 288.000
29.20892 268.000
29.22887 274.000
29.24882 275.000
29.26877 265.000
29.28871 296.000
29.30866 277.000
29.32861 287.000
29.34855 329.000
29.36850 299.000
29.38845 335.000
29.40839 348.000
29.42834 361.000
29.44829 423.000
29.46823 445.000
29.48818 531.000
29.50813 633.000
29.52808 746.000
29.54802 763.000
29.56797 680.000
29.58792 682.000
29.60786 681.000
29.62781 550.000
29.64776 540.000
29.66770 449.000
29.68765 420.000
29.70760 362.000
29.72755 342.000
29.74749 288.000
29.76744 312.000
29.78739 328.000
29.80733 332.000
29.82728 311.000
29.84723 288.000
29.86717 318.000
29.88712 290.000
29.90707 297.000
29.92701 292.000
29.94696 298.000
29.96691 292.000
29.98686 317.000
30.00680 281.000
30.02675 323.000
30.04670 356.000
30.06664 288.000
30.08659 306.000
30.10654 328.000
30.12648 306.000
30.14643 306.000
30.16638 288.000
30.18633 295.000
30.20627 276.000
30.22622 299.000
30.24617 273.000
30.26611 277.000
30.28606 255.000
30.30601 283.000
30.32595 266.000
30.34590 271.000
30.36585 252.000
30.38579 249.000
30.40574 262.000
30.42569 289.000
30.44564 276.000
30.46558 263.000
30.48553 262.000
30.50548 261.000
30.52542 266.000
30.54537 274.000
30.56532 268.000
30.58526 268.000
30.60521 284.000
30.62516 283.000
30.64511 290.000
30.66505 284.000
30.68500 289.000
30.70495 315.000
30.72489 300.000
30.74484 317.000
30.76479 274.000
30.78473 287.000
30.80468 302.000
30.82463 287.000
30.84458 311.000
30.86452 307.000
30.88447 284.000
30.90442 316.000
30.92436 277.000
30.94431 309.000
30.96426 295.000
30.98420 301.000
31.00415 300.000
31.02410 277.000
31.04404 270.000
31.06399 264.000
31.08394 272.000
31.10389 268.000
31.12383 246.000
31.14378 241.000
31.16373 283.000
31.18367 270.000
31.20362 283.000
31.22357 255.000
31.24351 282.000
31.26346 254.000
31.28341 268.000
31.30336 247.000
31.32330 310.000
31.34325 271.000
31.36320 274.000
31.38314 280.000
31.40309 266.000
31.42304 276.000
31.44298 310.000
31.46293 338.000
31.48288 318.000
31.50282 293.000
31.52277 301.000
31.54272 280.000
31.56267 294.000
31.58261 324.000
31.60256 320.000
31.62251 281.000
31.64245 296.000
31.66240 334.000
31.68235 342.000
31.70229 381.000
31.72224 434.000
31.74219 441.000
31.76214 526.000
31.78208 483.000
31.80203 420.000
31.82198 470.000
31.84192 454.000
31.86187 432.000
31.88182 400.000
31.90176 356.000
31.92171 322.000
31.94166 322.000
31.96160 305.000
31.98155 336.000
32.00150 317.000
32.02145 296.000
32.04139 310.000
32.06134 311.000
32.08129 321.000
32.10123 324.000
32.12118 312.000
32.14113 303.000
32.16107 329.000
32.18102 352.000
32.20097 329.000
32.22092 373.000
32.24086 352.000
32.26081 347.000
32.28076 403.000
32.30070 389.000
32.32065 387.000
32.34060 386.000
32.36054 377.000
32.38049 386.000
32.40044 358.000
32.42039 379.000
32.44033 457.000
32.46028 464.000
32.48023 511.000
32.50017 532.000
32.52012 502.000
32.54007 435.000
32.56001 404.000
32.57996 455.000
32.59991 434.000
32.61985 339.000
32.63980 321.000
32.65975 297.000
32.67970 297.000
32.69964 320.000
32.71959 299.000
32.73954 285.000
32.75948 296.000
32.77943 304.000
32.79938 276.000
32.81932 323.000
32.83927 254.000
32.85922 288.000
32.87917 289.000
32.89911 308.000
32.91906 269.000
32.93901 281.000
32.95895 272.000
32.97890 297.000
32.99885 288.000
33.01879 298.000
33.03874 299.000
33.05869 334.000
33.07863 344.000
33.09858 313.000
33.11853 335.000
33.13848 323.000
33.15842 374.000
33.17837 397.000
33.19832 415.000
33.21826 452.000
33.23821 509.000
33.25816 552.000
33.27810 619.000
33.29805 727.000
33.31800 755.000
33.33795 830.000
33.35789 745.000
33.37784 772.000
33.39779 748.000
33.41773 721.000
33.43768 725.000
33.45763 688.000
33.47757 634.000
33.49752 629.000
33.51747 590.000
33.53741 539.000
33.55736 562.000
33.57731 549.000
33.59726 499.000
33.61720 492.000
33.63715 462.000
33.65710 510.000
33.67704 490.000
33.69699 496.000
33.71694 440.000
33.73688 521.000
33.75683 535.000
33.77678 585.000
33.79673 613.000
33.81667 628.000
33.83662 623.000
33.85657 688.000
33.87651 658.000
33.89646 722.000
33.91641 817.000
33.93635 995.000
33.95630 1073.000
33.97625 1247.000
33.99620 1442.000
34.01614 1579.000
34.03609 1563.000
34.05604 1468.000
34.07598 1439.000
34.09593 1394.000
34.11588 1324.000
34.13582 1189.000
34.15577 1018.000
34.17572 945.000
34.19566 901.000
34.21561 786.000
34.23556 716.000
34.25551 683.000
34.27545 605.000
34.29540 594.000
34.31535 556.000
34.33529 530.000
34.35524 486.000
34.37519 451.000
34.39513 455.000
34.41508 438.000
34.43503 440.000
34.45498 370.000
34.47492 415.000
34.49487 376.000
34.51482 327.000
34.53476 344.000
34.55471 354.000
34.57466 342.000
34.59460 322.000
34.61455 317.000
34.63450 362.000
34.65444 357.000
34.67439 350.000
34.69434 310.000
34.71429 338.000
34.73423 313.000
34.75418 302.000
34.77413 322.000
34.79407 314.000
34.81402 273.000
34.83397 309.000
34.85391 308.000
34.87386 309.000
34.89381 350.000
34.91376 325.000
34.93370 325.000
34.95365 260.000
34.97360 321.000
34.99354 325.000
35.01349 328.000
35.03344 317.000
35.05338 307.000
35.07333 328.000
35.09328 326.000
35.11322 343.000
35.13317 373.000
35.15312 357.000
35.17307 368.000
35.19301 368.000
35.21296 439.000
35.23291 452.000
35.25285 443.000
35.27280 463.000
35.29275 546.000
35.31269 538.000
35.33264 671.000
35.35259 705.000
35.37254 914.000
35.39248 1162.000
35.41243 1327.000
35.43238 1487.000
35.45232 1476.000
35.47227 1804.000
35.49222 2187.000
35.51216 2566.000
35.53211 2547.000
35.55206 2024.000
35.57201 1715.000
35.59195 1649.000
35.61190 1697.000
35.63185 1406.000
35.65179 992.000
35.67174 763.000
35.69169 649.000
35.71163 554.000
35.73158 513.000
35.75153 442.000
35.77147 505.000
35.79142 467.000
35.81137 397.000
35.83132 387.000
35.85126 395.000
35.87121 394.000
35.89116 380.000
35.91110 446.000
35.93105 357.000
35.95100 353.000
35.97094 373.000
35.99089 397.000
36.01084 389.000
36.03079 395.000
36.05073 368.000
36.07068 361.000
36.09063 362.000
36.11057 389.000
36.13052 331.000
36.15047 340.000
36.17041 335.000
36.19036 328.000
36.21031 332.000
36.23025 350.000
36.25020 307.000
36.27015 296.000
36.29010 320.000
36.31004 292.000
36.32999 302.000
36.34994 315.000
36.36988 294.000
36.38983 270.000
36.40978 314.000
36.42972 289.000
36.44967 294.000
36.46962 309.000
36.48957 294.000
36.50951 271.000
36.52946 284.000
36.54941 284.000
36.56935 299.000
36.58930 307.000
36.60925 290.000
36.62919 284.000
36.64914 280.000
36.66909 249.000
36.68903 273.000
36.70898 266.000
36.72893 272.000
36.74888 260.000
36.76882 280.000
36.78877 298.000
36.80872 285.000
36.82866 288.000
36.84861 254.000
36.86856 292.000
36.88850 267.000
36.90845 252.000
36.92840 293.000
36.94835 272.000
36.96829 278.000
36.98824 261.000
37.00819 278.000
37.02813 301.000
37.04808 298.000
37.06803 296.000
37.08797 287.000
37.10792 302.000
37.12787 270.000
37.14781 280.000
37.16776 295.000
37.18771 298.000
37.20766 289.000
37.22760 280.000
37.24755 285.000
37.26750 239.000
37.28744 281.000
37.30739 290.000
37.32734 272.000
37.34728 262.000
37.36723 277.000
37.38718 273.000
37.40713 262.000
37.42707 260.000
37.44702 285.000
37.46697 291.000
37.48691 289.000
37.50686 244.000
37.52681 266.000
37.54675 262.000
37.56670 265.000
37.58665 280.000
37.60660 292.000
37.62654 291.000
37.64649 296.000
37.66644 235.000
37.68638 255.000
37.70633 261.000
37.72628 260.000
37.74622 278.000
37.76617 280.000
37.78612 268.000
37.80606 306.000
37.82601 319.000
37.84596 298.000
37.86591 269.000
37.88585 305.000
37.90580 306.000
37.92575 273.000
37.94569 300.000
37.96564 296.000
37.98559 318.000
38.00553 272.000
38.02548 306.000
38.04543 276.000
38.06538 299.000
38.08532 319.000
38.10527 350.000
38.12522 343.000
38.14516 320.000
38.16511 342.000
38.18506 342.000
38.20500 336.000
38.22495 363.000
38.24490 331.000
38.26484 386.000
38.28479 360.000
38.30474 345.000
38.32469 363.000
38.34463 366.000
38.36458 374.000
38.38453 378.000
38.40447 389.000
38.42442 410.000
38.44437 433.000
38.46431 422.000
38.48426 486.000
38.50421 508.000
38.52416 542.000
38.54410 550.000
38.56405 657.000
38.58400 725.000
38.60394 765.000
38.62389 916.000
38.64384 1107.000
38.66378 1452.000
38.68373 1879.000
38.70368 2320.000
38.72362 2452.000
38.74357 2358.000
38.76352 1949.000
38.78347 1855.000
38.80341 1778.000
38.82336 1721.000
38.84331 1668.000
38.86325 1391.000
38.88320 1215.000
38.90315 1244.000
38.92309 1120.000
38.94304 959.000
38.96299 767.000
38.98294 754.000
39.00288 718.000
39.02283 663.000
39.04278 579.000
39.06272 494.000
39.08267 488.000
39.10262 437.000
39.12256 399.000
39.14251 401.000
39.16246 405.000
39.18241 366.000
39.20235 336.000
39.22230 372.000
39.24225 313.000
39.26219 334.000
39.28214 317.000
39.30209 306.000
39.32203 316.000
39.34198 301.000
39.36193 342.000
39.38187 293.000
39.40182 321.000
39.42177 318.000
39.44172 305.000
39.46166 303.000
39.48161 312.000
39.50156 317.000
39.52150 274.000
39.54145 290.000
39.56140 272.000
39.58134 288.000
39.60129 281.000
39.62124 291.000
39.64119 264.000
39.66113 270.000
39.68108 240.000
39.70103 278.000
39.72097 294.000
39.74092 306.000
39.76087 278.000
39.78081 286.000
39.80076 261.000
39.82071 296.000
39.84065 273.000
39.86060 264.000
39.88055 272.000
39.90050 272.000
39.92044 288.000
39.94039 265.000
39.96034 268.000
39.98028 275.000
40.00023 263.000
40.02018 278.000
40.04012 284.000
40.06007 255.000
40.08002 301.000
40.09997 266.000
40.11991 281.000
40.13986 280.000
40.15981 264.000
40.17975 277.000
40.19970 296.000
40.21965 281.000
40.23959 285.000
40.25954 280.000
40.27949 293.000
40.29943 244.000
40.31938 248.000
40.33933 239.000
40.35928 272.000
40.37922 240.000
40.39917 255.000
40.41912 237.000
40.43906 275.000
40.45901 253.000
40.47896 262.000
40.49890 243.000
40.51885 273.000
40.53880 265.000
40.55875 292.000
40.57869 261.000
40.59864 242.000
40.61859 264.000
40.63853 258.000
40.65848 249.000
40.67843 274.000
40.69837 286.000
40.71832 242.000
40.73827 250.000
40.75822 257.000
40.77816 252.000
40.79811 246.000
40.81806 228.000
40.83800 248.000
40.85795 247.000
40.87790 275.000
40.89784 233.000
40.91779 269.000
40.93774 273.000
40.95768 279.000
40.97763 275.000
40.99758 274.000
41.01753 266.000
41.03747 271.000
41.05742 269.000
41.07737 259.000
41.09731 245.000
41.11726 278.000
41.13721 266.000
41.15715 265.000
41.17710 284.000
41.19705 274.000
41.21700 258.000
41.23694 260.000
41.25689 234.000
41.27684 295.000
41.29678 253.000
41.31673 274.000
41.33668 271.000
41.35662 276.000
41.37657 269.000
41.39652 264.000
41.41646 247.000
41.43641 276.000
41.45636 246.000
41.47631 254.000
41.49625 257.000
41.51620 298.000
41.53615 243.000
41.55609 265.000
41.57604 254.000
41.59599 237.000
41.61593 245.000
41.63588 229.000
41.65583 253.000
41.67578 262.000
41.69572 260.000
41.71567 280.000
41.73562 271.000
41.75556 252.000
41.77551 250.000
41.79546 261.000
41.81540 258.000
41.83535 306.000
41.85530 284.000
41.87524 263.000
41.89519 272.000
41.91514 279.000
41.93509 257.000
41.95503 265.000
41.97498 273.000
41.99493 263.000
42.01487 257.000
42.03482 223.000
42.05477 263.000
42.07471 300.000
42.09466 272.000
42.11461 274.000
42.13456 254.000
42.15450 234.000
42.17445 279.000
42.19440 283.000
42.21434 246.000
42.23429 253.000
42.25424 268.000
42.27418 250.000
42.29413 287.000
42.31408 276.000
42.33403 266.000
42.35397 259.000
42.37392 259.000
42.39387 281.000
42.41381 274.000
42.43376 239.000
42.45371 282.000
42.47365 280.000
42.49360 297.000
42.51355 290.000
42.53349 262.000
42.55344 226.000
42.57339 235.000
42.59334 242.000
42.61328 236.000
42.63323 282.000
42.65318 248.000
42.67312 280.000
42.69307 242.000
42.71302 250.000
42.73296 261.000
42.75291 250.000
42.77286 274.000
42.79281 250.000
42.81275 264.000
42.83270 232.000
42.85265 273.000
42.87259 229.000
42.89254 250.000
42.91249 259.000
42.93243 237.000
42.95238 257.000
42.97233 252.000
42.99227 297.000
43.01222 287.000
43.03217 322.000
43.05212 274.000
43.07206 264.000
43.09201 239.000
43.11196 277.000
43.13190 276.000
43.15185 262.000
43.17180 259.000
43.19174 243.000
43.21169 275.000
43.23164 249.000
43.25159 257.000
43.27153 264.000
43.29148 265.000
43.31143 284.000
43.33137 269.000
43.35132 244.000
43.37127 278.000
43.39121 258.000
43.41116 240.000
43.43111 254.000
43.45105 256.000
43.47100 257.000
43.49095 251.000
43.51090 236.000
43.53084 227.000
43.55079 283.000
43.57074 251.000
43.59068 236.000
43.61063 263.000
43.63058 277.000
43.65052 250.000
43.67047 273.000
43.69042 284.000
43.71037 246.000
43.73031 238.000
43.75026 276.000
43.77021 242.000
43.79015 241.000
43.81010 251.000
43.83005 285.000
43.84999 268.000
43.86994 259.000
43.88989 259.000
43.90984 233.000
43.92978 271.000
43.94973 246.000
43.96968 269.000
43.98962 269.000
44.00957 234.000
44.02952 249.000
44.04946 266.000
44.06941 268.000
44.08936 261.000
44.10930 244.000
44.12925 236.000
44.14920 231.000
44.16915 250.000
44.18909 267.000
44.20904 285.000
44.22899 240.000
44.24893 270.000
44.26888 233.000
44.28883 226.000
44.30877 232.000
44.32872 234.000
44.34867 240.000
44.36862 323.000
44.38856 253.000
44.40851 283.000
44.42846 282.000
44.44840 271.000
44.46835 279.000
44.48830 309.000
44.50824 317.000
44.52819 300.000
44.54814 281.000
44.56808 297.000
44.58803 271.000
44.60798 275.000
44.62793 261.000
44.64787 284.000
44.66782 296.000
44.68777 265.000
44.70771 278.000
44.72766 254.000
44.74761 261.000
44.76755 259.000
44.78750 209.000
44.80745 239.000
44.82740 230.000
44.84734 267.000
44.86729 234.000
44.88724 253.000
44.90718 262.000
44.92713 246.000
44.94708 266.000
44.96702 269.000
44.98697 268.000
45.00692 282.000
45.02686 293.000
45.04681 314.000
45.06676 289.000
45.08671 353.000
45.10665 308.000
45.12660 356.000
45.14655 352.000
45.16649 318.000
45.18644 341.000
45.20639 335.000
45.22633 350.000
45.24628 314.000
45.26623 296.000
45.28618 304.000
45.30612 277.000
45.32607 295.000
45.34602 292.000
45.36596 294.000
45.38591 298.000
45.40586 278.000
45.42580 284.000
45.44575 260.000
45.46570 281.000
45.48565 313.000
45.50559 280.000
45.52554 253.000
45.54549 265.000
45.56543 242.000
45.58538 246.000
45.60533 260.000
45.62527 246.000
45.64522 269.000
45.66517 234.000
45.68511 246.000
45.70506 241.000
45.72501 258.000
45.74496 255.000
45.76490 255.000
45.78485 264.000
45.80480 260.000
45.82474 242.000
45.84469 240.000
45.86464 225.000
45.88458 264.000
45.90453 230.000
45.92448 239.000
45.94443 257.000
45.96437 252.000
45.98432 255.000
46.00427 247.000
46.02421 275.000
46.04416 222.000
46.06411 249.000
46.08405 244.000
46.10400 274.000
46.12395 257.000
46.14389 255.000
46.16384 260.000
46.18379 311.000
46.20374 299.000
46.22368 267.000
46.24363 295.000
46.26358 285.000
46.28352 288.000
46.30347 306.000
46.32342 303.000
46.34336 278.000
46.36331 296.000
46.38326 281.000
46.40321 293.000
46.42315 278.000
46.44310 287.000
46.46305 280.000
46.48299 282.000
46.50294 300.000
46.52289 287.000
46.54283 261.000
46.56278 284.000
46.58273 255.000
46.60267 272.000
46.62262 243.000
46.64257 289.000
46.66252 276.000
46.68246 258.000
46.70241 302.000
46.72236 271.000
46.74230 289.000
46.76225 266.000
46.78220 300.000
46.80214 280.000
46.82209 269.000
46.84204 277.000
46.86199 303.000
46.88193 282.000
46.90188 253.000
46.92183 256.000
46.94177 277.000
46.96172 273.000
46.98167 252.000
47.00161 262.000
47.02156 249.000
47.04151 254.000
47.06146 246.000
47.08140 269.000
47.10135 263.000
47.12130 255.000
47.14124 294.000
47.16119 265.000
47.18114 295.000
47.20108 266.000
47.22103 299.000
47.24098 288.000
47.26092 265.000
47.28087 266.000
47.30082 281.000
47.32077 290.000
47.34071 267.000
47.36066 254.000
47.38061 258.000
47.40055 237.000
47.42050 245.000
47.44045 282.000
47.46039 263.000
47.48034 265.000
47.50029 251.000
47.52024 255.000
47.54018 247.000
47.56013 259.000
47.58008 263.000
47.60002 245.000
47.61997 238.000
47.63992 259.000
47.65986 270.000
47.67981 250.000
47.69976 273.000
47.71970 247.000
47.73965 234.000
47.75960 246.000
47.77955 261.000
47.79949 256.000
47.81944 253.000
47.83939 247.000
47.85933 268.000
47.87928 261.000
47.89923 271.000
47.91917 243.000
47.93912 268.000
47.95907 251.000
47.97902 265.000
47.99896 247.000
48.01891 250.000
48.03886 248.000
48.05880 235.000
48.07875 268.000
48.09870 270.000
48.11864 267.000
48.13859 291.000
48.15854 271.000
48.17848 270.000
48.19843 257.000
48.21838 289.000
48.23833 281.000
48.25827 289.000
48.27822 280.000
48.29817 290.000
48.31811 301.000
48.33806 307.000
48.35801 278.000
48.37795 277.000
48.39790 308.000
48.41785 320.000
48.43780 348.000
48.45774 311.000
48.47769 344.000
48.49764 338.000
48.51758 357.000
48.53753 381.000
48.55748 371.000
48.57742 474.000
48.59737 504.000
48.61732 524.000
48.63726 643.000
48.65721 821.000
48.67716 868.000
48.69711 861.000
48.71705 767.000
48.73700 640.000
48.75695 636.000
48.77689 648.000
48.79684 630.000
48.81679 664.000
48.83673 595.000
48.85668 569.000
48.87663 476.000
48.89658 416.000
48.91652 411.000
48.93647 362.000
48.95642 375.000
48.97636 333.000
48.99631 357.000
49.01626 329.000
49.03620 326.000
49.05615 342.000
49.07610 327.000
49.09605 316.000
49.11599 312.000
49.13594 319.000
49.15589 321.000
49.17583 287.000
49.19578 274.000
49.21573 304.000
49.23567 319.000
49.25562 272.000
49.27557 246.000
49.29551 248.000
49.31546 290.000
49.33541 269.000
49.35536 283.000
49.37530 268.000
49.39525 252.000
49.41520 274.000
49.43514 262.000
49.45509 255.000
49.47504 268.000
49.49498 262.000
49.51493 248.000
49.53488 274.000
49.55483 257.000
49.57477 285.000
49.59472 287.000
49.61467 285.000
49.63461 264.000
49.65456 249.000
49.67451 282.000
49.69445 264.000
49.71440 246.000
49.73435 262.000
49.75429 272.000
49.77424 286.000
49.79419 278.000
49.81414 248.000
49.83408 254.000
49.85403 283.000
49.87398 271.000
49.89392 275.000
49.91387 263.000
49.93382 279.000
49.95376 279.000
49.97371 281.000
49.99366 306.000
50.01361 302.000
50.03355 277.000
50.05350 323.000
50.07345 310.000
50.09339 298.000
50.11334 305.000
50.13329 270.000
50.15323 281.000
50.17318 265.000
50.19313 281.000
50.21307 257.000
50.23302 289.000
50.25297 265.000
50.27292 273.000
50.29286 262.000
50.31281 281.000
50.33276 254.000
50.35270 265.000
50.37265 284.000
50.39260 293.000
50.41254 278.000
50.43249 276.000
50.45244 270.000
50.47239 263.000
50.49233 293.000
50.51228 284.000
50.53223 259.000
50.55217 262.000
50.57212 236.000
50.59207 274.000
50.61201 281.000
50.63196 278.000
50.65191 303.000
50.67186 267.000
50.69180 300.000
50.71175 281.000
50.73170 284.000
50.75164 265.000
50.77159 278.000
50.79154 299.000
50.81148 305.000
50.83143 314.000
50.85138 316.000
50.87132 304.000
50.89127 321.000
50.91122 293.000
50.93117 329.000
50.95111 312.000
50.97106 366.000
50.99101 376.000
51.01095 332.000
51.03090 305.000
51.05085 317.000
51.07079 306.000
51.09074 320.000
51.11069 310.000
51.13064 312.000
51.15058 271.000
51.17053 268.000
51.19048 258.000
51.21042 269.000
51.23037 265.000
51.25032 275.000
51.27026 307.000
51.29021 277.000
51.31016 272.000
51.33010 252.000
51.35005 285.000
51.37000 293.000
51.38995 260.000
51.40989 289.000
51.42984 260.000
51.44979 266.000
51.46973 272.000
51.48968 243.000
51.50963 284.000
51.52957 236.000
51.54952 253.000
51.56947 262.000
51.58942 245.000
51.60936 247.000
51.62931 263.000
51.64926 219.000
51.66920 255.000
51.68915 231.000
51.70910 240.000
51.72904 267.000
51.74899 245.000
51.76894 245.000
51.78888 202.000
51.80883 267.000
51.82878 231.000
51.84873 235.000
51.86867 271.000
51.88862 243.000
51.90857 248.000
51.92851 234.000
51.94846 231.000
51.96841 291.000
51.98835 231.000
52.00830 262.000
52.02825 276.000
52.04820 250.000
52.06814 259.000
52.08809 260.000
52.10804 240.000
52.12798 233.000
52.14793 231.000
52.16788 230.000
52.18782 251.000
52.20777 242.000
52.22772 263.000
52.24767 250.000
52.26761 269.000
52.28756 256.000
52.30751 270.000
52.32745 272.000
52.34740 278.000
52.36735 258.000
52.38729 250.000
52.40724 271.000
52.42719 233.000
52.44713 248.000
52.46708 283.000
52.48703 278.000
52.50698 259.000
52.52692 300.000
52.54687 258.000
52.56682 278.000
52.58676 280.000
52.60671 273.000
52.62666 288.000
52.64660 291.000
52.66655 268.000
52.68650 265.000
52.70645 258.000
52.72639 296.000
52.74634 274.000
52.76629 261.000
52.78623 267.000
52.80618 267.000
52.82613 260.000
52.84607 243.000
52.86602 288.000
52.88597 251.000
52.90591 261.000
52.92586 269.000
52.94581 261.000
52.96576 283.000
52.98570 300.000
53.00565 280.000
53.02560 273.000
53.04554 277.000
53.06549 280.000
53.08544 280.000
53.10538 287.000
53.12533 301.000
53.14528 311.000
53.16523 296.000
53.18517 336.000
53.20512 288.000
53.22507 314.000
53.24501 306.000
53.26496 314.000
53.28491 298.000
53.30485 319.000
53.32480 304.000
53.34475 353.000
53.36469 378.000
53.38464 356.000
53.40459 383.000
53.42454 372.000
53.44448 378.000
53.46443 431.000
53.48438 427.000
53.50432 481.000
53.52427 450.000
53.54422 443.000
53.56416 389.000
53.58411 402.000
53.60406 389.000
53.62401 388.000
53.64395 364.000
53.66390 381.000
53.68385 347.000
53.70379 322.000
53.72374 336.000
53.74369 320.000
53.76363 256.000
53.78358 284.000
53.80353 303.000
53.82348 293.000
53.84342 286.000
53.86337 318.000
53.88332 284.000
53.90326 303.000
53.92321 300.000
53.94316 286.000
53.96310 294.000
53.98305 280.000
54.00300 298.000
54.02294 290.000
54.04289 282.000
54.06284 278.000
54.08279 257.000
54.10273 271.000
54.12268 269.000
54.14263 245.000
54.16257 259.000
54.18252 263.000
54.20247 260.000
54.22241 271.000
54.24236 213.000
54.26231 266.000
54.28226 250.000
54.30220 284.000
54.32215 241.000
54.34210 235.000
54.36204 291.000
54.38199 235.000
54.40194 245.000
54.42188 276.000
54.44183 233.000
54.46178 296.000
54.48172 263.000
54.50167 268.000
54.52162 269.000
54.54157 250.000
54.56151 268.000
54.58146 252.000
54.60141 255.000
54.62135 239.000
54.64130 240.000
54.66125 251.000
54.68119 252.000
54.70114 255.000
54.72109 249.000
54.74104 244.000
54.76098 243.000
54.78093 238.000
54.80088 270.000
54.82082 275.000
54.84077 281.000
54.86072 252.000
54.88066 307.000
54.90061 280.000
54.92056 291.000
54.94050 232.000
54.96045 263.000
54.98040 283.000
55.00035 274.000
55.02029 251.000
55.04024 272.000
55.06019 286.000
55.08013 296.000
55.10008 266.000
55.12003 329.000
55.13997 282.000
55.15992 354.000
55.17987 343.000
55.19982 350.000
55.21976 361.000
55.23971 334.000
55.25966 366.000
55.27960 350.000
55.29955 347.000
55.31950 329.000
55.33944 298.000
55.35939 343.000
55.37934 325.000
55.39929 340.000
55.41923 314.000
55.43918 303.000
55.45913 266.000
55.47907 278.000
55.49902 280.000
55.51897 297.000
55.53891 312.000
55.55886 275.000
55.57881 274.000
55.59875 269.000
55.61870 278.000
55.63865 267.000
55.65860 289.000
55.67854 286.000
55.69849 304.000
55.71844 264.000
55.73838 262.000
55.75833 278.000
55.77828 294.000
55.79822 279.000
55.81817 306.000
55.83812 283.000
55.85807 302.000
55.87801 329.000
55.89796 316.000
55.91791 276.000
55.93785 286.000
55.95780 274.000
55.97775 296.000
55.99769 268.000
56.01764 308.000
56.03759 303.000
56.05753 293.000
56.07748 287.000
56.09743 301.000
56.11738 288.000
56.13732 264.000
56.15727 278.000
56.17722 284.000
56.19716 275.000
56.21711 297.000
56.23706 270.000
56.25700 232.000
56.27695 249.000
56.29690 303.000
56.31685 257.000
56.33679 295.000
56.35674 255.000
56.37669 291.000
56.39663 270.000
56.41658 267.000
56.43653 264.000
56.45647 267.000
56.47642 221.000
56.49637 246.000
56.51631 271.000
56.53626 264.000
56.55621 272.000
56.57616 250.000
56.59610 250.000
56.61605 242.000
56.63600 267.000
56.65594 256.000
56.67589 264.000
56.69584 283.000
56.71578 283.000
56.73573 294.000
56.75568 288.000
56.77563 262.000
56.79557 288.000
56.81552 305.000
56.83547 273.000
56.85541 281.000
56.87536 280.000
56.89531 280.000
56.91525 296.000
56.93520 228.000
56.95515 278.000
56.97510 292.000
56.99504 261.000
57.01499 274.000
57.03494 248.000
57.05488 268.000
57.07483 254.000
57.09478 246.000
57.11472 242.000
57.13467 274.000
57.15462 223.000
57.17456 271.000
57.19451 255.000
57.21446 256.000
57.23441 268.000
57.25435 278.000
57.27430 241.000
57.29425 255.000
57.31419 269.000
57.33414 279.000
57.35409 252.000
57.37403 238.000
57.39398 254.000
57.41393 288.000
57.43388 248.000
57.45382 250.000
57.47377 267.000
57.49372 252.000
57.51366 263.000
57.53361 261.000
57.55356 267.000
57.57350 237.000
57.59345 221.000
57.61340 265.000
57.63334 276.000
57.65329 253.000
57.67324 250.000
57.69319 278.000
57.71313 263.000
57.73308 278.000
57.75303 276.000
57.77297 285.000
57.79292 267.000
57.81287 266.000
57.83281 246.000
57.85276 257.000
57.87271 263.000
57.89266 273.000
57.91260 261.000
57.93255 264.000
57.95250 267.000
57.97244 273.000
57.99239 254.000
58.01234 317.000
58.03228 291.000
58.05223 299.000
58.07218 323.000
58.09212 309.000
58.11207 284.000
58.13202 297.000
58.15197 299.000
58.17191 309.000
58.19186 314.000
58.21181 383.000
58.23175 392.000
58.25170 368.000
58.27165 407.000
58.29159 409.000
58.31154 475.000
58.33149 405.000
58.35144 395.000
58.37138 359.000
58.39133 353.000
58.41128 366.000
58.43122 368.000
58.45117 360.000
58.47112 360.000
58.49106 310.000
58.51101 319.000
58.53096 313.000
58.55090 301.000
58.57085 261.000
58.59080 307.000
58.61075 296.000
58.63069 281.000
58.65064 272.000
58.67059 267.000
58.69053 257.000
58.71048 282.000
58.73043 241.000
58.75037 290.000
58.77032 284.000
58.79027 275.000
58.81022 247.000
58.83016 276.000
58.85011 258.000
58.87006 266.000
58.89000 268.000
58.90995 254.000
58.92990 280.000
58.94984 276.000
58.96979 235.000
58.98974 283.000
59.00969 286.000
59.02963 270.000
59.04958 259.000
59.06953 276.000
59.08947 276.000
59.10942 262.000
59.12937 255.000
59.14931 253.000
59.16926 261.000
59.18921 253.000
59.20915 244.000
59.22910 226.000
59.24905 248.000
59.26900 291.000
59.28894 259.000
59.30889 245.000
59.32884 253.000
59.34878 266.000
59.36873 236.000
59.38868 284.000
59.40862 262.000
59.42857 275.000
59.44852 237.000
59.46847 257.000
59.48841 267.000
59.50836 261.000
59.52831 257.000
59.54825 262.000
59.56820 269.000
59.58815 238.000
59.60809 250.000
59.62804 250.000
59.64799 247.000
59.66793 253.000
59.68788 265.000
59.70783 286.000
59.72778 260.000
59.74772 270.000
59.76767 277.000
59.78762 277.000
59.80756 289.000
59.82751 301.000
59.84746 293.000
59.86740 324.000
59.88735 314.000
59.90730 354.000
59.92725 296.000
59.94719 359.000
59.96714 388.000
59.98709 362.000
60.00703 380.000
60.02698 413.000
60.04693 363.000
60.06687 377.000
60.08682 361.000
60.10677 386.000
60.12671 402.000
60.14666 376.000
60.16661 354.000
60.18656 352.000
60.20650 362.000
60.22645 366.000
60.24640 370.000
60.26634 343.000
60.28629 343.000
60.30624 358.000
60.32618 353.000
60.34613 353.000
60.36608 330.000
60.38603 322.000
60.40597 298.000
60.42592 338.000
60.44587 313.000
60.46581 314.000
60.48576 335.000
60.50571 341.000
60.52565 336.000
60.54560 351.000
60.56555 312.000
60.58550 346.000
60.60544 301.000
60.62539 318.000
60.64534 301.000
60.66528 299.000
60.68523 303.000
60.70518 336.000
60.72512 314.000
60.74507 327.000
60.76502 317.000
60.78496 330.000
60.80491 336.000
60.82486 282.000
60.84481 323.000
60.86475 324.000
60.88470 321.000
60.90465 346.000
60.92459 320.000
60.94454 357.000
60.96449 347.000
60.98443 347.000
61.00438 374.000
61.02433 394.000
61.04428 331.000
61.06422 361.000
61.08417 376.000
61.10412 346.000
61.12406 394.000
61.14401 366.000
61.16396 354.000
61.18390 337.000
61.20385 376.000
61.22380 381.000
61.24374 392.000
61.26369 378.000
61.28364 440.000
61.30359 431.000
61.32353 409.000
61.34348 453.000
61.36343 450.000
61.38337 477.000
61.40332 479.000
61.42327 462.000
61.44321 560.000
61.46316 554.000
61.48311 606.000
61.50306 646.000
61.52300 664.000
61.54295 636.000
61.56290 551.000
61.58284 516.000
61.60279 476.000
61.62274 448.000
61.64268 493.000
61.66263 454.000
61.68258 512.000
61.70252 506.000
61.72247 457.000
61.74242 400.000
61.76237 399.000
61.78231 367.000
61.80226 376.000
61.82221 373.000
61.84215 358.000
61.86210 327.000
61.88205 334.000
61.90199 339.000
61.92194 331.000
61.94189 325.000
61.96184 299.000
61.98178 320.000
62.00173 327.000
62.02168 332.000
62.04162 292.000
62.06157 330.000
62.08152 302.000
62.10146 291.000
62.12141 323.000
62.14136 336.000
62.16131 330.000
62.18125 312.000
62.20120 314.000
62.22115 352.000
62.24109 352.000
62.26104 353.000
62.28099 321.000
62.30093 300.000
62.32088 360.000
62.34083 362.000
62.36077 319.000
62.38072 295.000
62.40067 309.000
62.42062 346.000
62.44056 344.000
62.46051 346.000
62.48046 343.000
62.50040 324.000
62.52035 310.000
62.54030 313.000
62.56024 308.000
62.58019 306.000
62.60014 322.000
62.62009 294.000
62.64003 263.000
62.65998 274.000
62.67993 295.000
62.69987 291.000
62.71982 277.000
62.73977 248.000
62.75971 298.000
62.77966 265.000
62.79961 258.000
62.81955 296.000
62.83950 236.000
62.85945 269.000
62.87940 279.000
62.89934 254.000
62.91929 273.000
62.93924 274.000
62.95918 225.000
62.97913 261.000
62.99908 275.000
63.01902 273.000
63.03897 263.000
63.05892 242.000
63.07887 287.000
63.09881 262.000
63.11876 250.000
63.13871 264.000
63.15865 282.000
63.17860 261.000
63.19855 299.000
63.21849 259.000
63.23844 267.000
63.25839 270.000
63.27833 254.000
63.29828 264.000
63.31823 266.000
63.33818 255.000
63.35812 247.000
63.37807 248.000
63.39802 275.000
63.41796 266.000
63.43791 264.000
63.45786 236.000
63.47780 244.000
63.49775 255.000
63.51770 246.000
63.53765 294.000
63.55759 272.000
63.57754 246.000
63.59749 257.000
63.61743 276.000
63.63738 258.000
63.65733 267.000
63.67727 236.000
63.69722 241.000
63.71717 270.000
63.73712 237.000
63.75706 260.000
63.77701 285.000
63.79696 225.000
63.81690 320.000
63.83685 278.000
63.85680 309.000
63.87674 263.000
63.89669 310.000
63.91664 282.000
63.93658 250.000
63.95653 296.000
63.97648 332.000
63.99643 277.000
64.01637 306.000
64.03632 313.000
64.05627 267.000
64.07621 294.000
64.09616 284.000
64.11611 284.000
64.13605 292.000
64.15600 297.000
64.17595 322.000
64.19590 273.000
64.21584 248.000
64.23579 308.000
64.25574 273.000
64.27568 266.000
64.29563 271.000
64.31558 265.000
64.33552 286.000
64.35547 280.000
64.37542 267.000
64.39536 283.000
64.41531 256.000
64.43526 265.000
64.45521 247.000
64.47515 251.000
64.49510 272.000
64.51505 263.000
64.53499 244.000
64.55494 269.000
64.57489 263.000
64.59483 251.000
64.61478 286.000
64.63473 261.000
64.65468 269.000
64.67462 294.000
64.69457 289.000
64.71452 254.000
64.73446 249.000
64.75441 288.000
64.77436 280.000
64.79430 260.000
64.81425 265.000
64.83420 266.000
64.85414 270.000
64.87409 253.000
64.89404 269.000
64.91399 268.000
64.93393 306.000
64.95388 246.000
64.97383 283.000
64.99377 284.000
65.01372 271.000
65.03367 287.000
65.05361 268.000
65.07356 304.000
65.09351 282.000
65.11346 275.000
65.13340 243.000
65.15335 287.000
65.17330 250.000
65.19324 280.000
65.21319 268.000
65.23314 285.000
65.25308 315.000
65.27303 281.000
65.29298 293.000
65.31293 279.000
65.33287 313.000
65.35282 298.000
65.37277 296.000
65.39271 297.000
65.41266 289.000
65.43261 290.000
65.45255 284.000
65.47250 280.000
65.49245 288.000
65.51239 319.000
65.53234 324.000
65.55229 330.000
65.57224 314.000
65.59218 334.000
65.61213 342.000
65.63208 336.000
65.65202 349.000
65.67197 348.000
65.69192 344.000
65.71186 386.000
65.73181 403.000
65.75176 437.000
65.77171 448.000
65.79165 488.000
65.81160 536.000
65.83155 548.000
65.85149 478.000
65.87144 518.000
65.89139 482.000
65.91133 418.000
65.93128 427.000
65.95123 452.000
65.97117 479.000
65.99112 472.000
66.01107 436.000
66.03102 488.000
66.05096 460.000
66.07091 442.000
66.09086 458.000
66.11080 520.000
66.13075 486.000
66.15070 540.000
66.17064 570.000
66.19059 619.000
66.21054 613.000
66.23049 558.000
66.25043 513.000
66.27038 488.000
66.29033 438.000
66.31027 429.000
66.33022 480.000
66.35017 451.000
66.37011 447.000
66.39006 486.000
66.41001 449.000
66.42995 476.000
66.44990 363.000
66.46985 363.000
66.48980 301.000
66.50974 312.000
66.52969 342.000
66.54964 329.000
66.56958 283.000
66.58953 329.000
66.60948 294.000
66.62942 301.000
66.64937 300.000
66.66932 292.000
66.68927 318.000
66.70921 278.000
66.72916 267.000
66.74911 320.000
66.76905 290.000
66.78900 302.000
66.80895 304.000
66.82889 324.000
66.84884 289.000
66.86879 274.000
66.88874 284.000
66.90868 296.000
66.92863 287.000
66.94858 285.000
66.96852 277.000
66.98847 284.000
67.00842 293.000
67.02836 255.000
67.04831 277.000
67.06826 263.000
67.08820 266.000
67.10815 263.000
67.12810 278.000
67.14805 247.000
67.16799 269.000
67.18794 266.000
67.20789 286.000
67.22783 234.000
67.24778 288.000
67.26773 256.000
67.28767 267.000
67.30762 271.000
67.32757 272.000
67.34752 303.000
67.36746 283.000
67.38741 280.000
67.40736 254.000
67.42730 275.000
67.44725 324.000
67.46720 289.000
67.48714 268.000
67.50709 281.000
67.52704 298.000
67.54698 294.000
67.56693 268.000
67.58688 285.000
67.60683 284.000
67.62677 320.000
67.64672 306.000
67.66667 303.000
67.68661 292.000
67.70656 336.000
67.72651 326.000
67.74645 293.000
67.76640 340.000
67.78635 320.000
67.80630 318.000
67.82624 353.000
67.84619 342.000
67.86614 362.000
67.88608 367.000
67.90603 402.000
67.92598 428.000
67.94592 419.000
67.96587 407.000
67.98582 430.000
68.00576 410.000
68.02571 433.000
68.04566 463.000
68.06561 537.000
68.08555 525.000
68.10550 571.000
68.12545 584.000
68.14539 535.000
68.16534 479.000
68.18529 418.000
68.20523 398.000
68.22518 402.000
68.24513 419.000
68.26508 422.000
68.28502 469.000
68.30497 465.000
68.32492 404.000
68.34486 360.000
68.36481 317.000
68.38476 312.000
68.40470 315.000
68.42465 296.000
68.44460 284.000
68.46455 277.000
68.48449 311.000
68.50444 267.000
68.52439 277.000
68.54433 273.000
68.56428 260.000
68.58423 268.000
68.60417 237.000
68.62412 267.000
68.64407 253.000
68.66401 282.000
68.68396 249.000
68.70391 248.000
68.72386 262.000
68.74380 283.000
68.76375 267.000
68.78370 265.000
68.80364 288.000
68.82359 262.000
68.84354 300.000
68.86348 269.000
68.88343 299.000
68.90338 282.000
68.92333 259.000
68.94327 256.000
68.96322 268.000
68.98317 310.000
69.00311 264.000
69.02306 291.000
69.04301 262.000
69.06295 268.000
69.08290 255.000
69.10285 264.000
69.12279 268.000
69.14274 256.000
69.16269 278.000
69.18264 228.000
69.20258 271.000
69.22253 265.000
69.24248 227.000
69.26242 266.000
69.28237 248.000
69.30232 259.000
69.32226 249.000
69.34221 241.000
69.36216 261.000
69.38211 244.000
69.40205 260.000
69.42200 245.000
69.44195 252.000
69.46189 252.000
69.48184 238.000
69.50179 268.000
69.52173 224.000
69.54168 237.000
69.56163 262.000
69.58157 255.000
69.60152 246.000
69.62147 276.000
69.64142 240.000
69.66136 250.000
69.68131 274.000
69.70126 245.000
69.72120 242.000
69.74115 272.000
69.76110 248.000
69.78104 259.000
69.80099 221.000
69.82094 232.000
69.84089 245.000
69.86083 236.000
69.88078 255.000
69.90073 266.000
69.92067 227.000
69.94062 269.000
69.96057 230.000
69.98051 260.000
70.00046 247.000
70.02041 282.000
70.04035 262.000
70.06030 261.000
70.08025 271.000
70.10020 238.000
70.12014 262.000
70.14009 272.000
70.16004 271.000
70.17998 293.000
70.19993 279.000
70.21988 256.000
70.23982 259.000
70.25977 264.000
70.27972 260.000
70.29967 282.000
70.31961 246.000
70.33956 225.000
70.35951 273.000
70.37945 222.000
70.39940 254.000
70.41935 270.000
70.43929 241.000
70.45924 259.000
70.47919 262.000
70.49914 244.000
70.51908 250.000
70.53903 233.000
70.55898 279.000
70.57892 265.000
70.59887 247.000
70.61882 252.000
70.63876 233.000
70.65871 263.000
70.67866 228.000
70.69860 251.000
70.71855 241.000
70.73850 263.000
70.75845 229.000
70.77839 255.000
70.79834 256.000
70.81829 258.000
70.83823 220.000
70.85818 240.000
70.87813 259.000
70.89807 277.000
70.91802 214.000
70.93797 288.000
70.95792 246.000
70.97786 221.000
70.99781 244.000
71.01776 254.000
71.03770 250.000
71.05765 223.000
71.07760 269.000
71.09754 248.000
71.11749 232.000
71.13744 246.000
71.15738 273.000
71.17733 265.000
71.19728 225.000
71.21723 274.000
71.23717 235.000
71.25712 252.000
71.27707 242.000
71.29701 233.000
71.31696 243.000
71.33691 279.000
71.35685 281.000
71.37680 272.000
71.39675 248.000
71.41670 254.000
71.43664 278.000
71.45659 264.000
71.47654 247.000
71.49648 252.000
71.51643 249.000
71.53638 270.000
71.55632 261.000
71.57627 286.000
71.59622 270.000
71.61616 269.000
71.63611 304.000
71.65606 292.000
71.67601 293.000
71.69595 301.000
71.71590 283.000
71.73585 301.000
71.75579 295.000
71.77574 273.000
71.79569 272.000
71.81563 253.000
71.83558 308.000
71.85553 314.000
71.87548 267.000
71.89542 303.000
71.91537 274.000
71.93532 276.000
71.95526 298.000
71.97521 276.000
71.99516 280.000
72.01510 284.000
72.03505 263.000
72.05500 252.000
72.07495 265.000
72.09489 291.000
72.11484 262.000
72.13479 269.000
72.15473 267.000
72.17468 269.000
72.19463 286.000
72.21457 269.000
72.23452 277.000
72.25447 309.000
72.27441 260.000
72.29436 298.000
72.31431 295.000
72.33426 308.000
72.35420 338.000
72.37415 341.000
72.39410 356.000
72.41404 357.000
72.43399 322.000
72.45394 353.000
72.47388 318.000
72.49383 321.000
72.51378 326.000
72.53373 305.000
72.55367 312.000
72.57362 283.000
72.59357 289.000
72.61351 314.000
72.63346 312.000
72.65341 308.000
72.67335 285.000
72.69330 269.000
72.71325 286.000
72.73319 264.000
72.75314 267.000
72.77309 248.000
72.79304 261.000
72.81298 237.000
72.83293 270.000
72.85288 265.000
72.87282 286.000
72.89277 263.000
72.91272 273.000
72.93266 243.000
72.95261 225.000
72.97256 250.000
72.99251 224.000
73.01245 249.000
73.03240 273.000
73.05235 244.000
73.07229 272.000
73.09224 253.000
73.11219 279.000
73.13213 257.000
73.15208 238.000
73.17203 255.000
73.19197 233.000
73.21192 255.000
73.23187 261.000
73.25182 256.000
73.27176 218.000
73.29171 247.000
73.31166 234.000
73.33160 270.000
73.35155 226.000
73.37150 246.000
73.39144 234.000
73.41139 234.000
73.43134 220.000
73.45129 253.000
73.47123 254.000
73.49118 240.000
73.51113 239.000
73.53107 248.000
73.55102 244.000
73.57097 243.000
73.59091 273.000
73.61086 228.000
73.63081 250.000
73.65076 237.000
73.67070 245.000
73.69065 251.000
73.71060 255.000
73.73054 230.000
73.75049 249.000
73.77044 251.000
73.79038 242.000
73.81033 264.000
73.83028 245.000
73.85022 248.000
73.87017 261.000
73.89012 270.000
73.91007 257.000
73.93001 253.000
73.94996 266.000
73.96991 269.000
73.98985 269.000
74.00980 226.000
74.02975 252.000
74.04969 236.000
74.06964 230.000
74.08959 282.000
74.10954 270.000
74.12948 210.000
74.14943 271.000
74.16938 243.000
74.18932 259.000
74.20927 233.000
74.22922 212.000
74.24916 227.000
74.26911 246.000
74.28906 261.000
74.30900 251.000
74.32895 273.000
74.34890 253.000
74.36885 290.000
74.38879 263.000
74.40874 265.000
74.42869 279.000
74.44863 243.000
74.46858 259.000
74.48853 232.000
74.50847 293.000
74.52842 278.000
74.54837 271.000
74.56832 256.000
74.58826 251.000
74.60821 256.000
74.62816 292.000
74.64810 244.000
74.66805 270.000
74.68800 273.000
74.70794 253.000
74.72789 245.000
74.74784 256.000
74.76778 286.000
74.78773 274.000
74.80768 272.000
74.82763 272.000
74.84757 293.000
74.86752 279.000
74.88747 294.000
74.90741 284.000
74.92736 306.000
74.94731 286.000
74.96725 324.000
74.98720 376.000
75.00715 362.000
75.02710 363.000
75.04704 327.000
75.06699 340.000
75.08694 321.000
75.10688 313.000
75.12683 323.000
75.14678 328.000
75.16672 330.000
75.18667 358.000
75.20662 398.000
75.22657 378.000
75.24651 391.000
75.26646 367.000
75.28641 324.000
75.30635 334.000
75.32630 259.000
75.34625 319.000
75.36619 288.000
75.38614 311.000
75.40609 319.000
75.42603 287.000
75.44598 331.000
75.46593 308.000
75.48588 259.000
75.50582 263.000
75.52577 298.000
75.54572 274.000
75.56566 256.000
75.58561 253.000
75.60556 275.000
75.62550 274.000
75.64545 260.000
75.66540 242.000
75.68535 245.000
75.70529 279.000
75.72524 248.000
75.74519 254.000
75.76513 249.000
75.78508 237.000
75.80503 252.000
75.82497 248.000
75.84492 258.000
75.86487 254.000
75.88481 243.000
75.90476 239.000
75.92471 259.000
75.94466 278.000
75.96460 270.000
75.98455 251.000
76.00450 236.000
76.02444 239.000
76.04439 232.000
76.06434 240.000
76.08428 252.000
76.10423 245.000
76.12418 255.000
76.14413 230.000
76.16407 210.000
76.18402 255.000
76.20397 261.000
76.22391 239.000
76.24386 247.000
76.26381 225.000
76.28375 235.000
76.30370 241.000
76.32365 277.000
76.34359 223.000
76.36354 255.000
76.38349 225.000
76.40344 239.000
76.42338 234.000
76.44333 245.000
76.46328 267.000
76.48322 217.000
76.50317 237.000
76.52312 267.000
76.54306 219.000
76.56301 247.000
76.58296 234.000
76.60291 260.000
76.62285 246.000
76.64280 279.000
76.66275 275.000
76.68269 269.000
76.70264 229.000
76.72259 295.000
76.74253 245.000
76.76248 263.000
76.78243 249.000
76.80238 228.000
76.82232 247.000
76.84227 261.000
76.86222 261.000
76.88216 241.000
76.90211 212.000
76.92206 214.000
76.94200 257.000
76.96195 237.000
76.98190 238.000
77.00184 254.000
77.02179 242.000
77.04174 279.000
77.06169 249.000
77.08163 240.000
77.10158 245.000
77.12153 249.000
77.14147 230.000
77.16142 233.000
77.18137 237.000
77.20131 241.000
77.22126 247.000
77.24121 266.000
77.26116 245.000
77.28110 233.000
77.30105 243.000
77.32100 226.000
77.34094 251.000
77.36089 251.000
77.38084 220.000
77.40078 256.000
77.42073 252.000
77.44068 246.000
77.46062 251.000
77.48057 225.000
77.50052 235.000
77.52047 246.000
77.54041 243.000
77.56036 256.000
77.58031 252.000
77.60025 240.000
77.62020 249.000
77.64015 208.000
77.66009 271.000
77.68004 240.000
77.69999 244.000
77.71994 240.000
77.73988 271.000
77.75983 234.000
77.77978 277.000
77.79972 216.000
77.81967 249.000
77.83962 264.000
77.85956 250.000
77.87951 244.000
77.89946 239.000
77.91940 259.000
77.93935 214.000
77.95930 249.000
77.97925 266.000
77.99919 235.000
78.01914 237.000
78.03909 245.000
78.05903 243.000
78.07898 237.000
78.09893 242.000
78.11887 256.000
78.13882 250.000
78.15877 234.000
78.17872 229.000
78.19866 227.000
78.21861 248.000
78.23856 247.000
78.25850 232.000
78.27845 240.000
78.29840 245.000
78.31834 261.000
78.33829 230.000
78.35824 257.000
78.37819 214.000
78.39813 205.000
78.41808 264.000
78.43803 253.000
78.45797 244.000
78.47792 255.000
78.49787 213.000
78.51781 249.000
78.53776 252.000
78.55771 226.000
78.57765 224.000
78.59760 232.000
78.61755 237.000
78.63750 227.000
78.65744 232.000
78.67739 228.000
78.69734 227.000
78.71728 244.000
78.73723 255.000
78.75718 234.000
78.77712 253.000
78.79707 238.000
78.81702 261.000
78.83697 233.000
78.85691 237.000
78.87686 233.000
78.89681 212.000
78.91675 269.000
78.93670 252.000
78.95665 269.000
78.97659 224.000
78.99654 267.000
79.01649 252.000
79.03643 236.000
79.05638 242.000
79.07633 238.000
79.09628 233.000
79.11622 267.000
79.13617 228.000
79.15612 228.000
79.17606 225.000
79.19601 247.000
79.21596 247.000
79.23590 238.000
79.25585 249.000
79.27580 260.000
79.29575 238.000
79.31569 256.000
79.33564 239.000
79.35559 228.000
79.37553 220.000
79.39548 268.000
79.41543 228.000
79.43537 236.000
79.45532 254.000
79.47527 257.000
79.49521 255.000
79.51516 251.000
79.53511 223.000
79.55506 225.000
79.57500 280.000
79.59495 260.000
79.61490 229.000
79.63484 254.000
79.65479 226.000
79.67474 263.000
79.69468 241.000
79.71463 224.000
79.73458 231.000
79.75453 257.000
79.77447 223.000
79.79442 238.000
79.81437 263.000
79.83431 245.000
79.85426 245.000
79.87421 247.000
79.89415 244.000
79.91410 236.000
79.93405 228.000
79.95399 223.000
79.97394 258.000
79.99389 267.000
80.01384 274.000
80.03378 236.000
80.05373 233.000
80.07368 265.000
80.09362 257.000
80.11357 273.000
80.13352 262.000
80.15346 269.000
80.17341 287.000
80.19336 302.000
80.21331 252.000
80.23325 239.000
80.25320 297.000
80.27315 251.000
80.29309 254.000
80.31304 254.000
80.33299 248.000
80.35293 256.000
80.37288 246.000
80.39283 265.000
80.41278 256.000
80.43272 237.000
80.45267 256.000
80.47262 276.000
80.49256 244.000
80.51251 239.000
80.53246 232.000
80.55240 226.000
80.57235 255.000
80.59230 247.000
80.61224 238.000
80.63219 260.000
80.65214 240.000
80.67209 232.000
80.69203 248.000
80.71198 251.000
80.73193 225.000
80.75187 251.000
80.77182 279.000
80.79177 223.000
80.81171 242.000
80.83166 240.000
80.85161 251.000
80.87156 256.000
80.89150 231.000
80.91145 241.000
80.93140 253.000
80.95134 210.000
80.97129 245.000
80.99124 228.000
81.01118 210.000
81.03113 242.000
81.05108 244.000
81.07102 256.000
81.09097 228.000
81.11092 252.000
81.13087 259.000
81.15081 253.000
81.17076 228.000
81.19071 216.000
81.21065 250.000
81.23060 246.000
81.25055 254.000
81.27049 254.000
81.29044 253.000
81.31039 250.000
81.33034 259.000
81.35028 233.000
81.37023 219.000
81.39018 222.000
81.41012 229.000
81.43007 278.000
81.45002 219.000
81.46996 249.000
81.48991 241.000
81.50986 234.000
81.52980 267.000
81.54975 221.000
81.56970 235.000
81.58965 251.000
81.60959 260.000
81.62954 251.000
81.64949 242.000
81.66943 233.000
81.68938 247.000
81.70933 250.000
81.72927 224.000
81.74922 242.000
81.76917 255.000
81.78912 275.000
81.80906 241.000
81.82901 284.000
81.84896 285.000
81.86890 285.000
81.88885 250.000
81.90880 267.000
81.92874 252.000
81.94869 226.000
81.96864 271.000
81.98859 270.000
82.00853 261.000
82.02848 265.000
82.04843 265.000
82.06837 253.000
82.08832 268.000
82.10827 253.000
82.12821 279.000
82.14816 255.000
82.16811 257.000
82.18805 277.000
82.20800 285.000
82.22795 291.000
82.24790 346.000
82.26784 313.000
82.28779 312.000
82.30774 301.000
82.32768 304.000
82.34763 307.000
82.36758 286.000
82.38752 279.000
82.40747 282.000
82.42742 273.000
82.44737 296.000
82.46731 287.000
82.48726 274.000
82.50721 296.000
82.52715 267.000
82.54710 303.000
82.56705 307.000
82.58699 263.000
82.60694 288.000
82.62689 268.000
82.64683 294.000
82.66678 280.000
82.68673 226.000
82.70668 255.000
82.72662 260.000
82.74657 288.000
82.76652 291.000
82.78646 213.000
82.80641 266.000
82.82636 269.000
82.84630 267.000
82.86625 275.000
82.88620 265.000
82.90615 273.000
82.92609 281.000
82.94604 279.000
82.96599 256.000
82.98593 274.000
83.00588 278.000
83.02583 283.000
83.04577 307.000
83.06572 288.000
83.08567 319.000
83.10561 282.000
83.12556 289.000
83.14551 317.000
83.16546 292.000
83.18540 295.000
83.20535 291.000
83.22530 306.000
83.24524 313.000
83.26519 286.000
83.28514 265.000
83.30508 283.000
83.32503 296.000
83.34498 284.000
83.36493 284.000
83.38487 290.000
83.40482 310.000
83.42477 295.000
83.44471 283.000
83.46466 278.000
83.48461 275.000
83.50455 293.000
83.52450 326.000
83.54445 340.000
83.56440 310.000
83.58434 306.000
83.60429 287.000
83.62424 300.000
83.64418 315.000
83.66413 293.000
83.68408 279.000
83.70402 299.000
83.72397 280.000
83.74392 332.000
83.76386 294.000
83.78381 328.000
83.80376 276.000
83.82371 301.000
83.84365 271.000
83.86360 281.000
83.88355 298.000
83.90349 258.000
83.92344 260.000
83.94339 256.000
83.96333 264.000
83.98328 281.000
84.00323 284.000
84.02318 284.000
84.04312 269.000
84.06307 255.000
84.08302 235.000
84.10296 282.000
84.12291 264.000
84.14286 259.000
84.16280 265.000
84.18275 250.000
84.20270 269.000
84.22264 253.000
84.24259 239.000
84.26254 255.000
84.28249 240.000
84.30243 275.000
84.32238 272.000
84.34233 254.000
84.36227 250.000
84.38222 237.000
84.40217 246.000
84.42211 257.000
84.44206 246.000
84.46201 252.000
84.48196 253.000
84.50190 262.000
84.52185 270.000
84.54180 243.000
84.56174 248.000
84.58169 278.000
84.60164 281.000
84.62158 252.000
84.64153 266.000
84.66148 231.000
84.68142 246.000
84.70137 230.000
84.72132 251.000
84.74127 253.000
84.76121 250.000
84.78116 260.000
84.80111 263.000
84.82105 282.000
84.84100 264.000
84.86095 260.000
84.88089 261.000
84.90084 255.000
84.92079 285.000
84.94074 244.000
84.96068 265.000
84.98063 272.000
85.00058 260.000
85.02052 282.000
85.04047 259.000
85.06042 279.000
85.08036 268.000
85.10031 237.000
85.12026 244.000
85.14021 235.000
85.16015 277.000
85.18010 260.000
85.20005 281.000
85.21999 239.000
85.23994 248.000
85.25989 260.000
85.27983 245.000
85.29978 246.000
85.31973 266.000
85.33967 264.000
85.35962 286.000
85.37957 264.000
85.39952 247.000
85.41946 272.000
85.43941 254.000
85.45936 233.000
85.47930 283.000
85.49925 263.000
85.51920 259.000
85.53914 243.000
85.55909 237.000
85.57904 233.000
85.59899 254.000
85.61893 261.000
85.63888 236.000
85.65883 239.000
85.67877 226.000
85.69872 202.000
85.71867 249.000
85.73861 235.000
85.75856 226.000
85.77851 267.000
85.79845 242.000
85.81840 240.000
85.83835 243.000
85.85830 238.000
85.87824 230.000
85.89819 230.000
85.91814 240.000
85.93808 230.000
85.95803 241.000
85.97798 275.000
85.99792 251.000
86.01787 247.000
86.03782 254.000
86.05777 255.000
86.07771 255.000
86.09766 242.000
86.11761 273.000
86.13755 247.000
86.15750 236.000
86.17745 246.000
86.19739 238.000
86.21734 239.000
86.23729 234.000
86.25723 252.000
86.27718 247.000
86.29713 226.000
86.31708 269.000
86.33702 297.000
86.35697 236.000
86.37692 280.000
86.39686 261.000
86.41681 273.000
86.43676 246.000
86.45670 261.000
86.47665 273.000
86.49660 291.000
86.51655 239.000
86.53649 266.000
86.55644 255.000
86.57639 229.000
86.59633 232.000
86.61628 244.000
86.63623 230.000
86.65617 241.000
86.67612 269.000
86.69607 250.000
86.71602 230.000
86.73596 299.000
86.75591 263.000
86.77586 254.000
86.79580 267.000
86.81575 245.000
86.83570 245.000
86.85564 248.000
86.87559 212.000
86.89554 225.000
86.91548 249.000
86.93543 265.000
86.95538 253.000
86.97533 239.000
86.99527 260.000
87.01522 243.000
87.03517 245.000
87.05511 258.000
87.07506 227.000
87.09501 229.000
87.11495 249.000
87.13490 228.000
87.15485 261.000
87.17480 257.000
87.19474 250.000
87.21469 251.000
87.23464 212.000
87.25458 243.000
87.27453 247.000
87.29448 226.000
87.31442 244.000
87.33437 239.000
87.35432 228.000
87.37426 250.000
87.39421 228.000
87.41416 236.000
87.43411 253.000
87.45405 284.000
87.47400 260.000
87.49395 251.000
87.51389 272.000
87.53384 245.000
87.55379 251.000
87.57373 279.000
87.59368 238.000
87.61363 220.000
87.63358 241.000
87.65352 258.000
87.67347 248.000
87.69342 226.000
87.71336 235.000
87.73331 260.000
87.75326 271.000
87.77320 212.000
87.79315 263.000
87.81310 234.000
87.83304 245.000
87.85299 255.000
87.87294 248.000
87.89289 288.000
87.91283 255.000
87.93278 247.000
87.95273 249.000
87.97267 250.000
87.99262 280.000
88.01257 264.000
88.03251 256.000
88.05246 211.000
88.07241 227.000
88.09236 245.000
88.11230 216.000
88.13225 223.000
88.15220 247.000
88.17214 266.000
88.19209 222.000
88.21204 278.000
88.23198 225.000
88.25193 250.000
88.27188 254.000
88.29183 246.000
88.31177 229.000
88.33172 245.000
88.35167 265.000
88.37161 256.000
88.39156 270.000
88.41151 259.000
88.43145 245.000
88.45140 258.000
88.47135 251.000
88.49129 252.000
88.51124 256.000
88.53119 275.000
88.55114 265.000
88.57108 242.000
88.59103 249.000
88.61098 235.000
88.63092 227.000
88.65087 261.000
88.67082 200.000
88.69076 284.000
88.71071 283.000
88.73066 258.000
88.75061 256.000
88.77055 244.000
88.79050 236.000
88.81045 270.000
88.83039 228.000
88.85034 261.000
88.87029 246.000
88.89023 266.000
88.91018 276.000
88.93013 261.000
88.95007 242.000
88.97002 253.000
88.98997 261.000
89.00992 263.000
89.02986 235.000
89.04981 254.000
89.06976 246.000
89.08970 243.000
89.10965 267.000
89.12960 239.000
89.14954 234.000
89.16949 259.000
89.18944 253.000
89.20939 260.000
89.22933 258.000
89.24928 249.000
89.26923 265.000
89.28917 264.000
89.30912 269.000
89.32907 246.000
89.34901 240.000
89.36896 231.000
89.38891 267.000
89.40885 259.000
89.42880 255.000
89.44875 255.000
89.46870 269.000
89.48864 254.000
89.50859 274.000
89.52854 285.000
89.54848 270.000
89.56843 289.000
89.58838 264.000
89.60832 256.000
89.62827 270.000
89.64822 264.000
89.66817 270.000
89.68811 275.000
89.70806 285.000
89.72801 310.000
89.74795 312.000
89.76790 298.000
89.78785 318.000
89.80779 311.000
89.82774 345.000
89.84769 325.000
89.86764 315.000
89.88758 322.000
89.90753 292.000
89.92748 280.000
89.94742 301.000
89.96737 270.000
89.98732 319.000
90.00726 298.000
