10.00000 108.000
10.01995 115.000
10.03989 126.000
10.05984 90.000
10.07979 123.000
10.09973 115.000
10.11968 134.000
10.13963 134.000
10.15958 141.000
10.17952 124.000
10.19947 94.000
10.21942 111.000
10.23936 128.000
10.25931 128.000
10.27926 126.000
10.29920 115.000
10.31915 126.000
10.33910 110.000
10.35905 133.000
10.37899 130.000
10.39894 114.000
10.41889 122.000
10.43883 109.000
10.45878 112.000
10.47873 108.000
10.49867 131.000
10.51862 126.000
10.53857 130.000
10.55851 112.000
10.57846 132.000
10.59841 111.000
10.61836 135.000
10.63830 123.000
10.65825 140.000
10.67820 154.000
10.69814 135.000
10.71809 122.000
10.73804 119.000
10.75798 134.000
10.77793 133.000
10.79788 123.000
10.81783 142.000
10.83777 129.000
10.85772 117.000
10.87767 125.000
10.89761 124.000
10.91756 105.000
10.93751 142.000
10.95745 118.000
10.97740 119.000
10.99735 109.000
11.01730 130.000
11.03724 91.000
11.05719 144.000
11.07714 132.000
11.09708 121.000
11.11703 126.000
11.13698 112.000
11.15692 136.000
11.17687 115.000
11.19682 134.000
11.21676 137.000
11.23671 141.000
11.25666 118.000
11.27661 107.000
11.29655 117.000
11.31650 140.000
11.33645 105.000
11.35639 149.000
11.37634 151.000
11.39629 135.000
11.41623 145.000
11.43618 120.000
11.45613 132.000
11.47608 137.000
11.49602 116.000
11.51597 143.000
11.53592 127.000
11.55586 147.000
11.57581 131.000
11.59576 148.000
11.61570 130.000
11.63565 128.000
11.65560 152.000
11.67554 116.000
11.69549 154.000
11.71544 141.000
11.73539 128.000
11.75533 105.000
11.77528 144.000
11.79523 135.000
11.81517 132.000
11.83512 120.000
11.85507 130.000
11.87501 139.000
11.89496 119.000
11.91491 127.000
11.93486 140.000
11.95480 119.000
11.97475 128.000
11.99470 138.000
12.01464 152.000
12.03459 148.000
12.05454 150.000
12.07448 111.000
12.09443 145.000
12.11438 116.000
12.13432 153.000
12.15427 128.000
12.17422 129.000
12.19417 145.000
12.21411 135.000
12.23406 139.000
12.25401 142.000
12.27395 147.000
12.29390 166.000
12.31385 148.000
12.33379 136.000
12.35374 137.000
12.37369 145.000
12.39364 127.000
12.41358 155.000
12.43353 140.000
12.45348 154.000
12.47342 127.000
12.49337 128.000
12.51332 150.000
12.53326 165.000
12.55321 151.000
12.57316 165.000
12.59311 161.000
12.61305 160.000
12.63300 123.000
12.65295 130.000
12.67289 153.000
12.69284 156.000
12.71279 112.000
12.73273 161.000
12.75268 154.000
12.77263 148.000
12.79257 137.000
12.81252 150.000
12.83247 172.000
12.85242 117.000
12.87236 153.000
12.89231 148.000
12.91226 119.000
12.93220 145.000
12.95215 131.000
12.97210 131.000
12.99204 126.000
13.01199 153.000
13.03194 157.000
13.05189 154.000
13.07183 151.000
13.09178 143.000
13.11173 135.000
13.13167 145.000
13.15162 157.000
13.17157 159.000
13.19151 141.000
13.21146 147.000
13.23141 145.000
13.25135 145.000
13.27130 148.000
13.29125 147.000
13.31120 160.000
13.33114 121.000
13.35109 139.000
13.37104 162.000
13.39098 135.000
13.41093 147.000
13.43088 151.000
13.45082 139.000
13.47077 152.000
13.49072 126.000
13.51067 150.000
13.53061 144.000
13.55056 152.000
13.57051 156.000
13.59045 143.000
13.61040 159.000
13.63035 161.000
13.65029 153.000
13.67024 134.000
13.69019 152.000
13.71013 139.000
13.73008 152.000
13.75003 133.000
13.76998 144.000
13.78992 171.000
13.80987 150.000
13.82982 162.000
13.84976 154.000
13.86971 150.000
13.88966 136.000
13.90960 145.000
13.92955 162.000
13.94950 173.000
13.96945 160.000
13.98939 157.000
14.00934 144.000
14.02929 145.000
14.04923 151.000
14.06918 167.000
14.08913 157.000
14.10907 157.000
14.12902 131.000
14.14897 189.000
14.16892 159.000
14.18886 137.000
14.20881 150.000
14.22876 142.000
14.24870 167.000
14.26865 163.000
14.28860 160.000
14.30854 163.000
14.32849 162.000
14.34844 165.000
14.36838 154.000
14.38833 141.000
14.40828 172.000
14.42823 154.000
14.44817 175.000
14.46812 144.000
14.48807 160.000
14.50801 165.000
14.52796 152.000
14.54791 138.000
14.56785 151.000
14.58780 156.000
14.60775 168.000
14.62770 156.000
14.64764 152.000
14.66759 165.000
14.68754 157.000
14.70748 179.000
14.72743 169.000
14.74738 167.000
14.76732 161.000
14.78727 164.000
14.80722 145.000
14.82716 170.000
14.84711 147.000
14.86706 147.000
14.88701 168.000
14.90695 168.000
14.92690 160.000
14.94685 168.000
14.96679 143.000
14.98674 186.000
15.00669 169.000
15.02663 154.000
15.04658 187.000
15.06653 179.000
15.08648 176.000
15.10642 165.000
15.12637 168.000
15.14632 159.000
15.16626 175.000
15.18621 180.000
15.20616 162.000
15.22610 183.000
15.24605 182.000
15.26600 148.000
15.28594 193.000
15.30589 170.000
15.32584 167.000
15.34579 177.000
15.36573 172.000
15.38568 176.000
15.40563 187.000
15.42557 177.000
15.44552 169.000
15.46547 185.000
15.48541 181.000
15.50536 195.000
15.52531 177.000
15.54526 175.000
15.56520 201.000
15.58515 185.000
15.60510 191.000
15.62504 174.000
15.64499 198.000
15.66494 154.000
15.68488 171.000
15.70483 180.000
15.72478 163.000
15.74472 178.000
15.76467 161.000
15.78462 186.000
15.80457 184.000
15.82451 169.000
15.84446 201.000
15.86441 182.000
15.88435 182.000
15.90430 157.000
15.92425 212.000
15.94419 195.000
15.96414 191.000
15.98409 194.000
16.00404 188.000
16.02398 194.000
16.04393 184.000
16.06388 205.000
16.08382 175.000
16.10377 198.000
16.12372 170.000
16.14366 193.000
16.16361 197.000
16.18356 184.000
16.20351 201.000
16.22345 188.000
16.24340 203.000
16.26335 207.000
16.28329 220.000
16.30324 204.000
16.32319 208.000
16.34313 221.000
16.36308 219.000
16.38303 187.000
16.40297 210.000
16.42292 191.000
16.44287 198.000
16.46282 196.000
16.48276 206.000
16.50271 235.000
16.52266 226.000
16.54260 204.000
16.56255 184.000
16.58250 192.000
16.60244 228.000
16.62239 196.000
16.64234 212.000
16.66229 205.000
16.68223 225.000
16.70218 210.000
16.72213 238.000
16.74207 225.000
16.76202 204.000
16.78197 214.000
16.80191 228.000
16.82186 225.000
16.84181 227.000
16.86175 204.000
16.88170 220.000
16.90165 193.000
16.92160 229.000
16.94154 238.000
16.96149 215.000
16.98144 215.000
17.00138 224.000
17.02133 218.000
17.04128 234.000
17.06122 231.000
17.08117 246.000
17.10112 232.000
17.12107 259.000
17.14101 237.000
17.16096 217.000
17.18091 258.000
17.20085 209.000
17.22080 220.000
17.24075 210.000
17.26069 242.000
17.28064 216.000
17.30059 245.000
17.32053 218.000
17.34048 258.000
17.36043 258.000
17.38038 252.000
17.40032 250.000
17.42027 251.000
17.44022 245.000
17.46016 266.000
17.48011 273.000
17.50006 229.000
17.52000 262.000
17.53995 259.000
17.55990 248.000
17.57985 240.000
17.59979 256.000
17.61974 234.000
17.63969 248.000
17.65963 295.000
17.67958 248.000
17.69953 244.000
17.71947 283.000
17.73942 260.000
17.75937 237.000
17.77932 249.000
17.79926 243.000
17.81921 249.000
17.83916 259.000
17.85910 249.000
17.87905 283.000
17.89900 252.000
17.91894 272.000
17.93889 255.000
17.95884 265.000
17.97878 275.000
17.99873 280.000
18.01868 258.000
18.03863 295.000
18.05857 273.000
18.07852 251.000
18.09847 270.000
18.11841 277.000
18.13836 276.000
18.15831 277.000
18.17825 286.000
18.19820 292.000
18.21815 281.000
18.23810 268.000
18.25804 261.000
18.27799 291.000
18.29794 267.000
18.31788 285.000
18.33783 292.000
18.35778 277.000
18.37772 287.000
18.39767 276.000
18.41762 282.000
18.43756 308.000
18.45751 290.000
18.47746 279.000
18.49741 263.000
18.51735 286.000
18.53730 287.000
18.55725 305.000
18.57719 268.000
18.59714 280.000
18.61709 260.000
18.63703 288.000
18.65698 299.000
18.67693 292.000
18.69688 263.000
18.71682 274.000
18.73677 312.000
18.75672 293.000
18.77666 301.000
18.79661 297.000
18.81656 305.000
18.83650 298.000
18.85645 304.000
18.87640 310.000
18.89634 287.000
18.91629 315.000
18.93624 300.000
18.95619 270.000
18.97613 322.000
18.99608 291.000
19.01603 323.000
19.03597 341.000
19.05592 300.000
19.07587 270.000
19.09581 335.000
19.11576 318.000
19.13571 317.000
19.15566 311.000
19.17560 331.000
19.19555 325.000
19.21550 289.000
19.23544 298.000
19.25539 321.000
19.27534 336.000
19.29528 294.000
19.31523 335.000
19.33518 298.000
19.35513 334.000
19.37507 330.000
19.39502 318.000
19.41497 303.000
19.43491 356.000
19.45486 328.000
19.47481 335.000
19.49475 327.000
19.51470 344.000
19.53465 333.000
19.55459 332.000
19.57454 332.000
19.59449 356.000
19.61444 330.000
19.63438 319.000
19.65433 335.000
19.67428 347.000
19.69422 345.000
19.71417 338.000
19.73412 314.000
19.75406 371.000
19.77401 393.000
19.79396 328.000
19.81391 326.000
19.83385 383.000
19.85380 324.000
19.87375 321.000
19.89369 366.000
19.91364 361.000
19.93359 364.000
19.95353 327.000
19.97348 330.000
19.99343 351.000
20.01337 353.000
20.03332 363.000
20.05327 377.000
20.07322 328.000
20.09316 351.000
20.11311 361.000
20.13306 376.000
20.15300 310.000
20.17295 343.000
20.19290 350.000
20.21284 337.000
20.23279 327.000
20.25274 382.000
20.27269 376.000
20.29263 355.000
20.31258 363.000
20.33253 387.000
20.35247 383.000
20.37242 365.000
20.39237 354.000
20.41231 343.000
20.43226 348.000
20.45221 361.000
20.47215 368.000
20.49210 355.000
20.51205 362.000
20.53200 320.000
20.55194 344.000
20.57189 375.000
20.59184 350.000
20.61178 374.000
20.63173 346.000
20.65168 362.000
20.67162 398.000
20.69157 377.000
20.71152 367.000
20.73147 341.000
20.75141 390.000
20.77136 348.000
20.79131 380.000
20.81125 407.000
20.83120 371.000
20.85115 365.000
20.87109 362.000
20.89104 384.000
20.91099 396.000
20.93094 366.000
20.95088 360.000
20.97083 386.000
20.99078 406.000
21.01072 351.000
21.03067 383.000
21.05062 401.000
21.07056 389.000
21.09051 382.000
21.11046 396.000
21.13040 377.000
21.15035 414.000
21.17030 395.000
21.19025 393.000
21.21019 369.000
21.23014 376.000
21.25009 387.000
21.27003 394.000
21.28998 409.000
21.30993 375.000
21.32987 387.000
21.34982 420.000
21.36977 408.000
21.38972 343.000
21.40966 425.000
21.42961 367.000
21.44956 403.000
21.46950 389.000
21.48945 397.000
21.50940 360.000
21.52934 408.000
21.54929 392.000
21.56924 382.000
21.58918 418.000
21.60913 403.000
21.62908 388.000
21.64903 394.000
21.66897 419.000
21.68892 419.000
21.70887 424.000
21.72881 376.000
21.74876 396.000
21.76871 406.000
21.78865 420.000
21.80860 409.000
21.82855 393.000
21.84850 414.000
21.86844 387.000
21.88839 445.000
21.90834 414.000
21.92828 414.000
21.94823 399.000
21.96818 423.000
21.98812 411.000
22.00807 383.000
22.02802 398.000
22.04796 405.000
22.06791 413.000
22.08786 414.000
22.10781 410.000
22.12775 403.000
22.14770 445.000
22.16765 384.000
22.18759 416.000
22.20754 400.000
22.22749 462.000
22.24743 434.000
22.26738 404.000
22.28733 433.000
22.30728 428.000
22.32722 428.000
22.34717 415.000
22.36712 431.000
22.38706 409.000
22.40701 419.000
22.42696 468.000
22.44690 405.000
22.46685 425.000
22.48680 423.000
22.50675 421.000
22.52669 408.000
22.54664 419.000
22.56659 445.000
22.58653 442.000
22.60648 431.000
22.62643 442.000
22.64637 391.000
22.66632 396.000
22.68627 453.000
22.70621 443.000
22.72616 414.000
22.74611 445.000
22.76606 421.000
22.78600 415.000
22.80595 418.000
22.82590 446.000
22.84584 443.000
22.86579 404.000
22.88574 421.000
22.90568 457.000
22.92563 452.000
22.94558 458.000
22.96553 469.000
22.98547 410.000
23.00542 416.000
23.02537 427.000
23.04531 458.000
23.06526 489.000
23.08521 427.000
23.10515 459.000
23.12510 440.000
23.14505 432.000
23.16499 466.000
23.18494 473.000
23.20489 429.000
23.22484 452.000
23.24478 470.000
23.26473 470.000
23.28468 451.000
23.30462 446.000
23.32457 446.000
23.34452 506.000
23.36446 462.000
23.38441 498.000
23.40436 445.000
23.42431 494.000
23.44425 450.000
23.46420 457.000
23.48415 418.000
23.50409 485.000
23.52404 496.000
23.54399 462.000
23.56393 479.000
23.58388 472.000
23.60383 495.000
23.62377 507.000
23.64372 490.000
23.66367 466.000
23.68362 441.000
23.70356 504.000
23.72351 467.000
23.74346 460.000
23.76340 501.000
23.78335 509.000
23.80330 497.000
23.82324 501.000
23.84319 479.000
23.86314 519.000
23.88309 482.000
23.90303 478.000
23.92298 466.000
23.94293 480.000
23.96287 500.000
23.98282 507.000
24.00277 482.000
24.02271 520.000
24.04266 497.000
24.06261 539.000
24.08256 467.000
24.10250 496.000
24.12245 481.000
24.14240 486.000
24.16234 485.000
24.18229 503.000
24.20224 491.000
24.22218 502.000
24.24213 513.000
24.26208 503.000
24.28202 487.000
24.30197 499.000
24.32192 493.000
24.34187 546.000
24.36181 541.000
24.38176 504.000
24.40171 510.000
24.42165 543.000
24.44160 476.000
24.46155 534.000
24.48149 499.000
24.50144 533.000
24.52139 499.000
24.54134 528.000
24.56128 522.000
24.58123 460.000
24.60118 538.000
24.62112 545.000
24.64107 550.000
24.66102 519.000
24.68096 510.000
24.70091 536.000
24.72086 528.000
24.74080 542.000
24.76075 514.000
24.78070 556.000
24.80065 559.000
24.82059 582.000
24.84054 568.000
24.86049 556.000
24.88043 515.000
24.90038 526.000
24.92033 559.000
24.94027 535.000
24.96022 502.000
24.98017 585.000
25.00012 522.000
25.02006 572.000
25.04001 572.000
25.05996 546.000
25.07990 516.000
25.09985 574.000
25.11980 548.000
25.13974 586.000
25.15969 586.000
25.17964 534.000
25.19958 568.000
25.21953 564.000
25.23948 572.000
25.25943 540.000
25.27937 559.000
25.29932 557.000
25.31927 581.000
25.33921 529.000
25.35916 579.000
25.37911 580.000
25.39905 575.000
25.41900 542.000
25.43895 573.000
25.45890 593.000
25.47884 509.000
25.49879 578.000
25.51874 554.000
25.53868 585.000
25.55863 584.000
25.57858 603.000
25.59852 587.000
25.61847 572.000
25.63842 594.000
25.65837 656.000
25.67831 579.000
25.69826 599.000
25.71821 632.000
25.73815 657.000
25.75810 637.000
25.77805 611.000
25.79799 639.000
25.81794 586.000
25.83789 598.000
25.85783 654.000
25.87778 602.000
25.89773 582.000
25.91768 577.000
25.93762 631.000
25.95757 597.000
25.97752 598.000
25.99746 576.000
26.01741 649.000
26.03736 578.000
26.05730 605.000
26.07725 637.000
26.09720 631.000
26.11715 634.000
26.13709 615.000
26.15704 636.000
26.17699 660.000
26.19693 672.000
26.21688 578.000
26.23683 640.000
26.25677 633.000
26.27672 594.000
26.29667 653.000
26.31661 589.000
26.33656 615.000
26.35651 665.000
26.37646 641.000
26.39640 716.000
26.41635 624.000
26.43630 715.000
26.45624 721.000
26.47619 605.000
26.49614 629.000
26.51608 691.000
26.53603 643.000
26.55598 663.000
26.57593 657.000
26.59587 650.000
26.61582 679.000
26.63577 655.000
26.65571 664.000
26.67566 626.000
26.69561 658.000
26.71555 686.000
26.73550 703.000
26.75545 650.000
26.77539 696.000
26.79534 696.000
26.81529 675.000
26.83524 701.000
26.85518 687.000
26.87513 670.000
26.89508 654.000
26.91502 647.000
26.93497 637.000
26.95492 725.000
26.97486 684.000
26.99481 683.000
27.01476 716.000
27.03471 694.000
27.05465 690.000
27.07460 659.000
27.09455 711.000
27.11449 733.000
27.13444 731.000
27.15439 708.000
27.17433 693.000
27.19428 710.000
27.21423 740.000
27.23417 722.000
27.25412 739.000
27.27407 690.000
27.29402 728.000
27.31396 740.000
27.33391 701.000
27.35386 750.000
27.37380 758.000
27.39375 770.000
27.41370 741.000
27.43364 749.000
27.45359 747.000
27.47354 707.000
27.49349 759.000
27.51343 769.000
27.53338 715.000
27.55333 679.000
27.57327 705.000
27.59322 763.000
27.61317 772.000
27.63311 805.000
27.65306 754.000
27.67301 706.000
27.69296 764.000
27.71290 742.000
27.73285 724.000
27.75280 711.000
27.77274 800.000
27.79269 749.000
27.81264 703.000
27.83258 711.000
27.85253 745.000
27.87248 757.000
27.89242 729.000
27.91237 735.000
27.93232 779.000
27.95227 753.000
27.97221 785.000
27.99216 737.000
28.01211 775.000
28.03205 734.000
28.05200 778.000
28.07195 747.000
28.09189 787.000
28.11184 804.000
28.13179 805.000
28.15174 735.000
28.17168 819.000
28.19163 797.000
28.21158 819.000
28.23152 748.000
28.25147 785.000
28.27142 785.000
28.29136 815.000
28.31131 760.000
28.33126 783.000
28.35120 841.000
28.37115 799.000
28.39110 836.000
28.41105 772.000
28.43099 801.000
28.45094 782.000
28.47089 798.000
28.49083 752.000
28.51078 749.000
28.53073 761.000
28.55067 816.000
28.57062 833.000
28.59057 765.000
28.61052 771.000
28.63046 811.000
28.65041 818.000
28.67036 742.000
28.69030 806.000
28.71025 825.000
28.73020 791.000
28.75014 794.000
28.77009 826.000
28.79004 783.000
28.80998 773.000
28.82993 799.000
28.84988 823.000
28.86983 837.000
28.88977 796.000
28.90972 794.000
28.92967 849.000
28.94961 808.000
28.96956 733.000
28.98951 810.000
29.00945 782.000
29.02940 794.000
29.04935 848.000
29.06930 825.000
29.08924 806.000
29.10919 795.000
29.12914 853.000
29.14908 810.000
29.16903 756.000
29.18898 814.000
29.20892 811.000
29.22887 813.000
29.24882 800.000
29.26877 806.000
29.28871 837.000
29.30866 829.000
29.32861 815.000
29.34855 822.000
29.36850 873.000
29.38845 796.000
29.40839 794.000
29.42834 754.000
29.44829 795.000
29.46823 840.000
29.48818 801.000
29.50813 797.000
29.52808 833.000
29.54802 784.000
29.56797 853.000
29.58792 817.000
29.60786 775.000
29.62781 823.000
29.64776 822.000
29.66770 811.000
29.68765 810.000
29.70760 791.000
29.72755 809.000
29.74749 793.000
29.76744 828.000
29.78739 828.000
29.80733 855.000
29.82728 812.000
29.84723 823.000
29.86717 777.000
29.88712 799.000
29.90707 827.000
29.92701 826.000
29.94696 834.000
29.96691 824.000
29.98686 737.000
30.00680 815.000
30.02675 766.000
30.04670 782.000
30.06664 780.000
30.08659 830.000
30.10654 786.000
30.12648 789.000
30.14643 843.000
30.16638 837.000
30.18633 743.000
30.20627 798.000
30.22622 771.000
30.24617 790.000
30.26611 799.000
30.28606 824.000
30.30601 783.000
30.32595 805.000
30.34590 813.000
30.36585 785.000
30.38579 782.000
30.40574 806.000
30.42569 798.000
30.44564 806.000
30.46558 785.000
30.48553 813.000
30.50548 803.000
30.52542 788.000
30.54537 848.000
30.56532 817.000
30.58526 787.000
30.60521 817.000
30.62516 807.000
30.64511 770.000
30.66505 827.000
30.68500 811.000
30.70495 763.000
30.72489 834.000
30.74484 824.000
30.76479 789.000
30.78473 823.000
30.80468 773.000
30.82463 791.000
30.84458 767.000
30.86452 835.000
30.88447 782.000
30.90442 816.000
30.92436 829.000
30.94431 739.000
30.96426 821.000
30.98420 858.000
31.00415 754.000
31.02410 775.000
31.04404 810.000
31.06399 786.000
31.08394 823.000
31.10389 761.000
31.12383 770.000
31.14378 785.000
31.16373 747.000
31.18367 816.000
31.20362 811.000
31.22357 815.000
31.24351 820.000
31.26346 731.000
31.28341 795.000
31.30336 805.000
31.32330 776.000
31.34325 746.000
31.36320 773.000
31.38314 750.000
31.40309 798.000
31.42304 772.000
31.44298 758.000
31.46293 780.000
31.48288 818.000
31.50282 757.000
31.52277 696.000
31.54272 721.000
31.56267 769.000
31.58261 749.000
31.60256 767.000
31.62251 764.000
31.64245 789.000
31.66240 767.000
31.68235 753.000
31.70229 726.000
31.72224 750.000
31.74219 760.000
31.76214 719.000
31.78208 757.000
31.80203 708.000
31.82198 732.000
31.84192 779.000
31.86187 693.000
31.88182 756.000
31.90176 753.000
31.92171 715.000
31.94166 727.000
31.96160 715.000
31.98155 694.000
32.00150 720.000
32.02145 722.000
32.04139 746.000
32.06134 758.000
32.08129 737.000
32.10123 757.000
32.12118 747.000
32.14113 719.000
32.16107 697.000
32.18102 706.000
32.20097 749.000
32.22092 735.000
32.24086 751.000
32.26081 744.000
32.28076 705.000
32.30070 725.000
32.32065 714.000
32.34060 677.000
32.36054 742.000
32.38049 716.000
32.40044 714.000
32.42039 713.000
32.44033 678.000
32.46028 767.000
32.48023 701.000
32.50017 690.000
32.52012 678.000
32.54007 688.000
32.56001 750.000
32.57996 739.000
32.59991 710.000
32.61985 686.000
32.63980 692.000
32.65975 690.000
32.67970 652.000
32.69964 702.000
32.71959 721.000
32.73954 739.000
32.75948 722.000
32.77943 705.000
32.79938 722.000
32.81932 701.000
32.83927 691.000
32.85922 717.000
32.87917 691.000
32.89911 705.000
32.91906 735.000
32.93901 680.000
32.95895 658.000
32.97890 734.000
32.99885 658.000
33.01879 687.000
33.03874 705.000
33.05869 639.000
33.07863 667.000
33.09858 634.000
33.11853 692.000
33.13848 694.000
33.15842 713.000
33.17837 698.000
33.19832 691.000
33.21826 632.000
33.23821 681.000
33.25816 675.000
33.27810 680.000
33.29805 638.000
33.31800 675.000
33.33795 682.000
33.35789 675.000
33.37784 651.000
33.39779 702.000
33.41773 645.000
33.43768 664.000
33.45763 663.000
33.47757 635.000
33.49752 622.000
33.51747 680.000
33.53741 669.000
33.55736 652.000
33.57731 659.000
33.59726 628.000
33.61720 650.000
33.63715 637.000
33.65710 660.000
33.67704 640.000
33.69699 652.000
33.71694 657.000
33.73688 723.000
33.75683 646.000
33.77678 672.000
33.79673 660.000
33.81667 623.000
33.83662 644.000
33.85657 652.000
33.87651 669.000
33.89646 638.000
33.91641 667.000
33.93635 639.000
33.95630 614.000
33.97625 610.000
33.99620 613.000
34.01614 640.000
34.03609 617.000
34.05604 648.000
34.07598 585.000
34.09593 617.000
34.11588 583.000
34.13582 661.000
34.15577 617.000
34.17572 614.000
34.19566 605.000
34.21561 583.000
34.23556 637.000
34.25551 637.000
34.27545 558.000
34.29540 619.000
34.31535 660.000
34.33529 626.000
34.35524 604.000
34.37519 612.000
34.39513 641.000
34.41508 602.000
34.43503 634.000
34.45498 605.000
34.47492 615.000
34.49487 571.000
34.51482 647.000
34.53476 570.000
34.55471 606.000
34.57466 608.000
34.59460 626.000
34.61455 608.000
34.63450 576.000
34.65444 594.000
34.67439 609.000
34.69434 615.000
34.71429 595.000
34.73423 584.000
34.75418 567.000
34.77413 585.000
34.79407 589.000
34.81402 641.000
34.83397 589.000
34.85391 601.000
34.87386 553.000
34.89381 582.000
34.91376 595.000
34.93370 581.000
34.95365 593.000
34.97360 607.000
34.99354 620.000
35.01349 568.000
35.03344 575.000
35.05338 541.000
35.07333 611.000
35.09328 598.000
35.11322 630.000
35.13317 585.000
35.15312 604.000
35.17307 630.000
35.19301 562.000
35.21296 507.000
35.23291 580.000
35.25285 573.000
35.27280 581.000
35.29275 565.000
35.31269 563.000
35.33264 548.000
35.35259 585.000
35.37254 596.000
35.39248 581.000
35.41243 539.000
35.43238 591.000
35.45232 589.000
35.47227 556.000
35.49222 579.000
35.51216 575.000
35.53211 576.000
35.55206 558.000
35.57201 538.000
35.59195 601.000
35.61190 599.000
35.63185 591.000
35.65179 561.000
35.67174 526.000
35.69169 527.000
35.71163 576.000
35.73158 584.000
35.75153 604.000
35.77147 574.000
35.79142 535.000
35.81137 556.000
35.83132 567.000
35.85126 570.000
35.87121 579.000
35.89116 583.000
35.91110 567.000
35.93105 596.000
35.95100 573.000
35.97094 560.000
35.99089 564.000
36.01084 556.000
36.03079 587.000
36.05073 583.000
36.07068 551.000
36.09063 596.000
36.11057 586.000
36.13052 570.000
36.15047 588.000
36.17041 555.000
36.19036 631.000
36.21031 577.000
36.23025 627.000
36.25020 656.000
36.27015 641.000
36.29010 660.000
36.31004 664.000
36.32999 680.000
36.34994 649.000
36.36988 733.000
36.38983 751.000
36.40978 753.000
36.42972 731.000
36.44967 719.000
36.46962 773.000
36.48957 789.000
36.50951 818.000
36.52946 841.000
36.54941 892.000
36.56935 884.000
36.58930 941.000
36.60925 1041.000
36.62919 1130.000
36.64914 1213.000
36.66909 1340.000
36.68903 1412.000
36.70898 1478.000
36.72893 1631.000
36.74888 1658.000
36.76882 1756.000
36.78877 1796.000
36.80872 1880.000
36.82866 1924.000
36.84861 1975.000
36.86856 2120.000
36.88850 2160.000
36.90845 2328.000
36.92840 2551.000
36.94835 2697.000
36.96829 2856.000
36.98824 3305.000
37.00819 3805.000
37.02813 3983.000
37.04808 4390.000
37.06803 4495.000
37.08797 4718.000
37.10792 4511.000
37.12787 4038.000
37.14781 3719.000
37.16776 3328.000
37.18771 2837.000
37.20766 2335.000
37.22760 1929.000
37.24755 1609.000
37.26750 1326.000
37.28744 1169.000
37.30739 938.000
37.32734 839.000
37.34728 859.000
37.36723 734.000
37.38718 763.000
37.40713 734.000
37.42707 716.000
37.44702 640.000
37.46697 650.000
37.48691 585.000
37.50686 588.000
37.52681 673.000
37.54675 602.000
37.56670 570.000
37.58665 613.000
37.60660 547.000
37.62654 586.000
37.64649 563.000
37.66644 603.000
37.68638 577.000
37.70633 536.000
37.72628 578.000
37.74622 567.000
37.76617 551.000
37.78612 554.000
37.80606 566.000
37.82601 540.000
37.84596 534.000
37.86591 543.000
37.88585 583.000
37.90580 515.000
37.92575 589.000
37.94569 543.000
37.96564 577.000
37.98559 578.000
38.00553 583.000
38.02548 531.000
38.04543 546.000
38.06538 515.000
38.08532 507.000
38.10527 513.000
38.12522 539.000
38.14516 541.000
38.16511 570.000
38.18506 554.000
38.20500 520.000
38.22495 537.000
38.24490 540.000
38.26484 556.000
38.28479 533.000
38.30474 510.000
38.32469 493.000
38.34463 584.000
38.36458 519.000
38.38453 547.000
38.40447 532.000
38.42442 504.000
38.44437 507.000
38.46431 529.000
38.48426 554.000
38.50421 520.000
38.52416 523.000
38.54410 548.000
38.56405 505.000
38.58400 528.000
38.60394 508.000
38.62389 515.000
38.64384 525.000
38.66378 519.000
38.68373 474.000
38.70368 519.000
38.72362 550.000
38.74357 536.000
38.76352 523.000
38.78347 503.000
38.80341 568.000
38.82336 499.000
38.84331 526.000
38.86325 540.000
38.88320 553.000
38.90315 508.000
38.92309 448.000
38.94304 493.000
38.96299 491.000
38.98294 559.000
39.00288 533.000
39.02283 515.000
39.04278 572.000
39.06272 500.000
39.08267 504.000
39.10262 477.000
39.12256 540.000
39.14251 522.000
39.16246 589.000
39.18241 537.000
39.20235 545.000
39.22230 534.000
39.24225 506.000
39.26219 543.000
39.28214 523.000
39.30209 521.000
39.32203 513.000
39.34198 532.000
39.36193 516.000
39.38187 528.000
39.40182 511.000
39.42177 515.000
39.44172 517.000
39.46166 502.000
39.48161 507.000
39.50156 502.000
39.52150 505.000
39.54145 484.000
39.56140 530.000
39.58134 517.000
39.60129 487.000
39.62124 531.000
39.64119 535.000
39.66113 507.000
39.68108 526.000
39.70103 544.000
39.72097 531.000
39.74092 506.000
39.76087 511.000
39.78081 508.000
39.80076 499.000
39.82071 511.000
39.84065 525.000
39.86060 510.000
39.88055 519.000
39.90050 521.000
39.92044 527.000
39.94039 517.000
39.96034 492.000
39.98028 516.000
40.00023 525.000
40.02018 536.000
40.04012 507.000
40.06007 530.000
40.08002 505.000
40.09997 548.000
40.11991 511.000
40.13986 515.000
40.15981 477.000
40.17975 506.000
40.19970 508.000
40.21965 500.000
40.23959 519.000
40.25954 545.000
40.27949 500.000
40.29943 503.000
40.31938 519.000
40.33933 520.000
40.35928 516.000
40.37922 542.000
40.39917 533.000
40.41912 555.000
40.43906 542.000
40.45901 512.000
40.47896 492.000
40.49890 468.000
40.51885 532.000
40.53880 486.000
40.55875 532.000
40.57869 534.000
40.59864 529.000
40.61859 518.000
40.63853 512.000
40.65848 530.000
40.67843 511.000
40.69837 556.000
40.71832 539.000
40.73827 543.000
40.75822 506.000
40.77816 554.000
40.79811 528.000
40.81806 548.000
40.83800 521.000
40.85795 553.000
40.87790 514.000
40.89784 544.000
40.91779 503.000
40.93774 507.000
40.95768 506.000
40.97763 542.000
40.99758 517.000
41.01753 562.000
41.03747 495.000
41.05742 546.000
41.07737 509.000
41.09731 548.000
41.11726 541.000
41.13721 481.000
41.15715 491.000
41.17710 527.000
41.19705 510.000
41.21700 488.000
41.23694 545.000
41.25689 507.000
41.27684 490.000
41.29678 494.000
41.31673 502.000
41.33668 564.000
41.35662 554.000
41.37657 513.000
41.39652 508.000
41.41646 528.000
41.43641 536.000
41.45636 495.000
41.47631 511.000
41.49625 541.000
41.51620 588.000
41.53615 479.000
41.55609 498.000
41.57604 552.000
41.59599 541.000
41.61593 486.000
41.63588 533.000
41.65583 522.000
41.67578 531.000
41.69572 550.000
41.71567 540.000
41.73562 542.000
41.75556 505.000
41.77551 579.000
41.79546 502.000
41.81540 523.000
41.83535 511.000
41.85530 549.000
41.87524 537.000
41.89519 540.000
41.91514 521.000
41.93509 542.000
41.95503 548.000
41.97498 548.000
41.99493 506.000
42.01487 548.000
42.03482 542.000
42.05477 550.000
42.07471 539.000
42.09466 580.000
42.11461 571.000
42.13456 545.000
42.15450 565.000
42.17445 560.000
42.19440 591.000
42.21434 623.000
42.23429 605.000
42.25424 596.000
42.27418 624.000
42.29413 665.000
42.31408 687.000
42.33403 702.000
42.35397 746.000
42.37392 869.000
42.39387 826.000
42.41381 817.000
42.43376 906.000
42.45371 916.000
42.47365 938.000
42.49360 1005.000
42.51355 994.000
42.53349 1007.000
42.55344 1115.000
42.57339 1139.000
42.59334 1251.000
42.61328 1313.000
42.63323 1356.000
42.65318 1496.000
42.67312 1629.000
42.69307 1824.000
42.71302 2055.000
42.73296 2174.000
42.75291 2386.000
42.77286 2455.000
42.79281 2573.000
42.81275 2693.000
42.83270 2772.000
42.85265 2863.000
42.87259 2993.000
42.89254 2992.000
42.91249 3258.000
42.93243 3429.000
42.95238 3803.000
42.97233 3866.000
42.99227 4175.000
43.01222 4642.000
43.03217 5151.000
43.05212 5853.000
43.07206 6190.000
43.09201 6915.000
43.11196 7415.000
43.13190 7357.000
43.15185 6789.000
43.17180 5874.000
43.19174 5176.000
43.21169 4595.000
43.23164 4151.000
43.25159 3723.000
43.27153 3122.000
43.29148 2414.000
43.31143 1858.000
43.33137 1413.000
43.35132 1193.000
43.37127 1034.000
43.39121 928.000
43.41116 931.000
43.43111 804.000
43.45105 769.000
43.47100 778.000
43.49095 694.000
43.51090 629.000
43.53084 689.000
43.55079 639.000
43.57074 608.000
43.59068 608.000
43.61063 636.000
43.63058 558.000
43.65052 582.000
43.67047 563.000
43.69042 517.000
43.71037 568.000
43.73031 572.000
43.75026 576.000
43.77021 562.000
43.79015 592.000
43.81010 547.000
43.83005 556.000
43.84999 525.000
43.86994 535.000
43.88989 560.000
43.90984 568.000
43.92978 509.000
43.94973 506.000
43.96968 533.000
43.98962 526.000
44.00957 512.000
44.02952 482.000
44.04946 471.000
44.06941 483.000
44.08936 504.000
44.10930 520.000
44.12925 485.000
44.14920 520.000
44.16915 465.000
44.18909 536.000
44.20904 507.000
44.22899 491.000
44.24893 525.000
44.26888 492.000
44.28883 531.000
44.30877 472.000
44.32872 496.000
44.34867 466.000
44.36862 477.000
44.38856 510.000
44.40851 479.000
44.42846 470.000
44.44840 480.000
44.46835 452.000
44.48830 440.000
44.50824 483.000
44.52819 484.000
44.54814 445.000
44.56808 463.000
44.58803 478.000
44.60798 438.000
44.62793 483.000
44.64787 470.000
44.66782 500.000
44.68777 450.000
44.70771 434.000
44.72766 459.000
44.74761 479.000
44.76755 422.000
44.78750 445.000
44.80745 444.000
44.82740 454.000
44.84734 453.000
44.86729 481.000
44.88724 428.000
44.90718 457.000
44.92713 481.000
44.94708 501.000
44.96702 406.000
44.98697 445.000
45.00692 476.000
45.02686 433.000
45.04681 479.000
45.06676 474.000
45.08671 466.000
45.10665 492.000
45.12660 457.000
45.14655 418.000
45.16649 439.000
45.18644 400.000
45.20639 448.000
45.22633 428.000
45.24628 424.000
45.26623 451.000
45.28618 475.000
45.30612 416.000
45.32607 439.000
45.34602 416.000
45.36596 435.000
45.38591 441.000
45.40586 425.000
45.42580 404.000
45.44575 439.000
45.46570 413.000
45.48565 451.000
45.50559 406.000
45.52554 420.000
45.54549 395.000
45.56543 436.000
45.58538 456.000
45.60533 438.000
45.62527 427.000
45.64522 389.000
45.66517 403.000
45.68511 402.000
45.70506 446.000
45.72501 430.000
45.74496 428.000
45.76490 407.000
45.78485 394.000
45.80480 397.000
45.82474 402.000
45.84469 389.000
45.86464 443.000
45.88458 438.000
45.90453 395.000
45.92448 411.000
45.94443 443.000
45.96437 409.000
45.98432 461.000
46.00427 402.000
46.02421 401.000
46.04416 432.000
46.06411 416.000
46.08405 400.000
46.10400 393.000
46.12395 427.000
46.14389 379.000
46.16384 385.000
46.18379 408.000
46.20374 400.000
46.22368 409.000
46.24363 403.000
46.26358 432.000
46.28352 443.000
46.30347 407.000
46.32342 428.000
46.34336 410.000
46.36331 439.000
46.38326 368.000
46.40321 410.000
46.42315 411.000
46.44310 364.000
46.46305 373.000
46.48299 394.000
46.50294 411.000
46.52289 355.000
46.54283 405.000
46.56278 390.000
46.58273 406.000
46.60267 382.000
46.62262 403.000
46.64257 426.000
46.66252 424.000
46.68246 371.000
46.70241 408.000
46.72236 383.000
46.74230 394.000
46.76225 392.000
46.78220 377.000
46.80214 418.000
46.82209 397.000
46.84204 396.000
46.86199 393.000
46.88193 374.000
46.90188 420.000
46.92183 422.000
46.94177 379.000
46.96172 404.000
46.98167 397.000
47.00161 406.000
47.02156 359.000
47.04151 390.000
47.06146 371.000
47.08140 362.000
47.10135 374.000
47.12130 393.000
47.14124 399.000
47.16119 395.000
47.18114 393.000
47.20108 376.000
47.22103 399.000
47.24098 380.000
47.26092 411.000
47.28087 386.000
47.30082 408.000
47.32077 397.000
47.34071 385.000
47.36066 392.000
47.38061 462.000
47.40055 382.000
47.42050 422.000
47.44045 344.000
47.46039 378.000
47.48034 403.000
47.50029 391.000
47.52024 362.000
47.54018 422.000
47.56013 385.000
47.58008 388.000
47.60002 420.000
47.61997 371.000
47.63992 409.000
47.65986 366.000
47.67981 410.000
47.69976 380.000
47.71970 354.000
47.73965 340.000
47.75960 384.000
47.77955 364.000
47.79949 358.000
47.81944 365.000
47.83939 398.000
47.85933 399.000
47.87928 419.000
47.89923 342.000
47.91917 392.000
47.93912 381.000
47.95907 330.000
47.97902 359.000
47.99896 325.000
48.01891 350.000
48.03886 402.000
48.05880 360.000
48.07875 406.000
48.09870 365.000
48.11864 350.000
48.13859 367.000
48.15854 392.000
48.17848 351.000
48.19843 409.000
48.21838 357.000
48.23833 368.000
48.25827 398.000
48.27822 382.000
48.29817 364.000
48.31811 390.000
48.33806 372.000
48.35801 385.000
48.37795 370.000
48.39790 373.000
48.41785 450.000
48.43780 346.000
48.45774 332.000
48.47769 368.000
48.49764 369.000
48.51758 376.000
48.53753 326.000
48.55748 366.000
48.57742 362.000
48.59737 382.000
48.61732 356.000
48.63726 344.000
48.65721 364.000
48.67716 358.000
48.69711 349.000
48.71705 366.000
48.73700 330.000
48.75695 364.000
48.77689 364.000
48.79684 376.000
48.81679 379.000
48.83673 372.000
48.85668 386.000
48.87663 358.000
48.89658 373.000
48.91652 372.000
48.93647 348.000
48.95642 334.000
48.97636 351.000
48.99631 384.000
49.01626 348.000
49.03620 347.000
49.05615 384.000
49.07610 353.000
49.09605 351.000
49.11599 358.000
49.13594 349.000
49.15589 302.000
49.17583 363.000
49.19578 345.000
49.21573 353.000
49.23567 357.000
49.25562 361.000
49.27557 364.000
49.29551 368.000
49.31546 337.000
49.33541 390.000
49.35536 360.000
49.37530 352.000
49.39525 365.000
49.41520 357.000
49.43514 356.000
49.45509 376.000
49.47504 341.000
49.49498 348.000
49.51493 380.000
49.53488 358.000
49.55483 340.000
49.57477 349.000
49.59472 359.000
49.61467 373.000
49.63461 324.000
49.65456 391.000
49.67451 373.000
49.69445 379.000
49.71440 362.000
49.73435 339.000
49.75429 338.000
49.77424 335.000
49.79419 336.000
49.81414 350.000
49.83408 364.000
49.85403 358.000
49.87398 382.000
49.89392 361.000
49.91387 347.000
49.93382 379.000
49.95376 371.000
49.97371 379.000
49.99366 393.000
50.01361 334.000
50.03355 320.000
50.05350 329.000
50.07345 378.000
50.09339 363.000
50.11334 340.000
50.13329 345.000
50.15323 339.000
50.17318 337.000
50.19313 323.000
50.21307 362.000
50.23302 376.000
50.25297 393.000
50.27292 378.000
50.29286 330.000
50.31281 341.000
50.33276 375.000
50.35270 335.000
50.37265 347.000
50.39260 336.000
50.41254 377.000
50.43249 380.000
50.45244 356.000
50.47239 366.000
50.49233 343.000
50.51228 328.000
50.53223 360.000
50.55217 347.000
50.57212 384.000
50.59207 359.000
50.61201 371.000
50.63196 407.000
50.65191 350.000
50.67186 366.000
50.69180 357.000
50.71175 319.000
50.73170 329.000
50.75164 398.000
50.77159 388.000
50.79154 316.000
50.81148 324.000
50.83143 368.000
50.85138 360.000
50.87132 328.000
50.89127 354.000
50.91122 354.000
50.93117 347.000
50.95111 371.000
50.97106 302.000
50.99101 348.000
51.01095 349.000
51.03090 352.000
51.05085 363.000
51.07079 321.000
51.09074 386.000
51.11069 342.000
51.13064 377.000
51.15058 398.000
51.17053 339.000
51.19048 344.000
51.21042 355.000
51.23037 363.000
51.25032 351.000
51.27026 357.000
51.29021 332.000
51.31016 345.000
51.33010 367.000
51.35005 358.000
51.37000 346.000
51.38995 311.000
51.40989 350.000
51.42984 369.000
51.44979 345.000
51.46973 354.000
51.48968 341.000
51.50963 333.000
51.52957 310.000
51.54952 354.000
51.56947 342.000
51.58942 345.000
51.60936 321.000
51.62931 341.000
51.64926 356.000
51.66920 356.000
51.68915 333.000
51.70910 336.000
51.72904 345.000
51.74899 357.000
51.76894 340.000
51.78888 320.000
51.80883 313.000
51.82878 348.000
51.84873 336.000
51.86867 340.000
51.88862 351.000
51.90857 374.000
51.92851 353.000
51.94846 370.000
51.96841 312.000
51.98835 336.000
52.00830 335.000
52.02825 345.000
52.04820 329.000
52.06814 375.000
52.08809 324.000
52.10804 356.000
52.12798 348.000
52.14793 380.000
52.16788 341.000
52.18782 346.000
52.20777 358.000
52.22772 327.000
52.24767 358.000
52.26761 382.000
52.28756 332.000
52.30751 364.000
52.32745 347.000
52.34740 346.000
52.36735 340.000
52.38729 373.000
52.40724 335.000
52.42719 358.000
52.44713 348.000
52.46708 361.000
52.48703 333.000
52.50698 318.000
52.52692 374.000
52.54687 310.000
52.56682 351.000
52.58676 327.000
52.60671 355.000
52.62666 336.000
52.64660 335.000
52.66655 330.000
52.68650 330.000
52.70645 342.000
52.72639 365.000
52.74634 308.000
52.76629 355.000
52.78623 318.000
52.80618 357.000
52.82613 345.000
52.84607 321.000
52.86602 377.000
52.88597 338.000
52.90591 309.000
52.92586 345.000
52.94581 301.000
52.96576 320.000
52.98570 330.000
53.00565 333.000
53.02560 316.000
53.04554 337.000
53.06549 326.000
53.08544 337.000
53.10538 348.000
53.12533 353.000
53.14528 355.000
53.16523 302.000
53.18517 355.000
53.20512 335.000
53.22507 345.000
53.24501 321.000
53.26496 337.000
53.28491 344.000
53.30485 318.000
53.32480 320.000
53.34475 329.000
53.36469 316.000
53.38464 354.000
53.40459 365.000
53.42454 309.000
53.44448 328.000
53.46443 343.000
53.48438 345.000
53.50432 319.000
53.52427 326.000
53.54422 351.000
53.56416 352.000
53.58411 341.000
53.60406 312.000
53.62401 341.000
53.64395 318.000
53.66390 283.000
53.68385 322.000
53.70379 334.000
53.72374 333.000
53.74369 352.000
53.76363 321.000
53.78358 300.000
53.80353 339.000
53.82348 328.000
53.84342 354.000
53.86337 329.000
53.88332 314.000
53.90326 329.000
53.92321 315.000
53.94316 344.000
53.96310 357.000
53.98305 324.000
54.00300 304.000
54.02294 336.000
54.04289 324.000
54.06284 330.000
54.08279 354.000
54.10273 340.000
54.12268 288.000
54.14263 342.000
54.16257 318.000
54.18252 306.000
54.20247 317.000
54.22241 306.000
54.24236 366.000
54.26231 302.000
54.28226 349.000
54.30220 306.000
54.32215 348.000
54.34210 318.000
54.36204 349.000
54.38199 342.000
54.40194 307.000
54.42188 290.000
54.44183 317.000
54.46178 312.000
54.48172 327.000
54.50167 320.000
54.52162 329.000
54.54157 344.000
54.56151 304.000
54.58146 328.000
54.60141 334.000
54.62135 313.000
54.64130 311.000
54.66125 335.000
54.68119 339.000
54.70114 351.000
54.72109 327.000
54.74104 327.000
54.76098 321.000
54.78093 302.000
54.80088 327.000
54.82082 334.000
54.84077 335.000
54.86072 347.000
54.88066 297.000
54.90061 307.000
54.92056 353.000
54.94050 303.000
54.96045 309.000
54.98040 332.000
55.00035 333.000
55.02029 326.000
55.04024 342.000
55.06019 315.000
55.08013 328.000
55.10008 330.000
55.12003 360.000
55.13997 331.000
55.15992 356.000
55.17987 318.000
55.19982 345.000
55.21976 269.000
55.23971 324.000
55.25966 313.000
55.27960 307.000
55.29955 334.000
55.31950 341.000
55.33944 304.000
55.35939 305.000
55.37934 324.000
55.39929 334.000
55.41923 344.000
55.43918 319.000
55.45913 284.000
55.47907 337.000
55.49902 323.000
55.51897 310.000
55.53891 326.000
55.55886 311.000
55.57881 315.000
55.59875 340.000
55.61870 357.000
55.63865 340.000
55.65860 323.000
55.67854 338.000
55.69849 322.000
55.71844 322.000
55.73838 335.000
55.75833 337.000
55.77828 321.000
55.79822 303.000
55.81817 301.000
55.83812 327.000
55.85807 309.000
55.87801 324.000
55.89796 329.000
55.91791 284.000
55.93785 284.000
55.95780 321.000
55.97775 326.000
55.99769 327.000
56.01764 292.000
56.03759 344.000
56.05753 314.000
56.07748 317.000
56.09743 335.000
56.11738 327.000
56.13732 318.000
56.15727 312.000
56.17722 332.000
56.19716 344.000
56.21711 289.000
56.23706 301.000
56.25700 313.000
56.27695 310.000
56.29690 345.000
56.31685 298.000
56.33679 323.000
56.35674 319.000
56.37669 314.000
56.39663 307.000
56.41658 307.000
56.43653 333.000
56.45647 310.000
56.47642 331.000
56.49637 313.000
56.51631 310.000
56.53626 307.000
56.55621 317.000
56.57616 341.000
56.59610 330.000
56.61605 304.000
56.63600 326.000
56.65594 321.000
56.67589 323.000
56.69584 295.000
56.71578 353.000
56.73573 297.000
56.75568 307.000
56.77563 346.000
56.79557 318.000
56.81552 301.000
56.83547 354.000
56.85541 345.000
56.87536 330.000
56.89531 330.000
56.91525 297.000
56.93520 322.000
56.95515 320.000
56.97510 323.000
56.99504 311.000
57.01499 346.000
57.03494 310.000
57.05488 332.000
57.07483 348.000
57.09478 354.000
57.11472 321.000
57.13467 287.000
57.15462 294.000
57.17456 342.000
57.19451 300.000
57.21446 280.000
57.23441 302.000
57.25435 301.000
57.27430 312.000
57.29425 302.000
57.31419 308.000
57.33414 344.000
57.35409 299.000
57.37403 314.000
57.39398 331.000
57.41393 307.000
57.43388 352.000
57.45382 312.000
57.47377 302.000
57.49372 333.000
57.51366 333.000
57.53361 344.000
57.55356 347.000
57.57350 306.000
57.59345 322.000
57.61340 311.000
57.63334 277.000
57.65329 318.000
57.67324 333.000
57.69319 306.000
57.71313 315.000
57.73308 301.000
57.75303 323.000
57.77297 295.000
57.79292 333.000
57.81287 321.000
57.83281 326.000
57.85276 303.000
57.87271 317.000
57.89266 290.000
57.91260 316.000
57.93255 286.000
57.95250 337.000
57.97244 278.000
57.99239 338.000
58.01234 312.000
58.03228 352.000
58.05223 307.000
58.07218 292.000
58.09212 326.000
58.11207 305.000
58.13202 294.000
58.15197 292.000
58.17191 325.000
58.19186 308.000
58.21181 256.000
58.23175 303.000
58.25170 330.000
58.27165 293.000
58.29159 330.000
58.31154 285.000
58.33149 304.000
58.35144 318.000
58.37138 314.000
58.39133 313.000
58.41128 320.000
58.43122 326.000
58.45117 288.000
58.47112 300.000
58.49106 326.000
58.51101 311.000
58.53096 299.000
58.55090 315.000
58.57085 287.000
58.59080 322.000
58.61075 310.000
58.63069 350.000
58.65064 308.000
58.67059 307.000
58.69053 306.000
58.71048 298.000
58.73043 324.000
58.75037 275.000
58.77032 295.000
58.79027 291.000
58.81022 318.000
58.83016 307.000
58.85011 311.000
58.87006 333.000
58.89000 308.000
58.90995 315.000
58.92990 315.000
58.94984 311.000
58.96979 306.000
58.98974 333.000
59.00969 335.000
59.02963 325.000
59.04958 319.000
59.06953 312.000
59.08947 305.000
59.10942 309.000
59.12937 303.000
59.14931 297.000
59.16926 308.000
59.18921 335.000
59.20915 345.000
59.22910 304.000
59.24905 269.000
59.26900 285.000
59.28894 326.000
59.30889 318.000
59.32884 323.000
59.34878 311.000
59.36873 297.000
59.38868 297.000
59.40862 330.000
59.42857 322.000
59.44852 329.000
59.46847 326.000
59.48841 323.000
59.50836 324.000
59.52831 295.000
59.54825 302.000
59.56820 329.000
59.58815 292.000
59.60809 288.000
59.62804 323.000
59.64799 309.000
59.66793 310.000
59.68788 327.000
59.70783 332.000
59.72778 311.000
59.74772 320.000
59.76767 295.000
59.78762 302.000
59.80756 281.000
59.82751 309.000
59.84746 331.000
59.86740 309.000
59.88735 306.000
59.90730 312.000
59.92725 317.000
59.94719 338.000
59.96714 310.000
59.98709 318.000
60.00703 309.000
60.02698 274.000
60.04693 291.000
60.06687 321.000
60.08682 297.000
60.10677 283.000
60.12671 321.000
60.14666 310.000
60.16661 308.000
60.18656 318.000
60.20650 318.000
60.22645 318.000
60.24640 311.000
60.26634 300.000
60.28629 348.000
60.30624 296.000
60.32618 281.000
60.34613 308.000
60.36608 305.000
60.38603 324.000
60.40597 351.000
60.42592 325.000
60.44587 323.000
60.46581 324.000
60.48576 332.000
60.50571 322.000
60.52565 327.000
60.54560 308.000
60.56555 349.000
60.58550 334.000
60.60544 319.000
60.62539 313.000
60.64534 330.000
60.66528 301.000
60.68523 325.000
60.70518 326.000
60.72512 329.000
60.74507 315.000
60.76502 344.000
60.78496 290.000
60.80491 293.000
60.82486 315.000
60.84481 298.000
60.86475 311.000
60.88470 342.000
60.90465 316.000
60.92459 314.000
60.94454 315.000
60.96449 343.000
60.98443 312.000
61.00438 311.000
61.02433 306.000
61.04428 338.000
61.06422 351.000
61.08417 346.000
61.10412 328.000
61.12406 326.000
61.14401 306.000
61.16396 351.000
61.18390 332.000
61.20385 317.000
61.22380 299.000
61.24374 316.000
61.26369 344.000
61.28364 357.000
61.30359 331.000
61.32353 319.000
61.34348 299.000
61.36343 356.000
61.38337 311.000
61.40332 314.000
61.42327 362.000
61.44321 310.000
61.46316 333.000
61.48311 300.000
61.50306 331.000
61.52300 343.000
61.54295 329.000
61.56290 352.000
61.58284 337.000
61.60279 321.000
61.62274 327.000
61.64268 340.000
61.66263 340.000
61.68258 361.000
61.70252 375.000
61.72247 374.000
61.74242 398.000
61.76237 364.000
61.78231 374.000
61.80226 382.000
61.82221 357.000
61.84215 376.000
61.86210 419.000
61.88205 400.000
61.90199 409.000
61.92194 400.000
61.94189 453.000
61.96184 463.000
61.98178 458.000
62.00173 544.000
62.02168 547.000
62.04162 599.000
62.06157 620.000
62.08152 665.000
62.10146 678.000
62.12141 729.000
62.14136 789.000
62.16131 801.000
62.18125 896.000
62.20120 919.000
62.22115 1020.000
62.24109 1032.000
62.26104 1018.000
62.28099 1133.000
62.30093 1131.000
62.32088 1255.000
62.34083 1369.000
62.36077 1401.000
62.38072 1530.000
62.40067 1510.000
62.42062 1603.000
62.44056 1681.000
62.46051 1649.000
62.48046 1761.000
62.50040 1752.000
62.52035 1874.000
62.54030 1945.000
62.56024 2087.000
62.58019 2235.000
62.60014 2382.000
62.62009 2597.000
62.64003 2721.000
62.65998 3086.000
62.67993 3067.000
62.69987 3078.000
62.71982 3051.000
62.73977 2965.000
62.75971 2771.000
62.77966 2625.000
62.79961 2452.000
62.81955 2238.000
62.83950 2024.000
62.85945 2029.000
62.87940 1847.000
62.89934 1706.000
62.91929 1558.000
62.93924 1335.000
62.95918 1220.000
62.97913 1104.000
62.99908 939.000
63.01902 759.000
63.03897 742.000
63.05892 592.000
63.07887 560.000
63.09881 546.000
63.11876 492.000
63.13871 479.000
63.15865 472.000
63.17860 473.000
63.19855 474.000
63.21849 437.000
63.23844 435.000
63.25839 426.000
63.27833 408.000
63.29828 404.000
63.31823 380.000
63.33818 372.000
63.35812 368.000
63.37807 372.000
63.39802 383.000
63.41796 381.000
63.43791 388.000
63.45786 343.000
63.47780 357.000
63.49775 355.000
63.51770 330.000
63.53765 409.000
63.55759 361.000
63.57754 366.000
63.59749 339.000
63.61743 339.000
63.63738 336.000
63.65733 336.000
63.67727 324.000
63.69722 346.000
63.71717 316.000
63.73712 329.000
63.75706 326.000
63.77701 297.000
63.79696 327.000
63.81690 317.000
63.83685 327.000
63.85680 293.000
63.87674 351.000
63.89669 334.000
63.91664 330.000
63.93658 327.000
63.95653 289.000
63.97648 317.000
63.99643 349.000
64.01637 303.000
64.03632 310.000
64.05627 327.000
64.07621 331.000
64.09616 313.000
64.11611 327.000
64.13605 331.000
64.15600 306.000
64.17595 328.000
64.19590 299.000
64.21584 297.000
64.23579 314.000
64.25574 333.000
64.27568 352.000
64.29563 314.000
64.31558 345.000
64.33552 317.000
64.35547 306.000
64.37542 336.000
64.39536 304.000
64.41531 308.000
64.43526 331.000
64.45521 309.000
64.47515 324.000
64.49510 306.000
64.51505 305.000
64.53499 307.000
64.55494 305.000
64.57489 288.000
64.59483 303.000
64.61478 315.000
64.63473 309.000
64.65468 306.000
64.67462 314.000
64.69457 302.000
64.71452 294.000
64.73446 289.000
64.75441 353.000
64.77436 304.000
64.79430 317.000
64.81425 295.000
64.83420 325.000
64.85414 300.000
64.87409 340.000
64.89404 331.000
64.91399 307.000
64.93393 312.000
64.95388 320.000
64.97383 315.000
64.99377 297.000
65.01372 316.000
65.03367 283.000
65.05361 341.000
65.07356 314.000
65.09351 319.000
65.11346 340.000
65.13340 322.000
65.15335 331.000
65.17330 334.000
65.19324 288.000
65.21319 307.000
65.23314 314.000
65.25308 276.000
65.27303 319.000
65.29298 311.000
65.31293 306.000
65.33287 314.000
65.35282 278.000
65.37277 306.000
65.39271 320.000
65.41266 306.000
65.43261 303.000
65.45255 273.000
65.47250 302.000
65.49245 305.000
65.51239 307.000
65.53234 304.000
65.55229 277.000
65.57224 306.000
65.59218 300.000
65.61213 337.000
65.63208 290.000
65.65202 270.000
65.67197 320.000
65.69192 287.000
65.71186 295.000
65.73181 333.000
65.75176 317.000
65.77171 309.000
65.79165 296.000
65.81160 294.000
65.83155 302.000
65.85149 266.000
65.87144 287.000
65.89139 299.000
65.91133 302.000
65.93128 276.000
65.95123 316.000
65.97117 274.000
65.99112 298.000
66.01107 309.000
66.03102 318.000
66.05096 308.000
66.07091 329.000
66.09086 330.000
66.11080 325.000
66.13075 293.000
66.15070 315.000
66.17064 310.000
66.19059 308.000
66.21054 288.000
66.23049 285.000
66.25043 316.000
66.27038 307.000
66.29033 319.000
66.31027 283.000
66.33022 339.000
66.35017 295.000
66.37011 349.000
66.39006 278.000
66.41001 272.000
66.42995 286.000
66.44990 283.000
66.46985 299.000
66.48980 270.000
66.50974 300.000
66.52969 321.000
66.54964 309.000
66.56958 287.000
66.58953 285.000
66.60948 280.000
66.62942 305.000
66.64937 307.000
66.66932 311.000
66.68927 292.000
66.70921 295.000
66.72916 278.000
66.74911 318.000
66.76905 295.000
66.78900 317.000
66.80895 279.000
66.82889 265.000
66.84884 283.000
66.86879 295.000
66.88874 315.000
66.90868 275.000
66.92863 294.000
66.94858 295.000
66.96852 281.000
66.98847 307.000
67.00842 295.000
67.02836 345.000
67.04831 307.000
67.06826 298.000
67.08820 274.000
67.10815 286.000
67.12810 294.000
67.14805 308.000
67.16799 308.000
67.18794 319.000
67.20789 281.000
67.22783 301.000
67.24778 313.000
67.26773 296.000
67.28767 304.000
67.30762 303.000
67.32757 277.000
67.34752 278.000
67.36746 270.000
67.38741 267.000
67.40736 328.000
67.42730 320.000
67.44725 295.000
67.46720 313.000
67.48714 292.000
67.50709 314.000
67.52704 267.000
67.54698 282.000
67.56693 245.000
67.58688 285.000
67.60683 280.000
67.62677 285.000
67.64672 272.000
67.66667 267.000
67.68661 309.000
67.70656 306.000
67.72651 293.000
67.74645 300.000
67.76640 326.000
67.78635 299.000
67.80630 300.000
67.82624 311.000
67.84619 313.000
67.86614 298.000
67.88608 272.000
67.90603 287.000
67.92598 262.000
67.94592 296.000
67.96587 325.000
67.98582 296.000
68.00576 309.000
68.02571 310.000
68.04566 317.000
68.06561 302.000
68.08555 314.000
68.10550 298.000
68.12545 291.000
68.14539 321.000
68.16534 292.000
68.18529 290.000
68.20523 312.000
68.22518 293.000
68.24513 298.000
68.26508 319.000
68.28502 325.000
68.30497 288.000
68.32492 301.000
68.34486 280.000
68.36481 312.000
68.38476 294.000
68.40470 286.000
68.42465 307.000
68.44460 296.000
68.46455 279.000
68.48449 291.000
68.50444 307.000
68.52439 292.000
68.54433 283.000
68.56428 293.000
68.58423 287.000
68.60417 307.000
68.62412 294.000
68.64407 299.000
68.66401 313.000
68.68396 283.000
68.70391 307.000
68.72386 272.000
68.74380 277.000
68.76375 293.000
68.78370 287.000
68.80364 304.000
68.82359 301.000
68.84354 279.000
68.86348 274.000
68.88343 284.000
68.90338 304.000
68.92333 267.000
68.94327 306.000
68.96322 285.000
68.98317 307.000
69.00311 274.000
69.02306 284.000
69.04301 301.000
69.06295 285.000
69.08290 330.000
69.10285 312.000
69.12279 289.000
69.14274 354.000
69.16269 274.000
69.18264 298.000
69.20258 275.000
69.22253 300.000
69.24248 313.000
69.26242 283.000
69.28237 287.000
69.30232 274.000
69.32226 297.000
69.34221 292.000
69.36216 324.000
69.38211 322.000
69.40205 272.000
69.42200 250.000
69.44195 279.000
69.46189 313.000
69.48184 298.000
69.50179 324.000
69.52173 300.000
69.54168 286.000
69.56163 341.000
69.58157 313.000
69.60152 278.000
69.62147 304.000
69.64142 273.000
69.66136 261.000
69.68131 317.000
69.70126 277.000
69.72120 285.000
69.74115 303.000
69.76110 278.000
69.78104 281.000
69.80099 286.000
69.82094 307.000
69.84089 303.000
69.86083 316.000
69.88078 292.000
69.90073 300.000
69.92067 297.000
69.94062 281.000
69.96057 292.000
69.98051 285.000
70.00046 321.000
70.02041 295.000
70.04035 271.000
70.06030 294.000
70.08025 307.000
70.10020 283.000
70.12014 297.000
70.14009 319.000
70.16004 275.000
70.17998 301.000
70.19993 295.000
70.21988 319.000
70.23982 288.000
70.25977 303.000
70.27972 300.000
70.29967 311.000
70.31961 271.000
70.33956 312.000
70.35951 297.000
70.37945 285.000
70.39940 285.000
70.41935 288.000
70.43929 269.000
70.45924 291.000
70.47919 299.000
70.49914 280.000
70.51908 281.000
70.53903 288.000
70.55898 291.000
70.57892 309.000
70.59887 292.000
70.61882 272.000
70.63876 291.000
70.65871 292.000
70.67866 278.000
70.69860 321.000
70.71855 288.000
70.73850 307.000
70.75845 311.000
70.77839 304.000
70.79834 315.000
70.81829 259.000
70.83823 262.000
70.85818 270.000
70.87813 287.000
70.89807 291.000
70.91802 282.000
70.93797 309.000
70.95792 278.000
70.97786 288.000
70.99781 326.000
71.01776 297.000
71.03770 262.000
71.05765 294.000
71.07760 297.000
71.09754 277.000
71.11749 302.000
71.13744 311.000
71.15738 293.000
71.17733 281.000
71.19728 284.000
71.21723 279.000
71.23717 300.000
71.25712 318.000
71.27707 317.000
71.29701 306.000
71.31696 279.000
71.33691 298.000
71.35685 257.000
71.37680 284.000
71.39675 268.000
71.41670 289.000
71.43664 258.000
71.45659 279.000
71.47654 276.000
71.49648 256.000
71.51643 294.000
71.53638 298.000
71.55632 269.000
71.57627 264.000
71.59622 289.000
71.61616 312.000
71.63611 281.000
71.65606 298.000
71.67601 290.000
71.69595 284.000
71.71590 274.000
71.73585 284.000
71.75579 302.000
71.77574 269.000
71.79569 299.000
71.81563 277.000
71.83558 277.000
71.85553 269.000
71.87548 289.000
71.89542 312.000
71.91537 303.000
71.93532 302.000
71.95526 321.000
71.97521 311.000
71.99516 272.000
72.01510 275.000
72.03505 274.000
72.05500 320.000
72.07495 322.000
72.09489 277.000
72.11484 295.000
72.13479 266.000
72.15473 282.000
72.17468 304.000
72.19463 277.000
72.21457 291.000
72.23452 324.000
72.25447 288.000
72.27441 277.000
72.29436 267.000
72.31431 299.000
72.33426 307.000
72.35420 308.000
72.37415 292.000
72.39410 301.000
72.41404 309.000
72.43399 277.000
72.45394 256.000
72.47388 291.000
72.49383 307.000
72.51378 293.000
72.53373 297.000
72.55367 263.000
72.57362 278.000
72.59357 293.000
72.61351 290.000
72.63346 302.000
72.65341 286.000
72.67335 281.000
72.69330 296.000
72.71325 283.000
72.73319 274.000
72.75314 295.000
72.77309 277.000
72.79304 261.000
72.81298 318.000
72.83293 293.000
72.85288 318.000
72.87282 317.000
72.89277 289.000
72.91272 300.000
72.93266 279.000
72.95261 276.000
72.97256 299.000
72.99251 302.000
73.01245 303.000
73.03240 329.000
73.05235 294.000
73.07229 333.000
73.09224 282.000
73.11219 278.000
73.13213 310.000
73.15208 292.000
73.17203 283.000
73.19197 294.000
73.21192 313.000
73.23187 287.000
73.25182 300.000
73.27176 274.000
73.29171 303.000
73.31166 315.000
73.33160 335.000
73.35155 284.000
73.37150 291.000
73.39144 316.000
73.41139 323.000
73.43134 315.000
73.45129 265.000
73.47123 315.000
73.49118 311.000
73.51113 297.000
73.53107 270.000
73.55102 323.000
73.57097 297.000
73.59091 297.000
73.61086 266.000
73.63081 290.000
73.65076 280.000
73.67070 294.000
73.69065 313.000
73.71060 309.000
73.73054 276.000
73.75049 286.000
73.77044 286.000
73.79038 300.000
73.81033 297.000
73.83028 292.000
73.85022 303.000
73.87017 296.000
73.89012 236.000
73.91007 277.000
73.93001 278.000
73.94996 301.000
73.96991 332.000
73.98985 278.000
74.00980 276.000
74.02975 281.000
74.04969 287.000
74.06964 339.000
74.08959 289.000
74.10954 289.000
74.12948 305.000
74.14943 287.000
74.16938 315.000
74.18932 320.000
74.20927 314.000
74.22922 340.000
74.24916 282.000
74.26911 308.000
74.28906 310.000
74.30900 317.000
74.32895 311.000
74.34890 307.000
74.36885 330.000
74.38879 316.000
74.40874 299.000
74.42869 319.000
74.44863 343.000
74.46858 329.000
74.48853 375.000
74.50847 339.000
74.52842 344.000
74.54837 359.000
74.56832 365.000
74.58826 374.000
74.60821 424.000
74.62816 409.000
74.64810 441.000
74.66805 440.000
74.68800 444.000
74.70794 451.000
74.72789 502.000
74.74784 488.000
74.76778 553.000
74.78773 514.000
74.80768 574.000
74.82763 549.000
74.84757 671.000
74.86752 612.000
74.88747 671.000
74.90741 715.000
74.92736 761.000
74.94731 720.000
74.96725 820.000
74.98720 824.000
75.00715 837.000
75.02710 925.000
75.04704 838.000
75.06699 904.000
75.08694 928.000
75.10688 946.000
75.12683 1070.000
75.14678 1157.000
75.16672 1204.000
75.18667 1183.000
75.20662 1383.000
75.22657 1268.000
75.24651 1317.000
75.26646 1336.000
75.28641 1232.000
75.30635 1073.000
75.32630 1049.000
75.34625 990.000
75.36619 888.000
75.38614 938.000
75.40609 966.000
75.42603 903.000
75.44598 835.000
75.46593 863.000
75.48588 795.000
75.50582 709.000
75.52577 720.000
75.54572 607.000
75.56566 557.000
75.58561 545.000
75.60556 498.000
75.62550 437.000
75.64545 420.000
75.66540 408.000
75.68535 437.000
75.70529 378.000
75.72524 371.000
75.74519 355.000
75.76513 333.000
75.78508 344.000
75.80503 348.000
75.82497 328.000
75.84492 349.000
75.86487 329.000
75.88481 352.000
75.90476 322.000
75.92471 324.000
75.94466 333.000
75.96460 317.000
75.98455 284.000
76.00450 316.000
76.02444 323.000
76.04439 323.000
76.06434 317.000
76.08428 346.000
76.10423 299.000
76.12418 315.000
76.14413 294.000
76.16407 346.000
76.18402 307.000
76.20397 309.000
76.22391 269.000
76.24386 279.000
76.26381 300.000
76.28375 315.000
76.30370 311.000
76.32365 313.000
76.34359 298.000
76.36354 292.000
76.38349 289.000
76.40344 318.000
76.42338 281.000
76.44333 311.000
76.46328 285.000
76.48322 302.000
76.50317 302.000
76.52312 297.000
76.54306 341.000
76.56301 284.000
76.58296 301.000
76.60291 311.000
76.62285 289.000
76.64280 320.000
76.66275 310.000
76.68269 281.000
76.70264 295.000
76.72259 263.000
76.74253 281.000
76.76248 317.000
76.78243 285.000
76.80238 320.000
76.82232 305.000
76.84227 278.000
76.86222 265.000
76.88216 304.000
76.90211 277.000
76.92206 321.000
76.94200 273.000
76.96195 268.000
76.98190 318.000
77.00184 284.000
77.02179 299.000
77.04174 313.000
77.06169 295.000
77.08163 295.000
77.10158 298.000
77.12153 310.000
77.14147 319.000
77.16142 286.000
77.18137 294.000
77.20131 287.000
77.22126 313.000
77.24121 297.000
77.26116 278.000
77.28110 330.000
77.30105 287.000
77.32100 292.000
77.34094 281.000
77.36089 304.000
77.38084 293.000
77.40078 259.000
77.42073 255.000
77.44068 300.000
77.46062 308.000
77.48057 320.000
77.50052 271.000
77.52047 311.000
77.54041 274.000
77.56036 304.000
77.58031 301.000
77.60025 293.000
77.62020 332.000
77.64015 268.000
77.66009 315.000
77.68004 302.000
77.69999 353.000
77.71994 289.000
77.73988 268.000
77.75983 319.000
77.77978 285.000
77.79972 301.000
77.81967 275.000
77.83962 287.000
77.85956 314.000
77.87951 281.000
77.89946 298.000
77.91940 272.000
77.93935 290.000
77.95930 313.000
77.97925 299.000
77.99919 275.000
78.01914 290.000
78.03909 285.000
78.05903 280.000
78.07898 284.000
78.09893 277.000
78.11887 332.000
78.13882 310.000
78.15877 299.000
78.17872 292.000
78.19866 298.000
78.21861 338.000
78.23856 333.000
78.25850 306.000
78.27845 329.000
78.29840 311.000
78.31834 319.000
78.33829 312.000
78.35824 313.000
78.37819 320.000
78.39813 332.000
78.41808 304.000
78.43803 312.000
78.45797 332.000
78.47792 340.000
78.49787 318.000
78.51781 345.000
78.53776 344.000
78.55771 330.000
78.57765 364.000
78.59760 358.000
78.61755 384.000
78.63750 347.000
78.65744 399.000
78.67739 372.000
78.69734 410.000
78.71728 434.000
78.73723 423.000
78.75718 454.000
78.77712 517.000
78.79707 473.000
78.81702 491.000
78.83697 481.000
78.85691 511.000
78.87686 517.000
78.89681 562.000
78.91675 630.000
78.93670 630.000
78.95665 681.000
78.97659 646.000
78.99654 643.000
79.01649 668.000
79.03643 781.000
79.05638 749.000
79.07633 766.000
79.09628 807.000
79.11622 864.000
79.13617 863.000
79.15612 928.000
79.17606 980.000
79.19601 1015.000
79.21596 1045.000
79.23590 1077.000
79.25585 1031.000
79.27580 956.000
79.29575 877.000
79.31569 848.000
79.33564 844.000
79.35559 747.000
79.37553 740.000
79.39548 770.000
79.41543 789.000
79.43537 737.000
79.45532 724.000
79.47527 726.000
79.49521 620.000
79.51516 566.000
79.53511 591.000
79.55506 556.000
79.57500 521.000
79.59495 501.000
79.61490 447.000
79.63484 424.000
79.65479 392.000
79.67474 396.000
79.69468 416.000
79.71463 365.000
79.73458 373.000
79.75453 361.000
79.77447 324.000
79.79442 347.000
79.81437 348.000
79.83431 322.000
79.85426 345.000
79.87421 310.000
79.89415 299.000
79.91410 313.000
79.93405 274.000
79.95399 316.000
79.97394 297.000
79.99389 312.000
80.01384 303.000
80.03378 294.000
80.05373 282.000
80.07368 306.000
80.09362 314.000
80.11357 306.000
80.13352 342.000
80.15346 327.000
80.17341 300.000
80.19336 286.000
80.21331 287.000
80.23325 320.000
80.25320 285.000
80.27315 283.000
80.29309 296.000
80.31304 303.000
80.33299 303.000
80.35293 306.000
80.37288 298.000
80.39283 260.000
80.41278 324.000
80.43272 281.000
80.45267 268.000
80.47262 324.000
80.49256 272.000
80.51251 284.000
80.53246 279.000
80.55240 278.000
80.57235 274.000
80.59230 323.000
80.61224 333.000
80.63219 263.000
80.65214 287.000
80.67209 264.000
80.69203 301.000
80.71198 295.000
80.73193 304.000
80.75187 289.000
80.77182 287.000
80.79177 304.000
80.81171 292.000
80.83166 307.000
80.85161 287.000
80.87156 333.000
80.89150 285.000
80.91145 256.000
80.93140 305.000
80.95134 310.000
80.97129 296.000
80.99124 281.000
81.01118 288.000
81.03113 279.000
81.05108 300.000
81.07102 276.000
81.09097 263.000
81.11092 281.000
81.13087 279.000
81.15081 310.000
81.17076 278.000
81.19071 303.000
81.21065 306.000
81.23060 284.000
81.25055 306.000
81.27049 276.000
81.29044 300.000
81.31039 292.000
81.33034 302.000
81.35028 283.000
81.37023 300.000
81.39018 306.000
81.41012 263.000
81.43007 296.000
81.45002 260.000
81.46996 276.000
81.48991 290.000
81.50986 252.000
81.52980 280.000
81.54975 281.000
81.56970 268.000
81.58965 297.000
81.60959 283.000
81.62954 302.000
81.64949 281.000
81.66943 300.000
81.68938 318.000
81.70933 290.000
81.72927 301.000
81.74922 298.000
81.76917 279.000
81.78912 283.000
81.80906 308.000
81.82901 296.000
81.84896 292.000
81.86890 275.000
81.88885 293.000
81.90880 282.000
81.92874 273.000
81.94869 267.000
81.96864 317.000
81.98859 282.000
82.00853 323.000
82.02848 302.000
82.04843 306.000
82.06837 290.000
82.08832 299.000
82.10827 284.000
82.12821 269.000
82.14816 267.000
82.16811 278.000
82.18805 293.000
82.20800 266.000
82.22795 297.000
82.24790 301.000
82.26784 273.000
82.28779 308.000
82.30774 298.000
82.32768 294.000
82.34763 269.000
82.36758 285.000
82.38752 285.000
82.40747 277.000
82.42742 279.000
82.44737 278.000
82.46731 272.000
82.48726 283.000
82.50721 275.000
82.52715 303.000
82.54710 287.000
82.56705 268.000
82.58699 311.000
82.60694 321.000
82.62689 283.000
82.64683 255.000
82.66678 278.000
82.68673 270.000
82.70668 245.000
82.72662 294.000
82.74657 271.000
82.76652 283.000
82.78646 300.000
82.80641 296.000
82.82636 275.000
82.84630 305.000
82.86625 305.000
82.88620 276.000
82.90615 290.000
82.92609 293.000
82.94604 283.000
82.96599 286.000
82.98593 282.000
83.00588 289.000
83.02583 283.000
83.04577 304.000
83.06572 306.000
83.08567 282.000
83.10561 291.000
83.12556 290.000
83.14551 298.000
83.16546 283.000
83.18540 285.000
83.20535 285.000
83.22530 278.000
83.24524 277.000
83.26519 280.000
83.28514 279.000
83.30508 267.000
83.32503 246.000
83.34498 282.000
83.36493 258.000
83.38487 323.000
83.40482 289.000
83.42477 288.000
83.44471 283.000
83.46466 281.000
83.48461 268.000
83.50455 266.000
83.52450 279.000
83.54445 262.000
83.56440 278.000
83.58434 302.000
83.60429 282.000
83.62424 274.000
83.64418 300.000
83.66413 268.000
83.68408 288.000
83.70402 324.000
83.72397 311.000
83.74392 296.000
83.76386 272.000
83.78381 316.000
83.80376 282.000
83.82371 287.000
83.84365 271.000
83.86360 280.000
83.88355 301.000
83.90349 284.000
83.92344 315.000
83.94339 296.000
83.96333 283.000
83.98328 283.000
84.00323 286.000
84.02318 266.000
84.04312 260.000
84.06307 279.000
84.08302 293.000
84.10296 274.000
84.12291 297.000
84.14286 298.000
84.16280 293.000
84.18275 282.000
84.20270 303.000
84.22264 294.000
84.24259 306.000
84.26254 333.000
84.28249 299.000
84.30243 292.000
84.32238 284.000
84.34233 306.000
84.36227 290.000
84.38222 305.000
84.40217 273.000
84.42211 259.000
84.44206 285.000
84.46201 273.000
84.48196 283.000
84.50190 283.000
84.52185 294.000
84.54180 326.000
84.56174 276.000
84.58169 279.000
84.60164 282.000
84.62158 285.000
84.64153 278.000
84.66148 318.000
84.68142 253.000
84.70137 268.000
84.72132 289.000
84.74127 311.000
84.76121 300.000
84.78116 291.000
84.80111 304.000
84.82105 290.000
84.84100 298.000
84.86095 284.000
84.88089 292.000
84.90084 316.000
84.92079 256.000
84.94074 294.000
84.96068 296.000
84.98063 302.000
85.00058 256.000
85.02052 327.000
85.04047 302.000
85.06042 268.000
85.08036 287.000
85.10031 285.000
85.12026 250.000
85.14021 295.000
85.16015 295.000
85.18010 273.000
85.20005 295.000
85.21999 309.000
85.23994 288.000
85.25989 277.000
85.27983 286.000
85.29978 280.000
85.31973 291.000
85.33967 287.000
85.35962 292.000
85.37957 267.000
85.39952 287.000
85.41946 281.000
85.43941 269.000
85.45936 291.000
85.47930 290.000
85.49925 282.000
85.51920 273.000
85.53914 268.000
85.55909 280.000
85.57904 314.000
85.59899 276.000
85.61893 302.000
85.63888 281.000
85.65883 270.000
85.67877 314.000
85.69872 257.000
85.71867 287.000
85.73861 266.000
85.75856 277.000
85.77851 276.000
85.79845 268.000
85.81840 305.000
85.83835 268.000
85.85830 267.000
85.87824 292.000
85.89819 307.000
85.91814 303.000
85.93808 267.000
85.95803 271.000
85.97798 272.000
85.99792 307.000
86.01787 279.000
86.03782 264.000
86.05777 286.000
86.07771 313.000
86.09766 280.000
86.11761 278.000
86.13755 266.000
86.15750 307.000
86.17745 283.000
86.19739 271.000
86.21734 289.000
86.23729 275.000
86.25723 300.000
86.27718 289.000
86.29713 314.000
86.31708 285.000
86.33702 313.000
86.35697 281.000
86.37692 301.000
86.39686 270.000
86.41681 270.000
86.43676 288.000
86.45670 302.000
86.47665 273.000
86.49660 313.000
86.51655 275.000
86.53649 318.000
86.55644 281.000
86.57639 317.000
86.59633 270.000
86.61628 289.000
86.63623 291.000
86.65617 277.000
86.67612 281.000
86.69607 292.000
86.71602 308.000
86.73596 301.000
86.75591 274.000
86.77586 290.000
86.79580 284.000
86.81575 302.000
86.83570 292.000
86.85564 286.000
86.87559 285.000
86.89554 287.000
86.91548 295.000
86.93543 276.000
86.95538 284.000
86.97533 249.000
86.99527 297.000
87.01522 258.000
87.03517 276.000
87.05511 282.000
87.07506 276.000
87.09501 278.000
87.11495 287.000
87.13490 298.000
87.15485 290.000
87.17480 281.000
87.19474 282.000
87.21469 317.000
87.23464 282.000
87.25458 288.000
87.27453 275.000
87.29448 299.000
87.31442 300.000
87.33437 292.000
87.35432 266.000
87.37426 318.000
87.39421 303.000
87.41416 272.000
87.43411 279.000
87.45405 289.000
87.47400 300.000
87.49395 292.000
87.51389 278.000
87.53384 300.000
87.55379 263.000
87.57373 276.000
87.59368 289.000
87.61363 301.000
87.63358 300.000
87.65352 301.000
87.67347 290.000
87.69342 278.000
87.71336 286.000
87.73331 270.000
87.75326 306.000
87.77320 279.000
87.79315 288.000
87.81310 274.000
87.83304 263.000
87.85299 317.000
87.87294 305.000
87.89289 304.000
87.91283 280.000
87.93278 281.000
87.95273 254.000
87.97267 266.000
87.99262 266.000
88.01257 266.000
88.03251 296.000
88.05246 268.000
88.07241 262.000
88.09236 289.000
88.11230 302.000
88.13225 325.000
88.15220 283.000
88.17214 308.000
88.19209 298.000
88.21204 298.000
88.23198 254.000
88.25193 262.000
88.27188 294.000
88.29183 288.000
88.31177 276.000
88.33172 287.000
88.35167 291.000
88.37161 273.000
88.39156 277.000
88.41151 289.000
88.43145 262.000
88.45140 260.000
88.47135 271.000
88.49129 277.000
88.51124 333.000
88.53119 294.000
88.55114 256.000
88.57108 304.000
88.59103 297.000
88.61098 266.000
88.63092 288.000
88.65087 305.000
88.67082 287.000
88.69076 290.000
88.71071 285.000
88.73066 300.000
88.75061 271.000
88.77055 272.000
88.79050 282.000
88.81045 301.000
88.83039 307.000
88.85034 260.000
88.87029 307.000
88.89023 309.000
88.91018 242.000
88.93013 285.000
88.95007 278.000
88.97002 295.000
88.98997 301.000
89.00992 258.000
89.02986 300.000
89.04981 275.000
89.06976 318.000
89.08970 288.000
89.10965 295.000
89.12960 309.000
89.14954 269.000
89.16949 287.000
89.18944 303.000
89.20939 266.000
89.22933 308.000
89.24928 284.000
89.26923 291.000
89.28917 266.000
89.30912 305.000
89.32907 282.000
89.34901 280.000
89.36896 290.000
89.38891 264.000
89.40885 282.000
89.42880 280.000
89.44875 289.000
89.46870 294.000
89.48864 287.000
89.50859 273.000
89.52854 317.000
89.54848 289.000
89.56843 269.000
89.58838 304.000
89.60832 282.000
89.62827 271.000
89.64822 302.000
89.66817 295.000
89.68811 296.000
89.70806 277.000
89.72801 273.000
89.74795 309.000
89.76790 280.000
89.78785 282.000
89.80779 245.000
89.82774 266.000
89.84769 270.000
89.86764 281.000
89.88758 277.000
89.90753 275.000
89.92748 270.000
89.94742 268.000
89.96737 288.000
89.98732 249.000
90.00726 315.000
