10.00000 42.000
10.01995 31.000
10.03989 29.000
10.05984 26.000
10.07979 29.000
10.09973 37.000
10.11968 40.000
10.13963 26.000
10.15958 35.000
10.17952 35.000
10.19947 37.000
10.21942 38.000
10.23936 37.000
10.25931 43.000
10.27926 36.000
10.29920 36.000
10.31915 26.000
10.33910 33.000
10.35905 28.000
10.37899 41.000
10.39894 37.000
10.41889 36.000
10.43883 31.000
10.45878 47.000
10.47873 39.000
10.49867 30.000
10.51862 39.000
10.53857 30.000
10.55851 39.000
10.57846 39.000
10.59841 32.000
10.61836 36.000
10.63830 44.000
10.65825 38.000
10.67820 34.000
10.69814 25.000
10.71809 36.000
10.73804 39.000
10.75798 32.000
10.77793 30.000
10.79788 26.000
10.81783 35.000
10.83777 30.000
10.85772 36.000
10.87767 31.000
10.89761 35.000
10.91756 33.000
10.93751 26.000
10.95745 29.000
10.97740 28.000
10.99735 44.000
11.01730 31.000
11.03724 25.000
11.05719 29.000
11.07714 33.000
11.09708 34.000
11.11703 30.000
11.13698 44.000
11.15692 32.000
11.17687 25.000
11.19682 44.000
11.21676 19.000
11.23671 33.000
11.25666 30.000
11.27661 30.000
11.29655 32.000
11.31650 35.000
11.33645 38.000
11.35639 36.000
11.37634 42.000
11.39629 33.000
11.41623 40.000
11.43618 31.000
11.45613 23.000
11.47608 40.000
11.49602 25.000
11.51597 31.000
11.53592 33.000
11.55586 43.000
11.57581 23.000
11.59576 24.000
11.61570 42.000
11.63565 45.000
11.65560 26.000
11.67554 30.000
11.69549 28.000
11.71544 35.000
11.73539 32.000
11.75533 29.000
11.77528 29.000
11.79523 35.000
11.81517 34.000
11.83512 42.000
11.85507 27.000
11.87501 36.000
11.89496 24.000
11.91491 27.000
11.93486 44.000
11.95480 38.000
11.97475 38.000
11.99470 45.000
12.01464 23.000
12.03459 32.000
12.05454 26.000
12.07448 32.000
12.09443 34.000
12.11438 29.000
12.13432 41.000
12.15427 32.000
12.17422 28.000
12.19417 29.000
12.21411 27.000
12.23406 28.000
12.25401 30.000
12.27395 29.000
12.29390 35.000
12.31385 31.000
12.33379 26.000
12.35374 32.000
12.37369 34.000
12.39364 32.000
12.41358 40.000
12.43353 24.000
12.45348 31.000
12.47342 31.000
12.49337 29.000
12.51332 36.000
12.53326 36.000
12.55321 35.000
12.57316 32.000
12.59311 31.000
12.61305 36.000
12.63300 36.000
12.65295 35.000
12.67289 20.000
12.69284 36.000
12.71279 28.000
12.73273 27.000
12.75268 28.000
12.77263 32.000
12.79257 28.000
12.81252 25.000
12.83247 21.000
12.85242 23.000
12.87236 37.000
12.89231 31.000
12.91226 23.000
12.93220 23.000
12.95215 27.000
12.97210 21.000
12.99204 34.000
13.01199 29.000
13.03194 31.000
13.05189 33.000
13.07183 24.000
13.09178 34.000
13.11173 29.000
13.13167 31.000
13.15162 37.000
13.17157 30.000
13.19151 36.000
13.21146 35.000
13.23141 28.000
13.25135 38.000
13.27130 35.000
13.29125 16.000
13.31120 38.000
13.33114 24.000
13.35109 37.000
13.37104 33.000
13.39098 26.000
13.41093 27.000
13.43088 22.000
13.45082 28.000
13.47077 39.000
13.49072 28.000
13.51067 31.000
13.53061 33.000
13.55056 31.000
13.57051 36.000
13.59045 35.000
13.61040 28.000
13.63035 37.000
13.65029 32.000
13.67024 35.000
13.69019 23.000
13.71013 31.000
13.73008 32.000
13.75003 36.000
13.76998 37.000
13.78992 41.000
13.80987 36.000
13.82982 24.000
13.84976 31.000
13.86971 24.000
13.88966 19.000
13.90960 34.000
13.92955 33.000
13.94950 39.000
13.96945 34.000
13.98939 30.000
14.00934 45.000
14.02929 39.000
14.04923 37.000
14.06918 56.000
14.08913 34.000
14.10907 48.000
14.12902 39.000
14.14897 34.000
14.16892 31.000
14.18886 37.000
14.20881 31.000
14.22876 30.000
14.24870 38.000
14.26865 42.000
14.28860 32.000
14.30854 29.000
14.32849 34.000
14.34844 35.000
14.36838 27.000
14.38833 45.000
14.40828 31.000
14.42823 35.000
14.44817 33.000
14.46812 35.000
14.48807 35.000
14.50801 40.000
14.52796 42.000
14.54791 38.000
14.56785 48.000
14.58780 34.000
14.60775 37.000
14.62770 40.000
14.64764 37.000
14.66759 34.000
14.68754 39.000
14.70748 45.000
14.72743 47.000
14.74738 40.000
14.76732 44.000
14.78727 53.000
14.80722 43.000
14.82716 51.000
14.84711 51.000
14.86706 51.000
14.88701 54.000
14.90695 69.000
14.92690 59.000
14.94685 75.000
14.96679 73.000
14.98674 76.000
15.00669 67.000
15.02663 64.000
15.04658 87.000
15.06653 75.000
15.08648 87.000
15.10642 69.000
15.12637 81.000
15.14632 72.000
15.16626 107.000
15.18621 99.000
15.20616 86.000
15.22610 98.000
15.24605 111.000
15.26600 104.000
15.28594 113.000
15.30589 130.000
15.32584 143.000
15.34579 149.000
15.36573 135.000
15.38568 182.000
15.40563 197.000
15.42557 195.000
15.44552 265.000
15.46547 347.000
15.48541 475.000
15.50536 623.000
15.52531 892.000
15.54526 1360.000
15.56520 1877.000
15.58515 2779.000
15.60510 3651.000
15.62504 4246.000
15.64499 4421.000
15.66494 4043.000
15.68488 3381.000
15.70483 2624.000
15.72478 1869.000
15.74472 1429.000
15.76467 1140.000
15.78462 1102.000
15.80457 1020.000
15.82451 1112.000
15.84446 1119.000
15.86441 1192.000
15.88435 1188.000
15.90430 1127.000
15.92425 1046.000
15.94419 911.000
15.96414 782.000
15.98409 614.000
16.00404 445.000
16.02398 347.000
16.04393 263.000
16.06388 210.000
16.08382 168.000
16.10377 100.000
16.12372 99.000
16.14366 82.000
16.16361 78.000
16.18356 70.000
16.20351 64.000
16.22345 71.000
16.24340 53.000
16.26335 58.000
16.28329 54.000
16.30324 51.000
16.32319 57.000
16.34313 57.000
16.36308 54.000
16.38303 53.000
16.40297 53.000
16.42292 42.000
16.44287 31.000
16.46282 51.000
16.48276 36.000
16.50271 46.000
16.52266 40.000
16.54260 30.000
16.56255 36.000
16.58250 46.000
16.60244 44.000
16.62239 40.000
16.64234 30.000
16.66229 31.000
16.68223 37.000
16.70218 40.000
16.72213 37.000
16.74207 47.000
16.76202 57.000
16.78197 44.000
16.80191 52.000
16.82186 34.000
16.84181 43.000
16.86175 39.000
16.88170 45.000
16.90165 32.000
16.92160 29.000
16.94154 38.000
16.96149 29.000
16.98144 42.000
17.00138 35.000
17.02133 27.000
17.04128 28.000
17.06122 32.000
17.08117 21.000
17.10112 29.000
17.12107 31.000
17.14101 17.000
17.16096 27.000
17.18091 25.000
17.20085 33.000
17.22080 32.000
17.24075 32.000
17.26069 35.000
17.28064 40.000
17.30059 24.000
17.32053 30.000
17.34048 28.000
17.36043 28.000
17.38038 30.000
17.40032 30.000
17.42027 26.000
17.44022 24.000
17.46016 23.000
17.48011 26.000
17.50006 30.000
17.52000 32.000
17.53995 22.000
17.55990 25.000
17.57985 30.000
17.59979 24.000
17.61974 20.000
17.63969 29.000
17.65963 33.000
17.67958 25.000
17.69953 18.000
17.71947 39.000
17.73942 23.000
17.75937 20.000
17.77932 28.000
17.79926 25.000
17.81921 26.000
17.83916 19.000
17.85910 22.000
17.87905 28.000
17.89900 27.000
17.91894 22.000
17.93889 23.000
17.95884 29.000
17.97878 37.000
17.99873 32.000
18.01868 35.000
18.03863 22.000
18.05857 26.000
18.07852 36.000
18.09847 20.000
18.11841 18.000
18.13836 32.000
18.15831 24.000
18.17825 27.000
18.19820 24.000
18.21815 17.000
18.23810 26.000
18.25804 28.000
18.27799 37.000
18.29794 30.000
18.31788 29.000
18.33783 28.000
18.35778 30.000
18.37772 22.000
18.39767 22.000
18.41762 24.000
18.43756 24.000
18.45751 17.000
18.47746 26.000
18.49741 20.000
18.51735 21.000
18.53730 27.000
18.55725 32.000
18.57719 20.000
18.59714 18.000
18.61709 31.000
18.63703 23.000
18.65698 26.000
18.67693 23.000
18.69688 21.000
18.71682 22.000
18.73677 27.000
18.75672 27.000
18.77666 23.000
18.79661 23.000
18.81656 20.000
18.83650 22.000
18.85645 24.000
18.87640 25.000
18.89634 21.000
18.91629 25.000
18.93624 16.000
18.95619 22.000
18.97613 15.000
18.99608 28.000
19.01603 24.000
19.03597 20.000
19.05592 31.000
19.07587 26.000
19.09581 23.000
19.11576 24.000
19.13571 13.000
19.15566 26.000
19.17560 25.000
19.19555 18.000
19.21550 27.000
19.23544 20.000
19.25539 24.000
19.27534 32.000
19.29528 25.000
19.31523 18.000
19.33518 34.000
19.35513 27.000
19.37507 28.000
19.39502 25.000
19.41497 27.000
19.43491 25.000
19.45486 20.000
19.47481 24.000
19.49475 25.000
19.51470 18.000
19.53465 24.000
19.55459 20.000
19.57454 20.000
19.59449 23.000
19.61444 28.000
19.63438 29.000
19.65433 16.000
19.67428 24.000
19.69422 15.000
19.71417 22.000
19.73412 18.000
19.75406 21.000
19.77401 32.000
19.79396 24.000
19.81391 28.000
19.83385 18.000
19.85380 24.000
19.87375 20.000
19.89369 20.000
19.91364 18.000
19.93359 27.000
19.95353 21.000
19.97348 18.000
19.99343 30.000
20.01337 23.000
20.03332 23.000
20.05327 20.000
20.07322 20.000
20.09316 20.000
20.11311 30.000
20.13306 13.000
20.15300 18.000
20.17295 23.000
20.19290 16.000
20.21284 22.000
20.23279 28.000
20.25274 28.000
20.27269 29.000
20.29263 15.000
20.31258 23.000
20.33253 16.000
20.35247 23.000
20.37242 20.000
20.39237 27.000
20.41231 22.000
20.43226 20.000
20.45221 25.000
20.47215 24.000
20.49210 31.000
20.51205 23.000
20.53200 19.000
20.55194 31.000
20.57189 22.000
20.59184 36.000
20.61178 25.000
20.63173 40.000
20.65168 29.000
20.67162 31.000
20.69157 27.000
20.71152 29.000
20.73147 35.000
20.75141 24.000
20.77136 47.000
20.79131 48.000
20.81125 34.000
20.83120 50.000
20.85115 45.000
20.87109 45.000
20.89104 39.000
20.91099 30.000
20.93094 28.000
20.95088 34.000
20.97083 27.000
20.99078 18.000
21.01072 23.000
21.03067 32.000
21.05062 19.000
21.07056 34.000
21.09051 25.000
21.11046 39.000
21.13040 30.000
21.15035 36.000
21.17030 29.000
21.19025 19.000
21.21019 26.000
21.23014 27.000
21.25009 19.000
21.27003 26.000
21.28998 38.000
21.30993 24.000
21.32987 28.000
21.34982 20.000
21.36977 18.000
21.38972 25.000
21.40966 28.000
21.42961 19.000
21.44956 21.000
21.46950 18.000
21.48945 26.000
21.50940 14.000
21.52934 23.000
21.54929 16.000
21.56924 30.000
21.58918 15.000
21.60913 24.000
21.62908 17.000
21.64903 14.000
21.66897 25.000
21.68892 15.000
21.70887 20.000
21.72881 27.000
21.74876 35.000
21.76871 13.000
21.78865 16.000
21.80860 24.000
21.82855 24.000
21.84850 29.000
21.86844 18.000
21.88839 27.000
21.90834 21.000
21.92828 28.000
21.94823 25.000
21.96818 22.000
21.98812 23.000
22.00807 26.000
22.02802 20.000
22.04796 25.000
22.06791 24.000
22.08786 34.000
22.10781 18.000
22.12775 17.000
22.14770 29.000
22.16765 14.000
22.18759 27.000
22.20754 17.000
22.22749 16.000
22.24743 25.000
22.26738 32.000
22.28733 30.000
22.30728 17.000
22.32722 20.000
22.34717 27.000
22.36712 39.000
22.38706 19.000
22.40701 27.000
22.42696 19.000
22.44690 25.000
22.46685 21.000
22.48680 18.000
22.50675 26.000
22.52669 21.000
22.54664 13.000
22.56659 23.000
22.58653 28.000
22.60648 22.000
22.62643 22.000
22.64637 21.000
22.66632 19.000
22.68627 18.000
22.70621 21.000
22.72616 24.000
22.74611 23.000
22.76606 29.000
22.78600 28.000
22.80595 24.000
22.82590 22.000
22.84584 14.000
22.86579 25.000
22.88574 20.000
22.90568 24.000
22.92563 23.000
22.94558 19.000
22.96553 32.000
22.98547 29.000
23.00542 25.000
23.02537 17.000
23.04531 31.000
23.06526 19.000
23.08521 19.000
23.10515 17.000
23.12510 21.000
23.14505 22.000
23.16499 30.000
23.18494 29.000
23.20489 18.000
23.22484 30.000
23.24478 23.000
23.26473 27.000
23.28468 22.000
23.30462 27.000
23.32457 27.000
23.34452 20.000
23.36446 22.000
23.38441 30.000
23.40436 25.000
23.42431 27.000
23.44425 23.000
23.46420 30.000
23.48415 29.000
23.50409 32.000
23.52404 25.000
23.54399 23.000
23.56393 24.000
23.58388 28.000
23.60383 21.000
23.62377 31.000
23.64372 22.000
23.66367 23.000
23.68362 23.000
23.70356 30.000
23.72351 32.000
23.74346 28.000
23.76340 21.000
23.78335 17.000
23.80330 34.000
23.82324 22.000
23.84319 28.000
23.86314 21.000
23.88309 36.000
23.90303 25.000
23.92298 29.000
23.94293 29.000
23.96287 12.000
23.98282 15.000
24.00277 25.000
24.02271 22.000
24.04266 22.000
24.06261 24.000
24.08256 30.000
24.10250 20.000
24.12245 27.000
24.14240 19.000
24.16234 34.000
24.18229 23.000
24.20224 36.000
24.22218 30.000
24.24213 27.000
24.26208 22.000
24.28202 24.000
24.30197 21.000
24.32192 22.000
24.34187 21.000
24.36181 17.000
24.38176 24.000
24.40171 23.000
24.42165 28.000
24.44160 27.000
24.46155 16.000
24.48149 21.000
24.50144 11.000
24.52139 25.000
24.54134 18.000
24.56128 21.000
24.58123 23.000
24.60118 27.000
24.62112 19.000
24.64107 24.000
24.66102 27.000
24.68096 32.000
24.70091 27.000
24.72086 32.000
24.74080 23.000
24.76075 20.000
24.78070 23.000
24.80065 24.000
24.82059 20.000
24.84054 23.000
24.86049 30.000
24.88043 30.000
24.90038 29.000
24.92033 36.000
24.94027 28.000
24.96022 21.000
24.98017 37.000
25.00012 35.000
25.02006 30.000
25.04001 22.000
25.05996 22.000
25.07990 27.000
25.09985 26.000
25.11980 29.000
25.13974 23.000
25.15969 37.000
25.17964 20.000
25.19958 24.000
25.21953 15.000
25.23948 26.000
25.25943 34.000
25.27937 31.000
25.29932 18.000
25.31927 28.000
25.33921 22.000
25.35916 30.000
25.37911 21.000
25.39905 30.000
25.41900 30.000
25.43895 24.000
25.45890 21.000
25.47884 25.000
25.49879 21.000
25.51874 24.000
25.53868 35.000
25.55863 28.000
25.57858 39.000
25.59852 27.000
25.61847 29.000
25.63842 26.000
25.65837 23.000
25.67831 28.000
25.69826 22.000
25.71821 20.000
25.73815 19.000
25.75810 25.000
25.77805 22.000
25.79799 26.000
25.81794 42.000
25.83789 24.000
25.85783 28.000
25.87778 24.000
25.89773 29.000
25.91768 21.000
25.93762 32.000
25.95757 24.000
25.97752 32.000
25.99746 47.000
26.01741 36.000
26.03736 35.000
26.05730 36.000
26.07725 34.000
26.09720 28.000
26.11715 27.000
26.13709 24.000
26.15704 23.000
26.17699 22.000
26.19693 24.000
26.21688 35.000
26.23683 23.000
26.25677 33.000
26.27672 38.000
26.29667 31.000
26.31661 33.000
26.33656 31.000
26.35651 27.000
26.37646 23.000
26.39640 39.000
26.41635 31.000
26.43630 24.000
26.45624 23.000
26.47619 21.000
26.49614 22.000
26.51608 22.000
26.53603 27.000
26.55598 24.000
26.57593 34.000
26.59587 28.000
26.61582 29.000
26.63577 24.000
26.65571 20.000
26.67566 27.000
26.69561 22.000
26.71555 26.000
26.73550 21.000
26.75545 27.000
26.77539 27.000
26.79534 18.000
26.81529 32.000
26.83524 21.000
26.85518 20.000
26.87513 25.000
26.89508 22.000
26.91502 28.000
26.93497 29.000
26.95492 33.000
26.97486 18.000
26.99481 22.000
27.01476 23.000
27.03471 23.000
27.05465 33.000
27.07460 20.000
27.09455 31.000
27.11449 24.000
27.13444 31.000
27.15439 22.000
27.17433 24.000
27.19428 28.000
27.21423 26.000
27.23417 29.000
27.25412 23.000
27.27407 28.000
27.29402 35.000
27.31396 33.000
27.33391 29.000
27.35386 33.000
27.37380 27.000
27.39375 37.000
27.41370 32.000
27.43364 33.000
27.45359 39.000
27.47354 29.000
27.49349 26.000
27.51343 29.000
27.53338 44.000
27.55333 40.000
27.57327 29.000
27.59322 32.000
27.61317 32.000
27.63311 25.000
27.65306 36.000
27.67301 35.000
27.69296 29.000
27.71290 31.000
27.73285 34.000
27.75280 29.000
27.77274 22.000
27.79269 32.000
27.81264 28.000
27.83258 21.000
27.85253 18.000
27.87248 28.000
27.89242 29.000
27.91237 25.000
27.93232 20.000
27.95227 20.000
27.97221 24.000
27.99216 30.000
28.01211 26.000
28.03205 19.000
28.05200 21.000
28.07195 27.000
28.09189 26.000
28.11184 19.000
28.13179 29.000
28.15174 14.000
28.17168 30.000
28.19163 25.000
28.21158 27.000
28.23152 11.000
28.25147 23.000
28.27142 17.000
28.29136 25.000
28.31131 27.000
28.33126 29.000
28.35120 35.000
28.37115 24.000
28.39110 27.000
28.41105 28.000
28.43099 34.000
28.45094 27.000
28.47089 26.000
28.49083 32.000
28.51078 28.000
28.53073 23.000
28.55067 36.000
28.57062 25.000
28.59057 29.000
28.61052 23.000
28.63046 23.000
28.65041 27.000
28.67036 18.000
28.69030 26.000
28.71025 34.000
28.73020 24.000
28.75014 38.000
28.77009 35.000
28.79004 32.000
28.80998 22.000
28.82993 27.000
28.84988 27.000
28.86983 23.000
28.88977 23.000
28.90972 24.000
28.92967 28.000
28.94961 23.000
28.96956 28.000
28.98951 31.000
29.00945 27.000
29.02940 30.000
29.04935 27.000
29.06930 28.000
29.08924 24.000
29.10919 26.000
29.12914 46.000
29.14908 21.000
29.16903 28.000
29.18898 34.000
29.20892 35.000
29.22887 30.000
29.24882 42.000
29.26877 47.000
29.28871 51.000
29.30866 53.000
29.32861 51.000
29.34855 55.000
29.36850 53.000
29.38845 50.000
29.40839 56.000
29.42834 48.000
29.44829 52.000
29.46823 42.000
29.48818 41.000
29.50813 36.000
29.52808 37.000
29.54802 37.000
29.56797 30.000
29.58792 44.000
29.60786 29.000
29.62781 42.000
29.64776 39.000
29.66770 37.000
29.68765 33.000
29.70760 25.000
29.72755 31.000
29.74749 38.000
29.76744 30.000
29.78739 36.000
29.80733 30.000
29.82728 27.000
29.84723 29.000
29.86717 51.000
29.88712 42.000
29.90707 45.000
29.92701 44.000
29.94696 54.000
29.96691 48.000
29.98686 70.000
30.00680 90.000
30.02675 84.000
30.04670 84.000
30.06664 68.000
30.08659 84.000
30.10654 74.000
30.12648 69.000
30.14643 68.000
30.16638 68.000
30.18633 56.000
30.20627 41.000
30.22622 40.000
30.24617 32.000
30.26611 36.000
30.28606 35.000
30.30601 27.000
30.32595 38.000
30.34590 32.000
30.36585 25.000
30.38579 28.000
30.40574 33.000
30.42569 30.000
30.44564 34.000
30.46558 28.000
30.48553 32.000
30.50548 26.000
30.52542 30.000
30.54537 35.000
30.56532 28.000
30.58526 20.000
30.60521 35.000
30.62516 27.000
30.64511 41.000
30.66505 41.000
30.68500 25.000
30.70495 34.000
30.72489 41.000
30.74484 30.000
30.76479 26.000
30.78473 26.000
30.80468 28.000
30.82463 27.000
30.84458 36.000
30.86452 31.000
30.88447 34.000
30.90442 34.000
30.92436 41.000
30.94431 24.000
30.96426 28.000
30.98420 35.000
31.00415 29.000
31.02410 38.000
31.04404 33.000
31.06399 27.000
31.08394 36.000
31.10389 41.000
31.12383 28.000
31.14378 35.000
31.16373 33.000
31.18367 25.000
31.20362 50.000
31.22357 35.000
31.24351 30.000
31.26346 38.000
31.28341 39.000
31.30336 36.000
31.32330 28.000
31.34325 49.000
31.36320 42.000
31.38314 55.000
31.40309 59.000
31.42304 34.000
31.44298 70.000
31.46293 62.000
31.48288 68.000
31.50282 96.000
31.52277 110.000
31.54272 146.000
31.56267 218.000
31.58261 268.000
31.60256 318.000
31.62251 326.000
31.64245 370.000
31.66240 357.000
31.68235 335.000
31.70229 348.000
31.72224 282.000
31.74219 253.000
31.76214 216.000
31.78208 181.000
31.80203 127.000
31.82198 116.000
31.84192 95.000
31.86187 91.000
31.88182 85.000
31.90176 99.000
31.92171 75.000
31.94166 80.000
31.96160 78.000
31.98155 117.000
32.00150 69.000
32.02145 82.000
32.04139 93.000
32.06134 89.000
32.08129 92.000
32.10123 121.000
32.12118 107.000
32.14113 112.000
32.16107 106.000
32.18102 92.000
32.20097 113.000
32.22092 101.000
32.24086 120.000
32.26081 108.000
32.28076 84.000
32.30070 114.000
32.32065 102.000
32.34060 88.000
32.36054 68.000
32.38049 67.000
32.40044 58.000
32.42039 56.000
32.44033 62.000
32.46028 37.000
32.48023 39.000
32.50017 35.000
32.52012 48.000
32.54007 38.000
32.56001 29.000
32.57996 29.000
32.59991 37.000
32.61985 32.000
32.63980 36.000
32.65975 39.000
32.67970 25.000
32.69964 28.000
32.71959 23.000
32.73954 20.000
32.75948 36.000
32.77943 35.000
32.79938 35.000
32.81932 37.000
32.83927 40.000
32.85922 41.000
32.87917 40.000
32.89911 61.000
32.91906 31.000
32.93901 27.000
32.95895 42.000
32.97890 29.000
32.99885 46.000
33.01879 47.000
33.03874 52.000
33.05869 41.000
33.07863 44.000
33.09858 40.000
33.11853 47.000
33.13848 37.000
33.15842 32.000
33.17837 33.000
33.19832 30.000
33.21826 30.000
33.23821 28.000
33.25816 29.000
33.27810 36.000
33.29805 29.000
33.31800 30.000
33.33795 20.000
33.35789 33.000
33.37784 41.000
33.39779 26.000
33.41773 31.000
33.43768 23.000
33.45763 30.000
33.47757 29.000
33.49752 32.000
33.51747 23.000
33.53741 32.000
33.55736 36.000
33.57731 19.000
33.59726 31.000
33.61720 32.000
33.63715 38.000
33.65710 31.000
33.67704 28.000
33.69699 28.000
33.71694 38.000
33.73688 34.000
33.75683 41.000
33.77678 27.000
33.79673 25.000
33.81667 34.000
33.83662 39.000
33.85657 24.000
33.87651 33.000
33.89646 29.000
33.91641 33.000
33.93635 29.000
33.95630 30.000
33.97625 43.000
33.99620 43.000
34.01614 51.000
34.03609 43.000
34.05604 46.000
34.07598 56.000
34.09593 72.000
34.11588 59.000
34.13582 49.000
34.15577 64.000
34.17572 53.000
34.19566 67.000
34.21561 75.000
34.23556 58.000
34.25551 71.000
34.27545 86.000
34.29540 74.000
34.31535 75.000
34.33529 72.000
34.35524 52.000
34.37519 74.000
34.39513 69.000
34.41508 76.000
34.43503 65.000
34.45498 68.000
34.47492 60.000
34.49487 67.000
34.51482 58.000
34.53476 59.000
34.55471 59.000
34.57466 50.000
34.59460 65.000
34.61455 46.000
34.63450 52.000
34.65444 51.000
34.67439 54.000
34.69434 41.000
34.71429 52.000
34.73423 53.000
34.75418 40.000
34.77413 43.000
34.79407 54.000
34.81402 51.000
34.83397 43.000
34.85391 45.000
34.87386 44.000
34.89381 39.000
34.91376 45.000
34.93370 39.000
34.95365 44.000
34.97360 36.000
34.99354 47.000
35.01349 51.000
35.03344 51.000
35.05338 51.000
35.07333 65.000
35.09328 73.000
35.11322 66.000
35.13317 92.000
35.15312 90.000
35.17307 98.000
35.19301 77.000
35.21296 93.000
35.23291 76.000
35.25285 90.000
35.27280 93.000
35.29275 107.000
35.31269 103.000
35.33264 108.000
35.35259 116.000
35.37254 141.000
35.39248 133.000
35.41243 156.000
35.43238 181.000
35.45232 187.000
35.47227 201.000
35.49222 225.000
35.51216 211.000
35.53211 227.000
35.55206 231.000
35.57201 209.000
35.59195 221.000
35.61190 204.000
35.63185 213.000
35.65179 229.000
35.67174 244.000
35.69169 238.000
35.71163 276.000
35.73158 281.000
35.75153 302.000
35.77147 299.000
35.79142 317.000
35.81137 353.000
35.83132 365.000
35.85126 352.000
35.87121 356.000
35.89116 292.000
35.91110 236.000
35.93105 238.000
35.95100 212.000
35.97094 200.000
35.99089 152.000
36.01084 106.000
36.03079 103.000
36.05073 90.000
36.07068 77.000
36.09063 80.000
36.11057 63.000
36.13052 70.000
36.15047 57.000
36.17041 57.000
36.19036 46.000
36.21031 61.000
36.23025 67.000
36.25020 66.000
36.27015 55.000
36.29010 51.000
36.31004 47.000
36.32999 52.000
36.34994 55.000
36.36988 58.000
36.38983 64.000
36.40978 76.000
36.42972 63.000
36.44967 59.000
36.46962 57.000
36.48957 63.000
36.50951 52.000
36.52946 60.000
36.54941 43.000
36.56935 75.000
36.58930 67.000
36.60925 83.000
36.62919 87.000
36.64914 107.000
36.66909 99.000
36.68903 139.000
36.70898 166.000
36.72893 160.000
36.74888 175.000
36.76882 181.000
36.78877 206.000
36.80872 229.000
36.82866 246.000
36.84861 251.000
36.86856 306.000
36.88850 330.000
36.90845 360.000
36.92840 404.000
36.94835 483.000
36.96829 484.000
36.98824 585.000
37.00819 633.000
37.02813 618.000
37.04808 653.000
37.06803 614.000
37.08797 642.000
37.10792 539.000
37.12787 446.000
37.14781 411.000
37.16776 331.000
37.18771 255.000
37.20766 228.000
37.22760 176.000
37.24755 146.000
37.26750 93.000
37.28744 100.000
37.30739 86.000
37.32734 78.000
37.34728 76.000
37.36723 70.000
37.38718 70.000
37.40713 61.000
37.42707 67.000
37.44702 45.000
37.46697 68.000
37.48691 43.000
37.50686 50.000
37.52681 56.000
37.54675 49.000
37.56670 49.000
37.58665 57.000
37.60660 40.000
37.62654 49.000
37.64649 47.000
37.66644 54.000
37.68638 45.000
37.70633 48.000
37.72628 51.000
37.74622 49.000
37.76617 69.000
37.78612 54.000
37.80606 57.000
37.82601 61.000
37.84596 70.000
37.86591 72.000
37.88585 64.000
37.90580 81.000
37.92575 74.000
37.94569 79.000
37.96564 65.000
37.98559 63.000
38.00553 87.000
38.02548 64.000
38.04543 63.000
38.06538 76.000
38.08532 56.000
38.10527 62.000
38.12522 44.000
38.14516 58.000
38.16511 37.000
38.18506 44.000
38.20500 46.000
38.22495 43.000
38.24490 39.000
38.26484 35.000
38.28479 40.000
38.30474 44.000
38.32469 37.000
38.34463 42.000
38.36458 29.000
38.38453 36.000
38.40447 33.000
38.42442 44.000
38.44437 47.000
38.46431 30.000
38.48426 41.000
38.50421 48.000
38.52416 46.000
38.54410 42.000
38.56405 39.000
38.58400 35.000
38.60394 40.000
38.62389 41.000
38.64384 43.000
38.66378 44.000
38.68373 42.000
38.70368 43.000
38.72362 59.000
38.74357 43.000
38.76352 56.000
38.78347 56.000
38.80341 65.000
38.82336 103.000
38.84331 106.000
38.86325 139.000
38.88320 183.000
38.90315 167.000
38.92309 181.000
38.94304 164.000
38.96299 173.000
38.98294 174.000
39.00288 152.000
39.02283 138.000
39.04278 101.000
39.06272 100.000
39.08267 86.000
39.10262 86.000
39.12256 80.000
39.14251 56.000
39.16246 60.000
39.18241 58.000
39.20235 58.000
39.22230 55.000
39.24225 58.000
39.26219 58.000
39.28214 31.000
39.30209 43.000
39.32203 44.000
39.34198 38.000
39.36193 47.000
39.38187 35.000
39.40182 34.000
39.42177 37.000
39.44172 33.000
39.46166 37.000
39.48161 33.000
39.50156 33.000
39.52150 25.000
39.54145 34.000
39.56140 25.000
39.58134 30.000
39.60129 34.000
39.62124 30.000
39.64119 44.000
39.66113 47.000
39.68108 40.000
39.70103 51.000
39.72097 32.000
39.74092 48.000
39.76087 49.000
39.78081 50.000
39.80076 28.000
39.82071 41.000
39.84065 47.000
39.86060 41.000
39.88055 51.000
39.90050 46.000
39.92044 48.000
39.94039 52.000
39.96034 41.000
39.98028 45.000
40.00023 42.000
40.02018 38.000
40.04012 33.000
40.06007 35.000
40.08002 37.000
40.09997 32.000
40.11991 25.000
40.13986 39.000
40.15981 31.000
40.17975 38.000
40.19970 29.000
40.21965 36.000
40.23959 37.000
40.25954 33.000
40.27949 29.000
40.29943 28.000
40.31938 34.000
40.33933 30.000
40.35928 47.000
40.37922 31.000
40.39917 29.000
40.41912 39.000
40.43906 36.000
40.45901 32.000
40.47896 27.000
40.49890 26.000
40.51885 21.000
40.53880 24.000
40.55875 34.000
40.57869 33.000
40.59864 35.000
40.61859 28.000
40.63853 31.000
40.65848 39.000
40.67843 27.000
40.69837 45.000
40.71832 27.000
40.73827 36.000
40.75822 22.000
40.77816 33.000
40.79811 34.000
40.81806 42.000
40.83800 37.000
40.85795 39.000
40.87790 47.000
40.89784 25.000
40.91779 36.000
40.93774 40.000
40.95768 47.000
40.97763 60.000
40.99758 50.000
41.01753 48.000
41.03747 63.000
41.05742 62.000
41.07737 81.000
41.09731 70.000
41.11726 79.000
41.13721 82.000
41.15715 81.000
41.17710 73.000
41.19705 92.000
41.21700 91.000
41.23694 103.000
41.25689 96.000
41.27684 114.000
41.29678 164.000
41.31673 200.000
41.33668 255.000
41.35662 324.000
41.37657 419.000
41.39652 544.000
41.41646 569.000
41.43641 686.000
41.45636 706.000
41.47631 678.000
41.49625 691.000
41.51620 703.000
41.53615 658.000
41.55609 650.000
41.57604 549.000
41.59599 487.000
41.61593 404.000
41.63588 409.000
41.65583 337.000
41.67578 288.000
41.69572 247.000
41.71567 190.000
41.73562 176.000
41.75556 139.000
41.77551 125.000
41.79546 104.000
41.81540 113.000
41.83535 82.000
41.85530 79.000
41.87524 97.000
41.89519 94.000
41.91514 76.000
41.93509 72.000
41.95503 58.000
41.97498 74.000
41.99493 54.000
42.01487 56.000
42.03482 57.000
42.05477 52.000
42.07471 45.000
42.09466 49.000
42.11461 77.000
42.13456 45.000
42.15450 42.000
42.17445 61.000
42.19440 41.000
42.21434 43.000
42.23429 47.000
42.25424 41.000
42.27418 42.000
42.29413 38.000
42.31408 46.000
42.33403 61.000
42.35397 41.000
42.37392 41.000
42.39387 50.000
42.41381 49.000
42.43376 64.000
42.45371 36.000
42.47365 36.000
42.49360 40.000
42.51355 49.000
42.53349 43.000
42.55344 51.000
42.57339 43.000
42.59334 43.000
42.61328 55.000
42.63323 48.000
42.65318 53.000
42.67312 51.000
42.69307 46.000
42.71302 48.000
42.73296 39.000
42.75291 56.000
42.77286 40.000
42.79281 58.000
42.81275 38.000
42.83270 61.000
42.85265 61.000
42.87259 60.000
42.89254 66.000
42.91249 70.000
42.93243 64.000
42.95238 53.000
42.97233 82.000
42.99227 87.000
43.01222 98.000
43.03217 83.000
43.05212 61.000
43.07206 69.000
43.09201 99.000
43.11196 66.000
43.13190 75.000
43.15185 69.000
43.17180 63.000
43.19174 70.000
43.21169 57.000
43.23164 37.000
43.25159 49.000
43.27153 39.000
43.29148 46.000
43.31143 43.000
43.33137 41.000
43.35132 39.000
43.37127 38.000
43.39121 44.000
43.41116 46.000
43.43111 41.000
43.45105 30.000
43.47100 35.000
43.49095 43.000
43.51090 41.000
43.53084 36.000
43.55079 31.000
43.57074 44.000
43.59068 44.000
43.61063 34.000
43.63058 48.000
43.65052 43.000
43.67047 40.000
43.69042 46.000
43.71037 49.000
43.73031 38.000
43.75026 36.000
43.77021 33.000
43.79015 34.000
43.81010 34.000
43.83005 35.000
43.84999 33.000
43.86994 38.000
43.88989 35.000
43.90984 38.000
43.92978 47.000
43.94973 43.000
43.96968 44.000
43.98962 44.000
44.00957 54.000
44.02952 46.000
44.04946 44.000
44.06941 63.000
44.08936 47.000
44.10930 59.000
44.12925 51.000
44.14920 53.000
44.16915 63.000
44.18909 65.000
44.20904 67.000
44.22899 79.000
44.24893 81.000
44.26888 89.000
44.28883 100.000
44.30877 106.000
44.32872 95.000
44.34867 93.000
44.36862 139.000
44.38856 149.000
44.40851 154.000
44.42846 175.000
44.44840 196.000
44.46835 216.000
44.48830 263.000
44.50824 354.000
44.52819 406.000
44.54814 457.000
44.56808 547.000
44.58803 625.000
44.60798 670.000
44.62793 664.000
44.64787 742.000
44.66782 765.000
44.68777 750.000
44.70771 686.000
44.72766 634.000
44.74761 628.000
44.76755 556.000
44.78750 478.000
44.80745 419.000
44.82740 403.000
44.84734 309.000
44.86729 273.000
44.88724 229.000
44.90718 188.000
44.92713 138.000
44.94708 149.000
44.96702 124.000
44.98697 106.000
45.00692 91.000
45.02686 73.000
45.04681 74.000
45.06676 64.000
45.08671 62.000
45.10665 59.000
45.12660 61.000
45.14655 51.000
45.16649 60.000
45.18644 49.000
45.20639 46.000
45.22633 42.000
45.24628 51.000
45.26623 50.000
45.28618 40.000
45.30612 41.000
45.32607 34.000
45.34602 32.000
45.36596 50.000
45.38591 35.000
45.40586 32.000
45.42580 29.000
45.44575 41.000
45.46570 29.000
45.48565 28.000
45.50559 29.000
45.52554 41.000
45.54549 38.000
45.56543 41.000
45.58538 30.000
45.60533 28.000
45.62527 38.000
45.64522 30.000
45.66517 33.000
45.68511 32.000
45.70506 24.000
45.72501 27.000
45.74496 26.000
45.76490 30.000
45.78485 27.000
45.80480 30.000
45.82474 27.000
45.84469 32.000
45.86464 25.000
45.88458 23.000
45.90453 32.000
45.92448 22.000
45.94443 18.000
45.96437 32.000
45.98432 26.000
46.00427 24.000
46.02421 28.000
46.04416 22.000
46.06411 37.000
46.08405 18.000
46.10400 34.000
46.12395 39.000
46.14389 37.000
46.16384 34.000
46.18379 33.000
46.20374 26.000
46.22368 36.000
46.24363 36.000
46.26358 41.000
46.28352 27.000
46.30347 32.000
46.32342 30.000
46.34336 23.000
46.36331 35.000
46.38326 32.000
46.40321 36.000
46.42315 40.000
46.44310 34.000
46.46305 31.000
46.48299 40.000
46.50294 34.000
46.52289 26.000
46.54283 46.000
46.56278 32.000
46.58273 38.000
46.60267 33.000
46.62262 41.000
46.64257 27.000
46.66252 24.000
46.68246 40.000
46.70241 22.000
46.72236 28.000
46.74230 25.000
46.76225 37.000
46.78220 31.000
46.80214 29.000
46.82209 28.000
46.84204 26.000
46.86199 23.000
46.88193 36.000
46.90188 36.000
46.92183 26.000
46.94177 26.000
46.96172 26.000
46.98167 24.000
47.00161 28.000
47.02156 20.000
47.04151 19.000
47.06146 34.000
47.08140 22.000
47.10135 18.000
47.12130 24.000
47.14124 21.000
47.16119 28.000
47.18114 22.000
47.20108 17.000
47.22103 21.000
47.24098 19.000
47.26092 17.000
47.28087 17.000
47.30082 24.000
47.32077 20.000
47.34071 27.000
47.36066 17.000
47.38061 28.000
47.40055 18.000
47.42050 21.000
47.44045 26.000
47.46039 29.000
47.48034 22.000
47.50029 21.000
47.52024 21.000
47.54018 29.000
47.56013 20.000
47.58008 28.000
47.60002 24.000
47.61997 13.000
47.63992 26.000
47.65986 29.000
47.67981 25.000
47.69976 24.000
47.71970 31.000
47.73965 23.000
47.75960 24.000
47.77955 27.000
47.79949 31.000
47.81944 37.000
47.83939 33.000
47.85933 37.000
47.87928 29.000
47.89923 39.000
47.91917 30.000
47.93912 35.000
47.95907 57.000
47.97902 38.000
47.99896 51.000
48.01891 42.000
48.03886 55.000
48.05880 57.000
48.07875 71.000
48.09870 48.000
48.11864 56.000
48.13859 71.000
48.15854 78.000
48.17848 105.000
48.19843 113.000
48.21838 138.000
48.23833 156.000
48.25827 147.000
48.27822 168.000
48.29817 153.000
48.31811 142.000
48.33806 156.000
48.35801 121.000
48.37795 116.000
48.39790 121.000
48.41785 101.000
48.43780 88.000
48.45774 85.000
48.47769 70.000
48.49764 65.000
48.51758 66.000
48.53753 67.000
48.55748 56.000
48.57742 29.000
48.59737 37.000
48.61732 44.000
48.63726 35.000
48.65721 34.000
48.67716 35.000
48.69711 27.000
48.71705 29.000
48.73700 35.000
48.75695 25.000
48.77689 34.000
48.79684 27.000
48.81679 34.000
48.83673 25.000
48.85668 25.000
48.87663 22.000
48.89658 29.000
48.91652 31.000
48.93647 15.000
48.95642 20.000
48.97636 28.000
48.99631 36.000
49.01626 23.000
49.03620 20.000
49.05615 27.000
49.07610 26.000
49.09605 34.000
49.11599 28.000
49.13594 26.000
49.15589 23.000
49.17583 24.000
49.19578 27.000
49.21573 31.000
49.23567 14.000
49.25562 37.000
49.27557 29.000
49.29551 31.000
49.31546 23.000
49.33541 23.000
49.35536 23.000
49.37530 29.000
49.39525 19.000
49.41520 24.000
49.43514 22.000
49.45509 18.000
49.47504 24.000
49.49498 25.000
49.51493 29.000
49.53488 12.000
49.55483 26.000
49.57477 20.000
49.59472 26.000
49.61467 31.000
49.63461 19.000
49.65456 22.000
49.67451 18.000
49.69445 23.000
49.71440 19.000
49.73435 19.000
49.75429 14.000
49.77424 23.000
49.79419 25.000
49.81414 20.000
49.83408 15.000
49.85403 22.000
49.87398 26.000
49.89392 21.000
49.91387 15.000
49.93382 23.000
49.95376 16.000
49.97371 23.000
49.99366 27.000
50.01361 18.000
50.03355 20.000
50.05350 26.000
50.07345 22.000
50.09339 17.000
50.11334 16.000
50.13329 14.000
50.15323 16.000
50.17318 20.000
50.19313 22.000
50.21307 19.000
50.23302 26.000
50.25297 26.000
50.27292 17.000
50.29286 16.000
50.31281 19.000
50.33276 23.000
50.35270 22.000
50.37265 22.000
50.39260 17.000
50.41254 22.000
50.43249 24.000
50.45244 26.000
50.47239 22.000
50.49233 15.000
50.51228 25.000
50.53223 22.000
50.55217 24.000
50.57212 23.000
50.59207 19.000
50.61201 18.000
50.63196 18.000
50.65191 24.000
50.67186 22.000
50.69180 26.000
50.71175 26.000
50.73170 19.000
50.75164 22.000
50.77159 24.000
50.79154 18.000
50.81148 17.000
50.83143 21.000
50.85138 25.000
50.87132 25.000
50.89127 25.000
50.91122 29.000
50.93117 22.000
50.95111 21.000
50.97106 14.000
50.99101 21.000
51.01095 23.000
51.03090 23.000
51.05085 11.000
51.07079 19.000
51.09074 26.000
51.11069 19.000
51.13064 30.000
51.15058 21.000
51.17053 15.000
51.19048 18.000
51.21042 20.000
51.23037 22.000
51.25032 32.000
51.27026 25.000
51.29021 23.000
51.31016 17.000
51.33010 28.000
51.35005 17.000
51.37000 21.000
51.38995 25.000
51.40989 21.000
51.42984 17.000
51.44979 24.000
51.46973 25.000
51.48968 28.000
51.50963 27.000
51.52957 31.000
51.54952 16.000
51.56947 25.000
51.58942 30.000
51.60936 32.000
51.62931 21.000
51.64926 23.000
51.66920 16.000
51.68915 29.000
51.70910 32.000
51.72904 30.000
51.74899 40.000
51.76894 32.000
51.78888 21.000
51.80883 33.000
51.82878 36.000
51.84873 44.000
51.86867 34.000
51.88862 49.000
51.90857 31.000
51.92851 52.000
51.94846 54.000
51.96841 38.000
51.98835 46.000
52.00830 54.000
52.02825 67.000
52.04820 67.000
52.06814 77.000
52.08809 83.000
52.10804 97.000
52.12798 115.000
52.14793 136.000
52.16788 141.000
52.18782 169.000
52.20777 190.000
52.22772 199.000
52.24767 222.000
52.26761 220.000
52.28756 184.000
52.30751 179.000
52.32745 199.000
52.34740 197.000
52.36735 202.000
52.38729 200.000
52.40724 203.000
52.42719 152.000
52.44713 190.000
52.46708 156.000
52.48703 164.000
52.50698 193.000
52.52692 189.000
52.54687 172.000
52.56682 182.000
52.58676 168.000
52.60671 144.000
52.62666 178.000
52.64660 149.000
52.66655 151.000
52.68650 119.000
52.70645 141.000
52.72639 118.000
52.74634 120.000
52.76629 96.000
52.78623 92.000
52.80618 71.000
52.82613 69.000
52.84607 59.000
52.86602 39.000
52.88597 36.000
52.90591 45.000
52.92586 35.000
52.94581 42.000
52.96576 38.000
52.98570 33.000
53.00565 38.000
53.02560 30.000
53.04554 43.000
53.06549 36.000
53.08544 24.000
53.10538 32.000
53.12533 27.000
53.14528 27.000
53.16523 23.000
53.18517 28.000
53.20512 27.000
53.22507 39.000
53.24501 30.000
53.26496 31.000
53.28491 38.000
53.30485 29.000
53.32480 32.000
53.34475 33.000
53.36469 34.000
53.38464 30.000
53.40459 33.000
53.42454 29.000
53.44448 25.000
53.46443 31.000
53.48438 41.000
53.50432 35.000
53.52427 37.000
53.54422 27.000
53.56416 32.000
53.58411 30.000
53.60406 33.000
53.62401 23.000
53.64395 27.000
53.66390 25.000
53.68385 21.000
53.70379 28.000
53.72374 30.000
53.74369 27.000
53.76363 26.000
53.78358 21.000
53.80353 27.000
53.82348 30.000
53.84342 16.000
53.86337 29.000
53.88332 30.000
53.90326 11.000
53.92321 28.000
53.94316 21.000
53.96310 16.000
53.98305 25.000
54.00300 31.000
54.02294 21.000
54.04289 24.000
54.06284 33.000
54.08279 32.000
54.10273 27.000
54.12268 34.000
54.14263 33.000
54.16257 18.000
54.18252 20.000
54.20247 21.000
54.22241 17.000
54.24236 27.000
54.26231 36.000
54.28226 29.000
54.30220 27.000
54.32215 22.000
54.34210 38.000
54.36204 29.000
54.38199 28.000
54.40194 33.000
54.42188 27.000
54.44183 30.000
54.46178 15.000
54.48172 28.000
54.50167 35.000
54.52162 28.000
54.54157 22.000
54.56151 21.000
54.58146 24.000
54.60141 27.000
54.62135 30.000
54.64130 33.000
54.66125 25.000
54.68119 25.000
54.70114 26.000
54.72109 29.000
54.74104 26.000
54.76098 28.000
54.78093 22.000
54.80088 23.000
54.82082 22.000
54.84077 24.000
54.86072 24.000
54.88066 25.000
54.90061 20.000
54.92056 21.000
54.94050 29.000
54.96045 20.000
54.98040 26.000
55.00035 26.000
55.02029 30.000
55.04024 22.000
55.06019 21.000
55.08013 21.000
55.10008 25.000
55.12003 24.000
55.13997 19.000
55.15992 27.000
55.17987 36.000
55.19982 22.000
55.21976 19.000
55.23971 36.000
55.25966 21.000
55.27960 17.000
55.29955 22.000
55.31950 18.000
55.33944 25.000
55.35939 27.000
55.37934 21.000
55.39929 17.000
55.41923 26.000
55.43918 31.000
55.45913 24.000
55.47907 21.000
55.49902 23.000
55.51897 25.000
55.53891 24.000
55.55886 20.000
55.57881 19.000
55.59875 22.000
55.61870 28.000
55.63865 30.000
55.65860 25.000
55.67854 27.000
55.69849 32.000
55.71844 23.000
55.73838 30.000
55.75833 35.000
55.77828 26.000
55.79822 24.000
55.81817 21.000
55.83812 14.000
55.85807 26.000
55.87801 31.000
55.89796 41.000
55.91791 22.000
55.93785 25.000
55.95780 29.000
55.97775 34.000
55.99769 26.000
56.01764 22.000
56.03759 26.000
56.05753 25.000
56.07748 26.000
56.09743 27.000
56.11738 30.000
56.13732 25.000
56.15727 37.000
56.17722 35.000
56.19716 22.000
56.21711 45.000
56.23706 41.000
56.25700 45.000
56.27695 47.000
56.29690 47.000
56.31685 46.000
56.33679 63.000
56.35674 59.000
56.37669 57.000
56.39663 63.000
56.41658 60.000
56.43653 66.000
56.45647 89.000
56.47642 88.000
56.49637 105.000
56.51631 109.000
56.53626 112.000
56.55621 121.000
56.57616 128.000
56.59610 144.000
56.61605 136.000
56.63600 143.000
56.65594 153.000
56.67589 161.000
56.69584 151.000
56.71578 163.000
56.73573 123.000
56.75568 135.000
56.77563 147.000
56.79557 140.000
56.81552 123.000
56.83547 124.000
56.85541 110.000
56.87536 116.000
56.89531 108.000
56.91525 114.000
56.93520 124.000
56.95515 135.000
56.97510 160.000
56.99504 134.000
57.01499 131.000
57.03494 133.000
57.05488 141.000
57.07483 149.000
57.09478 136.000
57.11472 137.000
57.13467 178.000
57.15462 126.000
57.17456 132.000
57.19451 130.000
57.21446 105.000
57.23441 96.000
57.25435 118.000
57.27430 104.000
57.29425 104.000
57.31419 82.000
57.33414 60.000
57.35409 50.000
57.37403 61.000
57.39398 62.000
57.41393 55.000
57.43388 45.000
57.45382 54.000
57.47377 32.000
57.49372 47.000
57.51366 34.000
57.53361 34.000
57.55356 29.000
57.57350 31.000
57.59345 28.000
57.61340 30.000
57.63334 19.000
57.65329 21.000
57.67324 30.000
57.69319 27.000
57.71313 23.000
57.73308 31.000
57.75303 33.000
57.77297 26.000
57.79292 27.000
57.81287 18.000
57.83281 25.000
57.85276 19.000
57.87271 23.000
57.89266 17.000
57.91260 23.000
57.93255 28.000
57.95250 18.000
57.97244 21.000
57.99239 19.000
58.01234 24.000
58.03228 18.000
58.05223 25.000
58.07218 26.000
58.09212 18.000
58.11207 26.000
58.13202 25.000
58.15197 30.000
58.17191 20.000
58.19186 20.000
58.21181 24.000
58.23175 23.000
58.25170 25.000
58.27165 22.000
58.29159 17.000
58.31154 23.000
58.33149 37.000
58.35144 18.000
58.37138 24.000
58.39133 32.000
58.41128 31.000
58.43122 16.000
58.45117 23.000
58.47112 20.000
58.49106 17.000
58.51101 29.000
58.53096 26.000
58.55090 29.000
58.57085 17.000
58.59080 24.000
58.61075 18.000
58.63069 22.000
58.65064 20.000
58.67059 25.000
58.69053 21.000
58.71048 23.000
58.73043 23.000
58.75037 21.000
58.77032 25.000
58.79027 25.000
58.81022 28.000
58.83016 24.000
58.85011 27.000
58.87006 23.000
58.89000 21.000
58.90995 21.000
58.92990 25.000
58.94984 23.000
58.96979 29.000
58.98974 19.000
59.00969 27.000
59.02963 27.000
59.04958 31.000
59.06953 29.000
59.08947 17.000
59.10942 22.000
59.12937 25.000
59.14931 23.000
59.16926 17.000
59.18921 23.000
59.20915 16.000
59.22910 25.000
59.24905 24.000
59.26900 23.000
59.28894 21.000
59.30889 29.000
59.32884 23.000
59.34878 18.000
59.36873 21.000
59.38868 27.000
59.40862 28.000
59.42857 19.000
59.44852 17.000
59.46847 23.000
59.48841 14.000
59.50836 15.000
59.52831 24.000
59.54825 18.000
59.56820 23.000
59.58815 28.000
59.60809 17.000
59.62804 27.000
59.64799 24.000
59.66793 17.000
59.68788 21.000
59.70783 16.000
59.72778 15.000
59.74772 15.000
59.76767 20.000
59.78762 14.000
59.80756 18.000
59.82751 20.000
59.84746 13.000
59.86740 24.000
59.88735 15.000
59.90730 19.000
59.92725 18.000
59.94719 15.000
59.96714 15.000
59.98709 26.000
60.00703 19.000
60.02698 22.000
60.04693 18.000
60.06687 16.000
60.08682 22.000
60.10677 21.000
60.12671 14.000
60.14666 27.000
60.16661 29.000
60.18656 33.000
60.20650 23.000
60.22645 20.000
60.24640 22.000
60.26634 20.000
60.28629 14.000
60.30624 23.000
60.32618 19.000
60.34613 24.000
60.36608 22.000
60.38603 30.000
60.40597 24.000
60.42592 17.000
60.44587 28.000
60.46581 26.000
60.48576 17.000
60.50571 20.000
60.52565 19.000
60.54560 16.000
60.56555 25.000
60.58550 27.000
60.60544 18.000
60.62539 27.000
60.64534 21.000
60.66528 20.000
60.68523 30.000
60.70518 32.000
60.72512 20.000
60.74507 25.000
60.76502 25.000
60.78496 29.000
60.80491 31.000
60.82486 22.000
60.84481 26.000
60.86475 30.000
60.88470 28.000
60.90465 32.000
60.92459 30.000
60.94454 20.000
60.96449 19.000
60.98443 33.000
61.00438 21.000
61.02433 26.000
61.04428 25.000
61.06422 34.000
61.08417 37.000
61.10412 30.000
61.12406 33.000
61.14401 29.000
61.16396 20.000
61.18390 40.000
61.20385 31.000
61.22380 34.000
61.24374 46.000
61.26369 43.000
61.28364 59.000
61.30359 49.000
61.32353 70.000
61.34348 68.000
61.36343 72.000
61.38337 60.000
61.40332 72.000
61.42327 57.000
61.44321 82.000
61.46316 61.000
61.48311 74.000
61.50306 56.000
61.52300 55.000
61.54295 64.000
61.56290 59.000
61.58284 52.000
61.60279 59.000
61.62274 53.000
61.64268 42.000
61.66263 37.000
61.68258 51.000
61.70252 43.000
61.72247 34.000
61.74242 43.000
61.76237 39.000
61.78231 30.000
61.80226 33.000
61.82221 26.000
61.84215 39.000
61.86210 32.000
61.88205 34.000
61.90199 31.000
61.92194 32.000
61.94189 33.000
61.96184 33.000
61.98178 31.000
62.00173 33.000
62.02168 22.000
62.04162 43.000
62.06157 25.000
62.08152 33.000
62.10146 23.000
62.12141 30.000
62.14136 28.000
62.16131 29.000
62.18125 25.000
62.20120 24.000
62.22115 27.000
62.24109 26.000
62.26104 34.000
62.28099 21.000
62.30093 19.000
62.32088 23.000
62.34083 26.000
62.36077 29.000
62.38072 27.000
62.40067 26.000
62.42062 20.000
62.44056 31.000
62.46051 25.000
62.48046 33.000
62.50040 38.000
62.52035 31.000
62.54030 32.000
62.56024 43.000
62.58019 31.000
62.60014 45.000
62.62009 31.000
62.64003 29.000
62.65998 37.000
62.67993 46.000
62.69987 43.000
62.71982 54.000
62.73977 44.000
62.75971 43.000
62.77966 46.000
62.79961 57.000
62.81955 56.000
62.83950 50.000
62.85945 58.000
62.87940 75.000
62.89934 66.000
62.91929 62.000
62.93924 75.000
62.95918 98.000
62.97913 89.000
62.99908 87.000
63.01902 93.000
63.03897 103.000
63.05892 108.000
63.07887 98.000
63.09881 106.000
63.11876 83.000
63.13871 111.000
63.15865 92.000
63.17860 109.000
63.19855 98.000
63.21849 123.000
63.23844 100.000
63.25839 97.000
63.27833 115.000
63.29828 111.000
63.31823 120.000
63.33818 121.000
63.35812 139.000
63.37807 131.000
63.39802 141.000
63.41796 129.000
63.43791 144.000
63.45786 158.000
63.47780 195.000
63.49775 174.000
63.51770 222.000
63.53765 198.000
63.55759 194.000
63.57754 200.000
63.59749 224.000
63.61743 234.000
63.63738 229.000
63.65733 238.000
63.67727 253.000
63.69722 221.000
63.71717 219.000
63.73712 243.000
63.75706 195.000
63.77701 196.000
63.79696 169.000
63.81690 181.000
63.83685 165.000
63.85680 149.000
63.87674 145.000
63.89669 140.000
63.91664 114.000
63.93658 105.000
63.95653 91.000
63.97648 92.000
63.99643 83.000
64.01637 67.000
64.03632 67.000
64.05627 58.000
64.07621 59.000
64.09616 57.000
64.11611 56.000
64.13605 49.000
64.15600 48.000
64.17595 44.000
64.19590 43.000
64.21584 36.000
64.23579 39.000
64.25574 34.000
64.27568 46.000
64.29563 36.000
64.31558 35.000
64.33552 28.000
64.35547 38.000
64.37542 31.000
64.39536 28.000
64.41531 34.000
64.43526 33.000
64.45521 31.000
64.47515 27.000
64.49510 36.000
64.51505 38.000
64.53499 27.000
64.55494 25.000
64.57489 27.000
64.59483 26.000
64.61478 22.000
64.63473 28.000
64.65468 22.000
64.67462 34.000
64.69457 26.000
64.71452 30.000
64.73446 30.000
64.75441 24.000
64.77436 18.000
64.79430 23.000
64.81425 31.000
64.83420 23.000
64.85414 23.000
64.87409 21.000
64.89404 18.000
64.91399 24.000
64.93393 23.000
64.95388 32.000
64.97383 27.000
64.99377 22.000
65.01372 25.000
65.03367 25.000
65.05361 31.000
65.07356 29.000
65.09351 29.000
65.11346 39.000
65.13340 33.000
65.15335 30.000
65.17330 44.000
65.19324 54.000
65.21319 45.000
65.23314 47.000
65.25308 36.000
65.27303 41.000
65.29298 52.000
65.31293 56.000
65.33287 54.000
65.35282 48.000
65.37277 69.000
65.39271 52.000
65.41266 70.000
65.43261 78.000
65.45255 102.000
65.47250 69.000
65.49245 86.000
65.51239 84.000
65.53234 89.000
65.55229 89.000
65.57224 87.000
65.59218 84.000
65.61213 95.000
65.63208 90.000
65.65202 91.000
65.67197 88.000
65.69192 91.000
65.71186 104.000
65.73181 103.000
65.75176 112.000
65.77171 116.000
65.79165 129.000
65.81160 131.000
65.83155 131.000
65.85149 135.000
65.87144 147.000
65.89139 167.000
65.91133 152.000
65.93128 168.000
65.95123 182.000
65.97117 180.000
65.99112 190.000
66.01107 190.000
66.03102 185.000
66.05096 207.000
66.07091 196.000
66.09086 217.000
66.11080 195.000
66.13075 203.000
66.15070 188.000
66.17064 179.000
66.19059 169.000
66.21054 192.000
66.23049 193.000
66.25043 143.000
66.27038 171.000
66.29033 188.000
66.31027 175.000
66.33022 156.000
66.35017 172.000
66.37011 167.000
66.39006 171.000
66.41001 118.000
66.42995 127.000
66.44990 136.000
66.46985 122.000
66.48980 133.000
66.50974 127.000
66.52969 89.000
66.54964 101.000
66.56958 109.000
66.58953 98.000
66.60948 83.000
66.62942 84.000
66.64937 75.000
66.66932 73.000
66.68927 54.000
66.70921 57.000
66.72916 54.000
66.74911 62.000
66.76905 51.000
66.78900 47.000
66.80895 54.000
66.82889 53.000
66.84884 49.000
66.86879 52.000
66.88874 52.000
66.90868 57.000
66.92863 42.000
66.94858 44.000
66.96852 57.000
66.98847 50.000
67.00842 45.000
67.02836 54.000
67.04831 51.000
67.06826 58.000
67.08820 52.000
67.10815 45.000
67.12810 56.000
67.14805 63.000
67.16799 56.000
67.18794 61.000
67.20789 54.000
67.22783 60.000
67.24778 47.000
67.26773 53.000
67.28767 65.000
67.30762 46.000
67.32757 53.000
67.34752 55.000
67.36746 44.000
67.38741 44.000
67.40736 50.000
67.42730 52.000
67.44725 51.000
67.46720 39.000
67.48714 40.000
67.50709 34.000
67.52704 34.000
67.54698 42.000
67.56693 34.000
67.58688 26.000
67.60683 32.000
67.62677 34.000
67.64672 25.000
67.66667 36.000
67.68661 28.000
67.70656 26.000
67.72651 37.000
67.74645 25.000
67.76640 25.000
67.78635 31.000
67.80630 21.000
67.82624 19.000
67.84619 26.000
67.86614 29.000
67.88608 22.000
67.90603 30.000
67.92598 27.000
67.94592 24.000
67.96587 21.000
67.98582 24.000
68.00576 16.000
68.02571 23.000
68.04566 16.000
68.06561 22.000
68.08555 28.000
68.10550 17.000
68.12545 22.000
68.14539 13.000
68.16534 23.000
68.18529 20.000
68.20523 23.000
68.22518 24.000
68.24513 23.000
68.26508 19.000
68.28502 22.000
68.30497 18.000
68.32492 24.000
68.34486 17.000
68.36481 17.000
68.38476 22.000
68.40470 14.000
68.42465 26.000
68.44460 23.000
68.46455 12.000
68.48449 19.000
68.50444 15.000
68.52439 21.000
68.54433 22.000
68.56428 16.000
68.58423 20.000
68.60417 15.000
68.62412 15.000
68.64407 21.000
68.66401 18.000
68.68396 14.000
68.70391 14.000
68.72386 20.000
68.74380 11.000
68.76375 17.000
68.78370 26.000
68.80364 12.000
68.82359 16.000
68.84354 20.000
68.86348 16.000
68.88343 16.000
68.90338 24.000
68.92333 17.000
68.94327 20.000
68.96322 15.000
68.98317 19.000
69.00311 17.000
69.02306 20.000
69.04301 16.000
69.06295 21.000
69.08290 21.000
69.10285 13.000
69.12279 19.000
69.14274 24.000
69.16269 25.000
69.18264 11.000
69.20258 19.000
69.22253 11.000
69.24248 16.000
69.26242 17.000
69.28237 13.000
69.30232 18.000
69.32226 16.000
69.34221 19.000
69.36216 19.000
69.38211 11.000
69.40205 13.000
69.42200 16.000
69.44195 12.000
69.46189 15.000
69.48184 20.000
69.50179 10.000
69.52173 18.000
69.54168 16.000
69.56163 22.000
69.58157 11.000
69.60152 15.000
69.62147 16.000
69.64142 21.000
69.66136 19.000
69.68131 15.000
69.70126 14.000
69.72120 13.000
69.74115 14.000
69.76110 12.000
69.78104 24.000
69.80099 16.000
69.82094 15.000
69.84089 20.000
69.86083 19.000
69.88078 18.000
69.90073 22.000
69.92067 16.000
69.94062 13.000
69.96057 10.000
69.98051 26.000
70.00046 18.000
70.02041 14.000
70.04035 18.000
70.06030 21.000
70.08025 16.000
70.10020 16.000
70.12014 16.000
70.14009 10.000
70.16004 15.000
70.17998 17.000
70.19993 12.000
70.21988 23.000
70.23982 12.000
70.25977 17.000
70.27972 17.000
70.29967 12.000
70.31961 22.000
70.33956 18.000
70.35951 15.000
70.37945 23.000
70.39940 19.000
70.41935 14.000
70.43929 21.000
70.45924 15.000
70.47919 15.000
70.49914 18.000
70.51908 10.000
70.53903 12.000
70.55898 11.000
70.57892 18.000
70.59887 13.000
70.61882 16.000
70.63876 10.000
70.65871 25.000
70.67866 15.000
70.69860 18.000
70.71855 11.000
70.73850 23.000
70.75845 23.000
70.77839 14.000
70.79834 21.000
70.81829 25.000
70.83823 13.000
70.85818 22.000
70.87813 14.000
70.89807 23.000
70.91802 22.000
70.93797 18.000
70.95792 11.000
70.97786 14.000
70.99781 17.000
71.01776 11.000
71.03770 17.000
71.05765 16.000
71.07760 16.000
71.09754 15.000
71.11749 24.000
71.13744 19.000
71.15738 17.000
71.17733 14.000
71.19728 16.000
71.21723 21.000
71.23717 16.000
71.25712 20.000
71.27707 18.000
71.29701 16.000
71.31696 19.000
71.33691 17.000
71.35685 26.000
71.37680 24.000
71.39675 22.000
71.41670 29.000
71.43664 21.000
71.45659 25.000
71.47654 26.000
71.49648 23.000
71.51643 27.000
71.53638 25.000
71.55632 25.000
71.57627 41.000
71.59622 25.000
71.61616 35.000
71.63611 32.000
71.65606 33.000
71.67601 41.000
71.69595 51.000
71.71590 29.000
71.73585 31.000
71.75579 40.000
71.77574 41.000
71.79569 31.000
71.81563 39.000
71.83558 45.000
71.85553 41.000
71.87548 45.000
71.89542 39.000
71.91537 34.000
71.93532 31.000
71.95526 39.000
71.97521 43.000
71.99516 35.000
72.01510 32.000
72.03505 34.000
72.05500 28.000
72.07495 35.000
72.09489 29.000
72.11484 37.000
72.13479 15.000
72.15473 36.000
72.17468 33.000
72.19463 42.000
72.21457 25.000
72.23452 34.000
72.25447 34.000
72.27441 34.000
72.29436 44.000
72.31431 33.000
72.33426 38.000
72.35420 46.000
72.37415 47.000
72.39410 43.000
72.41404 50.000
72.43399 51.000
72.45394 49.000
72.47388 76.000
72.49383 63.000
72.51378 65.000
72.53373 66.000
72.55367 58.000
72.57362 81.000
72.59357 86.000
72.61351 71.000
72.63346 81.000
72.65341 103.000
72.67335 88.000
72.69330 94.000
72.71325 81.000
72.73319 90.000
72.75314 109.000
72.77309 102.000
72.79304 116.000
72.81298 120.000
72.83293 94.000
72.85288 107.000
72.87282 122.000
72.89277 113.000
72.91272 94.000
72.93266 82.000
72.95261 74.000
72.97256 86.000
72.99251 99.000
73.01245 99.000
73.03240 85.000
73.05235 73.000
73.07229 73.000
73.09224 62.000
73.11219 66.000
73.13213 63.000
73.15208 68.000
73.17203 65.000
73.19197 50.000
73.21192 50.000
73.23187 40.000
73.25182 34.000
73.27176 41.000
73.29171 33.000
73.31166 31.000
73.33160 36.000
73.35155 36.000
73.37150 28.000
73.39144 24.000
73.41139 36.000
73.43134 31.000
73.45129 23.000
73.47123 21.000
73.49118 30.000
73.51113 21.000
73.53107 20.000
73.55102 25.000
73.57097 20.000
73.59091 25.000
73.61086 19.000
73.63081 15.000
73.65076 14.000
73.67070 25.000
73.69065 10.000
73.71060 21.000
73.73054 15.000
73.75049 18.000
73.77044 20.000
73.79038 18.000
73.81033 23.000
73.83028 23.000
73.85022 13.000
73.87017 25.000
73.89012 28.000
73.91007 17.000
73.93001 18.000
73.94996 13.000
73.96991 13.000
73.98985 22.000
74.00980 21.000
74.02975 16.000
74.04969 16.000
74.06964 16.000
74.08959 16.000
74.10954 17.000
74.12948 14.000
74.14943 20.000
74.16938 18.000
74.18932 13.000
74.20927 19.000
74.22922 16.000
74.24916 23.000
74.26911 9.000
74.28906 18.000
74.30900 17.000
74.32895 24.000
74.34890 16.000
74.36885 21.000
74.38879 13.000
74.40874 23.000
74.42869 23.000
74.44863 21.000
74.46858 22.000
74.48853 20.000
74.50847 22.000
74.52842 22.000
74.54837 32.000
74.56832 21.000
74.58826 18.000
74.60821 18.000
74.62816 33.000
74.64810 17.000
74.66805 22.000
74.68800 31.000
74.70794 21.000
74.72789 28.000
74.74784 40.000
74.76778 23.000
74.78773 20.000
74.80768 23.000
74.82763 28.000
74.84757 28.000
74.86752 24.000
74.88747 28.000
74.90741 25.000
74.92736 31.000
74.94731 38.000
74.96725 31.000
74.98720 26.000
75.00715 35.000
75.02710 33.000
75.04704 31.000
75.06699 35.000
75.08694 30.000
75.10688 52.000
75.12683 38.000
75.14678 30.000
75.16672 36.000
75.18667 37.000
75.20662 50.000
75.22657 45.000
75.24651 32.000
75.26646 28.000
75.28641 37.000
75.30635 45.000
75.32630 33.000
75.34625 45.000
75.36619 37.000
75.38614 28.000
75.40609 51.000
75.42603 31.000
75.44598 41.000
75.46593 44.000
75.48588 36.000
75.50582 27.000
75.52577 24.000
75.54572 26.000
75.56566 35.000
75.58561 35.000
75.60556 45.000
75.62550 31.000
75.64545 41.000
75.66540 32.000
75.68535 31.000
75.70529 30.000
75.72524 41.000
75.74519 31.000
75.76513 31.000
75.78508 41.000
75.80503 32.000
75.82497 40.000
75.84492 34.000
75.86487 40.000
75.88481 39.000
75.90476 39.000
75.92471 36.000
75.94466 42.000
75.96460 33.000
75.98455 33.000
76.00450 48.000
76.02444 41.000
76.04439 49.000
76.06434 41.000
76.08428 51.000
76.10423 48.000
76.12418 41.000
76.14413 40.000
76.16407 50.000
76.18402 49.000
76.20397 46.000
76.22391 40.000
76.24386 35.000
76.26381 43.000
76.28375 26.000
76.30370 45.000
76.32365 40.000
76.34359 34.000
76.36354 28.000
76.38349 30.000
76.40344 30.000
76.42338 31.000
76.44333 21.000
76.46328 22.000
76.48322 18.000
76.50317 12.000
76.52312 24.000
76.54306 20.000
76.56301 15.000
76.58296 20.000
76.60291 15.000
76.62285 19.000
76.64280 22.000
76.66275 15.000
76.68269 15.000
76.70264 16.000
76.72259 16.000
76.74253 28.000
76.76248 14.000
76.78243 21.000
76.80238 20.000
76.82232 16.000
76.84227 23.000
76.86222 13.000
76.88216 16.000
76.90211 26.000
76.92206 24.000
76.94200 12.000
76.96195 27.000
76.98190 15.000
77.00184 24.000
77.02179 17.000
77.04174 20.000
77.06169 19.000
77.08163 24.000
77.10158 20.000
77.12153 23.000
77.14147 26.000
77.16142 36.000
77.18137 27.000
77.20131 23.000
77.22126 34.000
77.24121 32.000
77.26116 25.000
77.28110 31.000
77.30105 28.000
77.32100 39.000
77.34094 29.000
77.36089 36.000
77.38084 38.000
77.40078 39.000
77.42073 40.000
77.44068 31.000
77.46062 28.000
77.48057 28.000
77.50052 33.000
77.52047 24.000
77.54041 24.000
77.56036 30.000
77.58031 22.000
77.60025 24.000
77.62020 32.000
77.64015 22.000
77.66009 25.000
77.68004 22.000
77.69999 19.000
77.71994 27.000
77.73988 21.000
77.75983 29.000
77.77978 16.000
77.79972 23.000
77.81967 16.000
77.83962 16.000
77.85956 22.000
77.87951 22.000
77.89946 20.000
77.91940 30.000
77.93935 15.000
77.95930 21.000
77.97925 18.000
77.99919 23.000
78.01914 22.000
78.03909 27.000
78.05903 20.000
78.07898 24.000
78.09893 32.000
78.11887 31.000
78.13882 29.000
78.15877 29.000
78.17872 29.000
78.19866 42.000
78.21861 30.000
78.23856 40.000
78.25850 29.000
78.27845 29.000
78.29840 38.000
78.31834 37.000
78.33829 49.000
78.35824 41.000
78.37819 48.000
78.39813 28.000
78.41808 33.000
78.43803 44.000
78.45797 36.000
78.47792 27.000
78.49787 57.000
78.51781 21.000
78.53776 45.000
78.55771 45.000
78.57765 42.000
78.59760 36.000
78.61755 40.000
78.63750 34.000
78.65744 44.000
78.67739 32.000
78.69734 37.000
78.71728 34.000
78.73723 42.000
78.75718 27.000
78.77712 33.000
78.79707 31.000
78.81702 30.000
78.83697 34.000
78.85691 30.000
78.87686 20.000
78.89681 27.000
78.91675 32.000
78.93670 27.000
78.95665 27.000
78.97659 24.000
78.99654 26.000
79.01649 23.000
79.03643 19.000
79.05638 24.000
79.07633 26.000
79.09628 30.000
79.11622 41.000
79.13617 27.000
79.15612 27.000
79.17606 22.000
79.19601 21.000
79.21596 23.000
79.23590 17.000
79.25585 17.000
79.27580 16.000
79.29575 24.000
79.31569 17.000
79.33564 18.000
79.35559 23.000
79.37553 18.000
79.39548 31.000
79.41543 14.000
79.43537 17.000
79.45532 23.000
79.47527 11.000
79.49521 12.000
79.51516 18.000
79.53511 16.000
79.55506 20.000
79.57500 20.000
79.59495 14.000
79.61490 20.000
79.63484 24.000
79.65479 17.000
79.67474 16.000
79.69468 16.000
79.71463 19.000
79.73458 19.000
79.75453 17.000
79.77447 9.000
79.79442 19.000
79.81437 22.000
79.83431 22.000
79.85426 21.000
79.87421 20.000
79.89415 23.000
79.91410 13.000
79.93405 17.000
79.95399 16.000
79.97394 17.000
79.99389 17.000
80.01384 22.000
80.03378 18.000
80.05373 31.000
80.07368 23.000
80.09362 17.000
80.11357 24.000
80.13352 20.000
80.15346 22.000
80.17341 14.000
80.19336 28.000
80.21331 22.000
80.23325 17.000
80.25320 18.000
80.27315 25.000
80.29309 17.000
80.31304 28.000
80.33299 10.000
80.35293 15.000
80.37288 22.000
80.39283 11.000
80.41278 24.000
80.43272 18.000
80.45267 25.000
80.47262 27.000
80.49256 24.000
80.51251 17.000
80.53246 28.000
80.55240 26.000
80.57235 35.000
80.59230 14.000
80.61224 19.000
80.63219 30.000
80.65214 36.000
80.67209 24.000
80.69203 24.000
80.71198 28.000
80.73193 24.000
80.75187 24.000
80.77182 22.000
80.79177 25.000
80.81171 35.000
80.83166 29.000
80.85161 38.000
80.87156 39.000
80.89150 40.000
80.91145 38.000
80.93140 42.000
80.95134 46.000
80.97129 61.000
80.99124 52.000
81.01118 53.000
81.03113 43.000
81.05108 40.000
81.07102 59.000
81.09097 62.000
81.11092 43.000
81.13087 46.000
81.15081 46.000
81.17076 56.000
81.19071 52.000
81.21065 52.000
81.23060 44.000
81.25055 59.000
81.27049 45.000
81.29044 47.000
81.31039 51.000
81.33034 35.000
81.35028 50.000
81.37023 36.000
81.39018 35.000
81.41012 34.000
81.43007 41.000
81.45002 26.000
81.46996 34.000
81.48991 36.000
81.50986 28.000
81.52980 31.000
81.54975 40.000
81.56970 22.000
81.58965 28.000
81.60959 23.000
81.62954 26.000
81.64949 16.000
81.66943 15.000
81.68938 13.000
81.70933 18.000
81.72927 17.000
81.74922 11.000
81.76917 15.000
81.78912 24.000
81.80906 13.000
81.82901 25.000
81.84896 20.000
81.86890 19.000
81.88885 17.000
81.90880 18.000
81.92874 16.000
81.94869 16.000
81.96864 18.000
81.98859 17.000
82.00853 21.000
82.02848 10.000
82.04843 11.000
82.06837 9.000
82.08832 18.000
82.10827 23.000
82.12821 12.000
82.14816 20.000
82.16811 11.000
82.18805 18.000
82.20800 12.000
82.22795 17.000
82.24790 9.000
82.26784 10.000
82.28779 13.000
82.30774 10.000
82.32768 16.000
82.34763 10.000
82.36758 17.000
82.38752 12.000
82.40747 13.000
82.42742 17.000
82.44737 10.000
82.46731 18.000
82.48726 20.000
82.50721 11.000
82.52715 22.000
82.54710 9.000
82.56705 15.000
82.58699 21.000
82.60694 21.000
82.62689 17.000
82.64683 12.000
82.66678 13.000
82.68673 19.000
82.70668 16.000
82.72662 25.000
82.74657 12.000
82.76652 14.000
82.78646 17.000
82.80641 18.000
82.82636 22.000
82.84630 15.000
82.86625 11.000
82.88620 13.000
82.90615 17.000
82.92609 19.000
82.94604 12.000
82.96599 17.000
82.98593 23.000
83.00588 21.000
83.02583 22.000
83.04577 25.000
83.06572 15.000
83.08567 21.000
83.10561 33.000
83.12556 28.000
83.14551 24.000
83.16546 25.000
83.18540 24.000
83.20535 29.000
83.22530 26.000
83.24524 42.000
83.26519 33.000
83.28514 41.000
83.30508 48.000
83.32503 39.000
83.34498 48.000
83.36493 47.000
83.38487 51.000
83.40482 41.000
83.42477 31.000
83.44471 51.000
83.46466 46.000
83.48461 48.000
83.50455 39.000
83.52450 43.000
83.54445 49.000
83.56440 53.000
83.58434 67.000
83.60429 60.000
83.62424 68.000
83.64418 60.000
83.66413 53.000
83.68408 57.000
83.70402 65.000
83.72397 42.000
83.74392 50.000
83.76386 41.000
83.78381 41.000
83.80376 46.000
83.82371 44.000
83.84365 53.000
83.86360 52.000
83.88355 58.000
83.90349 52.000
83.92344 40.000
83.94339 44.000
83.96333 37.000
83.98328 43.000
84.00323 40.000
84.02318 30.000
84.04312 21.000
84.06307 26.000
84.08302 42.000
84.10296 38.000
84.12291 26.000
84.14286 33.000
84.16280 38.000
84.18275 38.000
84.20270 25.000
84.22264 29.000
84.24259 25.000
84.26254 31.000
84.28249 23.000
84.30243 24.000
84.32238 22.000
84.34233 16.000
84.36227 25.000
84.38222 22.000
84.40217 14.000
84.42211 19.000
84.44206 21.000
84.46201 18.000
84.48196 24.000
84.50190 12.000
84.52185 9.000
84.54180 21.000
84.56174 21.000
84.58169 18.000
84.60164 14.000
84.62158 13.000
84.64153 15.000
84.66148 11.000
84.68142 16.000
84.70137 20.000
84.72132 8.000
84.74127 12.000
84.76121 20.000
84.78116 21.000
84.80111 17.000
84.82105 18.000
84.84100 18.000
84.86095 21.000
84.88089 11.000
84.90084 17.000
84.92079 23.000
84.94074 23.000
84.96068 10.000
84.98063 16.000
85.00058 9.000
85.02052 12.000
85.04047 14.000
85.06042 7.000
85.08036 13.000
85.10031 19.000
85.12026 19.000
85.14021 16.000
85.16015 13.000
85.18010 12.000
85.20005 19.000
85.21999 20.000
85.23994 20.000
85.25989 11.000
85.27983 11.000
85.29978 16.000
85.31973 14.000
85.33967 10.000
85.35962 16.000
85.37957 23.000
85.39952 13.000
85.41946 17.000
85.43941 22.000
85.45936 17.000
85.47930 20.000
85.49925 21.000
85.51920 8.000
85.53914 15.000
85.55909 18.000
85.57904 17.000
85.59899 13.000
85.61893 11.000
85.63888 15.000
85.65883 7.000
85.67877 18.000
85.69872 13.000
85.71867 17.000
85.73861 14.000
85.75856 23.000
85.77851 17.000
85.79845 15.000
85.81840 19.000
85.83835 14.000
85.85830 20.000
85.87824 17.000
85.89819 7.000
85.91814 20.000
85.93808 14.000
85.95803 27.000
85.97798 22.000
85.99792 16.000
86.01787 24.000
86.03782 19.000
86.05777 20.000
86.07771 32.000
86.09766 21.000
86.11761 18.000
86.13755 22.000
86.15750 25.000
86.17745 25.000
86.19739 23.000
86.21734 19.000
86.23729 27.000
86.25723 29.000
86.27718 27.000
86.29713 20.000
86.31708 27.000
86.33702 25.000
86.35697 33.000
86.37692 28.000
86.39686 28.000
86.41681 43.000
86.43676 39.000
86.45670 42.000
86.47665 36.000
86.49660 31.000
86.51655 40.000
86.53649 35.000
86.55644 35.000
86.57639 36.000
86.59633 34.000
86.61628 34.000
86.63623 44.000
86.65617 51.000
86.67612 39.000
86.69607 37.000
86.71602 38.000
86.73596 39.000
86.75591 42.000
86.77586 52.000
86.79580 43.000
86.81575 36.000
86.83570 46.000
86.85564 46.000
86.87559 36.000
86.89554 30.000
86.91548 43.000
86.93543 49.000
86.95538 38.000
86.97533 43.000
86.99527 42.000
87.01522 44.000
87.03517 43.000
87.05511 29.000
87.07506 32.000
87.09501 35.000
87.11495 29.000
87.13490 30.000
87.15485 32.000
87.17480 39.000
87.19474 32.000
87.21469 23.000
87.23464 24.000
87.25458 31.000
87.27453 30.000
87.29448 24.000
87.31442 27.000
87.33437 16.000
87.35432 20.000
87.37426 27.000
87.39421 19.000
87.41416 24.000
87.43411 20.000
87.45405 19.000
87.47400 15.000
87.49395 14.000
87.51389 21.000
87.53384 17.000
87.55379 12.000
87.57373 14.000
87.59368 18.000
87.61363 20.000
87.63358 17.000
87.65352 12.000
87.67347 21.000
87.69342 21.000
87.71336 21.000
87.73331 19.000
87.75326 17.000
87.77320 17.000
87.79315 17.000
87.81310 16.000
87.83304 17.000
87.85299 15.000
87.87294 11.000
87.89289 15.000
87.91283 15.000
87.93278 12.000
87.95273 9.000
87.97267 25.000
87.99262 10.000
88.01257 15.000
88.03251 13.000
88.05246 15.000
88.07241 10.000
88.09236 11.000
88.11230 15.000
88.13225 14.000
88.15220 24.000
88.17214 14.000
88.19209 14.000
88.21204 21.000
88.23198 16.000
88.25193 17.000
88.27188 12.000
88.29183 9.000
88.31177 11.000
88.33172 12.000
88.35167 16.000
88.37161 25.000
88.39156 22.000
88.41151 14.000
88.43145 18.000
88.45140 14.000
88.47135 14.000
88.49129 17.000
88.51124 15.000
88.53119 12.000
88.55114 12.000
88.57108 19.000
88.59103 13.000
88.61098 14.000
88.63092 19.000
88.65087 15.000
88.67082 12.000
88.69076 9.000
88.71071 17.000
88.73066 9.000
88.75061 17.000
88.77055 14.000
88.79050 12.000
88.81045 6.000
88.83039 18.000
88.85034 9.000
88.87029 14.000
88.89023 12.000
88.91018 16.000
88.93013 19.000
88.95007 10.000
88.97002 14.000
88.98997 12.000
89.00992 13.000
89.02986 15.000
89.04981 15.000
89.06976 14.000
89.08970 12.000
89.10965 12.000
89.12960 17.000
89.14954 12.000
89.16949 18.000
89.18944 15.000
89.20939 15.000
89.22933 11.000
89.24928 16.000
89.26923 16.000
89.28917 21.000
89.30912 15.000
89.32907 12.000
89.34901 16.000
89.36896 21.000
89.38891 17.000
89.40885 14.000
89.42880 13.000
89.44875 19.000
89.46870 16.000
89.48864 12.000
89.50859 18.000
89.52854 21.000
89.54848 15.000
89.56843 17.000
89.58838 22.000
89.60832 13.000
89.62827 17.000
89.64822 11.000
89.66817 18.000
89.68811 11.000
89.70806 21.000
89.72801 20.000
89.74795 16.000
89.76790 19.000
89.78785 23.000
89.80779 17.000
89.82774 25.000
89.84769 18.000
89.86764 20.000
89.88758 18.000
89.90753 23.000
89.92748 14.000
89.94742 21.000
89.96737 17.000
89.98732 22.000
90.00726 21.000
