10.00000 257.000
10.01995 279.000
10.03989 271.000
10.05984 276.000
10.07979 281.000
10.09973 269.000
10.11968 269.000
10.13963 288.000
10.15958 278.000
10.17952 262.000
10.19947 274.000
10.21942 275.000
10.23936 301.000
10.25931 282.000
10.27926 258.000
10.29920 267.000
10.31915 252.000
10.33910 278.000
10.35905 268.000
10.37899 264.000
10.39894 264.000
10.41889 258.000
10.43883 291.000
10.45878 245.000
10.47873 259.000
10.49867 302.000
10.51862 276.000
10.53857 275.000
10.55851 240.000
10.57846 265.000
10.59841 260.000
10.61836 275.000
10.63830 262.000
10.65825 274.000
10.67820 276.000
10.69814 265.000
10.71809 270.000
10.73804 249.000
10.75798 263.000
10.77793 283.000
10.79788 271.000
10.81783 265.000
10.83777 281.000
10.85772 292.000
10.87767 292.000
10.89761 275.000
10.91756 301.000
10.93751 302.000
10.95745 247.000
10.97740 279.000
10.99735 291.000
11.01730 278.000
11.03724 269.000
11.05719 259.000
11.07714 284.000
11.09708 267.000
11.11703 256.000
11.13698 257.000
11.15692 275.000
11.17687 275.000
11.19682 299.000
11.21676 280.000
11.23671 296.000
11.25666 270.000
11.27661 273.000
11.29655 279.000
11.31650 287.000
11.33645 233.000
11.35639 272.000
11.37634 289.000
11.39629 292.000
11.41623 283.000
11.43618 298.000
11.45613 276.000
11.47608 287.000
11.49602 253.000
11.51597 280.000
11.53592 252.000
11.55586 285.000
11.57581 306.000
11.59576 287.000
11.61570 274.000
11.63565 273.000
11.65560 278.000
11.67554 279.000
11.69549 276.000
11.71544 295.000
11.73539 259.000
11.75533 297.000
11.77528 298.000
11.79523 278.000
11.81517 267.000
11.83512 283.000
11.85507 258.000
11.87501 283.000
11.89496 283.000
11.91491 261.000
11.93486 258.000
11.95480 283.000
11.97475 290.000
11.99470 273.000
12.01464 312.000
12.03459 288.000
12.05454 236.000
12.07448 270.000
12.09443 263.000
12.11438 279.000
12.13432 274.000
12.15427 265.000
12.17422 254.000
12.19417 254.000
12.21411 284.000
12.23406 270.000
12.25401 245.000
12.27395 270.000
12.29390 287.000
12.31385 286.000
12.33379 290.000
12.35374 265.000
12.37369 284.000
12.39364 274.000
12.41358 277.000
12.43353 246.000
12.45348 283.000
12.47342 304.000
12.49337 273.000
12.51332 265.000
12.53326 273.000
12.55321 288.000
12.57316 260.000
12.59311 285.000
12.61305 282.000
12.63300 308.000
12.65295 295.000
12.67289 260.000
12.69284 280.000
12.71279 277.000
12.73273 256.000
12.75268 288.000
12.77263 289.000
12.79257 272.000
12.81252 254.000
12.83247 264.000
12.85242 298.000
12.87236 271.000
12.89231 270.000
12.91226 279.000
12.93220 289.000
12.95215 254.000
12.97210 290.000
12.99204 291.000
13.01199 280.000
13.03194 269.000
13.05189 290.000
13.07183 272.000
13.09178 279.000
13.11173 281.000
13.13167 264.000
13.15162 261.000
13.17157 298.000
13.19151 252.000
13.21146 269.000
13.23141 270.000
13.25135 300.000
13.27130 270.000
13.29125 278.000
13.31120 258.000
13.33114 286.000
13.35109 250.000
13.37104 279.000
13.39098 270.000
13.41093 273.000
13.43088 286.000
13.45082 282.000
13.47077 275.000
13.49072 306.000
13.51067 262.000
13.53061 261.000
13.55056 274.000
13.57051 274.000
13.59045 278.000
13.61040 270.000
13.63035 289.000
13.65029 291.000
13.67024 286.000
13.69019 234.000
13.71013 310.000
13.73008 286.000
13.75003 291.000
13.76998 270.000
13.78992 267.000
13.80987 299.000
13.82982 309.000
13.84976 254.000
13.86971 266.000
13.88966 294.000
13.90960 268.000
13.92955 294.000
13.94950 249.000
13.96945 323.000
13.98939 302.000
14.00934 262.000
14.02929 302.000
14.04923 271.000
14.06918 289.000
14.08913 276.000
14.10907 306.000
14.12902 291.000
14.14897 282.000
14.16892 292.000
14.18886 280.000
14.20881 293.000
14.22876 291.000
14.24870 306.000
14.26865 277.000
14.28860 290.000
14.30854 278.000
14.32849 293.000
14.34844 277.000
14.36838 275.000
14.38833 322.000
14.40828 270.000
14.42823 301.000
14.44817 286.000
14.46812 260.000
14.48807 268.000
14.50801 288.000
14.52796 271.000
14.54791 286.000
14.56785 301.000
14.58780 265.000
14.60775 267.000
14.62770 315.000
14.64764 253.000
14.66759 246.000
14.68754 277.000
14.70748 287.000
14.72743 290.000
14.74738 262.000
14.76732 270.000
14.78727 288.000
14.80722 286.000
14.82716 287.000
14.84711 297.000
14.86706 309.000
14.88701 293.000
14.90695 290.000
14.92690 285.000
14.94685 300.000
14.96679 293.000
14.98674 288.000
15.00669 306.000
15.02663 289.000
15.04658 322.000
15.06653 311.000
15.08648 320.000
15.10642 336.000
15.12637 317.000
15.14632 295.000
15.16626 319.000
15.18621 309.000
15.20616 291.000
15.22610 314.000
15.24605 307.000
15.26600 313.000
15.28594 282.000
15.30589 319.000
15.32584 366.000
15.34579 343.000
15.36573 329.000
15.38568 352.000
15.40563 356.000
15.42557 334.000
15.44552 352.000
15.46547 358.000
15.48541 338.000
15.50536 391.000
15.52531 397.000
15.54526 380.000
15.56520 445.000
15.58515 433.000
15.60510 489.000
15.62504 585.000
15.64499 615.000
15.66494 728.000
15.68488 932.000
15.70483 1357.000
15.72478 1909.000
15.74472 2748.000
15.76467 4172.000
15.78462 5791.000
15.80457 6291.000
15.82451 5418.000
15.84446 3664.000
15.86441 2295.000
15.88435 1195.000
15.90430 748.000
15.92425 545.000
15.94419 498.000
15.96414 422.000
15.98409 451.000
16.00404 419.000
16.02398 404.000
16.04393 394.000
16.06388 357.000
16.08382 358.000
16.10377 345.000
16.12372 317.000
16.14366 320.000
16.16361 321.000
16.18356 338.000
16.20351 317.000
16.22345 344.000
16.24340 342.000
16.26335 315.000
16.28329 326.000
16.30324 310.000
16.32319 301.000
16.34313 315.000
16.36308 281.000
16.38303 304.000
16.40297 316.000
16.42292 339.000
16.44287 309.000
16.46282 309.000
16.48276 286.000
16.50271 313.000
16.52266 316.000
16.54260 317.000
16.56255 296.000
16.58250 284.000
16.60244 301.000
16.62239 322.000
16.64234 298.000
16.66229 272.000
16.68223 286.000
16.70218 289.000
16.72213 301.000
16.74207 301.000
16.76202 288.000
16.78197 267.000
16.80191 310.000
16.82186 266.000
16.84181 269.000
16.86175 302.000
16.88170 313.000
16.90165 321.000
16.92160 297.000
16.94154 258.000
16.96149 260.000
16.98144 295.000
17.00138 281.000
17.02133 284.000
17.04128 289.000
17.06122 287.000
17.08117 324.000
17.10112 278.000
17.12107 281.000
17.14101 297.000
17.16096 303.000
17.18091 314.000
17.20085 282.000
17.22080 285.000
17.24075 297.000
17.26069 298.000
17.28064 286.000
17.30059 283.000
17.32053 292.000
17.34048 287.000
17.36043 325.000
17.38038 279.000
17.40032 280.000
17.42027 286.000
17.44022 283.000
17.46016 308.000
17.48011 296.000
17.50006 274.000
17.52000 304.000
17.53995 289.000
17.55990 268.000
17.57985 302.000
17.59979 265.000
17.61974 271.000
17.63969 330.000
17.65963 313.000
17.67958 247.000
17.69953 290.000
17.71947 308.000
17.73942 271.000
17.75937 292.000
17.77932 294.000
17.79926 293.000
17.81921 274.000
17.83916 283.000
17.85910 279.000
17.87905 301.000
17.89900 300.000
17.91894 290.000
17.93889 327.000
17.95884 306.000
17.97878 285.000
17.99873 301.000
18.01868 296.000
18.03863 282.000
18.05857 309.000
18.07852 290.000
18.09847 309.000
18.11841 287.000
18.13836 322.000
18.15831 271.000
18.17825 292.000
18.19820 295.000
18.21815 314.000
18.23810 285.000
18.25804 300.000
18.27799 311.000
18.29794 293.000
18.31788 294.000
18.33783 326.000
18.35778 334.000
18.37772 339.000
18.39767 358.000
18.41762 399.000
18.43756 419.000
18.45751 552.000
18.47746 620.000
18.49741 674.000
18.51735 696.000
18.53730 734.000
18.55725 618.000
18.57719 555.000
18.59714 481.000
18.61709 384.000
18.63703 351.000
18.65698 329.000
18.67693 313.000
18.69688 303.000
18.71682 297.000
18.73677 278.000
18.75672 343.000
18.77666 292.000
18.79661 287.000
18.81656 294.000
18.83650 306.000
18.85645 297.000
18.87640 279.000
18.89634 293.000
18.91629 288.000
18.93624 286.000
18.95619 311.000
18.97613 312.000
18.99608 280.000
19.01603 296.000
19.03597 356.000
19.05592 302.000
19.07587 318.000
19.09581 283.000
19.11576 290.000
19.13571 300.000
19.15566 272.000
19.17560 302.000
19.19555 304.000
19.21550 316.000
19.23544 284.000
19.25539 306.000
19.27534 259.000
19.29528 277.000
19.31523 322.000
19.33518 273.000
19.35513 322.000
19.37507 299.000
19.39502 305.000
19.41497 299.000
19.43491 291.000
19.45486 257.000
19.47481 322.000
19.49475 290.000
19.51470 304.000
19.53465 303.000
19.55459 284.000
19.57454 315.000
19.59449 307.000
19.61444 277.000
19.63438 317.000
19.65433 288.000
19.67428 278.000
19.69422 286.000
19.71417 314.000
19.73412 270.000
19.75406 318.000
19.77401 285.000
19.79396 283.000
19.81391 297.000
19.83385 283.000
19.85380 291.000
19.87375 296.000
19.89369 315.000
19.91364 289.000
19.93359 327.000
19.95353 285.000
19.97348 302.000
19.99343 287.000
20.01337 308.000
20.03332 288.000
20.05327 295.000
20.07322 291.000
20.09316 311.000
20.11311 304.000
20.13306 286.000
20.15300 286.000
20.17295 314.000
20.19290 312.000
20.21284 312.000
20.23279 282.000
20.25274 307.000
20.27269 279.000
20.29263 325.000
20.31258 313.000
20.33253 263.000
20.35247 308.000
20.37242 301.000
20.39237 282.000
20.41231 307.000
20.43226 286.000
20.45221 277.000
20.47215 294.000
20.49210 315.000
20.51205 302.000
20.53200 301.000
20.55194 267.000
20.57189 293.000
20.59184 301.000
20.61178 281.000
20.63173 305.000
20.65168 298.000
20.67162 328.000
20.69157 276.000
20.71152 288.000
20.73147 268.000
20.75141 292.000
20.77136 309.000
20.79131 297.000
20.81125 316.000
20.83120 314.000
20.85115 280.000
20.87109 317.000
20.89104 287.000
20.91099 283.000
20.93094 309.000
20.95088 305.000
20.97083 295.000
20.99078 295.000
21.01072 298.000
21.03067 309.000
21.05062 300.000
21.07056 327.000
21.09051 327.000
21.11046 314.000
21.13040 332.000
21.15035 282.000
21.17030 352.000
21.19025 322.000
21.21019 343.000
21.23014 303.000
21.25009 318.000
21.27003 303.000
21.28998 321.000
21.30993 299.000
21.32987 308.000
21.34982 324.000
21.36977 302.000
21.38972 277.000
21.40966 280.000
21.42961 312.000
21.44956 302.000
21.46950 328.000
21.48945 302.000
21.50940 297.000
21.52934 303.000
21.54929 287.000
21.56924 297.000
21.58918 296.000
21.60913 287.000
21.62908 281.000
21.64903 303.000
21.66897 277.000
21.68892 290.000
21.70887 290.000
21.72881 311.000
21.74876 311.000
21.76871 285.000
21.78865 298.000
21.80860 280.000
21.82855 289.000
21.84850 307.000
21.86844 316.000
21.88839 323.000
21.90834 331.000
21.92828 306.000
21.94823 300.000
21.96818 330.000
21.98812 329.000
22.00807 295.000
22.02802 322.000
22.04796 293.000
22.06791 277.000
22.08786 299.000
22.10781 300.000
22.12775 322.000
22.14770 252.000
22.16765 275.000
22.18759 302.000
22.20754 303.000
22.22749 301.000
22.24743 264.000
22.26738 261.000
22.28733 342.000
22.30728 271.000
22.32722 323.000
22.34717 286.000
22.36712 313.000
22.38706 297.000
22.40701 328.000
22.42696 313.000
22.44690 305.000
22.46685 320.000
22.48680 328.000
22.50675 320.000
22.52669 313.000
22.54664 312.000
22.56659 271.000
22.58653 281.000
22.60648 303.000
22.62643 289.000
22.64637 309.000
22.66632 287.000
22.68627 318.000
22.70621 322.000
22.72616 293.000
22.74611 311.000
22.76606 256.000
22.78600 281.000
22.80595 278.000
22.82590 310.000
22.84584 290.000
22.86579 306.000
22.88574 299.000
22.90568 327.000
22.92563 313.000
22.94558 303.000
22.96553 303.000
22.98547 311.000
23.00542 287.000
23.02537 315.000
23.04531 323.000
23.06526 330.000
23.08521 325.000
23.10515 305.000
23.12510 293.000
23.14505 334.000
23.16499 340.000
23.18494 281.000
23.20489 319.000
23.22484 300.000
23.24478 325.000
23.26473 311.000
23.28468 326.000
23.30462 289.000
23.32457 283.000
23.34452 288.000
23.36446 318.000
23.38441 293.000
23.40436 285.000
23.42431 272.000
23.44425 316.000
23.46420 311.000
23.48415 310.000
23.50409 265.000
23.52404 294.000
23.54399 329.000
23.56393 321.000
23.58388 304.000
23.60383 319.000
23.62377 286.000
23.64372 283.000
23.66367 301.000
23.68362 331.000
23.70356 317.000
23.72351 316.000
23.74346 296.000
23.76340 320.000
23.78335 315.000
23.80330 303.000
23.82324 304.000
23.84319 329.000
23.86314 314.000
23.88309 272.000
23.90303 316.000
23.92298 306.000
23.94293 320.000
23.96287 317.000
23.98282 308.000
24.00277 299.000
24.02271 300.000
24.04266 280.000
24.06261 296.000
24.08256 296.000
24.10250 328.000
24.12245 312.000
24.14240 286.000
24.16234 330.000
24.18229 320.000
24.20224 354.000
24.22218 301.000
24.24213 307.000
24.26208 315.000
24.28202 311.000
24.30197 309.000
24.32192 322.000
24.34187 295.000
24.36181 347.000
24.38176 299.000
24.40171 357.000
24.42165 315.000
24.44160 333.000
24.46155 318.000
24.48149 318.000
24.50144 324.000
24.52139 297.000
24.54134 310.000
24.56128 333.000
24.58123 294.000
24.60118 306.000
24.62112 321.000
24.64107 286.000
24.66102 328.000
24.68096 319.000
24.70091 316.000
24.72086 307.000
24.74080 318.000
24.76075 298.000
24.78070 327.000
24.80065 304.000
24.82059 332.000
24.84054 296.000
24.86049 276.000
24.88043 315.000
24.90038 306.000
24.92033 296.000
24.94027 314.000
24.96022 309.000
24.98017 317.000
25.00012 314.000
25.02006 302.000
25.04001 304.000
25.05996 301.000
25.07990 324.000
25.09985 305.000
25.11980 304.000
25.13974 337.000
25.15969 287.000
25.17964 338.000
25.19958 314.000
25.21953 316.000
25.23948 297.000
25.25943 303.000
25.27937 299.000
25.29932 294.000
25.31927 314.000
25.33921 290.000
25.35916 334.000
25.37911 298.000
25.39905 310.000
25.41900 303.000
25.43895 314.000
25.45890 315.000
25.47884 301.000
25.49879 324.000
25.51874 333.000
25.53868 316.000
25.55863 306.000
25.57858 298.000
25.59852 335.000
25.61847 322.000
25.63842 314.000
25.65837 307.000
25.67831 303.000
25.69826 352.000
25.71821 341.000
25.73815 303.000
25.75810 318.000
25.77805 295.000
25.79799 317.000
25.81794 327.000
25.83789 291.000
25.85783 327.000
25.87778 319.000
25.89773 322.000
25.91768 323.000
25.93762 339.000
25.95757 321.000
25.97752 317.000
25.99746 339.000
26.01741 303.000
26.03736 321.000
26.05730 339.000
26.07725 311.000
26.09720 337.000
26.11715 330.000
26.13709 333.000
26.15704 320.000
26.17699 345.000
26.19693 357.000
26.21688 380.000
26.23683 329.000
26.25677 314.000
26.27672 336.000
26.29667 330.000
26.31661 360.000
26.33656 317.000
26.35651 334.000
26.37646 333.000
26.39640 342.000
26.41635 321.000
26.43630 323.000
26.45624 340.000
26.47619 368.000
26.49614 322.000
26.51608 311.000
26.53603 333.000
26.55598 333.000
26.57593 374.000
26.59587 335.000
26.61582 355.000
26.63577 341.000
26.65571 339.000
26.67566 322.000
26.69561 323.000
26.71555 330.000
26.73550 296.000
26.75545 338.000
26.77539 293.000
26.79534 336.000
26.81529 344.000
26.83524 323.000
26.85518 353.000
26.87513 338.000
26.89508 328.000
26.91502 331.000
26.93497 319.000
26.95492 331.000
26.97486 314.000
26.99481 327.000
27.01476 320.000
27.03471 327.000
27.05465 313.000
27.07460 353.000
27.09455 345.000
27.11449 310.000
27.13444 359.000
27.15439 332.000
27.17433 340.000
27.19428 292.000
27.21423 334.000
27.23417 379.000
27.25412 351.000
27.27407 374.000
27.29402 338.000
27.31396 347.000
27.33391 348.000
27.35386 333.000
27.37380 322.000
27.39375 383.000
27.41370 319.000
27.43364 339.000
27.45359 322.000
27.47354 347.000
27.49349 326.000
27.51343 310.000
27.53338 336.000
27.55333 332.000
27.57327 305.000
27.59322 352.000
27.61317 342.000
27.63311 344.000
27.65306 317.000
27.67301 375.000
27.69296 323.000
27.71290 324.000
27.73285 332.000
27.75280 337.000
27.77274 319.000
27.79269 346.000
27.81264 326.000
27.83258 330.000
27.85253 332.000
27.87248 358.000
27.89242 305.000
27.91237 334.000
27.93232 316.000
27.95227 341.000
27.97221 328.000
27.99216 336.000
28.01211 345.000
28.03205 336.000
28.05200 374.000
28.07195 349.000
28.09189 347.000
28.11184 338.000
28.13179 351.000
28.15174 348.000
28.17168 336.000
28.19163 326.000
28.21158 393.000
28.23152 374.000
28.25147 333.000
28.27142 326.000
28.29136 332.000
28.31131 342.000
28.33126 355.000
28.35120 303.000
28.37115 321.000
28.39110 321.000
28.41105 310.000
28.43099 366.000
28.45094 372.000
28.47089 367.000
28.49083 387.000
28.51078 386.000
28.53073 340.000
28.55067 358.000
28.57062 335.000
28.59057 362.000
28.61052 310.000
28.63046 305.000
28.65041 394.000
28.67036 342.000
28.69030 320.000
28.71025 343.000
28.73020 338.000
28.75014 329.000
28.77009 362.000
28.79004 316.000
28.80998 308.000
28.82993 331.000
28.84988 342.000
28.86983 346.000
28.88977 377.000
28.90972 360.000
28.92967 330.000
28.94961 404.000
28.96956 314.000
28.98951 370.000
29.00945 320.000
29.02940 346.000
29.04935 364.000
29.06930 358.000
29.08924 330.000
29.10919 331.000
29.12914 318.000
29.14908 342.000
29.16903 348.000
29.18898 334.000
29.20892 335.000
29.22887 350.000
29.24882 365.000
29.26877 337.000
29.28871 365.000
29.30866 382.000
29.32861 360.000
29.34855 335.000
29.36850 329.000
29.38845 360.000
29.40839 359.000
29.42834 343.000
29.44829 347.000
29.46823 368.000
29.48818 321.000
29.50813 319.000
29.52808 346.000
29.54802 379.000
29.56797 391.000
29.58792 344.000
29.60786 323.000
29.62781 372.000
29.64776 345.000
29.66770 340.000
29.68765 387.000
29.70760 342.000
29.72755 328.000
29.74749 362.000
29.76744 350.000
29.78739 370.000
29.80733 365.000
29.82728 338.000
29.84723 377.000
29.86717 355.000
29.88712 355.000
29.90707 373.000
29.92701 359.000
29.94696 362.000
29.96691 353.000
29.98686 373.000
30.00680 381.000
30.02675 317.000
30.04670 364.000
30.06664 369.000
30.08659 348.000
30.10654 371.000
30.12648 384.000
30.14643 352.000
30.16638 353.000
30.18633 385.000
30.20627 360.000
30.22622 366.000
30.24617 397.000
30.26611 400.000
30.28606 392.000
30.30601 396.000
30.32595 438.000
30.34590 566.000
30.36585 579.000
30.38579 662.000
30.40574 705.000
30.42569 809.000
30.44564 834.000
30.46558 841.000
30.48553 885.000
30.50548 951.000
30.52542 905.000
30.54537 824.000
30.56532 720.000
30.58526 698.000
30.60521 578.000
30.62516 542.000
30.64511 499.000
30.66505 404.000
30.68500 417.000
30.70495 404.000
30.72489 372.000
30.74484 395.000
30.76479 409.000
30.78473 378.000
30.80468 348.000
30.82463 372.000
30.84458 319.000
30.86452 379.000
30.88447 327.000
30.90442 373.000
30.92436 352.000
30.94431 383.000
30.96426 382.000
30.98420 370.000
31.00415 367.000
31.02410 354.000
31.04404 339.000
31.06399 394.000
31.08394 375.000
31.10389 373.000
31.12383 354.000
31.14378 361.000
31.16373 365.000
31.18367 375.000
31.20362 387.000
31.22357 337.000
31.24351 362.000
31.26346 359.000
31.28341 349.000
31.30336 363.000
31.32330 371.000
31.34325 366.000
31.36320 351.000
31.38314 372.000
31.40309 349.000
31.42304 373.000
31.44298 324.000
31.46293 362.000
31.48288 348.000
31.50282 405.000
31.52277 352.000
31.54272 389.000
31.56267 415.000
31.58261 380.000
31.60256 361.000
31.62251 377.000
31.64245 323.000
31.66240 387.000
31.68235 349.000
31.70229 355.000
31.72224 389.000
31.74219 401.000
31.76214 419.000
31.78208 434.000
31.80203 432.000
31.82198 466.000
31.84192 522.000
31.86187 567.000
31.88182 600.000
31.90176 649.000
31.92171 789.000
31.94166 795.000
31.96160 727.000
31.98155 637.000
32.00150 677.000
32.02145 597.000
32.04139 484.000
32.06134 456.000
32.08129 443.000
32.10123 388.000
32.12118 385.000
32.14113 398.000
32.16107 350.000
32.18102 406.000
32.20097 384.000
32.22092 353.000
32.24086 373.000
32.26081 373.000
32.28076 356.000
32.30070 377.000
32.32065 376.000
32.34060 373.000
32.36054 385.000
32.38049 379.000
32.40044 402.000
32.42039 421.000
32.44033 398.000
32.46028 479.000
32.48023 428.000
32.50017 422.000
32.52012 419.000
32.54007 380.000
32.56001 428.000
32.57996 441.000
32.59991 409.000
32.61985 418.000
32.63980 369.000
32.65975 364.000
32.67970 378.000
32.69964 364.000
32.71959 371.000
32.73954 382.000
32.75948 360.000
32.77943 363.000
32.79938 345.000
32.81932 344.000
32.83927 352.000
32.85922 350.000
32.87917 352.000
32.89911 341.000
32.91906 355.000
32.93901 361.000
32.95895 366.000
32.97890 360.000
32.99885 396.000
33.01879 347.000
33.03874 334.000
33.05869 324.000
33.07863 367.000
33.09858 334.000
33.11853 327.000
33.13848 349.000
33.15842 338.000
33.17837 368.000
33.19832 330.000
33.21826 358.000
33.23821 349.000
33.25816 327.000
33.27810 397.000
33.29805 373.000
33.31800 323.000
33.33795 365.000
33.35789 317.000
33.37784 312.000
33.39779 344.000
33.41773 321.000
33.43768 368.000
33.45763 369.000
33.47757 337.000
33.49752 381.000
33.51747 328.000
33.53741 387.000
33.55736 354.000
33.57731 341.000
33.59726 311.000
33.61720 390.000
33.63715 350.000
33.65710 322.000
33.67704 360.000
33.69699 372.000
33.71694 334.000
33.73688 340.000
33.75683 354.000
33.77678 333.000
33.79673 363.000
33.81667 355.000
33.83662 333.000
33.85657 360.000
33.87651 342.000
33.89646 364.000
33.91641 341.000
33.93635 363.000
33.95630 350.000
33.97625 374.000
33.99620 350.000
34.01614 336.000
34.03609 337.000
34.05604 338.000
34.07598 340.000
34.09593 350.000
34.11588 335.000
34.13582 337.000
34.15577 378.000
34.17572 358.000
34.19566 342.000
34.21561 342.000
34.23556 376.000
34.25551 351.000
34.27545 342.000
34.29540 338.000
34.31535 332.000
34.33529 365.000
34.35524 328.000
34.37519 352.000
34.39513 339.000
34.41508 358.000
34.43503 353.000
34.45498 336.000
34.47492 333.000
34.49487 319.000
34.51482 334.000
34.53476 359.000
34.55471 371.000
34.57466 320.000
34.59460 349.000
34.61455 363.000
34.63450 375.000
34.65444 351.000
34.67439 365.000
34.69434 373.000
34.71429 343.000
34.73423 364.000
34.75418 376.000
34.77413 385.000
34.79407 372.000
34.81402 385.000
34.83397 362.000
34.85391 381.000
34.87386 369.000
34.89381 383.000
34.91376 396.000
34.93370 371.000
34.95365 364.000
34.97360 383.000
34.99354 343.000
35.01349 367.000
35.03344 401.000
35.05338 406.000
35.07333 385.000
35.09328 389.000
35.11322 413.000
35.13317 402.000
35.15312 412.000
35.17307 417.000
35.19301 419.000
35.21296 436.000
35.23291 443.000
35.25285 485.000
35.27280 466.000
35.29275 525.000
35.31269 501.000
35.33264 612.000
35.35259 662.000
35.37254 779.000
35.39248 839.000
35.41243 967.000
35.43238 946.000
35.45232 983.000
35.47227 1096.000
35.49222 1204.000
35.51216 1305.000
35.53211 1270.000
35.55206 1248.000
35.57201 1196.000
35.59195 1241.000
35.61190 1063.000
35.63185 1054.000
35.65179 985.000
35.67174 875.000
35.69169 879.000
35.71163 881.000
35.73158 965.000
35.75153 1104.000
35.77147 1294.000
35.79142 1363.000
35.81137 1443.000
35.83132 1648.000
35.85126 1832.000
35.87121 2015.000
35.89116 2260.000
35.91110 2367.000
35.93105 2397.000
35.95100 2247.000
35.97094 1961.000
35.99089 1810.000
36.01084 1737.000
36.03079 1507.000
36.05073 1240.000
36.07068 994.000
36.09063 808.000
36.11057 705.000
36.13052 631.000
36.15047 587.000
36.17041 513.000
36.19036 510.000
36.21031 474.000
36.23025 478.000
36.25020 459.000
36.27015 432.000
36.29010 501.000
36.31004 434.000
36.32999 467.000
36.34994 444.000
36.36988 392.000
36.38983 452.000
36.40978 431.000
36.42972 414.000
36.44967 394.000
36.46962 421.000
36.48957 401.000
36.50951 401.000
36.52946 400.000
36.54941 387.000
36.56935 364.000
36.58930 382.000
36.60925 388.000
36.62919 396.000
36.64914 353.000
36.66909 376.000
36.68903 395.000
36.70898 385.000
36.72893 382.000
36.74888 374.000
36.76882 378.000
36.78877 398.000
36.80872 434.000
36.82866 410.000
36.84861 456.000
36.86856 429.000
36.88850 443.000
36.90845 442.000
36.92840 469.000
36.94835 473.000
36.96829 512.000
36.98824 549.000
37.00819 585.000
37.02813 624.000
37.04808 776.000
37.06803 990.000
37.08797 1417.000
37.10792 1882.000
37.12787 1969.000
37.14781 1976.000
37.16776 1776.000
37.18771 1552.000
37.20766 1563.000
37.22760 1465.000
37.24755 1285.000
37.26750 963.000
37.28744 823.000
37.30739 674.000
37.32734 588.000
37.34728 520.000
37.36723 487.000
37.38718 489.000
37.40713 421.000
37.42707 476.000
37.44702 531.000
37.46697 502.000
37.48691 524.000
37.50686 520.000
37.52681 575.000
37.54675 577.000
37.56670 575.000
37.58665 568.000
37.60660 580.000
37.62654 536.000
37.64649 544.000
37.66644 515.000
37.68638 469.000
37.70633 440.000
37.72628 420.000
37.74622 407.000
37.76617 394.000
37.78612 365.000
37.80606 383.000
37.82601 372.000
37.84596 385.000
37.86591 365.000
37.88585 359.000
37.90580 353.000
37.92575 381.000
37.94569 349.000
37.96564 351.000
37.98559 378.000
38.00553 377.000
38.02548 353.000
38.04543 431.000
38.06538 417.000
38.08532 373.000
38.10527 400.000
38.12522 387.000
38.14516 344.000
38.16511 371.000
38.18506 329.000
38.20500 390.000
38.22495 373.000
38.24490 391.000
38.26484 376.000
38.28479 432.000
38.30474 411.000
38.32469 377.000
38.34463 429.000
38.36458 443.000
38.38453 460.000
38.40447 474.000
38.42442 448.000
38.44437 476.000
38.46431 498.000
38.48426 538.000
38.50421 578.000
38.52416 646.000
38.54410 696.000
38.56405 762.000
38.58400 777.000
38.60394 960.000
38.62389 958.000
38.64384 977.000
38.66378 1098.000
38.68373 1130.000
38.70368 1130.000
38.72362 1090.000
38.74357 1051.000
38.76352 1018.000
38.78347 984.000
38.80341 898.000
38.82336 843.000
38.84331 779.000
38.86325 753.000
38.88320 724.000
38.90315 696.000
38.92309 751.000
38.94304 693.000
38.96299 671.000
38.98294 678.000
39.00288 641.000
39.02283 574.000
39.04278 562.000
39.06272 505.000
39.08267 542.000
39.10262 533.000
39.12256 485.000
39.14251 438.000
39.16246 439.000
39.18241 414.000
39.20235 412.000
39.22230 439.000
39.24225 443.000
39.26219 436.000
39.28214 452.000
39.30209 439.000
39.32203 473.000
39.34198 531.000
39.36193 559.000
39.38187 582.000
39.40182 659.000
39.42177 829.000
39.44172 1101.000
39.46166 1310.000
39.48161 1339.000
39.50156 1189.000
39.52150 959.000
39.54145 975.000
39.56140 984.000
39.58134 967.000
39.60129 822.000
39.62124 655.000
39.64119 545.000
39.66113 519.000
39.68108 408.000
39.70103 426.000
39.72097 399.000
39.74092 412.000
39.76087 357.000
39.78081 341.000
39.80076 357.000
39.82071 352.000
39.84065 346.000
39.86060 347.000
39.88055 344.000
39.90050 355.000
39.92044 348.000
39.94039 329.000
39.96034 369.000
39.98028 358.000
40.00023 329.000
40.02018 331.000
40.04012 320.000
40.06007 316.000
40.08002 338.000
40.09997 356.000
40.11991 327.000
40.13986 342.000
40.15981 348.000
40.17975 331.000
40.19970 355.000
40.21965 353.000
40.23959 333.000
40.25954 316.000
40.27949 326.000
40.29943 313.000
40.31938 340.000
40.33933 345.000
40.35928 305.000
40.37922 336.000
40.39917 340.000
40.41912 332.000
40.43906 336.000
40.45901 349.000
40.47896 301.000
40.49890 337.000
40.51885 344.000
40.53880 317.000
40.55875 348.000
40.57869 319.000
40.59864 334.000
40.61859 347.000
40.63853 323.000
40.65848 371.000
40.67843 350.000
40.69837 333.000
40.71832 325.000
40.73827 344.000
40.75822 291.000
40.77816 363.000
40.79811 306.000
40.81806 307.000
40.83800 332.000
40.85795 341.000
40.87790 310.000
40.89784 330.000
40.91779 340.000
40.93774 331.000
40.95768 332.000
40.97763 326.000
40.99758 307.000
41.01753 338.000
41.03747 277.000
41.05742 306.000
41.07737 319.000
41.09731 314.000
41.11726 326.000
41.13721 359.000
41.15715 339.000
41.17710 331.000
41.19705 350.000
41.21700 316.000
41.23694 326.000
41.25689 378.000
41.27684 292.000
41.29678 339.000
41.31673 361.000
41.33668 319.000
41.35662 338.000
41.37657 320.000
41.39652 309.000
41.41646 315.000
41.43641 331.000
41.45636 340.000
41.47631 324.000
41.49625 317.000
41.51620 340.000
41.53615 324.000
41.55609 333.000
41.57604 307.000
41.59599 344.000
41.61593 334.000
41.63588 351.000
41.65583 320.000
41.67578 357.000
41.69572 318.000
41.71567 344.000
41.73562 353.000
41.75556 320.000
41.77551 340.000
41.79546 345.000
41.81540 341.000
41.83535 341.000
41.85530 307.000
41.87524 336.000
41.89519 338.000
41.91514 368.000
41.93509 324.000
41.95503 317.000
41.97498 352.000
41.99493 349.000
42.01487 347.000
42.03482 335.000
42.05477 352.000
42.07471 350.000
42.09466 334.000
42.11461 339.000
42.13456 348.000
42.15450 378.000
42.17445 334.000
42.19440 355.000
42.21434 341.000
42.23429 351.000
42.25424 357.000
42.27418 331.000
42.29413 341.000
42.31408 355.000
42.33403 349.000
42.35397 341.000
42.37392 361.000
42.39387 322.000
42.41381 330.000
42.43376 365.000
42.45371 356.000
42.47365 341.000
42.49360 373.000
42.51355 322.000
42.53349 353.000
42.55344 371.000
42.57339 344.000
42.59334 363.000
42.61328 365.000
42.63323 373.000
42.65318 362.000
42.67312 390.000
42.69307 394.000
42.71302 396.000
42.73296 396.000
42.75291 439.000
42.77286 414.000
42.79281 401.000
42.81275 468.000
42.83270 485.000
42.85265 458.000
42.87259 491.000
42.89254 520.000
42.91249 557.000
42.93243 594.000
42.95238 631.000
42.97233 694.000
42.99227 888.000
43.01222 905.000
43.03217 1051.000
43.05212 1194.000
43.07206 1311.000
43.09201 1494.000
43.11196 1625.000
43.13190 1859.000
43.15185 1994.000
43.17180 1890.000
43.19174 1901.000
43.21169 1864.000
43.23164 1769.000
43.25159 1669.000
43.27153 1632.000
43.29148 1468.000
43.31143 1287.000
43.33137 1134.000
43.35132 1054.000
43.37127 961.000
43.39121 811.000
43.41116 769.000
43.43111 760.000
43.45105 740.000
43.47100 769.000
43.49095 788.000
43.51090 830.000
43.53084 989.000
43.55079 1021.000
43.57074 996.000
43.59068 937.000
43.61063 898.000
43.63058 871.000
43.65052 868.000
43.67047 875.000
43.69042 834.000
43.71037 726.000
43.73031 703.000
43.75026 635.000
43.77021 570.000
43.79015 567.000
43.81010 509.000
43.83005 509.000
43.84999 431.000
43.86994 453.000
43.88989 418.000
43.90984 427.000
43.92978 355.000
43.94973 378.000
43.96968 362.000
43.98962 357.000
44.00957 372.000
44.02952 376.000
44.04946 350.000
44.06941 354.000
44.08936 352.000
44.10930 325.000
44.12925 344.000
44.14920 310.000
44.16915 335.000
44.18909 329.000
44.20904 328.000
44.22899 347.000
44.24893 316.000
44.26888 319.000
44.28883 330.000
44.30877 376.000
44.32872 325.000
44.34867 329.000
44.36862 374.000
44.38856 340.000
44.40851 323.000
44.42846 320.000
44.44840 342.000
44.46835 344.000
44.48830 333.000
44.50824 353.000
44.52819 317.000
44.54814 343.000
44.56808 349.000
44.58803 360.000
44.60798 297.000
44.62793 355.000
44.64787 329.000
44.66782 346.000
44.68777 365.000
44.70771 343.000
44.72766 324.000
44.74761 346.000
44.76755 347.000
44.78750 350.000
44.80745 325.000
44.82740 344.000
44.84734 356.000
44.86729 361.000
44.88724 334.000
44.90718 345.000
44.92713 297.000
44.94708 331.000
44.96702 363.000
44.98697 362.000
45.00692 438.000
45.02686 345.000
45.04681 371.000
45.06676 349.000
45.08671 337.000
45.10665 382.000
45.12660 403.000
45.14655 416.000
45.16649 430.000
45.18644 428.000
45.20639 401.000
45.22633 400.000
45.24628 366.000
45.26623 365.000
45.28618 371.000
45.30612 374.000
45.32607 374.000
45.34602 369.000
45.36596 397.000
45.38591 348.000
45.40586 356.000
45.42580 332.000
45.44575 328.000
45.46570 359.000
45.48565 346.000
45.50559 316.000
45.52554 323.000
45.54549 328.000
45.56543 326.000
45.58538 323.000
45.60533 317.000
45.62527 327.000
45.64522 321.000
45.66517 325.000
45.68511 318.000
45.70506 369.000
45.72501 338.000
45.74496 280.000
45.76490 305.000
45.78485 299.000
45.80480 320.000
45.82474 296.000
45.84469 318.000
45.86464 351.000
45.88458 324.000
45.90453 340.000
45.92448 366.000
45.94443 308.000
45.96437 322.000
45.98432 357.000
46.00427 304.000
46.02421 323.000
46.04416 332.000
46.06411 295.000
46.08405 325.000
46.10400 329.000
46.12395 297.000
46.14389 311.000
46.16384 300.000
46.18379 350.000
46.20374 325.000
46.22368 285.000
46.24363 373.000
46.26358 347.000
46.28352 330.000
46.30347 330.000
46.32342 353.000
46.34336 329.000
46.36331 305.000
46.38326 326.000
46.40321 330.000
46.42315 336.000
46.44310 339.000
46.46305 348.000
46.48299 283.000
46.50294 347.000
46.52289 316.000
46.54283 319.000
46.56278 309.000
46.58273 309.000
46.60267 323.000
46.62262 317.000
46.64257 325.000
46.66252 354.000
46.68246 300.000
46.70241 338.000
46.72236 330.000
46.74230 298.000
46.76225 280.000
46.78220 333.000
46.80214 302.000
46.82209 288.000
46.84204 329.000
46.86199 281.000
46.88193 338.000
46.90188 326.000
46.92183 278.000
46.94177 359.000
46.96172 303.000
46.98167 299.000
47.00161 319.000
47.02156 308.000
47.04151 315.000
47.06146 337.000
47.08140 318.000
47.10135 343.000
47.12130 348.000
47.14124 350.000
47.16119 326.000
47.18114 296.000
47.20108 335.000
47.22103 306.000
47.24098 306.000
47.26092 305.000
47.28087 308.000
47.30082 352.000
47.32077 291.000
47.34071 323.000
47.36066 308.000
47.38061 308.000
47.40055 317.000
47.42050 324.000
47.44045 312.000
47.46039 292.000
47.48034 328.000
47.50029 329.000
47.52024 330.000
47.54018 295.000
47.56013 315.000
47.58008 309.000
47.60002 330.000
47.61997 301.000
47.63992 320.000
47.65986 315.000
47.67981 334.000
47.69976 319.000
47.71970 303.000
47.73965 335.000
47.75960 317.000
47.77955 308.000
47.79949 296.000
47.81944 310.000
47.83939 317.000
47.85933 342.000
47.87928 316.000
47.89923 320.000
47.91917 340.000
47.93912 343.000
47.95907 337.000
47.97902 339.000
47.99896 316.000
48.01891 329.000
48.03886 351.000
48.05880 318.000
48.07875 321.000
48.09870 336.000
48.11864 339.000
48.13859 310.000
48.15854 326.000
48.17848 325.000
48.19843 335.000
48.21838 311.000
48.23833 360.000
48.25827 328.000
48.27822 359.000
48.29817 376.000
48.31811 324.000
48.33806 297.000
48.35801 353.000
48.37795 382.000
48.39790 363.000
48.41785 344.000
48.43780 358.000
48.45774 404.000
48.47769 378.000
48.49764 418.000
48.51758 439.000
48.53753 407.000
48.55748 446.000
48.57742 407.000
48.59737 458.000
48.61732 480.000
48.63726 497.000
48.65721 550.000
48.67716 546.000
48.69711 601.000
48.71705 677.000
48.73700 773.000
48.75695 856.000
48.77689 986.000
48.79684 1207.000
48.81679 1268.000
48.83673 1224.000
48.85668 1205.000
48.87663 1082.000
48.89658 1006.000
48.91652 940.000
48.93647 929.000
48.95642 861.000
48.97636 867.000
48.99631 744.000
49.01626 614.000
49.03620 583.000
49.05615 559.000
49.07610 525.000
49.09605 435.000
49.11599 405.000
49.13594 394.000
49.15589 390.000
49.17583 402.000
49.19578 394.000
49.21573 343.000
49.23567 360.000
49.25562 355.000
49.27557 310.000
49.29551 357.000
49.31546 367.000
49.33541 330.000
49.35536 314.000
49.37530 322.000
49.39525 347.000
49.41520 350.000
49.43514 314.000
49.45509 330.000
49.47504 313.000
49.49498 329.000
49.51493 339.000
49.53488 345.000
49.55483 324.000
49.57477 333.000
49.59472 326.000
49.61467 317.000
49.63461 293.000
49.65456 321.000
49.67451 327.000
49.69445 318.000
49.71440 329.000
49.73435 275.000
49.75429 318.000
49.77424 322.000
49.79419 295.000
49.81414 320.000
49.83408 293.000
49.85403 301.000
49.87398 345.000
49.89392 306.000
49.91387 294.000
49.93382 315.000
49.95376 327.000
49.97371 295.000
49.99366 343.000
50.01361 320.000
50.03355 311.000
50.05350 333.000
50.07345 330.000
50.09339 309.000
50.11334 326.000
50.13329 325.000
50.15323 328.000
50.17318 313.000
50.19313 345.000
50.21307 318.000
50.23302 325.000
50.25297 326.000
50.27292 320.000
50.29286 297.000
50.31281 314.000
50.33276 316.000
50.35270 326.000
50.37265 310.000
50.39260 328.000
50.41254 275.000
50.43249 321.000
50.45244 304.000
50.47239 304.000
50.49233 320.000
50.51228 352.000
50.53223 297.000
50.55217 319.000
50.57212 283.000
50.59207 314.000
50.61201 327.000
50.63196 341.000
50.65191 307.000
50.67186 283.000
50.69180 305.000
50.71175 329.000
50.73170 301.000
50.75164 317.000
50.77159 288.000
50.79154 282.000
50.81148 317.000
50.83143 279.000
50.85138 345.000
50.87132 289.000
50.89127 314.000
50.91122 278.000
50.93117 312.000
50.95111 337.000
50.97106 294.000
50.99101 308.000
51.01095 307.000
51.03090 327.000
51.05085 303.000
51.07079 307.000
51.09074 301.000
51.11069 288.000
51.13064 345.000
51.15058 297.000
51.17053 298.000
51.19048 324.000
51.21042 315.000
51.23037 296.000
51.25032 342.000
51.27026 325.000
51.29021 306.000
51.31016 299.000
51.33010 324.000
51.35005 320.000
51.37000 306.000
51.38995 310.000
51.40989 336.000
51.42984 287.000
51.44979 315.000
51.46973 350.000
51.48968 349.000
51.50963 313.000
51.52957 320.000
51.54952 300.000
51.56947 302.000
51.58942 340.000
51.60936 319.000
51.62931 305.000
51.64926 289.000
51.66920 273.000
51.68915 316.000
51.70910 309.000
51.72904 314.000
51.74899 297.000
51.76894 312.000
51.78888 337.000
51.80883 322.000
51.82878 301.000
51.84873 303.000
51.86867 323.000
51.88862 301.000
51.90857 304.000
51.92851 299.000
51.94846 315.000
51.96841 321.000
51.98835 293.000
52.00830 324.000
52.02825 286.000
52.04820 306.000
52.06814 329.000
52.08809 319.000
52.10804 293.000
52.12798 316.000
52.14793 326.000
52.16788 308.000
52.18782 289.000
52.20777 292.000
52.22772 321.000
52.24767 307.000
52.26761 300.000
52.28756 329.000
52.30751 349.000
52.32745 280.000
52.34740 303.000
52.36735 276.000
52.38729 314.000
52.40724 308.000
52.42719 302.000
52.44713 322.000
52.46708 290.000
52.48703 312.000
52.50698 295.000
52.52692 311.000
52.54687 337.000
52.56682 332.000
52.58676 326.000
52.60671 343.000
52.62666 339.000
52.64660 331.000
52.66655 337.000
52.68650 359.000
52.70645 338.000
52.72639 325.000
52.74634 350.000
52.76629 319.000
52.78623 313.000
52.80618 359.000
52.82613 281.000
52.84607 332.000
52.86602 355.000
52.88597 348.000
52.90591 366.000
52.92586 374.000
52.94581 336.000
52.96576 293.000
52.98570 294.000
53.00565 344.000
53.02560 315.000
53.04554 330.000
53.06549 307.000
53.08544 337.000
53.10538 355.000
53.12533 317.000
53.14528 332.000
53.16523 337.000
53.18517 328.000
53.20512 338.000
53.22507 377.000
53.24501 369.000
53.26496 348.000
53.28491 309.000
53.30485 364.000
53.32480 320.000
53.34475 369.000
53.36469 361.000
53.38464 349.000
53.40459 375.000
53.42454 373.000
53.44448 399.000
53.46443 368.000
53.48438 375.000
53.50432 344.000
53.52427 347.000
53.54422 321.000
53.56416 363.000
53.58411 351.000
53.60406 361.000
53.62401 319.000
53.64395 360.000
53.66390 365.000
53.68385 366.000
53.70379 413.000
53.72374 334.000
53.74369 345.000
53.76363 359.000
53.78358 339.000
53.80353 327.000
53.82348 313.000
53.84342 328.000
53.86337 344.000
53.88332 352.000
53.90326 362.000
53.92321 359.000
53.94316 345.000
53.96310 355.000
53.98305 388.000
54.00300 393.000
54.02294 365.000
54.04289 381.000
54.06284 377.000
54.08279 362.000
54.10273 405.000
54.12268 390.000
54.14263 401.000
54.16257 401.000
54.18252 421.000
54.20247 457.000
54.22241 425.000
54.24236 386.000
54.26231 400.000
54.28226 379.000
54.30220 370.000
54.32215 364.000
54.34210 371.000
54.36204 361.000
54.38199 335.000
54.40194 317.000
54.42188 344.000
54.44183 334.000
54.46178 345.000
54.48172 330.000
54.50167 340.000
54.52162 318.000
54.54157 317.000
54.56151 298.000
54.58146 357.000
54.60141 314.000
54.62135 314.000
54.64130 356.000
54.66125 337.000
54.68119 316.000
54.70114 321.000
54.72109 298.000
54.74104 325.000
54.76098 334.000
54.78093 323.000
54.80088 317.000
54.82082 320.000
54.84077 321.000
54.86072 294.000
54.88066 297.000
54.90061 298.000
54.92056 314.000
54.94050 298.000
54.96045 290.000
54.98040 305.000
55.00035 289.000
55.02029 285.000
55.04024 292.000
55.06019 305.000
55.08013 279.000
55.10008 303.000
55.12003 276.000
55.13997 338.000
55.15992 280.000
55.17987 318.000
55.19982 310.000
55.21976 281.000
55.23971 296.000
55.25966 308.000
55.27960 317.000
55.29955 297.000
55.31950 321.000
55.33944 321.000
55.35939 303.000
55.37934 318.000
55.39929 305.000
55.41923 330.000
55.43918 314.000
55.45913 320.000
55.47907 342.000
55.49902 276.000
55.51897 309.000
55.53891 286.000
55.55886 279.000
55.57881 314.000
55.59875 326.000
55.61870 383.000
55.63865 293.000
55.65860 324.000
55.67854 303.000
55.69849 307.000
55.71844 308.000
55.73838 313.000
55.75833 300.000
55.77828 313.000
55.79822 334.000
55.81817 323.000
55.83812 304.000
55.85807 310.000
55.87801 315.000
55.89796 305.000
55.91791 345.000
55.93785 298.000
55.95780 323.000
55.97775 283.000
55.99769 321.000
56.01764 324.000
56.03759 286.000
56.05753 310.000
56.07748 285.000
56.09743 321.000
56.11738 305.000
56.13732 291.000
56.15727 292.000
56.17722 314.000
56.19716 318.000
56.21711 341.000
56.23706 315.000
56.25700 300.000
56.27695 291.000
56.29690 320.000
56.31685 314.000
56.33679 294.000
56.35674 292.000
56.37669 310.000
56.39663 296.000
56.41658 321.000
56.43653 322.000
56.45647 300.000
56.47642 317.000
56.49637 316.000
56.51631 297.000
56.53626 323.000
56.55621 324.000
56.57616 329.000
56.59610 347.000
56.61605 326.000
56.63600 322.000
56.65594 311.000
56.67589 337.000
56.69584 319.000
56.71578 300.000
56.73573 308.000
56.75568 322.000
56.77563 336.000
56.79557 312.000
56.81552 346.000
56.83547 310.000
56.85541 326.000
56.87536 330.000
56.89531 343.000
56.91525 319.000
56.93520 305.000
56.95515 285.000
56.97510 329.000
56.99504 363.000
57.01499 268.000
57.03494 349.000
57.05488 321.000
57.07483 315.000
57.09478 365.000
57.11472 345.000
57.13467 317.000
57.15462 342.000
57.17456 336.000
57.19451 310.000
57.21446 313.000
57.23441 313.000
57.25435 331.000
57.27430 308.000
57.29425 399.000
57.31419 349.000
57.33414 348.000
57.35409 346.000
57.37403 399.000
57.39398 353.000
57.41393 420.000
57.43388 401.000
57.45382 380.000
57.47377 425.000
57.49372 461.000
57.51366 464.000
57.53361 482.000
57.55356 502.000
57.57350 516.000
57.59345 550.000
57.61340 535.000
57.63334 556.000
57.65329 582.000
57.67324 595.000
57.69319 657.000
57.71313 662.000
57.73308 666.000
57.75303 705.000
57.77297 656.000
57.79292 703.000
57.81287 629.000
57.83281 676.000
57.85276 616.000
57.87271 608.000
57.89266 559.000
57.91260 598.000
57.93255 568.000
57.95250 520.000
57.97244 532.000
57.99239 531.000
58.01234 502.000
58.03228 467.000
58.05223 462.000
58.07218 459.000
58.09212 459.000
58.11207 424.000
58.13202 455.000
58.15197 469.000
58.17191 401.000
58.19186 463.000
58.21181 436.000
58.23175 464.000
58.25170 449.000
58.27165 437.000
58.29159 450.000
58.31154 437.000
58.33149 383.000
58.35144 414.000
58.37138 422.000
58.39133 333.000
58.41128 392.000
58.43122 364.000
58.45117 362.000
58.47112 360.000
58.49106 368.000
58.51101 314.000
58.53096 371.000
58.55090 334.000
58.57085 360.000
58.59080 320.000
58.61075 317.000
58.63069 333.000
58.65064 288.000
58.67059 310.000
58.69053 325.000
58.71048 326.000
58.73043 335.000
58.75037 329.000
58.77032 331.000
58.79027 317.000
58.81022 324.000
58.83016 318.000
58.85011 326.000
58.87006 296.000
58.89000 301.000
58.90995 281.000
58.92990 343.000
58.94984 328.000
58.96979 317.000
58.98974 331.000
59.00969 329.000
59.02963 323.000
59.04958 326.000
59.06953 327.000
59.08947 294.000
59.10942 347.000
59.12937 312.000
59.14931 304.000
59.16926 311.000
59.18921 300.000
59.20915 335.000
59.22910 297.000
59.24905 339.000
59.26900 310.000
59.28894 314.000
59.30889 327.000
59.32884 311.000
59.34878 336.000
59.36873 307.000
59.38868 298.000
59.40862 323.000
59.42857 310.000
59.44852 329.000
59.46847 308.000
59.48841 295.000
59.50836 330.000
59.52831 314.000
59.54825 298.000
59.56820 315.000
59.58815 315.000
59.60809 313.000
59.62804 310.000
59.64799 307.000
59.66793 341.000
59.68788 317.000
59.70783 338.000
59.72778 313.000
59.74772 286.000
59.76767 319.000
59.78762 329.000
59.80756 359.000
59.82751 315.000
59.84746 290.000
59.86740 312.000
59.88735 294.000
59.90730 310.000
59.92725 319.000
59.94719 307.000
59.96714 316.000
59.98709 321.000
60.00703 334.000
60.02698 327.000
60.04693 312.000
60.06687 327.000
60.08682 303.000
60.10677 287.000
60.12671 329.000
60.14666 344.000
60.16661 313.000
60.18656 284.000
60.20650 333.000
60.22645 314.000
60.24640 335.000
60.26634 314.000
60.28629 282.000
60.30624 327.000
60.32618 326.000
60.34613 325.000
60.36608 320.000
60.38603 307.000
60.40597 314.000
60.42592 289.000
60.44587 342.000
60.46581 314.000
60.48576 319.000
60.50571 310.000
60.52565 320.000
60.54560 276.000
60.56555 337.000
60.58550 341.000
60.60544 344.000
60.62539 298.000
60.64534 305.000
60.66528 300.000
60.68523 328.000
60.70518 303.000
60.72512 309.000
60.74507 345.000
60.76502 314.000
60.78496 319.000
60.80491 294.000
60.82486 332.000
60.84481 309.000
60.86475 306.000
60.88470 314.000
60.90465 311.000
60.92459 312.000
60.94454 320.000
60.96449 290.000
60.98443 336.000
61.00438 340.000
61.02433 332.000
61.04428 321.000
61.06422 341.000
61.08417 345.000
61.10412 298.000
61.12406 332.000
61.14401 354.000
61.16396 314.000
61.18390 310.000
61.20385 343.000
61.22380 345.000
61.24374 317.000
61.26369 309.000
61.28364 343.000
61.30359 374.000
61.32353 334.000
61.34348 377.000
61.36343 361.000
61.38337 340.000
61.40332 379.000
61.42327 376.000
61.44321 391.000
61.46316 409.000
61.48311 444.000
61.50306 450.000
61.52300 444.000
61.54295 470.000
61.56290 457.000
61.58284 440.000
61.60279 443.000
61.62274 449.000
61.64268 445.000
61.66263 430.000
61.68258 461.000
61.70252 421.000
61.72247 460.000
61.74242 445.000
61.76237 444.000
61.78231 396.000
61.80226 375.000
61.82221 406.000
61.84215 405.000
61.86210 438.000
61.88205 414.000
61.90199 453.000
61.92194 468.000
61.94189 516.000
61.96184 508.000
61.98178 574.000
62.00173 621.000
62.02168 585.000
62.04162 600.000
62.06157 615.000
62.08152 569.000
62.10146 493.000
62.12141 532.000
62.14136 519.000
62.16131 522.000
62.18125 541.000
62.20120 530.000
62.22115 504.000
62.24109 500.000
62.26104 434.000
62.28099 453.000
62.30093 441.000
62.32088 504.000
62.34083 387.000
62.36077 416.000
62.38072 448.000
62.40067 455.000
62.42062 449.000
62.44056 462.000
62.46051 501.000
62.48046 492.000
62.50040 549.000
62.52035 614.000
62.54030 639.000
62.56024 730.000
62.58019 782.000
62.60014 799.000
62.62009 873.000
62.64003 1051.000
62.65998 1063.000
62.67993 998.000
62.69987 1035.000
62.71982 980.000
62.73977 950.000
62.75971 958.000
62.77966 932.000
62.79961 893.000
62.81955 852.000
62.83950 818.000
62.85945 837.000
62.87940 776.000
62.89934 765.000
62.91929 688.000
62.93924 642.000
62.95918 582.000
62.97913 548.000
62.99908 530.000
63.01902 498.000
63.03897 460.000
63.05892 469.000
63.07887 428.000
63.09881 455.000
63.11876 437.000
63.13871 463.000
63.15865 467.000
63.17860 481.000
63.19855 498.000
63.21849 512.000
63.23844 507.000
63.25839 517.000
63.27833 504.000
63.29828 573.000
63.31823 536.000
63.33818 558.000
63.35812 587.000
63.37807 564.000
63.39802 628.000
63.41796 635.000
63.43791 634.000
63.45786 677.000
63.47780 707.000
63.49775 705.000
63.51770 686.000
63.53765 628.000
63.55759 605.000
63.57754 625.000
63.59749 624.000
63.61743 578.000
63.63738 515.000
63.65733 531.000
63.67727 557.000
63.69722 513.000
63.71717 452.000
63.73712 469.000
63.75706 470.000
63.77701 431.000
63.79696 462.000
63.81690 407.000
63.83685 387.000
63.85680 387.000
63.87674 389.000
63.89669 346.000
63.91664 374.000
63.93658 361.000
63.95653 366.000
63.97648 318.000
63.99643 354.000
64.01637 324.000
64.03632 339.000
64.05627 351.000
64.07621 337.000
64.09616 327.000
64.11611 338.000
64.13605 327.000
64.15600 321.000
64.17595 336.000
64.19590 348.000
64.21584 345.000
64.23579 343.000
64.25574 382.000
64.27568 395.000
64.29563 348.000
64.31558 382.000
64.33552 341.000
64.35547 313.000
64.37542 353.000
64.39536 330.000
64.41531 321.000
64.43526 403.000
64.45521 390.000
64.47515 384.000
64.49510 377.000
64.51505 450.000
64.53499 462.000
64.55494 546.000
64.57489 585.000
64.59483 582.000
64.61478 559.000
64.63473 551.000
64.65468 521.000
64.67462 453.000
64.69457 505.000
64.71452 474.000
64.73446 423.000
64.75441 485.000
64.77436 480.000
64.79430 455.000
64.81425 465.000
64.83420 439.000
64.85414 387.000
64.87409 376.000
64.89404 363.000
64.91399 342.000
64.93393 342.000
64.95388 357.000
64.97383 346.000
64.99377 334.000
65.01372 312.000
65.03367 326.000
65.05361 329.000
65.07356 348.000
65.09351 350.000
65.11346 316.000
65.13340 339.000
65.15335 326.000
65.17330 326.000
65.19324 325.000
65.21319 326.000
65.23314 353.000
65.25308 321.000
65.27303 341.000
65.29298 323.000
65.31293 314.000
65.33287 316.000
65.35282 325.000
65.37277 359.000
65.39271 347.000
65.41266 308.000
65.43261 326.000
65.45255 365.000
65.47250 336.000
65.49245 334.000
65.51239 340.000
65.53234 351.000
65.55229 320.000
65.57224 312.000
65.59218 385.000
65.61213 353.000
65.63208 357.000
65.65202 393.000
65.67197 375.000
65.69192 414.000
65.71186 350.000
65.73181 349.000
65.75176 359.000
65.77171 382.000
65.79165 397.000
65.81160 410.000
65.83155 371.000
65.85149 390.000
65.87144 370.000
65.89139 372.000
65.91133 382.000
65.93128 367.000
65.95123 355.000
65.97117 376.000
65.99112 365.000
66.01107 373.000
66.03102 388.000
66.05096 414.000
66.07091 378.000
66.09086 372.000
66.11080 378.000
66.13075 398.000
66.15070 360.000
66.17064 374.000
66.19059 380.000
66.21054 373.000
66.23049 411.000
66.25043 411.000
66.27038 418.000
66.29033 481.000
66.31027 434.000
66.33022 442.000
66.35017 394.000
66.37011 437.000
66.39006 415.000
66.41001 385.000
66.42995 414.000
66.44990 414.000
66.46985 426.000
66.48980 407.000
66.50974 401.000
66.52969 451.000
66.54964 403.000
66.56958 385.000
66.58953 415.000
66.60948 377.000
66.62942 412.000
66.64937 414.000
66.66932 407.000
66.68927 404.000
66.70921 400.000
66.72916 432.000
66.74911 415.000
66.76905 406.000
66.78900 433.000
66.80895 404.000
66.82889 393.000
66.84884 414.000
66.86879 472.000
66.88874 425.000
66.90868 522.000
66.92863 538.000
66.94858 516.000
66.96852 514.000
66.98847 525.000
67.00842 490.000
67.02836 442.000
67.04831 465.000
67.06826 450.000
67.08820 393.000
67.10815 399.000
67.12810 419.000
67.14805 431.000
67.16799 431.000
67.18794 400.000
67.20789 411.000
67.22783 395.000
67.24778 364.000
67.26773 387.000
67.28767 355.000
67.30762 350.000
67.32757 343.000
67.34752 356.000
67.36746 342.000
67.38741 347.000
67.40736 354.000
67.42730 293.000
67.44725 363.000
67.46720 348.000
67.48714 313.000
67.50709 326.000
67.52704 356.000
67.54698 342.000
67.56693 340.000
67.58688 338.000
67.60683 368.000
67.62677 359.000
67.64672 370.000
67.66667 341.000
67.68661 348.000
67.70656 391.000
67.72651 380.000
67.74645 370.000
67.76640 366.000
67.78635 379.000
67.80630 405.000
67.82624 397.000
67.84619 391.000
67.86614 368.000
67.88608 384.000
67.90603 400.000
67.92598 444.000
67.94592 417.000
67.96587 397.000
67.98582 412.000
68.00576 400.000
68.02571 409.000
68.04566 386.000
68.06561 395.000
68.08555 416.000
68.10550 395.000
68.12545 407.000
68.14539 383.000
68.16534 400.000
68.18529 378.000
68.20523 354.000
68.22518 402.000
68.24513 399.000
68.26508 380.000
68.28502 396.000
68.30497 337.000
68.32492 390.000
68.34486 364.000
68.36481 339.000
68.38476 335.000
68.40470 337.000
68.42465 353.000
68.44460 355.000
68.46455 340.000
68.48449 325.000
68.50444 306.000
68.52439 314.000
68.54433 324.000
68.56428 325.000
68.58423 306.000
68.60417 329.000
68.62412 315.000
68.64407 300.000
68.66401 319.000
68.68396 325.000
68.70391 274.000
68.72386 327.000
68.74380 310.000
68.76375 325.000
68.78370 311.000
68.80364 318.000
68.82359 318.000
68.84354 290.000
68.86348 295.000
68.88343 286.000
68.90338 320.000
68.92333 312.000
68.94327 325.000
68.96322 311.000
68.98317 319.000
69.00311 336.000
69.02306 338.000
69.04301 333.000
69.06295 328.000
69.08290 284.000
69.10285 323.000
69.12279 302.000
69.14274 315.000
69.16269 281.000
69.18264 322.000
69.20258 345.000
69.22253 322.000
69.24248 311.000
69.26242 298.000
69.28237 323.000
69.30232 300.000
69.32226 318.000
69.34221 285.000
69.36216 311.000
69.38211 286.000
69.40205 340.000
69.42200 316.000
69.44195 296.000
69.46189 335.000
69.48184 313.000
69.50179 323.000
69.52173 322.000
69.54168 298.000
69.56163 300.000
69.58157 299.000
69.60152 307.000
69.62147 327.000
69.64142 330.000
69.66136 286.000
69.68131 304.000
69.70126 283.000
69.72120 306.000
69.74115 323.000
69.76110 356.000
69.78104 304.000
69.80099 290.000
69.82094 325.000
69.84089 298.000
69.86083 321.000
69.88078 293.000
69.90073 315.000
69.92067 314.000
69.94062 300.000
69.96057 321.000
69.98051 309.000
70.00046 340.000
70.02041 281.000
70.04035 274.000
70.06030 301.000
70.08025 304.000
70.10020 289.000
70.12014 295.000
70.14009 297.000
70.16004 268.000
70.17998 323.000
70.19993 306.000
70.21988 319.000
70.23982 298.000
70.25977 285.000
70.27972 327.000
70.29967 307.000
70.31961 293.000
70.33956 315.000
70.35951 328.000
70.37945 299.000
70.39940 289.000
70.41935 285.000
70.43929 318.000
70.45924 318.000
70.47919 289.000
70.49914 283.000
70.51908 311.000
70.53903 296.000
70.55898 296.000
70.57892 329.000
70.59887 276.000
70.61882 295.000
70.63876 343.000
70.65871 304.000
70.67866 288.000
70.69860 314.000
70.71855 285.000
70.73850 299.000
70.75845 300.000
70.77839 320.000
70.79834 279.000
70.81829 334.000
70.83823 331.000
70.85818 330.000
70.87813 299.000
70.89807 297.000
70.91802 302.000
70.93797 315.000
70.95792 299.000
70.97786 309.000
70.99781 296.000
71.01776 316.000
71.03770 294.000
71.05765 321.000
71.07760 319.000
71.09754 289.000
71.11749 316.000
71.13744 327.000
71.15738 334.000
71.17733 317.000
71.19728 305.000
71.21723 333.000
71.23717 277.000
71.25712 304.000
71.27707 299.000
71.29701 294.000
71.31696 305.000
71.33691 288.000
71.35685 315.000
71.37680 344.000
71.39675 313.000
71.41670 308.000
71.43664 286.000
71.45659 330.000
71.47654 304.000
71.49648 283.000
71.51643 312.000
71.53638 318.000
71.55632 318.000
71.57627 294.000
71.59622 296.000
71.61616 279.000
71.63611 288.000
71.65606 291.000
71.67601 293.000
71.69595 329.000
71.71590 333.000
71.73585 313.000
71.75579 341.000
71.77574 304.000
71.79569 309.000
71.81563 317.000
71.83558 371.000
71.85553 303.000
71.87548 321.000
71.89542 336.000
71.91537 318.000
71.93532 313.000
71.95526 337.000
71.97521 338.000
71.99516 329.000
72.01510 342.000
72.03505 330.000
72.05500 332.000
72.07495 325.000
72.09489 338.000
72.11484 349.000
72.13479 301.000
72.15473 319.000
72.17468 324.000
72.19463 338.000
72.21457 350.000
72.23452 363.000
72.25447 335.000
72.27441 384.000
72.29436 345.000
72.31431 346.000
72.33426 354.000
72.35420 342.000
72.37415 378.000
72.39410 354.000
72.41404 352.000
72.43399 328.000
72.45394 340.000
72.47388 343.000
72.49383 362.000
72.51378 344.000
72.53373 321.000
72.55367 334.000
72.57362 307.000
72.59357 363.000
72.61351 318.000
72.63346 319.000
72.65341 325.000
72.67335 341.000
72.69330 320.000
72.71325 311.000
72.73319 297.000
72.75314 275.000
72.77309 319.000
72.79304 311.000
72.81298 312.000
72.83293 315.000
72.85288 315.000
72.87282 297.000
72.89277 369.000
72.91272 296.000
72.93266 302.000
72.95261 318.000
72.97256 305.000
72.99251 277.000
73.01245 325.000
73.03240 335.000
73.05235 273.000
73.07229 304.000
73.09224 315.000
73.11219 317.000
73.13213 303.000
73.15208 285.000
73.17203 316.000
73.19197 306.000
73.21192 294.000
73.23187 310.000
73.25182 334.000
73.27176 309.000
73.29171 321.000
73.31166 302.000
73.33160 278.000
73.35155 310.000
73.37150 299.000
73.39144 322.000
73.41139 309.000
73.43134 337.000
73.45129 324.000
73.47123 335.000
73.49118 327.000
73.51113 305.000
73.53107 308.000
73.55102 282.000
73.57097 307.000
73.59091 299.000
73.61086 294.000
73.63081 310.000
73.65076 347.000
73.67070 285.000
73.69065 337.000
73.71060 305.000
73.73054 357.000
73.75049 313.000
73.77044 338.000
73.79038 351.000
73.81033 330.000
73.83028 375.000
73.85022 393.000
73.87017 364.000
73.89012 423.000
73.91007 396.000
73.93001 372.000
73.94996 378.000
73.96991 334.000
73.98985 339.000
74.00980 356.000
74.02975 311.000
74.04969 362.000
74.06964 349.000
74.08959 333.000
74.10954 363.000
74.12948 328.000
74.14943 359.000
74.16938 336.000
74.18932 330.000
74.20927 340.000
74.22922 332.000
74.24916 317.000
74.26911 316.000
74.28906 292.000
74.30900 320.000
74.32895 327.000
74.34890 326.000
74.36885 322.000
74.38879 277.000
74.40874 314.000
74.42869 339.000
74.44863 347.000
74.46858 331.000
74.48853 326.000
74.50847 323.000
74.52842 330.000
74.54837 318.000
74.56832 329.000
74.58826 332.000
74.60821 318.000
74.62816 336.000
74.64810 343.000
74.66805 326.000
74.68800 362.000
74.70794 364.000
74.72789 361.000
74.74784 333.000
74.76778 394.000
74.78773 409.000
74.80768 388.000
74.82763 357.000
74.84757 384.000
74.86752 433.000
74.88747 455.000
74.90741 460.000
74.92736 412.000
74.94731 485.000
74.96725 530.000
74.98720 471.000
75.00715 518.000
75.02710 537.000
75.04704 542.000
75.06699 546.000
75.08694 577.000
75.10688 609.000
75.12683 703.000
75.14678 629.000
75.16672 617.000
75.18667 620.000
75.20662 636.000
75.22657 615.000
75.24651 573.000
75.26646 620.000
75.28641 548.000
75.30635 578.000
75.32630 541.000
75.34625 592.000
75.36619 532.000
75.38614 525.000
75.40609 486.000
75.42603 491.000
75.44598 517.000
75.46593 501.000
75.48588 475.000
75.50582 435.000
75.52577 409.000
75.54572 398.000
75.56566 393.000
75.58561 395.000
75.60556 402.000
75.62550 389.000
75.64545 393.000
75.66540 360.000
75.68535 365.000
75.70529 347.000
75.72524 342.000
75.74519 298.000
75.76513 320.000
75.78508 343.000
75.80503 294.000
75.82497 355.000
75.84492 352.000
75.86487 366.000
75.88481 354.000
75.90476 339.000
75.92471 324.000
75.94466 341.000
75.96460 351.000
75.98455 373.000
76.00450 351.000
76.02444 314.000
76.04439 333.000
76.06434 343.000
76.08428 350.000
76.10423 343.000
76.12418 365.000
76.14413 354.000
76.16407 360.000
76.18402 404.000
76.20397 353.000
76.22391 367.000
76.24386 352.000
76.26381 342.000
76.28375 350.000
76.30370 340.000
76.32365 329.000
76.34359 335.000
76.36354 352.000
76.38349 308.000
76.40344 383.000
76.42338 336.000
76.44333 314.000
76.46328 377.000
76.48322 351.000
76.50317 344.000
76.52312 353.000
76.54306 346.000
76.56301 335.000
76.58296 349.000
76.60291 297.000
76.62285 306.000
76.64280 298.000
76.66275 333.000
76.68269 318.000
76.70264 302.000
76.72259 302.000
76.74253 350.000
76.76248 310.000
76.78243 315.000
76.80238 313.000
76.82232 301.000
76.84227 325.000
76.86222 316.000
76.88216 307.000
76.90211 312.000
76.92206 275.000
76.94200 331.000
76.96195 330.000
76.98190 318.000
77.00184 322.000
77.02179 289.000
77.04174 301.000
77.06169 304.000
77.08163 309.000
77.10158 294.000
77.12153 321.000
77.14147 316.000
77.16142 321.000
77.18137 294.000
77.20131 317.000
77.22126 298.000
77.24121 289.000
77.26116 305.000
77.28110 309.000
77.30105 271.000
77.32100 292.000
77.34094 337.000
77.36089 278.000
77.38084 296.000
77.40078 300.000
77.42073 296.000
77.44068 312.000
77.46062 299.000
77.48057 335.000
77.50052 301.000
77.52047 294.000
77.54041 294.000
77.56036 316.000
77.58031 286.000
77.60025 322.000
77.62020 317.000
77.64015 297.000
77.66009 320.000
77.68004 318.000
77.69999 304.000
77.71994 309.000
77.73988 307.000
77.75983 288.000
77.77978 316.000
77.79972 273.000
77.81967 328.000
77.83962 272.000
77.85956 288.000
77.87951 314.000
77.89946 342.000
77.91940 325.000
77.93935 326.000
77.95930 324.000
77.97925 335.000
77.99919 351.000
78.01914 334.000
78.03909 332.000
78.05903 336.000
78.07898 346.000
78.09893 358.000
78.11887 353.000
78.13882 381.000
78.15877 361.000
78.17872 341.000
78.19866 381.000
78.21861 359.000
78.23856 372.000
78.25850 368.000
78.27845 355.000
78.29840 387.000
78.31834 381.000
78.33829 373.000
78.35824 401.000
78.37819 404.000
78.39813 390.000
78.41808 411.000
78.43803 421.000
78.45797 392.000
78.47792 380.000
78.49787 386.000
78.51781 356.000
78.53776 362.000
78.55771 370.000
78.57765 383.000
78.59760 318.000
78.61755 372.000
78.63750 367.000
78.65744 335.000
78.67739 340.000
78.69734 334.000
78.71728 335.000
78.73723 339.000
78.75718 352.000
78.77712 365.000
78.79707 323.000
78.81702 303.000
78.83697 313.000
78.85691 364.000
78.87686 319.000
78.89681 359.000
78.91675 349.000
78.93670 358.000
78.95665 343.000
78.97659 369.000
78.99654 356.000
79.01649 404.000
79.03643 407.000
79.05638 468.000
79.07633 461.000
79.09628 463.000
79.11622 474.000
79.13617 476.000
79.15612 483.000
79.17606 445.000
79.19601 460.000
79.21596 425.000
79.23590 416.000
79.25585 402.000
79.27580 387.000
79.29575 430.000
79.31569 435.000
79.33564 411.000
79.35559 444.000
79.37553 422.000
79.39548 381.000
79.41543 360.000
79.43537 414.000
79.45532 382.000
79.47527 341.000
79.49521 349.000
79.51516 355.000
79.53511 344.000
79.55506 356.000
79.57500 363.000
79.59495 322.000
79.61490 315.000
79.63484 327.000
79.65479 350.000
79.67474 322.000
79.69468 329.000
79.71463 317.000
79.73458 314.000
79.75453 312.000
79.77447 348.000
79.79442 299.000
79.81437 309.000
79.83431 286.000
79.85426 332.000
79.87421 296.000
79.89415 338.000
79.91410 329.000
79.93405 301.000
79.95399 296.000
79.97394 323.000
79.99389 321.000
80.01384 317.000
80.03378 297.000
80.05373 287.000
80.07368 358.000
80.09362 346.000
80.11357 361.000
80.13352 342.000
80.15346 303.000
80.17341 329.000
80.19336 336.000
80.21331 320.000
80.23325 313.000
80.25320 310.000
80.27315 336.000
80.29309 324.000
80.31304 327.000
80.33299 331.000
80.35293 356.000
80.37288 305.000
80.39283 317.000
80.41278 328.000
80.43272 306.000
80.45267 311.000
80.47262 333.000
80.49256 344.000
80.51251 330.000
80.53246 324.000
80.55240 326.000
80.57235 314.000
80.59230 315.000
80.61224 284.000
80.63219 302.000
80.65214 292.000
80.67209 283.000
80.69203 344.000
80.71198 305.000
80.73193 269.000
80.75187 288.000
80.77182 271.000
80.79177 336.000
80.81171 282.000
80.83166 267.000
80.85161 304.000
80.87156 309.000
80.89150 310.000
80.91145 330.000
80.93140 284.000
80.95134 316.000
80.97129 333.000
80.99124 276.000
81.01118 306.000
81.03113 306.000
81.05108 294.000
81.07102 341.000
81.09097 317.000
81.11092 316.000
81.13087 311.000
81.15081 331.000
81.17076 335.000
81.19071 301.000
81.21065 309.000
81.23060 323.000
81.25055 318.000
81.27049 287.000
81.29044 317.000
81.31039 301.000
81.33034 265.000
81.35028 316.000
81.37023 271.000
81.39018 252.000
81.41012 322.000
81.43007 279.000
81.45002 327.000
81.46996 315.000
81.48991 300.000
81.50986 275.000
81.52980 318.000
81.54975 315.000
81.56970 295.000
81.58965 294.000
81.60959 282.000
81.62954 312.000
81.64949 316.000
81.66943 289.000
81.68938 295.000
81.70933 316.000
81.72927 318.000
81.74922 299.000
81.76917 309.000
81.78912 331.000
81.80906 297.000
81.82901 328.000
81.84896 298.000
81.86890 327.000
81.88885 318.000
81.90880 304.000
81.92874 290.000
81.94869 316.000
81.96864 326.000
81.98859 290.000
82.00853 315.000
82.02848 323.000
82.04843 316.000
82.06837 333.000
82.08832 335.000
82.10827 312.000
82.12821 284.000
82.14816 363.000
82.16811 278.000
82.18805 327.000
82.20800 320.000
82.22795 288.000
82.24790 301.000
82.26784 318.000
82.28779 295.000
82.30774 296.000
82.32768 343.000
82.34763 309.000
82.36758 348.000
82.38752 331.000
82.40747 318.000
82.42742 332.000
82.44737 312.000
82.46731 324.000
82.48726 311.000
82.50721 339.000
82.52715 356.000
82.54710 359.000
82.56705 344.000
82.58699 317.000
82.60694 348.000
82.62689 331.000
82.64683 328.000
82.66678 318.000
82.68673 336.000
82.70668 347.000
82.72662 314.000
82.74657 285.000
82.76652 336.000
82.78646 303.000
82.80641 339.000
82.82636 319.000
82.84630 331.000
82.86625 361.000
82.88620 329.000
82.90615 322.000
82.92609 355.000
82.94604 320.000
82.96599 335.000
82.98593 348.000
83.00588 343.000
83.02583 327.000
83.04577 313.000
83.06572 314.000
83.08567 340.000
83.10561 314.000
83.12556 315.000
83.14551 350.000
83.16546 319.000
83.18540 336.000
83.20535 342.000
83.22530 316.000
83.24524 330.000
83.26519 340.000
83.28514 370.000
83.30508 342.000
83.32503 329.000
83.34498 303.000
83.36493 320.000
83.38487 298.000
83.40482 304.000
83.42477 314.000
83.44471 284.000
83.46466 309.000
83.48461 296.000
83.50455 319.000
83.52450 295.000
83.54445 324.000
83.56440 334.000
83.58434 316.000
83.60429 378.000
83.62424 333.000
83.64418 310.000
83.66413 306.000
83.68408 316.000
83.70402 308.000
83.72397 338.000
83.74392 295.000
83.76386 318.000
83.78381 342.000
83.80376 339.000
83.82371 334.000
83.84365 321.000
83.86360 304.000
83.88355 316.000
83.90349 310.000
83.92344 283.000
83.94339 299.000
83.96333 304.000
83.98328 327.000
84.00323 296.000
84.02318 338.000
84.04312 323.000
84.06307 301.000
84.08302 343.000
84.10296 283.000
84.12291 319.000
84.14286 292.000
84.16280 328.000
84.18275 311.000
84.20270 321.000
84.22264 286.000
84.24259 311.000
84.26254 322.000
84.28249 293.000
84.30243 314.000
84.32238 296.000
84.34233 300.000
84.36227 323.000
84.38222 296.000
84.40217 290.000
84.42211 300.000
84.44206 318.000
84.46201 302.000
84.48196 283.000
84.50190 339.000
84.52185 305.000
84.54180 303.000
84.56174 323.000
84.58169 273.000
84.60164 321.000
84.62158 296.000
84.64153 298.000
84.66148 316.000
84.68142 336.000
84.70137 318.000
84.72132 318.000
84.74127 306.000
84.76121 319.000
84.78116 327.000
84.80111 321.000
84.82105 360.000
84.84100 339.000
84.86095 362.000
84.88089 337.000
84.90084 336.000
84.92079 393.000
84.94074 353.000
84.96068 370.000
84.98063 372.000
85.00058 381.000
85.02052 366.000
85.04047 353.000
85.06042 334.000
85.08036 325.000
85.10031 355.000
85.12026 363.000
85.14021 316.000
85.16015 360.000
85.18010 349.000
85.20005 331.000
85.21999 325.000
85.23994 334.000
85.25989 306.000
85.27983 325.000
85.29978 288.000
85.31973 339.000
85.33967 353.000
85.35962 340.000
85.37957 312.000
85.39952 322.000
85.41946 293.000
85.43941 322.000
85.45936 292.000
85.47930 298.000
85.49925 276.000
85.51920 306.000
85.53914 272.000
85.55909 304.000
85.57904 307.000
85.59899 303.000
85.61893 295.000
85.63888 310.000
85.65883 290.000
85.67877 305.000
85.69872 320.000
85.71867 281.000
85.73861 264.000
85.75856 297.000
85.77851 277.000
85.79845 287.000
85.81840 303.000
85.83835 290.000
85.85830 293.000
85.87824 299.000
85.89819 311.000
85.91814 300.000
85.93808 259.000
85.95803 303.000
85.97798 288.000
85.99792 300.000
86.01787 295.000
86.03782 306.000
86.05777 272.000
86.07771 264.000
86.09766 290.000
86.11761 305.000
86.13755 290.000
86.15750 312.000
86.17745 312.000
86.19739 285.000
86.21734 317.000
86.23729 313.000
86.25723 325.000
86.27718 317.000
86.29713 306.000
86.31708 311.000
86.33702 292.000
86.35697 334.000
86.37692 287.000
86.39686 294.000
86.41681 304.000
86.43676 288.000
86.45670 329.000
86.47665 310.000
86.49660 333.000
86.51655 307.000
86.53649 324.000
86.55644 299.000
86.57639 313.000
86.59633 327.000
86.61628 298.000
86.63623 309.000
86.65617 296.000
86.67612 340.000
86.69607 320.000
86.71602 325.000
86.73596 315.000
86.75591 324.000
86.77586 319.000
86.79580 270.000
86.81575 297.000
86.83570 307.000
86.85564 311.000
86.87559 312.000
86.89554 326.000
86.91548 302.000
86.93543 310.000
86.95538 314.000
86.97533 310.000
86.99527 306.000
87.01522 287.000
87.03517 298.000
87.05511 303.000
87.07506 347.000
87.09501 329.000
87.11495 325.000
87.13490 322.000
87.15485 284.000
87.17480 286.000
87.19474 326.000
87.21469 307.000
87.23464 301.000
87.25458 339.000
87.27453 294.000
87.29448 310.000
87.31442 306.000
87.33437 315.000
87.35432 274.000
87.37426 297.000
87.39421 320.000
87.41416 336.000
87.43411 341.000
87.45405 297.000
87.47400 306.000
87.49395 310.000
87.51389 322.000
87.53384 308.000
87.55379 307.000
87.57373 300.000
87.59368 299.000
87.61363 309.000
87.63358 292.000
87.65352 307.000
87.67347 306.000
87.69342 329.000
87.71336 319.000
87.73331 289.000
87.75326 332.000
87.77320 319.000
87.79315 311.000
87.81310 296.000
87.83304 335.000
87.85299 342.000
87.87294 291.000
87.89289 323.000
87.91283 326.000
87.93278 317.000
87.95273 327.000
87.97267 336.000
87.99262 318.000
88.01257 342.000
88.03251 336.000
88.05246 314.000
88.07241 320.000
88.09236 313.000
88.11230 331.000
88.13225 327.000
88.15220 338.000
88.17214 304.000
88.19209 327.000
88.21204 336.000
88.23198 340.000
88.25193 341.000
88.27188 320.000
88.29183 325.000
88.31177 345.000
88.33172 336.000
88.35167 313.000
88.37161 345.000
88.39156 310.000
88.41151 357.000
88.43145 318.000
88.45140 302.000
88.47135 315.000
88.49129 323.000
88.51124 316.000
88.53119 339.000
88.55114 321.000
88.57108 340.000
88.59103 307.000
88.61098 333.000
88.63092 312.000
88.65087 296.000
88.67082 316.000
88.69076 317.000
88.71071 288.000
88.73066 315.000
88.75061 302.000
88.77055 290.000
88.79050 293.000
88.81045 299.000
88.83039 298.000
88.85034 304.000
88.87029 298.000
88.89023 296.000
88.91018 299.000
88.93013 319.000
88.95007 288.000
88.97002 308.000
88.98997 318.000
89.00992 296.000
89.02986 271.000
89.04981 323.000
89.06976 280.000
89.08970 302.000
89.10965 299.000
89.12960 340.000
89.14954 292.000
89.16949 282.000
89.18944 322.000
89.20939 325.000
89.22933 287.000
89.24928 293.000
89.26923 271.000
89.28917 311.000
89.30912 306.000
89.32907 279.000
89.34901 309.000
89.36896 278.000
89.38891 300.000
89.40885 297.000
89.42880 316.000
89.44875 327.000
89.46870 314.000
89.48864 326.000
89.50859 303.000
89.52854 324.000
89.54848 304.000
89.56843 316.000
89.58838 314.000
89.60832 294.000
89.62827 300.000
89.64822 303.000
89.66817 311.000
89.68811 287.000
89.70806 323.000
89.72801 289.000
89.74795 317.000
89.76790 310.000
89.78785 294.000
89.80779 343.000
89.82774 329.000
89.84769 291.000
89.86764 302.000
89.88758 322.000
89.90753 338.000
89.92748 262.000
89.94742 307.000
89.96737 310.000
89.98732 316.000
90.00726 301.000
