10.00000 85.000
10.01995 54.000
10.03989 73.000
10.05984 74.000
10.07979 66.000
10.09973 69.000
10.11968 73.000
10.13963 79.000
10.15958 46.000
10.17952 65.000
10.19947 51.000
10.21942 71.000
10.23936 75.000
10.25931 71.000
10.27926 64.000
10.29920 65.000
10.31915 62.000
10.33910 68.000
10.35905 74.000
10.37899 70.000
10.39894 65.000
10.41889 75.000
10.43883 69.000
10.45878 66.000
10.47873 63.000
10.49867 57.000
10.51862 81.000
10.53857 62.000
10.55851 64.000
10.57846 67.000
10.59841 60.000
10.61836 62.000
10.63830 67.000
10.65825 57.000
10.67820 59.000
10.69814 60.000
10.71809 73.000
10.73804 56.000
10.75798 69.000
10.77793 72.000
10.79788 82.000
10.81783 57.000
10.83777 74.000
10.85772 86.000
10.87767 67.000
10.89761 73.000
10.91756 70.000
10.93751 57.000
10.95745 65.000
10.97740 65.000
10.99735 59.000
11.01730 73.000
11.03724 85.000
11.05719 71.000
11.07714 50.000
11.09708 43.000
11.11703 66.000
11.13698 67.000
11.15692 58.000
11.17687 68.000
11.19682 64.000
11.21676 62.000
11.23671 65.000
11.25666 81.000
11.27661 69.000
11.29655 61.000
11.31650 65.000
11.33645 64.000
11.35639 77.000
11.37634 75.000
11.39629 60.000
11.41623 76.000
11.43618 57.000
11.45613 68.000
11.47608 65.000
11.49602 66.000
11.51597 93.000
11.53592 55.000
11.55586 58.000
11.57581 59.000
11.59576 61.000
11.61570 70.000
11.63565 63.000
11.65560 65.000
11.67554 77.000
11.69549 55.000
11.71544 57.000
11.73539 59.000
11.75533 57.000
11.77528 64.000
11.79523 78.000
11.81517 64.000
11.83512 65.000
11.85507 60.000
11.87501 58.000
11.89496 64.000
11.91491 65.000
11.93486 62.000
11.95480 61.000
11.97475 65.000
11.99470 49.000
12.01464 65.000
12.03459 74.000
12.05454 50.000
12.07448 64.000
12.09443 57.000
12.11438 50.000
12.13432 74.000
12.15427 61.000
12.17422 48.000
12.19417 73.000
12.21411 67.000
12.23406 60.000
12.25401 61.000
12.27395 58.000
12.29390 88.000
12.31385 84.000
12.33379 81.000
12.35374 65.000
12.37369 62.000
12.39364 62.000
12.41358 65.000
12.43353 54.000
12.45348 70.000
12.47342 41.000
12.49337 67.000
12.51332 69.000
12.53326 57.000
12.55321 57.000
12.57316 66.000
12.59311 62.000
12.61305 77.000
12.63300 67.000
12.65295 66.000
12.67289 67.000
12.69284 69.000
12.71279 63.000
12.73273 56.000
12.75268 66.000
12.77263 57.000
12.79257 50.000
12.81252 47.000
12.83247 65.000
12.85242 62.000
12.87236 71.000
12.89231 67.000
12.91226 76.000
12.93220 48.000
12.95215 65.000
12.97210 53.000
12.99204 67.000
13.01199 67.000
13.03194 56.000
13.05189 64.000
13.07183 73.000
13.09178 67.000
13.11173 71.000
13.13167 69.000
13.15162 54.000
13.17157 62.000
13.19151 64.000
13.21146 54.000
13.23141 60.000
13.25135 66.000
13.27130 69.000
13.29125 70.000
13.31120 65.000
13.33114 57.000
13.35109 77.000
13.37104 71.000
13.39098 65.000
13.41093 64.000
13.43088 64.000
13.45082 67.000
13.47077 58.000
13.49072 67.000
13.51067 64.000
13.53061 62.000
13.55056 67.000
13.57051 58.000
13.59045 77.000
13.61040 72.000
13.63035 57.000
13.65029 74.000
13.67024 57.000
13.69019 54.000
13.71013 66.000
13.73008 53.000
13.75003 62.000
13.76998 56.000
13.78992 71.000
13.80987 73.000
13.82982 63.000
13.84976 62.000
13.86971 66.000
13.88966 61.000
13.90960 59.000
13.92955 61.000
13.94950 57.000
13.96945 63.000
13.98939 69.000
14.00934 61.000
14.02929 72.000
14.04923 78.000
14.06918 53.000
14.08913 70.000
14.10907 51.000
14.12902 76.000
14.14897 71.000
14.16892 67.000
14.18886 57.000
14.20881 63.000
14.22876 57.000
14.24870 59.000
14.26865 46.000
14.28860 64.000
14.30854 78.000
14.32849 49.000
14.34844 68.000
14.36838 56.000
14.38833 52.000
14.40828 56.000
14.42823 68.000
14.44817 66.000
14.46812 74.000
14.48807 56.000
14.50801 67.000
14.52796 68.000
14.54791 71.000
14.56785 59.000
14.58780 51.000
14.60775 58.000
14.62770 76.000
14.64764 72.000
14.66759 52.000
14.68754 65.000
14.70748 74.000
14.72743 55.000
14.74738 64.000
14.76732 69.000
14.78727 57.000
14.80722 55.000
14.82716 56.000
14.84711 70.000
14.86706 54.000
14.88701 67.000
14.90695 57.000
14.92690 70.000
14.94685 80.000
14.96679 60.000
14.98674 62.000
15.00669 56.000
15.02663 67.000
15.04658 52.000
15.06653 67.000
15.08648 57.000
15.10642 59.000
15.12637 56.000
15.14632 62.000
15.16626 72.000
15.18621 60.000
15.20616 61.000
15.22610 67.000
15.24605 58.000
15.26600 61.000
15.28594 79.000
15.30589 68.000
15.32584 59.000
15.34579 57.000
15.36573 64.000
15.38568 75.000
15.40563 61.000
15.42557 65.000
15.44552 63.000
15.46547 56.000
15.48541 72.000
15.50536 70.000
15.52531 58.000
15.54526 61.000
15.56520 67.000
15.58515 82.000
15.60510 55.000
15.62504 73.000
15.64499 60.000
15.66494 71.000
15.68488 68.000
15.70483 54.000
15.72478 61.000
15.74472 74.000
15.76467 60.000
15.78462 61.000
15.80457 67.000
15.82451 57.000
15.84446 64.000
15.86441 70.000
15.88435 78.000
15.90430 82.000
15.92425 64.000
15.94419 45.000
15.96414 62.000
15.98409 81.000
16.00404 68.000
16.02398 72.000
16.04393 67.000
16.06388 71.000
16.08382 70.000
16.10377 69.000
16.12372 74.000
16.14366 85.000
16.16361 90.000
16.18356 61.000
16.20351 80.000
16.22345 69.000
16.24340 66.000
16.26335 85.000
16.28329 71.000
16.30324 68.000
16.32319 84.000
16.34313 66.000
16.36308 72.000
16.38303 62.000
16.40297 80.000
16.42292 69.000
16.44287 75.000
16.46282 64.000
16.48276 70.000
16.50271 86.000
16.52266 66.000
16.54260 95.000
16.56255 72.000
16.58250 52.000
16.60244 78.000
16.62239 79.000
16.64234 92.000
16.66229 63.000
16.68223 105.000
16.70218 68.000
16.72213 63.000
16.74207 87.000
16.76202 76.000
16.78197 91.000
16.80191 77.000
16.82186 90.000
16.84181 78.000
16.86175 66.000
16.88170 66.000
16.90165 63.000
16.92160 81.000
16.94154 74.000
16.96149 83.000
16.98144 75.000
17.00138 72.000
17.02133 70.000
17.04128 68.000
17.06122 72.000
17.08117 73.000
17.10112 68.000
17.12107 73.000
17.14101 92.000
17.16096 69.000
17.18091 89.000
17.20085 90.000
17.22080 81.000
17.24075 62.000
17.26069 74.000
17.28064 72.000
17.30059 75.000
17.32053 74.000
17.34048 56.000
17.36043 56.000
17.38038 57.000
17.40032 74.000
17.42027 86.000
17.44022 82.000
17.46016 81.000
17.48011 85.000
17.50006 81.000
17.52000 84.000
17.53995 72.000
17.55990 84.000
17.57985 67.000
17.59979 95.000
17.61974 79.000
17.63969 77.000
17.65963 83.000
17.67958 69.000
17.69953 96.000
17.71947 73.000
17.73942 87.000
17.75937 71.000
17.77932 88.000
17.79926 85.000
17.81921 62.000
17.83916 83.000
17.85910 71.000
17.87905 87.000
17.89900 78.000
17.91894 78.000
17.93889 79.000
17.95884 83.000
17.97878 81.000
17.99873 79.000
18.01868 69.000
18.03863 82.000
18.05857 84.000
18.07852 77.000
18.09847 93.000
18.11841 100.000
18.13836 83.000
18.15831 95.000
18.17825 69.000
18.19820 72.000
18.21815 86.000
18.23810 98.000
18.25804 99.000
18.27799 86.000
18.29794 80.000
18.31788 73.000
18.33783 96.000
18.35778 95.000
18.37772 67.000
18.39767 87.000
18.41762 73.000
18.43756 106.000
18.45751 74.000
18.47746 89.000
18.49741 78.000
18.51735 82.000
18.53730 96.000
18.55725 69.000
18.57719 89.000
18.59714 80.000
18.61709 104.000
18.63703 97.000
18.65698 92.000
18.67693 83.000
18.69688 92.000
18.71682 89.000
18.73677 85.000
18.75672 87.000
18.77666 94.000
18.79661 84.000
18.81656 96.000
18.83650 100.000
18.85645 95.000
18.87640 106.000
18.89634 91.000
18.91629 84.000
18.93624 86.000
18.95619 93.000
18.97613 104.000
18.99608 80.000
19.01603 85.000
19.03597 83.000
19.05592 83.000
19.07587 86.000
19.09581 87.000
19.11576 98.000
19.13571 89.000
19.15566 80.000
19.17560 98.000
19.19555 100.000
19.21550 86.000
19.23544 96.000
19.25539 77.000
19.27534 107.000
19.29528 79.000
19.31523 78.000
19.33518 91.000
19.35513 86.000
19.37507 92.000
19.39502 105.000
19.41497 81.000
19.43491 92.000
19.45486 106.000
19.47481 89.000
19.49475 88.000
19.51470 111.000
19.53465 93.000
19.55459 94.000
19.57454 116.000
19.59449 115.000
19.61444 97.000
19.63438 100.000
19.65433 93.000
19.67428 100.000
19.69422 113.000
19.71417 80.000
19.73412 104.000
19.75406 117.000
19.77401 106.000
19.79396 102.000
19.81391 126.000
19.83385 125.000
19.85380 122.000
19.87375 95.000
19.89369 106.000
19.91364 104.000
19.93359 123.000
19.95353 120.000
19.97348 105.000
19.99343 109.000
20.01337 105.000
20.03332 99.000
20.05327 97.000
20.07322 115.000
20.09316 92.000
20.11311 105.000
20.13306 120.000
20.15300 104.000
20.17295 122.000
20.19290 112.000
20.21284 127.000
20.23279 155.000
20.25274 133.000
20.27269 150.000
20.29263 156.000
20.31258 172.000
20.33253 162.000
20.35247 204.000
20.37242 241.000
20.39237 290.000
20.41231 307.000
20.43226 341.000
20.45221 422.000
20.47215 430.000
20.49210 462.000
20.51205 453.000
20.53200 484.000
20.55194 531.000
20.57189 534.000
20.59184 506.000
20.61178 464.000
20.63173 469.000
20.65168 456.000
20.67162 409.000
20.69157 407.000
20.71152 426.000
20.73147 431.000
20.75141 361.000
20.77136 355.000
20.79131 375.000
20.81125 283.000
20.83120 236.000
20.85115 220.000
20.87109 191.000
20.89104 192.000
20.91099 151.000
20.93094 162.000
20.95088 146.000
20.97083 155.000
20.99078 137.000
21.01072 126.000
21.03067 122.000
21.05062 115.000
21.07056 145.000
21.09051 97.000
21.11046 102.000
21.13040 115.000
21.15035 116.000
21.17030 122.000
21.19025 100.000
21.21019 113.000
21.23014 102.000
21.25009 114.000
21.27003 101.000
21.28998 149.000
21.30993 105.000
21.32987 107.000
21.34982 133.000
21.36977 97.000
21.38972 107.000
21.40966 116.000
21.42961 115.000
21.44956 133.000
21.46950 117.000
21.48945 127.000
21.50940 118.000
21.52934 118.000
21.54929 98.000
21.56924 92.000
21.58918 115.000
21.60913 116.000
21.62908 137.000
21.64903 141.000
21.66897 118.000
21.68892 123.000
21.70887 115.000
21.72881 124.000
21.74876 100.000
21.76871 131.000
21.78865 124.000
21.80860 130.000
21.82855 111.000
21.84850 119.000
21.86844 113.000
21.88839 124.000
21.90834 123.000
21.92828 109.000
21.94823 138.000
21.96818 131.000
21.98812 134.000
22.00807 135.000
22.02802 125.000
22.04796 136.000
22.06791 144.000
22.08786 112.000
22.10781 151.000
22.12775 127.000
22.14770 124.000
22.16765 128.000
22.18759 135.000
22.20754 130.000
22.22749 119.000
22.24743 115.000
22.26738 130.000
22.28733 128.000
22.30728 130.000
22.32722 149.000
22.34717 143.000
22.36712 138.000
22.38706 167.000
22.40701 128.000
22.42696 140.000
22.44690 127.000
22.46685 126.000
22.48680 145.000
22.50675 133.000
22.52669 139.000
22.54664 134.000
22.56659 152.000
22.58653 122.000
22.60648 125.000
22.62643 145.000
22.64637 127.000
22.66632 130.000
22.68627 152.000
22.70621 146.000
22.72616 135.000
22.74611 129.000
22.76606 157.000
22.78600 154.000
22.80595 135.000
22.82590 128.000
22.84584 139.000
22.86579 143.000
22.88574 132.000
22.90568 151.000
22.92563 131.000
22.94558 143.000
22.96553 165.000
22.98547 137.000
23.00542 139.000
23.02537 152.000
23.04531 111.000
23.06526 135.000
23.08521 145.000
23.10515 137.000
23.12510 133.000
23.14505 127.000
23.16499 162.000
23.18494 130.000
23.20489 137.000
23.22484 132.000
23.24478 149.000
23.26473 155.000
23.28468 127.000
23.30462 145.000
23.32457 133.000
23.34452 130.000
23.36446 159.000
23.38441 149.000
23.40436 147.000
23.42431 157.000
23.44425 146.000
23.46420 155.000
23.48415 137.000
23.50409 141.000
23.52404 144.000
23.54399 147.000
23.56393 139.000
23.58388 143.000
23.60383 127.000
23.62377 157.000
23.64372 171.000
23.66367 146.000
23.68362 164.000
23.70356 153.000
23.72351 154.000
23.74346 145.000
23.76340 129.000
23.78335 147.000
23.80330 161.000
23.82324 149.000
23.84319 149.000
23.86314 190.000
23.88309 182.000
23.90303 184.000
23.92298 202.000
23.94293 218.000
23.96287 223.000
23.98282 264.000
24.00277 269.000
24.02271 270.000
24.04266 359.000
24.06261 343.000
24.08256 385.000
24.10250 439.000
24.12245 355.000
24.14240 328.000
24.16234 273.000
24.18229 224.000
24.20224 192.000
24.22218 164.000
24.24213 165.000
24.26208 142.000
24.28202 164.000
24.30197 158.000
24.32192 169.000
24.34187 164.000
24.36181 172.000
24.38176 156.000
24.40171 151.000
24.42165 163.000
24.44160 151.000
24.46155 160.000
24.48149 153.000
24.50144 153.000
24.52139 152.000
24.54134 159.000
24.56128 141.000
24.58123 161.000
24.60118 171.000
24.62112 159.000
24.64107 176.000
24.66102 159.000
24.68096 146.000
24.70091 165.000
24.72086 164.000
24.74080 164.000
24.76075 170.000
24.78070 148.000
24.80065 156.000
24.82059 172.000
24.84054 161.000
24.86049 181.000
24.88043 164.000
24.90038 187.000
24.92033 164.000
24.94027 200.000
24.96022 184.000
24.98017 176.000
25.00012 174.000
25.02006 181.000
25.04001 196.000
25.05996 191.000
25.07990 185.000
25.09985 181.000
25.11980 202.000
25.13974 211.000
25.15969 152.000
25.17964 188.000
25.19958 179.000
25.21953 185.000
25.23948 194.000
25.25943 170.000
25.27937 174.000
25.29932 185.000
25.31927 179.000
25.33921 170.000
25.35916 185.000
25.37911 212.000
25.39905 174.000
25.41900 185.000
25.43895 182.000
25.45890 176.000
25.47884 195.000
25.49879 165.000
25.51874 187.000
25.53868 187.000
25.55863 175.000
25.57858 204.000
25.59852 177.000
25.61847 212.000
25.63842 209.000
25.65837 186.000
25.67831 180.000
25.69826 226.000
25.71821 224.000
25.73815 195.000
25.75810 232.000
25.77805 224.000
25.79799 202.000
25.81794 201.000
25.83789 205.000
25.85783 185.000
25.87778 227.000
25.89773 201.000
25.91768 194.000
25.93762 201.000
25.95757 202.000
25.97752 203.000
25.99746 206.000
26.01741 190.000
26.03736 233.000
26.05730 217.000
26.07725 208.000
26.09720 221.000
26.11715 198.000
26.13709 223.000
26.15704 227.000
26.17699 194.000
26.19693 208.000
26.21688 199.000
26.23683 224.000
26.25677 213.000
26.27672 228.000
26.29667 212.000
26.31661 206.000
26.33656 229.000
26.35651 219.000
26.37646 218.000
26.39640 210.000
26.41635 217.000
26.43630 222.000
26.45624 228.000
26.47619 198.000
26.49614 212.000
26.51608 227.000
26.53603 215.000
26.55598 220.000
26.57593 244.000
26.59587 257.000
26.61582 206.000
26.63577 215.000
26.65571 210.000
26.67566 236.000
26.69561 248.000
26.71555 237.000
26.73550 205.000
26.75545 222.000
26.77539 247.000
26.79534 282.000
26.81529 258.000
26.83524 234.000
26.85518 212.000
26.87513 245.000
26.89508 239.000
26.91502 254.000
26.93497 234.000
26.95492 229.000
26.97486 235.000
26.99481 231.000
27.01476 249.000
27.03471 243.000
27.05465 233.000
27.07460 238.000
27.09455 220.000
27.11449 225.000
27.13444 249.000
27.15439 242.000
27.17433 235.000
27.19428 228.000
27.21423 262.000
27.23417 259.000
27.25412 240.000
27.27407 229.000
27.29402 254.000
27.31396 217.000
27.33391 223.000
27.35386 228.000
27.37380 283.000
27.39375 266.000
27.41370 236.000
27.43364 231.000
27.45359 255.000
27.47354 245.000
27.49349 267.000
27.51343 245.000
27.53338 252.000
27.55333 239.000
27.57327 274.000
27.59322 233.000
27.61317 248.000
27.63311 251.000
27.65306 256.000
27.67301 245.000
27.69296 243.000
27.71290 248.000
27.73285 244.000
27.75280 257.000
27.77274 248.000
27.79269 207.000
27.81264 246.000
27.83258 253.000
27.85253 257.000
27.87248 258.000
27.89242 298.000
27.91237 238.000
27.93232 293.000
27.95227 289.000
27.97221 284.000
27.99216 275.000
28.01211 261.000
28.03205 266.000
28.05200 252.000
28.07195 278.000
28.09189 250.000
28.11184 274.000
28.13179 275.000
28.15174 239.000
28.17168 266.000
28.19163 301.000
28.21158 296.000
28.23152 256.000
28.25147 272.000
28.27142 271.000
28.29136 256.000
28.31131 269.000
28.33126 266.000
28.35120 265.000
28.37115 264.000
28.39110 271.000
28.41105 267.000
28.43099 286.000
28.45094 269.000
28.47089 279.000
28.49083 264.000
28.51078 281.000
28.53073 280.000
28.55067 270.000
28.57062 277.000
28.59057 268.000
28.61052 294.000
28.63046 281.000
28.65041 272.000
28.67036 292.000
28.69030 286.000
28.71025 255.000
28.73020 280.000
28.75014 290.000
28.77009 280.000
28.79004 278.000
28.80998 263.000
28.82993 269.000
28.84988 293.000
28.86983 277.000
28.88977 281.000
28.90972 285.000
28.92967 280.000
28.94961 272.000
28.96956 280.000
28.98951 282.000
29.00945 284.000
29.02940 265.000
29.04935 271.000
29.06930 256.000
29.08924 245.000
29.10919 308.000
29.12914 320.000
29.14908 303.000
29.16903 278.000
29.18898 280.000
29.20892 321.000
29.22887 268.000
29.24882 289.000
29.26877 330.000
29.28871 292.000
29.30866 306.000
29.32861 306.000
29.34855 308.000
29.36850 304.000
29.38845 328.000
29.40839 282.000
29.42834 292.000
29.44829 330.000
29.46823 324.000
29.48818 336.000
29.50813 293.000
29.52808 277.000
29.54802 307.000
29.56797 293.000
29.58792 323.000
29.60786 292.000
29.62781 295.000
29.64776 318.000
29.66770 275.000
29.68765 298.000
29.70760 300.000
29.72755 294.000
29.74749 276.000
29.76744 279.000
29.78739 306.000
29.80733 309.000
29.82728 283.000
29.84723 312.000
29.86717 292.000
29.88712 284.000
29.90707 314.000
29.92701 300.000
29.94696 279.000
29.96691 296.000
29.98686 316.000
30.00680 293.000
30.02675 286.000
30.04670 274.000
30.06664 263.000
30.08659 305.000
30.10654 297.000
30.12648 286.000
30.14643 278.000
30.16638 299.000
30.18633 281.000
30.20627 273.000
30.22622 265.000
30.24617 287.000
30.26611 297.000
30.28606 267.000
30.30601 268.000
30.32595 272.000
30.34590 278.000
30.36585 275.000
30.38579 279.000
30.40574 311.000
30.42569 304.000
30.44564 275.000
30.46558 326.000
30.48553 275.000
30.50548 280.000
30.52542 291.000
30.54537 275.000
30.56532 274.000
30.58526 297.000
30.60521 271.000
30.62516 303.000
30.64511 300.000
30.66505 294.000
30.68500 284.000
30.70495 307.000
30.72489 274.000
30.74484 316.000
30.76479 285.000
30.78473 275.000
30.80468 275.000
30.82463 285.000
30.84458 288.000
30.86452 274.000
30.88447 278.000
30.90442 279.000
30.92436 280.000
30.94431 280.000
30.96426 296.000
30.98420 279.000
31.00415 283.000
31.02410 295.000
31.04404 303.000
31.06399 282.000
31.08394 295.000
31.10389 303.000
31.12383 302.000
31.14378 281.000
31.16373 274.000
31.18367 290.000
31.20362 305.000
31.22357 305.000
31.24351 269.000
31.26346 299.000
31.28341 281.000
31.30336 311.000
31.32330 254.000
31.34325 273.000
31.36320 314.000
31.38314 287.000
31.40309 276.000
31.42304 253.000
31.44298 255.000
31.46293 260.000
31.48288 283.000
31.50282 285.000
31.52277 299.000
31.54272 288.000
31.56267 292.000
31.58261 310.000
31.60256 280.000
31.62251 295.000
31.64245 266.000
31.66240 279.000
31.68235 293.000
31.70229 303.000
31.72224 288.000
31.74219 292.000
31.76214 273.000
31.78208 292.000
31.80203 246.000
31.82198 280.000
31.84192 271.000
31.86187 250.000
31.88182 295.000
31.90176 292.000
31.92171 256.000
31.94166 287.000
31.96160 265.000
31.98155 307.000
32.00150 265.000
32.02145 285.000
32.04139 259.000
32.06134 261.000
32.08129 243.000
32.10123 282.000
32.12118 269.000
32.14113 279.000
32.16107 286.000
32.18102 293.000
32.20097 260.000
32.22092 274.000
32.24086 269.000
32.26081 278.000
32.28076 293.000
32.30070 297.000
32.32065 270.000
32.34060 267.000
32.36054 270.000
32.38049 304.000
32.40044 249.000
32.42039 269.000
32.44033 254.000
32.46028 291.000
32.48023 292.000
32.50017 308.000
32.52012 288.000
32.54007 280.000
32.56001 287.000
32.57996 291.000
32.59991 323.000
32.61985 301.000
32.63980 283.000
32.65975 307.000
32.67970 309.000
32.69964 282.000
32.71959 322.000
32.73954 329.000
32.75948 338.000
32.77943 285.000
32.79938 319.000
32.81932 306.000
32.83927 337.000
32.85922 345.000
32.87917 332.000
32.89911 342.000
32.91906 385.000
32.93901 399.000
32.95895 475.000
32.97890 531.000
32.99885 643.000
33.01879 727.000
33.03874 794.000
33.05869 935.000
33.07863 1045.000
33.09858 1154.000
33.11853 1043.000
33.13848 892.000
33.15842 721.000
33.17837 795.000
33.19832 643.000
33.21826 486.000
33.23821 383.000
33.25816 352.000
33.27810 315.000
33.29805 290.000
33.31800 290.000
33.33795 302.000
33.35789 302.000
33.37784 268.000
33.39779 287.000
33.41773 310.000
33.43768 310.000
33.45763 308.000
33.47757 292.000
33.49752 333.000
33.51747 308.000
33.53741 358.000
33.55736 322.000
33.57731 377.000
33.59726 344.000
33.61720 362.000
33.63715 418.000
33.65710 422.000
33.67704 461.000
33.69699 471.000
33.71694 498.000
33.73688 551.000
33.75683 518.000
33.77678 514.000
33.79673 523.000
33.81667 539.000
33.83662 510.000
33.85657 583.000
33.87651 633.000
33.89646 599.000
33.91641 609.000
33.93635 584.000
33.95630 576.000
33.97625 572.000
33.99620 586.000
34.01614 535.000
34.03609 544.000
34.05604 554.000
34.07598 481.000
34.09593 522.000
34.11588 511.000
34.13582 575.000
34.15577 527.000
34.17572 605.000
34.19566 566.000
34.21561 545.000
34.23556 528.000
34.25551 534.000
34.27545 520.000
34.29540 492.000
34.31535 446.000
34.33529 454.000
34.35524 363.000
34.37519 376.000
34.39513 378.000
34.41508 337.000
34.43503 324.000
34.45498 305.000
34.47492 283.000
34.49487 286.000
34.51482 243.000
34.53476 288.000
34.55471 246.000
34.57466 228.000
34.59460 241.000
34.61455 252.000
34.63450 256.000
34.65444 222.000
34.67439 220.000
34.69434 227.000
34.71429 235.000
34.73423 213.000
34.75418 230.000
34.77413 212.000
34.79407 229.000
34.81402 217.000
34.83397 255.000
34.85391 239.000
34.87386 232.000
34.89381 194.000
34.91376 230.000
34.93370 210.000
34.95365 233.000
34.97360 248.000
34.99354 223.000
35.01349 235.000
35.03344 250.000
35.05338 250.000
35.07333 240.000
35.09328 230.000
35.11322 268.000
35.13317 255.000
35.15312 268.000
35.17307 277.000
35.19301 276.000
35.21296 267.000
35.23291 260.000
35.25285 268.000
35.27280 270.000
35.29275 293.000
35.31269 289.000
35.33264 306.000
35.35259 312.000
35.37254 333.000
35.39248 317.000
35.41243 385.000
35.43238 398.000
35.45232 467.000
35.47227 513.000
35.49222 598.000
35.51216 629.000
35.53211 695.000
35.55206 794.000
35.57201 899.000
35.59195 829.000
35.61190 782.000
35.63185 631.000
35.65179 583.000
35.67174 557.000
35.69169 447.000
35.71163 406.000
35.73158 338.000
35.75153 294.000
35.77147 269.000
35.79142 275.000
35.81137 262.000
35.83132 274.000
35.85126 267.000
35.87121 241.000
35.89116 247.000
35.91110 267.000
35.93105 231.000
35.95100 207.000
35.97094 257.000
35.99089 244.000
36.01084 237.000
36.03079 217.000
36.05073 253.000
36.07068 232.000
36.09063 211.000
36.11057 215.000
36.13052 212.000
36.15047 221.000
36.17041 216.000
36.19036 222.000
36.21031 213.000
36.23025 207.000
36.25020 199.000
36.27015 200.000
36.29010 204.000
36.31004 200.000
36.32999 211.000
36.34994 221.000
36.36988 199.000
36.38983 211.000
36.40978 207.000
36.42972 188.000
36.44967 196.000
36.46962 207.000
36.48957 222.000
36.50951 195.000
36.52946 194.000
36.54941 218.000
36.56935 184.000
36.58930 207.000
36.60925 193.000
36.62919 194.000
36.64914 208.000
36.66909 187.000
36.68903 191.000
36.70898 174.000
36.72893 202.000
36.74888 189.000
36.76882 222.000
36.78877 194.000
36.80872 197.000
36.82866 201.000
36.84861 178.000
36.86856 211.000
36.88850 200.000
36.90845 211.000
36.92840 188.000
36.94835 222.000
36.96829 192.000
36.98824 199.000
37.00819 200.000
37.02813 196.000
37.04808 197.000
37.06803 181.000
37.08797 186.000
37.10792 185.000
37.12787 175.000
37.14781 196.000
37.16776 194.000
37.18771 170.000
37.20766 190.000
37.22760 189.000
37.24755 185.000
37.26750 189.000
37.28744 196.000
37.30739 191.000
37.32734 197.000
37.34728 196.000
37.36723 179.000
37.38718 183.000
37.40713 208.000
37.42707 225.000
37.44702 196.000
37.46697 197.000
37.48691 167.000
37.50686 186.000
37.52681 208.000
37.54675 188.000
37.56670 189.000
37.58665 234.000
37.60660 202.000
37.62654 198.000
37.64649 199.000
37.66644 206.000
37.68638 172.000
37.70633 189.000
37.72628 186.000
37.74622 194.000
37.76617 196.000
37.78612 164.000
37.80606 187.000
37.82601 200.000
37.84596 198.000
37.86591 188.000
37.88585 168.000
37.90580 206.000
37.92575 195.000
37.94569 196.000
37.96564 204.000
37.98559 178.000
38.00553 203.000
38.02548 165.000
38.04543 196.000
38.06538 182.000
38.08532 182.000
38.10527 181.000
38.12522 187.000
38.14516 209.000
38.16511 199.000
38.18506 187.000
38.20500 206.000
38.22495 192.000
38.24490 219.000
38.26484 200.000
38.28479 227.000
38.30474 186.000
38.32469 176.000
38.34463 205.000
38.36458 176.000
38.38453 167.000
38.40447 199.000
38.42442 191.000
38.44437 180.000
38.46431 195.000
38.48426 191.000
38.50421 205.000
38.52416 210.000
38.54410 197.000
38.56405 201.000
38.58400 209.000
38.60394 189.000
38.62389 208.000
38.64384 205.000
38.66378 232.000
38.68373 219.000
38.70368 225.000
38.72362 213.000
38.74357 213.000
38.76352 224.000
38.78347 226.000
38.80341 178.000
38.82336 214.000
38.84331 199.000
38.86325 208.000
38.88320 220.000
38.90315 194.000
38.92309 196.000
38.94304 177.000
38.96299 192.000
38.98294 231.000
39.00288 215.000
39.02283 224.000
39.04278 223.000
39.06272 201.000
39.08267 195.000
39.10262 210.000
39.12256 203.000
39.14251 173.000
39.16246 202.000
39.18241 191.000
39.20235 200.000
39.22230 231.000
39.24225 212.000
39.26219 205.000
39.28214 210.000
39.30209 172.000
39.32203 218.000
39.34198 223.000
39.36193 198.000
39.38187 188.000
39.40182 173.000
39.42177 185.000
39.44172 204.000
39.46166 186.000
39.48161 193.000
39.50156 202.000
39.52150 181.000
39.54145 206.000
39.56140 176.000
39.58134 187.000
39.60129 212.000
39.62124 220.000
39.64119 178.000
39.66113 188.000
39.68108 200.000
39.70103 169.000
39.72097 184.000
39.74092 205.000
39.76087 201.000
39.78081 206.000
39.80076 221.000
39.82071 202.000
39.84065 194.000
39.86060 203.000
39.88055 192.000
39.90050 223.000
39.92044 211.000
39.94039 195.000
39.96034 215.000
39.98028 181.000
40.00023 242.000
40.02018 210.000
40.04012 200.000
40.06007 195.000
40.08002 232.000
40.09997 187.000
40.11991 212.000
40.13986 196.000
40.15981 229.000
40.17975 223.000
40.19970 209.000
40.21965 218.000
40.23959 200.000
40.25954 186.000
40.27949 201.000
40.29943 217.000
40.31938 228.000
40.33933 204.000
40.35928 210.000
40.37922 204.000
40.39917 205.000
40.41912 221.000
40.43906 210.000
40.45901 206.000
40.47896 228.000
40.49890 222.000
40.51885 195.000
40.53880 248.000
40.55875 216.000
40.57869 201.000
40.59864 234.000
40.61859 230.000
40.63853 257.000
40.65848 257.000
40.67843 250.000
40.69837 254.000
40.71832 293.000
40.73827 301.000
40.75822 307.000
40.77816 348.000
40.79811 383.000
40.81806 363.000
40.83800 338.000
40.85795 333.000
40.87790 276.000
40.89784 272.000
40.91779 279.000
40.93774 264.000
40.95768 235.000
40.97763 218.000
40.99758 196.000
41.01753 200.000
41.03747 192.000
41.05742 189.000
41.07737 189.000
41.09731 173.000
41.11726 181.000
41.13721 182.000
41.15715 197.000
41.17710 190.000
41.19705 190.000
41.21700 220.000
41.23694 204.000
41.25689 188.000
41.27684 173.000
41.29678 198.000
41.31673 191.000
41.33668 170.000
41.35662 171.000
41.37657 190.000
41.39652 202.000
41.41646 188.000
41.43641 203.000
41.45636 188.000
41.47631 160.000
41.49625 185.000
41.51620 184.000
41.53615 205.000
41.55609 195.000
41.57604 164.000
41.59599 156.000
41.61593 209.000
41.63588 194.000
41.65583 176.000
41.67578 210.000
41.69572 210.000
41.71567 185.000
41.73562 192.000
41.75556 184.000
41.77551 184.000
41.79546 170.000
41.81540 212.000
41.83535 180.000
41.85530 201.000
41.87524 176.000
41.89519 181.000
41.91514 182.000
41.93509 199.000
41.95503 225.000
41.97498 203.000
41.99493 201.000
42.01487 184.000
42.03482 174.000
42.05477 178.000
42.07471 183.000
42.09466 223.000
42.11461 191.000
42.13456 162.000
42.15450 177.000
42.17445 202.000
42.19440 198.000
42.21434 195.000
42.23429 182.000
42.25424 193.000
42.27418 189.000
42.29413 187.000
42.31408 182.000
42.33403 181.000
42.35397 202.000
42.37392 218.000
42.39387 186.000
42.41381 177.000
42.43376 183.000
42.45371 195.000
42.47365 177.000
42.49360 188.000
42.51355 189.000
42.53349 180.000
42.55344 193.000
42.57339 184.000
42.59334 195.000
42.61328 193.000
42.63323 198.000
42.65318 201.000
42.67312 167.000
42.69307 186.000
42.71302 192.000
42.73296 167.000
42.75291 186.000
42.77286 176.000
42.79281 185.000
42.81275 187.000
42.83270 183.000
42.85265 183.000
42.87259 172.000
42.89254 174.000
42.91249 223.000
42.93243 187.000
42.95238 183.000
42.97233 195.000
42.99227 166.000
43.01222 180.000
43.03217 181.000
43.05212 168.000
43.07206 173.000
43.09201 150.000
43.11196 190.000
43.13190 196.000
43.15185 211.000
43.17180 196.000
43.19174 196.000
43.21169 162.000
43.23164 213.000
43.25159 189.000
43.27153 213.000
43.29148 191.000
43.31143 212.000
43.33137 199.000
43.35132 179.000
43.37127 221.000
43.39121 212.000
43.41116 217.000
43.43111 216.000
43.45105 200.000
43.47100 185.000
43.49095 208.000
43.51090 184.000
43.53084 198.000
43.55079 200.000
43.57074 200.000
43.59068 188.000
43.61063 159.000
43.63058 168.000
43.65052 188.000
43.67047 190.000
43.69042 191.000
43.71037 207.000
43.73031 180.000
43.75026 184.000
43.77021 180.000
43.79015 169.000
43.81010 180.000
43.83005 178.000
43.84999 173.000
43.86994 179.000
43.88989 163.000
43.90984 151.000
43.92978 150.000
43.94973 182.000
43.96968 172.000
43.98962 155.000
44.00957 169.000
44.02952 163.000
44.04946 160.000
44.06941 167.000
44.08936 177.000
44.10930 153.000
44.12925 157.000
44.14920 165.000
44.16915 155.000
44.18909 157.000
44.20904 172.000
44.22899 152.000
44.24893 185.000
44.26888 170.000
44.28883 167.000
44.30877 181.000
44.32872 168.000
44.34867 162.000
44.36862 151.000
44.38856 144.000
44.40851 142.000
44.42846 157.000
44.44840 174.000
44.46835 177.000
44.48830 148.000
44.50824 204.000
44.52819 173.000
44.54814 154.000
44.56808 161.000
44.58803 150.000
44.60798 167.000
44.62793 162.000
44.64787 143.000
44.66782 173.000
44.68777 159.000
44.70771 165.000
44.72766 153.000
44.74761 158.000
44.76755 176.000
44.78750 150.000
44.80745 153.000
44.82740 145.000
44.84734 165.000
44.86729 158.000
44.88724 154.000
44.90718 184.000
44.92713 155.000
44.94708 139.000
44.96702 158.000
44.98697 130.000
45.00692 153.000
45.02686 153.000
45.04681 143.000
45.06676 157.000
45.08671 160.000
45.10665 133.000
45.12660 156.000
45.14655 153.000
45.16649 180.000
45.18644 147.000
45.20639 120.000
45.22633 173.000
45.24628 153.000
45.26623 140.000
45.28618 165.000
45.30612 153.000
45.32607 127.000
45.34602 158.000
45.36596 131.000
45.38591 143.000
45.40586 149.000
45.42580 166.000
45.44575 158.000
45.46570 130.000
45.48565 136.000
45.50559 139.000
45.52554 130.000
45.54549 165.000
45.56543 141.000
45.58538 152.000
45.60533 157.000
45.62527 159.000
45.64522 142.000
45.66517 141.000
45.68511 142.000
45.70506 141.000
45.72501 140.000
45.74496 142.000
45.76490 149.000
45.78485 171.000
45.80480 136.000
45.82474 148.000
45.84469 146.000
45.86464 135.000
45.88458 146.000
45.90453 125.000
45.92448 136.000
45.94443 137.000
45.96437 145.000
45.98432 149.000
46.00427 157.000
46.02421 146.000
46.04416 145.000
46.06411 133.000
46.08405 128.000
46.10400 138.000
46.12395 136.000
46.14389 147.000
46.16384 146.000
46.18379 125.000
46.20374 171.000
46.22368 133.000
46.24363 146.000
46.26358 150.000
46.28352 150.000
46.30347 147.000
46.32342 139.000
46.34336 146.000
46.36331 144.000
46.38326 138.000
46.40321 144.000
46.42315 160.000
46.44310 127.000
46.46305 145.000
46.48299 160.000
46.50294 140.000
46.52289 135.000
46.54283 157.000
46.56278 133.000
46.58273 156.000
46.60267 159.000
46.62262 125.000
46.64257 128.000
46.66252 138.000
46.68246 125.000
46.70241 130.000
46.72236 142.000
46.74230 133.000
46.76225 132.000
46.78220 150.000
46.80214 110.000
46.82209 153.000
46.84204 145.000
46.86199 127.000
46.88193 126.000
46.90188 130.000
46.92183 135.000
46.94177 132.000
46.96172 130.000
46.98167 152.000
47.00161 143.000
47.02156 143.000
47.04151 137.000
47.06146 149.000
47.08140 129.000
47.10135 126.000
47.12130 131.000
47.14124 133.000
47.16119 121.000
47.18114 144.000
47.20108 126.000
47.22103 149.000
47.24098 117.000
47.26092 121.000
47.28087 155.000
47.30082 132.000
47.32077 130.000
47.34071 125.000
47.36066 117.000
47.38061 130.000
47.40055 128.000
47.42050 135.000
47.44045 139.000
47.46039 142.000
47.48034 116.000
47.50029 118.000
47.52024 159.000
47.54018 134.000
47.56013 152.000
47.58008 116.000
47.60002 133.000
47.61997 114.000
47.63992 143.000
47.65986 130.000
47.67981 136.000
47.69976 139.000
47.71970 108.000
47.73965 133.000
47.75960 139.000
47.77955 126.000
47.79949 104.000
47.81944 136.000
47.83939 119.000
47.85933 126.000
47.87928 115.000
47.89923 133.000
47.91917 141.000
47.93912 131.000
47.95907 119.000
47.97902 152.000
47.99896 138.000
48.01891 105.000
48.03886 126.000
48.05880 119.000
48.07875 130.000
48.09870 107.000
48.11864 128.000
48.13859 120.000
48.15854 136.000
48.17848 151.000
48.19843 141.000
48.21838 126.000
48.23833 127.000
48.25827 134.000
48.27822 127.000
48.29817 139.000
48.31811 123.000
48.33806 123.000
48.35801 132.000
48.37795 131.000
48.39790 153.000
48.41785 124.000
48.43780 145.000
48.45774 146.000
48.47769 150.000
48.49764 155.000
48.51758 146.000
48.53753 151.000
48.55748 144.000
48.57742 156.000
48.59737 133.000
48.61732 166.000
48.63726 159.000
48.65721 187.000
48.67716 169.000
48.69711 172.000
48.71705 172.000
48.73700 172.000
48.75695 160.000
48.77689 166.000
48.79684 145.000
48.81679 166.000
48.83673 180.000
48.85668 167.000
48.87663 185.000
48.89658 176.000
48.91652 171.000
48.93647 163.000
48.95642 175.000
48.97636 186.000
48.99631 173.000
49.01626 184.000
49.03620 172.000
49.05615 180.000
49.07610 155.000
49.09605 181.000
49.11599 191.000
49.13594 190.000
49.15589 220.000
49.17583 183.000
49.19578 208.000
49.21573 212.000
49.23567 192.000
49.25562 228.000
49.27557 220.000
49.29551 261.000
49.31546 289.000
49.33541 304.000
49.35536 354.000
49.37530 369.000
49.39525 407.000
49.41520 388.000
49.43514 353.000
49.45509 325.000
49.47504 286.000
49.49498 269.000
49.51493 271.000
49.53488 260.000
49.55483 263.000
49.57477 248.000
49.59472 183.000
49.61467 164.000
49.63461 159.000
49.65456 154.000
49.67451 124.000
49.69445 128.000
49.71440 142.000
49.73435 117.000
49.75429 130.000
49.77424 126.000
49.79419 131.000
49.81414 122.000
49.83408 105.000
49.85403 133.000
49.87398 111.000
49.89392 116.000
49.91387 121.000
49.93382 119.000
49.95376 141.000
49.97371 105.000
49.99366 126.000
50.01361 107.000
50.03355 140.000
50.05350 127.000
50.07345 121.000
50.09339 119.000
50.11334 127.000
50.13329 120.000
50.15323 122.000
50.17318 133.000
50.19313 131.000
50.21307 118.000
50.23302 117.000
50.25297 109.000
50.27292 121.000
50.29286 135.000
50.31281 124.000
50.33276 113.000
50.35270 139.000
50.37265 140.000
50.39260 147.000
50.41254 127.000
50.43249 116.000
50.45244 110.000
50.47239 100.000
50.49233 118.000
50.51228 128.000
50.53223 120.000
50.55217 124.000
50.57212 115.000
50.59207 98.000
50.61201 144.000
50.63196 118.000
50.65191 113.000
50.67186 113.000
50.69180 125.000
50.71175 130.000
50.73170 113.000
50.75164 129.000
50.77159 110.000
50.79154 113.000
50.81148 125.000
50.83143 121.000
50.85138 106.000
50.87132 110.000
50.89127 117.000
50.91122 118.000
50.93117 120.000
50.95111 112.000
50.97106 113.000
50.99101 105.000
51.01095 123.000
51.03090 131.000
51.05085 119.000
51.07079 100.000
51.09074 143.000
51.11069 114.000
51.13064 104.000
51.15058 103.000
51.17053 108.000
51.19048 103.000
51.21042 102.000
51.23037 108.000
51.25032 112.000
51.27026 110.000
51.29021 110.000
51.31016 119.000
51.33010 85.000
51.35005 89.000
51.37000 111.000
51.38995 104.000
51.40989 101.000
51.42984 114.000
51.44979 95.000
51.46973 106.000
51.48968 100.000
51.50963 110.000
51.52957 116.000
51.54952 104.000
51.56947 124.000
51.58942 106.000
51.60936 122.000
51.62931 112.000
51.64926 122.000
51.66920 95.000
51.68915 103.000
51.70910 95.000
51.72904 104.000
51.74899 96.000
51.76894 117.000
51.78888 109.000
51.80883 102.000
51.82878 113.000
51.84873 112.000
51.86867 109.000
51.88862 117.000
51.90857 95.000
51.92851 121.000
51.94846 93.000
51.96841 115.000
51.98835 113.000
52.00830 107.000
52.02825 104.000
52.04820 117.000
52.06814 83.000
52.08809 107.000
52.10804 110.000
52.12798 112.000
52.14793 103.000
52.16788 87.000
52.18782 125.000
52.20777 113.000
52.22772 96.000
52.24767 112.000
52.26761 111.000
52.28756 94.000
52.30751 109.000
52.32745 120.000
52.34740 120.000
52.36735 108.000
52.38729 110.000
52.40724 109.000
52.42719 110.000
52.44713 109.000
52.46708 118.000
52.48703 123.000
52.50698 89.000
52.52692 113.000
52.54687 98.000
52.56682 114.000
52.58676 109.000
52.60671 136.000
52.62666 109.000
52.64660 84.000
52.66655 124.000
52.68650 111.000
52.70645 116.000
52.72639 96.000
52.74634 98.000
52.76629 121.000
52.78623 91.000
52.80618 103.000
52.82613 111.000
52.84607 113.000
52.86602 101.000
52.88597 112.000
52.90591 118.000
52.92586 109.000
52.94581 116.000
52.96576 122.000
52.98570 87.000
53.00565 109.000
53.02560 109.000
53.04554 115.000
53.06549 109.000
53.08544 122.000
53.10538 116.000
53.12533 112.000
53.14528 151.000
53.16523 115.000
53.18517 110.000
53.20512 131.000
53.22507 128.000
53.24501 130.000
53.26496 117.000
53.28491 125.000
53.30485 109.000
53.32480 117.000
53.34475 111.000
53.36469 132.000
53.38464 129.000
53.40459 146.000
53.42454 137.000
53.44448 131.000
53.46443 128.000
53.48438 123.000
53.50432 137.000
53.52427 143.000
53.54422 144.000
53.56416 139.000
53.58411 151.000
53.60406 141.000
53.62401 168.000
53.64395 132.000
53.66390 141.000
53.68385 153.000
53.70379 140.000
53.72374 159.000
53.74369 164.000
53.76363 177.000
53.78358 173.000
53.80353 165.000
53.82348 177.000
53.84342 180.000
53.86337 199.000
53.88332 254.000
53.90326 268.000
53.92321 289.000
53.94316 330.000
53.96310 380.000
53.98305 444.000
54.00300 452.000
54.02294 416.000
54.04289 347.000
54.06284 335.000
54.08279 298.000
54.10273 286.000
54.12268 285.000
54.14263 271.000
54.16257 252.000
54.18252 246.000
54.20247 208.000
54.22241 143.000
54.24236 134.000
54.26231 134.000
54.28226 130.000
54.30220 124.000
54.32215 110.000
54.34210 102.000
54.36204 128.000
54.38199 134.000
54.40194 111.000
54.42188 102.000
54.44183 104.000
54.46178 102.000
54.48172 118.000
54.50167 100.000
54.52162 104.000
54.54157 87.000
54.56151 96.000
54.58146 112.000
54.60141 117.000
54.62135 98.000
54.64130 99.000
54.66125 123.000
54.68119 81.000
54.70114 106.000
54.72109 108.000
54.74104 92.000
54.76098 106.000
54.78093 103.000
54.80088 114.000
54.82082 82.000
54.84077 95.000
54.86072 101.000
54.88066 88.000
54.90061 97.000
54.92056 89.000
54.94050 107.000
54.96045 99.000
54.98040 123.000
55.00035 100.000
55.02029 93.000
55.04024 94.000
55.06019 126.000
55.08013 113.000
55.10008 111.000
55.12003 103.000
55.13997 103.000
55.15992 115.000
55.17987 94.000
55.19982 108.000
55.21976 93.000
55.23971 103.000
55.25966 105.000
55.27960 110.000
55.29955 104.000
55.31950 105.000
55.33944 97.000
55.35939 112.000
55.37934 123.000
55.39929 93.000
55.41923 109.000
55.43918 121.000
55.45913 113.000
55.47907 92.000
55.49902 106.000
55.51897 102.000
55.53891 141.000
55.55886 123.000
55.57881 117.000
55.59875 87.000
55.61870 104.000
55.63865 112.000
55.65860 88.000
55.67854 86.000
55.69849 112.000
55.71844 113.000
55.73838 93.000
55.75833 84.000
55.77828 98.000
55.79822 92.000
55.81817 104.000
55.83812 95.000
55.85807 92.000
55.87801 96.000
55.89796 106.000
55.91791 101.000
55.93785 109.000
55.95780 92.000
55.97775 93.000
55.99769 93.000
56.01764 106.000
56.03759 89.000
56.05753 111.000
56.07748 102.000
56.09743 100.000
56.11738 105.000
56.13732 113.000
56.15727 102.000
56.17722 91.000
56.19716 114.000
56.21711 79.000
56.23706 106.000
56.25700 110.000
56.27695 99.000
56.29690 100.000
56.31685 90.000
56.33679 90.000
56.35674 96.000
56.37669 83.000
56.39663 85.000
56.41658 71.000
56.43653 97.000
56.45647 88.000
56.47642 114.000
56.49637 108.000
56.51631 93.000
56.53626 107.000
56.55621 97.000
56.57616 86.000
56.59610 107.000
56.61605 85.000
56.63600 92.000
56.65594 94.000
56.67589 94.000
56.69584 87.000
56.71578 90.000
56.73573 109.000
56.75568 120.000
56.77563 90.000
56.79557 86.000
56.81552 113.000
56.83547 94.000
56.85541 92.000
56.87536 92.000
56.89531 112.000
56.91525 89.000
56.93520 90.000
56.95515 87.000
56.97510 90.000
56.99504 101.000
57.01499 106.000
57.03494 100.000
57.05488 102.000
57.07483 89.000
57.09478 87.000
57.11472 121.000
57.13467 121.000
57.15462 118.000
57.17456 109.000
57.19451 106.000
57.21446 87.000
57.23441 86.000
57.25435 111.000
57.27430 113.000
57.29425 97.000
57.31419 125.000
57.33414 118.000
57.35409 115.000
57.37403 135.000
57.39398 124.000
57.41393 145.000
57.43388 136.000
57.45382 135.000
57.47377 152.000
57.49372 145.000
57.51366 168.000
57.53361 149.000
57.55356 146.000
57.57350 137.000
57.59345 132.000
57.61340 124.000
57.63334 126.000
57.65329 138.000
57.67324 134.000
57.69319 134.000
57.71313 139.000
57.73308 117.000
57.75303 114.000
57.77297 108.000
57.79292 101.000
57.81287 102.000
57.83281 99.000
57.85276 88.000
57.87271 105.000
57.89266 118.000
57.91260 100.000
57.93255 88.000
57.95250 82.000
57.97244 112.000
57.99239 85.000
58.01234 105.000
58.03228 86.000
58.05223 92.000
58.07218 82.000
58.09212 105.000
58.11207 80.000
58.13202 111.000
58.15197 92.000
58.17191 95.000
58.19186 90.000
58.21181 96.000
58.23175 89.000
58.25170 90.000
58.27165 79.000
58.29159 93.000
58.31154 82.000
58.33149 92.000
58.35144 113.000
58.37138 88.000
58.39133 93.000
58.41128 103.000
58.43122 107.000
58.45117 94.000
58.47112 79.000
58.49106 113.000
58.51101 102.000
58.53096 97.000
58.55090 94.000
58.57085 99.000
58.59080 90.000
58.61075 83.000
58.63069 103.000
58.65064 89.000
58.67059 66.000
58.69053 111.000
58.71048 95.000
58.73043 97.000
58.75037 91.000
58.77032 84.000
58.79027 93.000
58.81022 99.000
58.83016 104.000
58.85011 92.000
58.87006 94.000
58.89000 86.000
58.90995 99.000
58.92990 107.000
58.94984 114.000
58.96979 92.000
58.98974 87.000
59.00969 83.000
59.02963 96.000
59.04958 89.000
59.06953 94.000
59.08947 89.000
59.10942 97.000
59.12937 88.000
59.14931 77.000
59.16926 103.000
59.18921 99.000
59.20915 87.000
59.22910 79.000
59.24905 91.000
59.26900 87.000
59.28894 89.000
59.30889 92.000
59.32884 86.000
59.34878 93.000
59.36873 100.000
59.38868 94.000
59.40862 77.000
59.42857 94.000
59.44852 93.000
59.46847 93.000
59.48841 95.000
59.50836 91.000
59.52831 81.000
59.54825 82.000
59.56820 92.000
59.58815 85.000
59.60809 102.000
59.62804 91.000
59.64799 105.000
59.66793 107.000
59.68788 83.000
59.70783 97.000
59.72778 93.000
59.74772 92.000
59.76767 97.000
59.78762 99.000
59.80756 90.000
59.82751 91.000
59.84746 88.000
59.86740 99.000
59.88735 106.000
59.90730 97.000
59.92725 108.000
59.94719 85.000
59.96714 97.000
59.98709 108.000
60.00703 104.000
60.02698 102.000
60.04693 96.000
60.06687 107.000
60.08682 110.000
60.10677 101.000
60.12671 117.000
60.14666 106.000
60.16661 89.000
60.18656 102.000
60.20650 115.000
60.22645 111.000
60.24640 109.000
60.26634 99.000
60.28629 107.000
60.30624 115.000
60.32618 126.000
60.34613 130.000
60.36608 119.000
60.38603 112.000
60.40597 121.000
60.42592 145.000
60.44587 134.000
60.46581 146.000
60.48576 141.000
60.50571 123.000
60.52565 125.000
60.54560 145.000
60.56555 137.000
60.58550 147.000
60.60544 150.000
60.62539 137.000
60.64534 136.000
60.66528 135.000
60.68523 142.000
60.70518 162.000
60.72512 162.000
60.74507 158.000
60.76502 150.000
60.78496 166.000
60.80491 164.000
60.82486 149.000
60.84481 171.000
60.86475 155.000
60.88470 155.000
60.90465 161.000
60.92459 157.000
60.94454 150.000
60.96449 149.000
60.98443 162.000
61.00438 132.000
61.02433 161.000
61.04428 165.000
61.06422 176.000
61.08417 149.000
61.10412 145.000
61.12406 120.000
61.14401 166.000
61.16396 112.000
61.18390 148.000
61.20385 147.000
61.22380 153.000
61.24374 155.000
61.26369 146.000
61.28364 148.000
61.30359 158.000
61.32353 147.000
61.34348 165.000
61.36343 165.000
61.38337 149.000
61.40332 160.000
61.42327 147.000
61.44321 172.000
61.46316 137.000
61.48311 141.000
61.50306 128.000
61.52300 145.000
61.54295 139.000
61.56290 134.000
61.58284 135.000
61.60279 97.000
61.62274 118.000
61.64268 118.000
61.66263 95.000
61.68258 103.000
61.70252 97.000
61.72247 106.000
61.74242 115.000
61.76237 122.000
61.78231 117.000
61.80226 97.000
61.82221 101.000
61.84215 106.000
61.86210 118.000
61.88205 102.000
61.90199 114.000
61.92194 113.000
61.94189 111.000
61.96184 98.000
61.98178 109.000
62.00173 92.000
62.02168 93.000
62.04162 110.000
62.06157 99.000
62.08152 113.000
62.10146 134.000
62.12141 110.000
62.14136 127.000
62.16131 146.000
62.18125 119.000
62.20120 117.000
62.22115 140.000
62.24109 147.000
62.26104 188.000
62.28099 192.000
62.30093 201.000
62.32088 224.000
62.34083 253.000
62.36077 302.000
62.38072 317.000
62.40067 285.000
62.42062 279.000
62.44056 217.000
62.46051 205.000
62.48046 189.000
62.50040 200.000
62.52035 176.000
62.54030 207.000
62.56024 206.000
62.58019 212.000
62.60014 154.000
62.62009 141.000
62.64003 130.000
62.65998 128.000
62.67993 104.000
62.69987 101.000
62.71982 106.000
62.73977 75.000
62.75971 103.000
62.77966 84.000
62.79961 99.000
62.81955 68.000
62.83950 93.000
62.85945 89.000
62.87940 90.000
62.89934 91.000
62.91929 77.000
62.93924 111.000
62.95918 77.000
62.97913 90.000
62.99908 89.000
63.01902 95.000
63.03897 86.000
63.05892 74.000
63.07887 84.000
63.09881 95.000
63.11876 80.000
63.13871 82.000
63.15865 92.000
63.17860 94.000
63.19855 75.000
63.21849 97.000
63.23844 89.000
63.25839 84.000
63.27833 78.000
63.29828 83.000
63.31823 91.000
63.33818 84.000
63.35812 86.000
63.37807 96.000
63.39802 86.000
63.41796 86.000
63.43791 91.000
63.45786 106.000
63.47780 93.000
63.49775 91.000
63.51770 97.000
63.53765 99.000
63.55759 114.000
63.57754 108.000
63.59749 93.000
63.61743 85.000
63.63738 86.000
63.65733 105.000
63.67727 112.000
63.69722 104.000
63.71717 109.000
63.73712 105.000
63.75706 133.000
63.77701 132.000
63.79696 148.000
63.81690 171.000
63.83685 165.000
63.85680 203.000
63.87674 205.000
63.89669 246.000
63.91664 269.000
63.93658 317.000
63.95653 268.000
63.97648 279.000
63.99643 261.000
64.01637 231.000
64.03632 180.000
64.05627 199.000
64.07621 186.000
64.09616 191.000
64.11611 187.000
64.13605 163.000
64.15600 168.000
64.17595 176.000
64.19590 154.000
64.21584 129.000
64.23579 109.000
64.25574 102.000
64.27568 95.000
64.29563 102.000
64.31558 98.000
64.33552 101.000
64.35547 86.000
64.37542 81.000
64.39536 86.000
64.41531 97.000
64.43526 90.000
64.45521 81.000
64.47515 82.000
64.49510 87.000
64.51505 85.000
64.53499 80.000
64.55494 86.000
64.57489 88.000
64.59483 88.000
64.61478 86.000
64.63473 95.000
64.65468 103.000
64.67462 85.000
64.69457 90.000
64.71452 77.000
64.73446 85.000
64.75441 89.000
64.77436 91.000
64.79430 81.000
64.81425 88.000
64.83420 81.000
64.85414 104.000
64.87409 84.000
64.89404 97.000
64.91399 107.000
64.93393 93.000
64.95388 96.000
64.97383 89.000
64.99377 102.000
65.01372 80.000
65.03367 108.000
65.05361 104.000
65.07356 83.000
65.09351 80.000
65.11346 92.000
65.13340 91.000
65.15335 84.000
65.17330 94.000
65.19324 89.000
65.21319 94.000
65.23314 99.000
65.25308 85.000
65.27303 87.000
65.29298 100.000
65.31293 89.000
65.33287 83.000
65.35282 80.000
65.37277 76.000
65.39271 83.000
65.41266 99.000
65.43261 101.000
65.45255 82.000
65.47250 101.000
65.49245 90.000
65.51239 98.000
65.53234 101.000
65.55229 73.000
65.57224 64.000
65.59218 92.000
65.61213 80.000
65.63208 83.000
65.65202 81.000
65.67197 84.000
65.69192 71.000
65.71186 78.000
65.73181 81.000
65.75176 76.000
65.77171 104.000
65.79165 100.000
65.81160 96.000
65.83155 77.000
65.85149 78.000
65.87144 88.000
65.89139 94.000
65.91133 71.000
65.93128 94.000
65.95123 81.000
65.97117 81.000
65.99112 83.000
66.01107 96.000
66.03102 80.000
66.05096 64.000
66.07091 97.000
66.09086 92.000
66.11080 92.000
66.13075 81.000
66.15070 91.000
66.17064 69.000
66.19059 70.000
66.21054 81.000
66.23049 68.000
66.25043 58.000
66.27038 74.000
66.29033 70.000
66.31027 89.000
66.33022 60.000
66.35017 80.000
66.37011 74.000
66.39006 89.000
66.41001 62.000
66.42995 69.000
66.44990 69.000
66.46985 75.000
66.48980 81.000
66.50974 77.000
66.52969 83.000
66.54964 75.000
66.56958 86.000
66.58953 85.000
66.60948 80.000
66.62942 77.000
66.64937 81.000
66.66932 60.000
66.68927 86.000
66.70921 74.000
66.72916 83.000
66.74911 74.000
66.76905 82.000
66.78900 80.000
66.80895 85.000
66.82889 62.000
66.84884 66.000
66.86879 76.000
66.88874 71.000
66.90868 69.000
66.92863 92.000
66.94858 66.000
66.96852 93.000
66.98847 66.000
67.00842 95.000
67.02836 81.000
67.04831 85.000
67.06826 74.000
67.08820 84.000
67.10815 88.000
67.12810 62.000
67.14805 75.000
67.16799 80.000
67.18794 72.000
67.20789 91.000
67.22783 81.000
67.24778 77.000
67.26773 71.000
67.28767 65.000
67.30762 75.000
67.32757 76.000
67.34752 82.000
67.36746 71.000
67.38741 78.000
67.40736 78.000
67.42730 51.000
67.44725 71.000
67.46720 87.000
67.48714 76.000
67.50709 76.000
67.52704 78.000
67.54698 65.000
67.56693 65.000
67.58688 88.000
67.60683 62.000
67.62677 62.000
67.64672 79.000
67.66667 81.000
67.68661 83.000
67.70656 67.000
67.72651 80.000
67.74645 77.000
67.76640 80.000
67.78635 64.000
67.80630 75.000
67.82624 85.000
67.84619 88.000
67.86614 65.000
67.88608 86.000
67.90603 90.000
67.92598 97.000
67.94592 77.000
67.96587 62.000
67.98582 63.000
68.00576 87.000
68.02571 55.000
68.04566 75.000
68.06561 88.000
68.08555 75.000
68.10550 75.000
68.12545 71.000
68.14539 55.000
68.16534 85.000
68.18529 76.000
68.20523 77.000
68.22518 75.000
68.24513 74.000
68.26508 59.000
68.28502 87.000
68.30497 80.000
68.32492 65.000
68.34486 81.000
68.36481 63.000
68.38476 79.000
68.40470 66.000
68.42465 71.000
68.44460 64.000
68.46455 86.000
68.48449 74.000
68.50444 76.000
68.52439 68.000
68.54433 77.000
68.56428 73.000
68.58423 60.000
68.60417 66.000
68.62412 61.000
68.64407 69.000
68.66401 72.000
68.68396 59.000
68.70391 73.000
68.72386 78.000
68.74380 81.000
68.76375 71.000
68.78370 68.000
68.80364 74.000
68.82359 68.000
68.84354 73.000
68.86348 89.000
68.88343 70.000
68.90338 63.000
68.92333 69.000
68.94327 88.000
68.96322 87.000
68.98317 85.000
69.00311 69.000
69.02306 69.000
69.04301 72.000
69.06295 70.000
69.08290 65.000
69.10285 71.000
69.12279 82.000
69.14274 76.000
69.16269 76.000
69.18264 83.000
69.20258 63.000
69.22253 74.000
69.24248 60.000
69.26242 71.000
69.28237 77.000
69.30232 74.000
69.32226 81.000
69.34221 69.000
69.36216 61.000
69.38211 67.000
69.40205 84.000
69.42200 76.000
69.44195 94.000
69.46189 90.000
69.48184 75.000
69.50179 97.000
69.52173 94.000
69.54168 97.000
69.56163 78.000
69.58157 83.000
69.60152 81.000
69.62147 101.000
69.64142 86.000
69.66136 91.000
69.68131 89.000
69.70126 76.000
69.72120 72.000
69.74115 79.000
69.76110 68.000
69.78104 78.000
69.80099 83.000
69.82094 82.000
69.84089 75.000
69.86083 84.000
69.88078 70.000
69.90073 64.000
69.92067 68.000
69.94062 66.000
69.96057 78.000
69.98051 58.000
70.00046 75.000
70.02041 76.000
70.04035 70.000
70.06030 76.000
70.08025 82.000
70.10020 64.000
70.12014 84.000
70.14009 76.000
70.16004 58.000
70.17998 74.000
70.19993 66.000
70.21988 67.000
70.23982 65.000
70.25977 73.000
70.27972 74.000
70.29967 72.000
70.31961 81.000
70.33956 65.000
70.35951 64.000
70.37945 78.000
70.39940 75.000
70.41935 62.000
70.43929 73.000
70.45924 71.000
70.47919 71.000
70.49914 80.000
70.51908 56.000
70.53903 68.000
70.55898 60.000
70.57892 66.000
70.59887 76.000
70.61882 64.000
70.63876 60.000
70.65871 60.000
70.67866 71.000
70.69860 73.000
70.71855 78.000
70.73850 78.000
70.75845 61.000
70.77839 77.000
70.79834 75.000
70.81829 79.000
70.83823 74.000
70.85818 73.000
70.87813 68.000
70.89807 70.000
70.91802 75.000
70.93797 77.000
70.95792 80.000
70.97786 76.000
70.99781 86.000
71.01776 92.000
71.03770 73.000
71.05765 78.000
71.07760 68.000
71.09754 90.000
71.11749 80.000
71.13744 86.000
71.15738 89.000
71.17733 85.000
71.19728 75.000
71.21723 82.000
71.23717 72.000
71.25712 85.000
71.27707 90.000
71.29701 78.000
71.31696 75.000
71.33691 75.000
71.35685 85.000
71.37680 94.000
71.39675 85.000
71.41670 94.000
71.43664 82.000
71.45659 109.000
71.47654 75.000
71.49648 86.000
71.51643 80.000
71.53638 76.000
71.55632 104.000
71.57627 99.000
71.59622 97.000
71.61616 76.000
71.63611 109.000
71.65606 88.000
71.67601 99.000
71.69595 98.000
71.71590 102.000
71.73585 105.000
71.75579 107.000
71.77574 109.000
71.79569 141.000
71.81563 114.000
71.83558 139.000
71.85553 156.000
71.87548 171.000
71.89542 134.000
71.91537 126.000
71.93532 127.000
71.95526 121.000
71.97521 108.000
71.99516 98.000
72.01510 102.000
72.03505 120.000
72.05500 136.000
72.07495 98.000
72.09489 126.000
72.11484 118.000
72.13479 115.000
72.15473 99.000
72.17468 92.000
72.19463 108.000
72.21457 103.000
72.23452 98.000
72.25447 96.000
72.27441 99.000
72.29436 90.000
72.31431 76.000
72.33426 91.000
72.35420 91.000
72.37415 69.000
72.39410 96.000
72.41404 77.000
72.43399 66.000
72.45394 84.000
72.47388 78.000
72.49383 93.000
72.51378 98.000
72.53373 69.000
72.55367 69.000
72.57362 83.000
72.59357 77.000
72.61351 81.000
72.63346 65.000
72.65341 78.000
72.67335 78.000
72.69330 87.000
72.71325 70.000
72.73319 73.000
72.75314 63.000
72.77309 97.000
72.79304 67.000
72.81298 62.000
72.83293 74.000
72.85288 61.000
72.87282 64.000
72.89277 55.000
72.91272 56.000
72.93266 70.000
72.95261 67.000
72.97256 55.000
72.99251 64.000
73.01245 70.000
73.03240 76.000
73.05235 65.000
73.07229 54.000
73.09224 65.000
73.11219 58.000
73.13213 67.000
73.15208 67.000
73.17203 61.000
73.19197 60.000
73.21192 56.000
73.23187 73.000
73.25182 83.000
73.27176 69.000
73.29171 70.000
73.31166 71.000
73.33160 66.000
73.35155 65.000
73.37150 56.000
73.39144 84.000
73.41139 69.000
73.43134 65.000
73.45129 57.000
73.47123 72.000
73.49118 66.000
73.51113 75.000
73.53107 59.000
73.55102 66.000
73.57097 60.000
73.59091 73.000
73.61086 64.000
73.63081 69.000
73.65076 69.000
73.67070 57.000
73.69065 77.000
73.71060 88.000
73.73054 59.000
73.75049 59.000
73.77044 82.000
73.79038 64.000
73.81033 80.000
73.83028 57.000
73.85022 49.000
73.87017 80.000
73.89012 71.000
73.91007 78.000
73.93001 74.000
73.94996 66.000
73.96991 87.000
73.98985 69.000
74.00980 78.000
74.02975 82.000
74.04969 82.000
74.06964 70.000
74.08959 80.000
74.10954 79.000
74.12948 61.000
74.14943 59.000
74.16938 82.000
74.18932 68.000
74.20927 69.000
74.22922 72.000
74.24916 70.000
74.26911 63.000
74.28906 52.000
74.30900 69.000
74.32895 82.000
74.34890 68.000
74.36885 69.000
74.38879 74.000
74.40874 86.000
74.42869 85.000
74.44863 64.000
74.46858 73.000
74.48853 80.000
74.50847 59.000
74.52842 74.000
74.54837 74.000
74.56832 78.000
74.58826 69.000
74.60821 74.000
74.62816 63.000
74.64810 69.000
74.66805 83.000
74.68800 65.000
74.70794 74.000
74.72789 80.000
74.74784 73.000
74.76778 69.000
74.78773 63.000
74.80768 87.000
74.82763 60.000
74.84757 70.000
74.86752 80.000
74.88747 71.000
74.90741 83.000
74.92736 79.000
74.94731 65.000
74.96725 77.000
74.98720 72.000
75.00715 79.000
75.02710 66.000
75.04704 80.000
75.06699 75.000
75.08694 81.000
75.10688 71.000
75.12683 81.000
75.14678 83.000
75.16672 85.000
75.18667 78.000
75.20662 75.000
75.22657 94.000
75.24651 77.000
75.26646 103.000
75.28641 91.000
75.30635 83.000
75.32630 83.000
75.34625 99.000
75.36619 98.000
75.38614 103.000
75.40609 114.000
75.42603 125.000
75.44598 118.000
75.46593 100.000
75.48588 83.000
75.50582 97.000
75.52577 90.000
75.54572 97.000
75.56566 78.000
75.58561 85.000
75.60556 93.000
75.62550 92.000
75.64545 82.000
75.66540 81.000
75.68535 81.000
75.70529 69.000
75.72524 81.000
75.74519 70.000
75.76513 77.000
75.78508 80.000
75.80503 72.000
75.82497 69.000
75.84492 58.000
75.86487 84.000
75.88481 74.000
75.90476 66.000
75.92471 83.000
75.94466 89.000
75.96460 68.000
75.98455 66.000
76.00450 74.000
76.02444 60.000
76.04439 76.000
76.06434 55.000
76.08428 71.000
76.10423 73.000
76.12418 79.000
76.14413 67.000
76.16407 77.000
76.18402 74.000
76.20397 70.000
76.22391 82.000
76.24386 81.000
76.26381 70.000
76.28375 67.000
76.30370 73.000
76.32365 57.000
76.34359 64.000
76.36354 68.000
76.38349 63.000
76.40344 65.000
76.42338 63.000
76.44333 78.000
76.46328 64.000
76.48322 65.000
76.50317 61.000
76.52312 79.000
76.54306 57.000
76.56301 59.000
76.58296 67.000
76.60291 60.000
76.62285 62.000
76.64280 70.000
76.66275 56.000
76.68269 47.000
76.70264 84.000
76.72259 76.000
76.74253 63.000
76.76248 64.000
76.78243 61.000
76.80238 50.000
76.82232 65.000
76.84227 63.000
76.86222 76.000
76.88216 66.000
76.90211 61.000
76.92206 57.000
76.94200 56.000
76.96195 51.000
76.98190 61.000
77.00184 54.000
77.02179 53.000
77.04174 73.000
77.06169 75.000
77.08163 59.000
77.10158 73.000
77.12153 65.000
77.14147 63.000
77.16142 62.000
77.18137 65.000
77.20131 62.000
77.22126 54.000
77.24121 73.000
77.26116 69.000
77.28110 65.000
77.30105 71.000
77.32100 59.000
77.34094 61.000
77.36089 76.000
77.38084 60.000
77.40078 61.000
77.42073 68.000
77.44068 75.000
77.46062 62.000
77.48057 72.000
77.50052 79.000
77.52047 68.000
77.54041 68.000
77.56036 72.000
77.58031 69.000
77.60025 62.000
77.62020 78.000
77.64015 77.000
77.66009 79.000
77.68004 68.000
77.69999 75.000
77.71994 67.000
77.73988 72.000
77.75983 82.000
77.77978 70.000
77.79972 81.000
77.81967 89.000
77.83962 78.000
77.85956 64.000
77.87951 79.000
77.89946 66.000
77.91940 84.000
77.93935 68.000
77.95930 62.000
77.97925 65.000
77.99919 64.000
78.01914 66.000
78.03909 53.000
78.05903 59.000
78.07898 65.000
78.09893 70.000
78.11887 67.000
78.13882 54.000
78.15877 58.000
78.17872 77.000
78.19866 58.000
78.21861 63.000
78.23856 62.000
78.25850 57.000
78.27845 68.000
78.29840 63.000
78.31834 59.000
78.33829 58.000
78.35824 56.000
78.37819 67.000
78.39813 62.000
78.41808 72.000
78.43803 59.000
78.45797 60.000
78.47792 64.000
78.49787 71.000
78.51781 74.000
78.53776 76.000
78.55771 81.000
78.57765 71.000
78.59760 74.000
78.61755 70.000
78.63750 68.000
78.65744 73.000
78.67739 59.000
78.69734 67.000
78.71728 68.000
78.73723 67.000
78.75718 67.000
78.77712 66.000
78.79707 81.000
78.81702 66.000
78.83697 56.000
78.85691 67.000
78.87686 56.000
78.89681 62.000
78.91675 65.000
78.93670 67.000
78.95665 59.000
78.97659 70.000
78.99654 72.000
79.01649 54.000
79.03643 78.000
79.05638 58.000
79.07633 58.000
79.09628 60.000
79.11622 66.000
79.13617 52.000
79.15612 59.000
79.17606 61.000
79.19601 74.000
79.21596 58.000
79.23590 66.000
79.25585 59.000
79.27580 55.000
79.29575 54.000
79.31569 70.000
79.33564 65.000
79.35559 73.000
79.37553 60.000
79.39548 61.000
79.41543 73.000
79.43537 58.000
79.45532 75.000
79.47527 61.000
79.49521 52.000
79.51516 65.000
79.53511 58.000
79.55506 84.000
79.57500 71.000
79.59495 41.000
79.61490 67.000
79.63484 71.000
79.65479 69.000
79.67474 50.000
79.69468 77.000
79.71463 58.000
79.73458 47.000
79.75453 54.000
79.77447 55.000
79.79442 61.000
79.81437 59.000
79.83431 57.000
79.85426 60.000
79.87421 49.000
79.89415 60.000
79.91410 59.000
79.93405 65.000
79.95399 54.000
79.97394 55.000
79.99389 62.000
80.01384 71.000
80.03378 65.000
80.05373 63.000
80.07368 60.000
80.09362 67.000
80.11357 67.000
80.13352 68.000
80.15346 59.000
80.17341 56.000
80.19336 59.000
80.21331 67.000
80.23325 52.000
80.25320 54.000
80.27315 60.000
80.29309 64.000
80.31304 58.000
80.33299 83.000
80.35293 69.000
80.37288 76.000
80.39283 75.000
80.41278 68.000
80.43272 85.000
80.45267 68.000
80.47262 69.000
80.49256 71.000
80.51251 89.000
80.53246 70.000
80.55240 95.000
80.57235 106.000
80.59230 98.000
80.61224 76.000
80.63219 85.000
80.65214 105.000
80.67209 87.000
80.69203 104.000
80.71198 63.000
80.73193 85.000
80.75187 70.000
80.77182 77.000
80.79177 78.000
80.81171 86.000
80.83166 81.000
80.85161 81.000
80.87156 82.000
80.89150 95.000
80.91145 82.000
80.93140 66.000
80.95134 75.000
80.97129 71.000
80.99124 72.000
81.01118 78.000
81.03113 73.000
81.05108 75.000
81.07102 60.000
81.09097 59.000
81.11092 72.000
81.13087 60.000
81.15081 73.000
81.17076 68.000
81.19071 67.000
81.21065 73.000
81.23060 61.000
81.25055 59.000
81.27049 49.000
81.29044 68.000
81.31039 65.000
81.33034 80.000
81.35028 73.000
81.37023 62.000
81.39018 76.000
81.41012 65.000
81.43007 77.000
81.45002 62.000
81.46996 75.000
81.48991 75.000
81.50986 69.000
81.52980 79.000
81.54975 77.000
81.56970 74.000
81.58965 64.000
81.60959 87.000
81.62954 86.000
81.64949 65.000
81.66943 71.000
81.68938 54.000
81.70933 72.000
81.72927 68.000
81.74922 87.000
81.76917 70.000
81.78912 69.000
81.80906 69.000
81.82901 66.000
81.84896 86.000
81.86890 74.000
81.88885 64.000
81.90880 76.000
81.92874 66.000
81.94869 71.000
81.96864 68.000
81.98859 71.000
82.00853 63.000
82.02848 68.000
82.04843 83.000
82.06837 67.000
82.08832 65.000
82.10827 59.000
82.12821 65.000
82.14816 74.000
82.16811 62.000
82.18805 74.000
82.20800 82.000
82.22795 80.000
82.24790 66.000
82.26784 72.000
82.28779 62.000
82.30774 63.000
82.32768 62.000
82.34763 77.000
82.36758 77.000
82.38752 78.000
82.40747 87.000
82.42742 73.000
82.44737 74.000
82.46731 83.000
82.48726 71.000
82.50721 61.000
82.52715 79.000
82.54710 73.000
82.56705 61.000
82.58699 85.000
82.60694 84.000
82.62689 78.000
82.64683 73.000
82.66678 73.000
82.68673 73.000
82.70668 79.000
82.72662 79.000
82.74657 78.000
82.76652 70.000
82.78646 77.000
82.80641 89.000
82.82636 106.000
82.84630 100.000
82.86625 98.000
82.88620 100.000
82.90615 104.000
82.92609 87.000
82.94604 98.000
82.96599 85.000
82.98593 86.000
83.00588 68.000
83.02583 87.000
83.04577 86.000
83.06572 111.000
83.08567 82.000
83.10561 81.000
83.12556 79.000
83.14551 81.000
83.16546 69.000
83.18540 78.000
83.20535 64.000
83.22530 70.000
83.24524 76.000
83.26519 65.000
83.28514 59.000
83.30508 53.000
83.32503 80.000
83.34498 71.000
83.36493 49.000
83.38487 77.000
83.40482 51.000
83.42477 62.000
83.44471 66.000
83.46466 53.000
83.48461 67.000
83.50455 61.000
83.52450 59.000
83.54445 67.000
83.56440 52.000
83.58434 50.000
83.60429 76.000
83.62424 48.000
83.64418 78.000
83.66413 57.000
83.68408 65.000
83.70402 73.000
83.72397 67.000
83.74392 57.000
83.76386 57.000
83.78381 52.000
83.80376 50.000
83.82371 51.000
83.84365 61.000
83.86360 52.000
83.88355 50.000
83.90349 52.000
83.92344 63.000
83.94339 76.000
83.96333 73.000
83.98328 72.000
84.00323 80.000
84.02318 74.000
84.04312 66.000
84.06307 68.000
84.08302 66.000
84.10296 60.000
84.12291 54.000
84.14286 57.000
84.16280 52.000
84.18275 54.000
84.20270 71.000
84.22264 68.000
84.24259 65.000
84.26254 53.000
84.28249 67.000
84.30243 67.000
84.32238 56.000
84.34233 52.000
84.36227 56.000
84.38222 53.000
84.40217 77.000
84.42211 82.000
84.44206 84.000
84.46201 62.000
84.48196 59.000
84.50190 65.000
84.52185 73.000
84.54180 69.000
84.56174 74.000
84.58169 70.000
84.60164 75.000
84.62158 79.000
84.64153 68.000
84.66148 76.000
84.68142 82.000
84.70137 76.000
84.72132 88.000
84.74127 66.000
84.76121 79.000
84.78116 86.000
84.80111 102.000
84.82105 112.000
84.84100 84.000
84.86095 110.000
84.88089 112.000
84.90084 88.000
84.92079 96.000
84.94074 100.000
84.96068 88.000
84.98063 90.000
85.00058 77.000
85.02052 91.000
85.04047 94.000
85.06042 76.000
85.08036 78.000
85.10031 93.000
85.12026 77.000
85.14021 92.000
85.16015 90.000
85.18010 88.000
85.20005 76.000
85.21999 77.000
85.23994 63.000
85.25989 82.000
85.27983 69.000
85.29978 55.000
85.31973 66.000
85.33967 59.000
85.35962 61.000
85.37957 61.000
85.39952 66.000
85.41946 71.000
85.43941 67.000
85.45936 57.000
85.47930 56.000
85.49925 65.000
85.51920 63.000
85.53914 54.000
85.55909 62.000
85.57904 51.000
85.59899 58.000
85.61893 56.000
85.63888 51.000
85.65883 65.000
85.67877 59.000
85.69872 55.000
85.71867 46.000
85.73861 67.000
85.75856 64.000
85.77851 60.000
85.79845 60.000
85.81840 66.000
85.83835 60.000
85.85830 53.000
85.87824 41.000
85.89819 62.000
85.91814 67.000
85.93808 60.000
85.95803 66.000
85.97798 54.000
85.99792 52.000
86.01787 59.000
86.03782 52.000
86.05777 54.000
86.07771 71.000
86.09766 57.000
86.11761 56.000
86.13755 55.000
86.15750 69.000
86.17745 70.000
86.19739 56.000
86.21734 65.000
86.23729 50.000
86.25723 50.000
86.27718 68.000
86.29713 77.000
86.31708 75.000
86.33702 59.000
86.35697 69.000
86.37692 59.000
86.39686 59.000
86.41681 67.000
86.43676 49.000
86.45670 68.000
86.47665 61.000
86.49660 61.000
86.51655 61.000
86.53649 66.000
86.55644 64.000
86.57639 53.000
86.59633 56.000
86.61628 66.000
86.63623 71.000
86.65617 63.000
86.67612 54.000
86.69607 65.000
86.71602 64.000
86.73596 65.000
86.75591 51.000
86.77586 68.000
86.79580 57.000
86.81575 60.000
86.83570 70.000
86.85564 62.000
86.87559 52.000
86.89554 70.000
86.91548 66.000
86.93543 57.000
86.95538 66.000
86.97533 70.000
86.99527 68.000
87.01522 55.000
87.03517 57.000
87.05511 61.000
87.07506 48.000
87.09501 66.000
87.11495 59.000
87.13490 47.000
87.15485 69.000
87.17480 66.000
87.19474 53.000
87.21469 53.000
87.23464 59.000
87.25458 53.000
87.27453 37.000
87.29448 53.000
87.31442 57.000
87.33437 53.000
87.35432 62.000
87.37426 53.000
87.39421 69.000
87.41416 54.000
87.43411 60.000
87.45405 53.000
87.47400 78.000
87.49395 57.000
87.51389 53.000
87.53384 63.000
87.55379 59.000
87.57373 60.000
87.59368 61.000
87.61363 63.000
87.63358 57.000
87.65352 65.000
87.67347 66.000
87.69342 62.000
87.71336 62.000
87.73331 57.000
87.75326 67.000
87.77320 69.000
87.79315 46.000
87.81310 46.000
87.83304 45.000
87.85299 65.000
87.87294 41.000
87.89289 70.000
87.91283 51.000
87.93278 57.000
87.95273 66.000
87.97267 52.000
87.99262 53.000
88.01257 62.000
88.03251 66.000
88.05246 45.000
88.07241 76.000
88.09236 71.000
88.11230 52.000
88.13225 57.000
88.15220 65.000
88.17214 50.000
88.19209 62.000
88.21204 73.000
88.23198 73.000
88.25193 70.000
88.27188 63.000
88.29183 87.000
88.31177 78.000
88.33172 74.000
88.35167 75.000
88.37161 79.000
88.39156 80.000
88.41151 83.000
88.43145 86.000
88.45140 82.000
88.47135 101.000
88.49129 95.000
88.51124 94.000
88.53119 109.000
88.55114 100.000
88.57108 86.000
88.59103 101.000
88.61098 83.000
88.63092 85.000
88.65087 85.000
88.67082 73.000
88.69076 90.000
88.71071 72.000
88.73066 95.000
88.75061 82.000
88.77055 83.000
88.79050 82.000
88.81045 84.000
88.83039 86.000
88.85034 60.000
88.87029 82.000
88.89023 53.000
88.91018 64.000
88.93013 84.000
88.95007 63.000
88.97002 51.000
88.98997 62.000
89.00992 49.000
89.02986 49.000
89.04981 75.000
89.06976 58.000
89.08970 55.000
89.10965 53.000
89.12960 53.000
89.14954 47.000
89.16949 62.000
89.18944 54.000
89.20939 64.000
89.22933 53.000
89.24928 56.000
89.26923 60.000
89.28917 62.000
89.30912 53.000
89.32907 57.000
89.34901 54.000
89.36896 57.000
89.38891 47.000
89.40885 67.000
89.42880 69.000
89.44875 51.000
89.46870 55.000
89.48864 70.000
89.50859 48.000
89.52854 68.000
89.54848 64.000
89.56843 57.000
89.58838 61.000
89.60832 44.000
89.62827 45.000
89.64822 60.000
89.66817 40.000
89.68811 77.000
89.70806 63.000
89.72801 70.000
89.74795 68.000
89.76790 60.000
89.78785 53.000
89.80779 53.000
89.82774 55.000
89.84769 52.000
89.86764 63.000
89.88758 64.000
89.90753 51.000
89.92748 63.000
89.94742 59.000
89.96737 66.000
89.98732 67.000
90.00726 65.000
