10.00000 108.000
10.01995 120.000
10.03989 113.000
10.05984 95.000
10.07979 116.000
10.09973 117.000
10.11968 122.000
10.13963 110.000
10.15958 106.000
10.17952 110.000
10.19947 116.000
10.21942 109.000
10.23936 103.000
10.25931 116.000
10.27926 118.000
10.29920 139.000
10.31915 118.000
10.33910 127.000
10.35905 134.000
10.37899 140.000
10.39894 115.000
10.41889 134.000
10.43883 141.000
10.45878 114.000
10.47873 108.000
10.49867 113.000
10.51862 141.000
10.53857 126.000
10.55851 128.000
10.57846 121.000
10.59841 126.000
10.61836 133.000
10.63830 101.000
10.65825 128.000
10.67820 134.000
10.69814 122.000
10.71809 126.000
10.73804 139.000
10.75798 115.000
10.77793 103.000
10.79788 120.000
10.81783 143.000
10.83777 120.000
10.85772 136.000
10.87767 125.000
10.89761 117.000
10.91756 121.000
10.93751 135.000
10.95745 129.000
10.97740 136.000
10.99735 138.000
11.01730 119.000
11.03724 121.000
11.05719 122.000
11.07714 122.000
11.09708 114.000
11.11703 125.000
11.13698 125.000
11.15692 133.000
11.17687 123.000
11.19682 131.000
11.21676 117.000
11.23671 107.000
11.25666 119.000
11.27661 118.000
11.29655 132.000
11.31650 121.000
11.33645 125.000
11.35639 125.000
11.37634 119.000
11.39629 124.000
11.41623 129.000
11.43618 106.000
11.45613 135.000
11.47608 130.000
11.49602 116.000
11.51597 114.000
11.53592 130.000
11.55586 128.000
11.57581 151.000
11.59576 126.000
11.61570 141.000
11.63565 135.000
11.65560 113.000
11.67554 128.000
11.69549 130.000
11.71544 139.000
11.73539 131.000
11.75533 109.000
11.77528 117.000
11.79523 130.000
11.81517 133.000
11.83512 150.000
11.85507 132.000
11.87501 123.000
11.89496 156.000
11.91491 123.000
11.93486 133.000
11.95480 127.000
11.97475 135.000
11.99470 114.000
12.01464 134.000
12.03459 129.000
12.05454 140.000
12.07448 125.000
12.09443 138.000
12.11438 136.000
12.13432 151.000
12.15427 121.000
12.17422 138.000
12.19417 131.000
12.21411 120.000
12.23406 139.000
12.25401 141.000
12.27395 133.000
12.29390 119.000
12.31385 122.000
12.33379 136.000
12.35374 123.000
12.37369 138.000
12.39364 163.000
12.41358 146.000
12.43353 141.000
12.45348 126.000
12.47342 166.000
12.49337 154.000
12.51332 126.000
12.53326 142.000
12.55321 117.000
12.57316 121.000
12.59311 156.000
12.61305 148.000
12.63300 143.000
12.65295 129.000
12.67289 141.000
12.69284 141.000
12.71279 150.000
12.73273 145.000
12.75268 142.000
12.77263 129.000
12.79257 124.000
12.81252 152.000
12.83247 146.000
12.85242 154.000
12.87236 139.000
12.89231 134.000
12.91226 137.000
12.93220 140.000
12.95215 143.000
12.97210 156.000
12.99204 146.000
13.01199 168.000
13.03194 138.000
13.05189 148.000
13.07183 143.000
13.09178 161.000
13.11173 128.000
13.13167 142.000
13.15162 144.000
13.17157 134.000
13.19151 150.000
13.21146 161.000
13.23141 156.000
13.25135 151.000
13.27130 146.000
13.29125 162.000
13.31120 145.000
13.33114 161.000
13.35109 163.000
13.37104 136.000
13.39098 157.000
13.41093 151.000
13.43088 132.000
13.45082 156.000
13.47077 141.000
13.49072 157.000
13.51067 162.000
13.53061 152.000
13.55056 157.000
13.57051 135.000
13.59045 178.000
13.61040 157.000
13.63035 169.000
13.65029 162.000
13.67024 148.000
13.69019 145.000
13.71013 142.000
13.73008 159.000
13.75003 146.000
13.76998 137.000
13.78992 172.000
13.80987 172.000
13.82982 149.000
13.84976 149.000
13.86971 142.000
13.88966 181.000
13.90960 177.000
13.92955 151.000
13.94950 172.000
13.96945 158.000
13.98939 153.000
14.00934 155.000
14.02929 163.000
14.04923 158.000
14.06918 152.000
14.08913 159.000
14.10907 160.000
14.12902 147.000
14.14897 137.000
14.16892 164.000
14.18886 158.000
14.20881 139.000
14.22876 151.000
14.24870 155.000
14.26865 155.000
14.28860 191.000
14.30854 157.000
14.32849 166.000
14.34844 153.000
14.36838 156.000
14.38833 165.000
14.40828 144.000
14.42823 166.000
14.44817 144.000
14.46812 155.000
14.48807 163.000
14.50801 170.000
14.52796 131.000
14.54791 154.000
14.56785 152.000
14.58780 166.000
14.60775 153.000
14.62770 162.000
14.64764 154.000
14.66759 167.000
14.68754 191.000
14.70748 169.000
14.72743 185.000
14.74738 170.000
14.76732 164.000
14.78727 158.000
14.80722 160.000
14.82716 165.000
14.84711 154.000
14.86706 169.000
14.88701 145.000
14.90695 176.000
14.92690 170.000
14.94685 179.000
14.96679 170.000
14.98674 170.000
15.00669 165.000
15.02663 163.000
15.04658 172.000
15.06653 152.000
15.08648 190.000
15.10642 157.000
15.12637 176.000
15.14632 163.000
15.16626 175.000
15.18621 181.000
15.20616 177.000
15.22610 193.000
15.24605 153.000
15.26600 147.000
15.28594 164.000
15.30589 189.000
15.32584 207.000
15.34579 157.000
15.36573 163.000
15.38568 143.000
15.40563 166.000
15.42557 220.000
15.44552 169.000
15.46547 174.000
15.48541 196.000
15.50536 164.000
15.52531 179.000
15.54526 181.000
15.56520 204.000
15.58515 170.000
15.60510 197.000
15.62504 183.000
15.64499 176.000
15.66494 184.000
15.68488 202.000
15.70483 194.000
15.72478 189.000
15.74472 157.000
15.76467 196.000
15.78462 180.000
15.80457 200.000
15.82451 191.000
15.84446 180.000
15.86441 190.000
15.88435 209.000
15.90430 206.000
15.92425 206.000
15.94419 185.000
15.96414 218.000
15.98409 214.000
16.00404 221.000
16.02398 222.000
16.04393 166.000
16.06388 198.000
16.08382 204.000
16.10377 186.000
16.12372 206.000
16.14366 176.000
16.16361 231.000
16.18356 195.000
16.20351 209.000
16.22345 227.000
16.24340 234.000
16.26335 168.000
16.28329 209.000
16.30324 171.000
16.32319 207.000
16.34313 214.000
16.36308 221.000
16.38303 196.000
16.40297 210.000
16.42292 191.000
16.44287 211.000
16.46282 204.000
16.48276 212.000
16.50271 227.000
16.52266 234.000
16.54260 220.000
16.56255 220.000
16.58250 214.000
16.60244 210.000
16.62239 215.000
16.64234 264.000
16.66229 210.000
16.68223 218.000
16.70218 198.000
16.72213 253.000
16.74207 216.000
16.76202 228.000
16.78197 245.000
16.80191 227.000
16.82186 232.000
16.84181 242.000
16.86175 236.000
16.88170 250.000
16.90165 230.000
16.92160 217.000
16.94154 247.000
16.96149 251.000
16.98144 232.000
17.00138 241.000
17.02133 229.000
17.04128 226.000
17.06122 248.000
17.08117 213.000
17.10112 238.000
17.12107 241.000
17.14101 237.000
17.16096 249.000
17.18091 253.000
17.20085 258.000
17.22080 256.000
17.24075 240.000
17.26069 237.000
17.28064 236.000
17.30059 251.000
17.32053 243.000
17.34048 258.000
17.36043 243.000
17.38038 252.000
17.40032 280.000
17.42027 232.000
17.44022 257.000
17.46016 278.000
17.48011 262.000
17.50006 288.000
17.52000 262.000
17.53995 263.000
17.55990 291.000
17.57985 290.000
17.59979 291.000
17.61974 281.000
17.63969 276.000
17.65963 285.000
17.67958 257.000
17.69953 290.000
17.71947 294.000
17.73942 253.000
17.75937 290.000
17.77932 286.000
17.79926 288.000
17.81921 303.000
17.83916 305.000
17.85910 276.000
17.87905 267.000
17.89900 318.000
17.91894 304.000
17.93889 291.000
17.95884 315.000
17.97878 312.000
17.99873 320.000
18.01868 285.000
18.03863 317.000
18.05857 312.000
18.07852 294.000
18.09847 311.000
18.11841 315.000
18.13836 306.000
18.15831 323.000
18.17825 306.000
18.19820 312.000
18.21815 357.000
18.23810 310.000
18.25804 298.000
18.27799 314.000
18.29794 310.000
18.31788 308.000
18.33783 330.000
18.35778 334.000
18.37772 319.000
18.39767 373.000
18.41762 312.000
18.43756 321.000
18.45751 351.000
18.47746 339.000
18.49741 345.000
18.51735 333.000
18.53730 317.000
18.55725 348.000
18.57719 328.000
18.59714 316.000
18.61709 332.000
18.63703 350.000
18.65698 358.000
18.67693 363.000
18.69688 356.000
18.71682 332.000
18.73677 330.000
18.75672 341.000
18.77666 376.000
18.79661 374.000
18.81656 366.000
18.83650 375.000
18.85645 361.000
18.87640 379.000
18.89634 361.000
18.91629 367.000
18.93624 372.000
18.95619 360.000
18.97613 367.000
18.99608 344.000
19.01603 352.000
19.03597 319.000
19.05592 344.000
19.07587 369.000
19.09581 353.000
19.11576 378.000
19.13571 367.000
19.15566 356.000
19.17560 391.000
19.19555 371.000
19.21550 372.000
19.23544 400.000
19.25539 356.000
19.27534 361.000
19.29528 398.000
19.31523 379.000
19.33518 449.000
19.35513 386.000
19.37507 376.000
19.39502 369.000
19.41497 417.000
19.43491 419.000
19.45486 388.000
19.47481 396.000
19.49475 386.000
19.51470 378.000
19.53465 459.000
19.55459 439.000
19.57454 441.000
19.59449 378.000
19.61444 408.000
19.63438 417.000
19.65433 410.000
19.67428 388.000
19.69422 409.000
19.71417 399.000
19.73412 398.000
19.75406 424.000
19.77401 408.000
19.79396 387.000
19.81391 386.000
19.83385 415.000
19.85380 394.000
19.87375 395.000
19.89369 422.000
19.91364 398.000
19.93359 414.000
19.95353 411.000
19.97348 418.000
19.99343 414.000
20.01337 387.000
20.03332 469.000
20.05327 447.000
20.07322 449.000
20.09316 480.000
20.11311 451.000
20.13306 435.000
20.15300 407.000
20.17295 439.000
20.19290 464.000
20.21284 455.000
20.23279 444.000
20.25274 409.000
20.27269 427.000
20.29263 420.000
20.31258 445.000
20.33253 440.000
20.35247 458.000
20.37242 428.000
20.39237 473.000
20.41231 471.000
20.43226 450.000
20.45221 465.000
20.47215 493.000
20.49210 419.000
20.51205 454.000
20.53200 455.000
20.55194 493.000
20.57189 474.000
20.59184 462.000
20.61178 490.000
20.63173 465.000
20.65168 422.000
20.67162 451.000
20.69157 456.000
20.71152 462.000
20.73147 446.000
20.75141 465.000
20.77136 475.000
20.79131 458.000
20.81125 476.000
20.83120 485.000
20.85115 496.000
20.87109 455.000
20.89104 490.000
20.91099 564.000
20.93094 482.000
20.95088 467.000
20.97083 524.000
20.99078 478.000
21.01072 493.000
21.03067 472.000
21.05062 469.000
21.07056 471.000
21.09051 494.000
21.11046 481.000
21.13040 512.000
21.15035 488.000
21.17030 483.000
21.19025 460.000
21.21019 464.000
21.23014 517.000
21.25009 495.000
21.27003 487.000
21.28998 519.000
21.30993 504.000
21.32987 453.000
21.34982 534.000
21.36977 502.000
21.38972 505.000
21.40966 517.000
21.42961 503.000
21.44956 509.000
21.46950 500.000
21.48945 471.000
21.50940 531.000
21.52934 480.000
21.54929 492.000
21.56924 498.000
21.58918 555.000
21.60913 548.000
21.62908 527.000
21.64903 491.000
21.66897 537.000
21.68892 528.000
21.70887 547.000
21.72881 529.000
21.74876 521.000
21.76871 521.000
21.78865 550.000
21.80860 563.000
21.82855 476.000
21.84850 537.000
21.86844 519.000
21.88839 568.000
21.90834 543.000
21.92828 529.000
21.94823 536.000
21.96818 534.000
21.98812 507.000
22.00807 511.000
22.02802 543.000
22.04796 556.000
22.06791 543.000
22.08786 552.000
22.10781 534.000
22.12775 554.000
22.14770 555.000
22.16765 522.000
22.18759 523.000
22.20754 540.000
22.22749 546.000
22.24743 517.000
22.26738 557.000
22.28733 543.000
22.30728 554.000
22.32722 535.000
22.34717 604.000
22.36712 547.000
22.38706 584.000
22.40701 552.000
22.42696 575.000
22.44690 572.000
22.46685 568.000
22.48680 595.000
22.50675 572.000
22.52669 570.000
22.54664 567.000
22.56659 542.000
22.58653 587.000
22.60648 559.000
22.62643 580.000
22.64637 539.000
22.66632 549.000
22.68627 592.000
22.70621 602.000
22.72616 569.000
22.74611 578.000
22.76606 530.000
22.78600 594.000
22.80595 562.000
22.82590 585.000
22.84584 593.000
22.86579 600.000
22.88574 598.000
22.90568 621.000
22.92563 638.000
22.94558 551.000
22.96553 610.000
22.98547 547.000
23.00542 605.000
23.02537 580.000
23.04531 607.000
23.06526 612.000
23.08521 625.000
23.10515 608.000
23.12510 609.000
23.14505 625.000
23.16499 602.000
23.18494 627.000
23.20489 601.000
23.22484 576.000
23.24478 648.000
23.26473 583.000
23.28468 617.000
23.30462 631.000
23.32457 577.000
23.34452 654.000
23.36446 644.000
23.38441 601.000
23.40436 621.000
23.42431 627.000
23.44425 605.000
23.46420 616.000
23.48415 641.000
23.50409 652.000
23.52404 661.000
23.54399 629.000
23.56393 663.000
23.58388 653.000
23.60383 678.000
23.62377 609.000
23.64372 631.000
23.66367 646.000
23.68362 602.000
23.70356 671.000
23.72351 615.000
23.74346 642.000
23.76340 662.000
23.78335 691.000
23.80330 691.000
23.82324 658.000
23.84319 638.000
23.86314 664.000
23.88309 684.000
23.90303 654.000
23.92298 684.000
23.94293 711.000
23.96287 675.000
23.98282 690.000
24.00277 686.000
24.02271 692.000
24.04266 652.000
24.06261 694.000
24.08256 681.000
24.10250 650.000
24.12245 675.000
24.14240 663.000
24.16234 678.000
24.18229 650.000
24.20224 718.000
24.22218 685.000
24.24213 682.000
24.26208 710.000
24.28202 722.000
24.30197 681.000
24.32192 659.000
24.34187 703.000
24.36181 697.000
24.38176 726.000
24.40171 696.000
24.42165 743.000
24.44160 742.000
24.46155 758.000
24.48149 677.000
24.50144 742.000
24.52139 761.000
24.54134 714.000
24.56128 753.000
24.58123 728.000
24.60118 725.000
24.62112 790.000
24.64107 710.000
24.66102 684.000
24.68096 679.000
24.70091 754.000
24.72086 743.000
24.74080 750.000
24.76075 739.000
24.78070 714.000
24.80065 773.000
24.82059 730.000
24.84054 740.000
24.86049 747.000
24.88043 750.000
24.90038 742.000
24.92033 767.000
24.94027 753.000
24.96022 749.000
24.98017 763.000
25.00012 739.000
25.02006 817.000
25.04001 754.000
25.05996 786.000
25.07990 803.000
25.09985 747.000
25.11980 774.000
25.13974 810.000
25.15969 776.000
25.17964 793.000
25.19958 801.000
25.21953 797.000
25.23948 799.000
25.25943 769.000
25.27937 794.000
25.29932 768.000
25.31927 803.000
25.33921 850.000
25.35916 818.000
25.37911 809.000
25.39905 799.000
25.41900 830.000
25.43895 857.000
25.45890 916.000
25.47884 834.000
25.49879 855.000
25.51874 824.000
25.53868 844.000
25.55863 867.000
25.57858 859.000
25.59852 845.000
25.61847 849.000
25.63842 875.000
25.65837 827.000
25.67831 872.000
25.69826 861.000
25.71821 904.000
25.73815 879.000
25.75810 812.000
25.77805 841.000
25.79799 909.000
25.81794 823.000
25.83789 856.000
25.85783 894.000
25.87778 894.000
25.89773 851.000
25.91768 850.000
25.93762 889.000
25.95757 877.000
25.97752 867.000
25.99746 910.000
26.01741 943.000
26.03736 885.000
26.05730 907.000
26.07725 910.000
26.09720 959.000
26.11715 941.000
26.13709 910.000
26.15704 879.000
26.17699 979.000
26.19693 992.000
26.21688 908.000
26.23683 938.000
26.25677 888.000
26.27672 954.000
26.29667 913.000
26.31661 912.000
26.33656 886.000
26.35651 942.000
26.37646 944.000
26.39640 940.000
26.41635 913.000
26.43630 943.000
26.45624 953.000
26.47619 1007.000
26.49614 906.000
26.51608 946.000
26.53603 940.000
26.55598 952.000
26.57593 991.000
26.59587 991.000
26.61582 987.000
26.63577 1027.000
26.65571 976.000
26.67566 1042.000
26.69561 971.000
26.71555 946.000
26.73550 996.000
26.75545 981.000
26.77539 1034.000
26.79534 1014.000
26.81529 977.000
26.83524 965.000
26.85518 1001.000
26.87513 1035.000
26.89508 965.000
26.91502 1073.000
26.93497 1010.000
26.95492 1008.000
26.97486 1050.000
26.99481 962.000
27.01476 1069.000
27.03471 1040.000
27.05465 994.000
27.07460 989.000
27.09455 1039.000
27.11449 1008.000
27.13444 1037.000
27.15439 1017.000
27.17433 1065.000
27.19428 1092.000
27.21423 1050.000
27.23417 1046.000
27.25412 994.000
27.27407 1098.000
27.29402 1086.000
27.31396 1078.000
27.33391 1084.000
27.35386 1099.000
27.37380 1075.000
27.39375 1075.000
27.41370 1072.000
27.43364 1101.000
27.45359 1103.000
27.47354 1053.000
27.49349 1070.000
27.51343 1105.000
27.53338 1061.000
27.55333 1034.000
27.57327 1124.000
27.59322 1106.000
27.61317 1056.000
27.63311 1143.000
27.65306 1067.000
27.67301 1080.000
27.69296 1106.000
27.71290 1182.000
27.73285 1138.000
27.75280 1180.000
27.77274 1144.000
27.79269 1103.000
27.81264 1096.000
27.83258 1203.000
27.85253 1129.000
27.87248 1139.000
27.89242 1098.000
27.91237 1127.000
27.93232 1124.000
27.95227 1161.000
27.97221 1194.000
27.99216 1169.000
28.01211 1157.000
28.03205 1115.000
28.05200 1105.000
28.07195 1137.000
28.09189 1128.000
28.11184 1218.000
28.13179 1172.000
28.15174 1153.000
28.17168 1166.000
28.19163 1216.000
28.21158 1169.000
28.23152 1150.000
28.25147 1216.000
28.27142 1176.000
28.29136 1161.000
28.31131 1168.000
28.33126 1233.000
28.35120 1182.000
28.37115 1213.000
28.39110 1209.000
28.41105 1205.000
28.43099 1174.000
28.45094 1199.000
28.47089 1161.000
28.49083 1235.000
28.51078 1187.000
28.53073 1218.000
28.55067 1212.000
28.57062 1181.000
28.59057 1206.000
28.61052 1183.000
28.63046 1179.000
28.65041 1210.000
28.67036 1193.000
28.69030 1169.000
28.71025 1229.000
28.73020 1244.000
28.75014 1238.000
28.77009 1248.000
28.79004 1186.000
28.80998 1203.000
28.82993 1251.000
28.84988 1314.000
28.86983 1253.000
28.88977 1201.000
28.90972 1151.000
28.92967 1220.000
28.94961 1214.000
28.96956 1272.000
28.98951 1225.000
29.00945 1192.000
29.02940 1180.000
29.04935 1213.000
29.06930 1194.000
29.08924 1210.000
29.10919 1222.000
29.12914 1266.000
29.14908 1244.000
29.16903 1200.000
29.18898 1271.000
29.20892 1184.000
29.22887 1267.000
29.24882 1214.000
29.26877 1303.000
29.28871 1230.000
29.30866 1240.000
29.32861 1232.000
29.34855 1205.000
29.36850 1207.000
29.38845 1244.000
29.40839 1272.000
29.42834 1243.000
29.44829 1200.000
29.46823 1221.000
29.48818 1271.000
29.50813 1316.000
29.52808 1242.000
29.54802 1230.000
29.56797 1212.000
29.58792 1238.000
29.60786 1213.000
29.62781 1298.000
29.64776 1256.000
29.66770 1216.000
29.68765 1259.000
29.70760 1227.000
29.72755 1262.000
29.74749 1272.000
29.76744 1229.000
29.78739 1182.000
29.80733 1233.000
29.82728 1208.000
29.84723 1188.000
29.86717 1184.000
29.88712 1193.000
29.90707 1258.000
29.92701 1239.000
29.94696 1288.000
29.96691 1255.000
29.98686 1227.000
30.00680 1254.000
30.02675 1250.000
30.04670 1222.000
30.06664 1214.000
30.08659 1259.000
30.10654 1249.000
30.12648 1249.000
30.14643 1238.000
30.16638 1265.000
30.18633 1319.000
30.20627 1279.000
30.22622 1280.000
30.24617 1232.000
30.26611 1279.000
30.28606 1234.000
30.30601 1188.000
30.32595 1283.000
30.34590 1264.000
30.36585 1265.000
30.38579 1251.000
30.40574 1275.000
30.42569 1198.000
30.44564 1188.000
30.46558 1264.000
30.48553 1230.000
30.50548 1188.000
30.52542 1242.000
30.54537 1229.000
30.56532 1232.000
30.58526 1202.000
30.60521 1189.000
30.62516 1337.000
30.64511 1261.000
30.66505 1204.000
30.68500 1189.000
30.70495 1194.000
30.72489 1276.000
30.74484 1251.000
30.76479 1189.000
30.78473 1261.000
30.80468 1220.000
30.82463 1231.000
30.84458 1275.000
30.86452 1263.000
30.88447 1173.000
30.90442 1277.000
30.92436 1284.000
30.94431 1214.000
30.96426 1137.000
30.98420 1168.000
31.00415 1242.000
31.02410 1163.000
31.04404 1242.000
31.06399 1239.000
31.08394 1169.000
31.10389 1186.000
31.12383 1193.000
31.14378 1182.000
31.16373 1224.000
31.18367 1145.000
31.20362 1148.000
31.22357 1191.000
31.24351 1204.000
31.26346 1163.000
31.28341 1195.000
31.30336 1207.000
31.32330 1191.000
31.34325 1175.000
31.36320 1227.000
31.38314 1183.000
31.40309 1207.000
31.42304 1187.000
31.44298 1146.000
31.46293 1205.000
31.48288 1220.000
31.50282 1197.000
31.52277 1170.000
31.54272 1184.000
31.56267 1192.000
31.58261 1132.000
31.60256 1125.000
31.62251 1126.000
31.64245 1128.000
31.66240 1201.000
31.68235 1184.000
31.70229 1191.000
31.72224 1080.000
31.74219 1148.000
31.76214 1198.000
31.78208 1125.000
31.80203 1218.000
31.82198 1099.000
31.84192 1146.000
31.86187 1129.000
31.88182 1139.000
31.90176 1149.000
31.92171 1153.000
31.94166 1131.000
31.96160 1137.000
31.98155 1226.000
32.00150 1133.000
32.02145 1191.000
32.04139 1143.000
32.06134 1174.000
32.08129 1192.000
32.10123 1143.000
32.12118 1167.000
32.14113 1151.000
32.16107 1117.000
32.18102 1175.000
32.20097 1162.000
32.22092 1109.000
32.24086 1134.000
32.26081 1183.000
32.28076 1219.000
32.30070 1225.000
32.32065 1187.000
32.34060 1163.000
32.36054 1190.000
32.38049 1192.000
32.40044 1182.000
32.42039 1212.000
32.44033 1168.000
32.46028 1201.000
32.48023 1178.000
32.50017 1106.000
32.52012 1149.000
32.54007 1225.000
32.56001 1189.000
32.57996 1121.000
32.59991 1142.000
32.61985 1141.000
32.63980 1065.000
32.65975 1123.000
32.67970 1061.000
32.69964 1049.000
32.71959 1092.000
32.73954 1089.000
32.75948 1045.000
32.77943 1067.000
32.79938 1063.000
32.81932 1040.000
32.83927 1068.000
32.85922 1095.000
32.87917 986.000
32.89911 1069.000
32.91906 1075.000
32.93901 1053.000
32.95895 1046.000
32.97890 1068.000
32.99885 1080.000
33.01879 1105.000
33.03874 1069.000
33.05869 1089.000
33.07863 1033.000
33.09858 1090.000
33.11853 1105.000
33.13848 1019.000
33.15842 1012.000
33.17837 1075.000
33.19832 1028.000
33.21826 1041.000
33.23821 1088.000
33.25816 1083.000
33.27810 1066.000
33.29805 1022.000
33.31800 1066.000
33.33795 1007.000
33.35789 1046.000
33.37784 987.000
33.39779 1110.000
33.41773 998.000
33.43768 1022.000
33.45763 1009.000
33.47757 1053.000
33.49752 1014.000
33.51747 1050.000
33.53741 1015.000
33.55736 1063.000
33.57731 951.000
33.59726 1005.000
33.61720 995.000
33.63715 1015.000
33.65710 994.000
33.67704 1008.000
33.69699 1021.000
33.71694 1061.000
33.73688 994.000
33.75683 950.000
33.77678 1028.000
33.79673 1027.000
33.81667 926.000
33.83662 988.000
33.85657 1033.000
33.87651 1010.000
33.89646 984.000
33.91641 981.000
33.93635 952.000
33.95630 1037.000
33.97625 976.000
33.99620 971.000
34.01614 1017.000
34.03609 1020.000
34.05604 954.000
34.07598 913.000
34.09593 949.000
34.11588 933.000
34.13582 973.000
34.15577 918.000
34.17572 953.000
34.19566 1028.000
34.21561 950.000
34.23556 944.000
34.25551 1001.000
34.27545 951.000
34.29540 919.000
34.31535 922.000
34.33529 962.000
34.35524 946.000
34.37519 939.000
34.39513 958.000
34.41508 951.000
34.43503 955.000
34.45498 964.000
34.47492 956.000
34.49487 940.000
34.51482 983.000
34.53476 968.000
34.55471 958.000
34.57466 970.000
34.59460 925.000
34.61455 925.000
34.63450 974.000
34.65444 988.000
34.67439 1016.000
34.69434 964.000
34.71429 983.000
34.73423 966.000
34.75418 945.000
34.77413 979.000
34.79407 1048.000
34.81402 1064.000
34.83397 1033.000
34.85391 1029.000
34.87386 1018.000
34.89381 1143.000
34.91376 1015.000
34.93370 1146.000
34.95365 1133.000
34.97360 1229.000
34.99354 1153.000
35.01349 1136.000
35.03344 1163.000
35.05338 1206.000
35.07333 1226.000
35.09328 1277.000
35.11322 1365.000
35.13317 1287.000
35.15312 1358.000
35.17307 1381.000
35.19301 1387.000
35.21296 1421.000
35.23291 1470.000
35.25285 1592.000
35.27280 1621.000
35.29275 1687.000
35.31269 1723.000
35.33264 1758.000
35.35259 1855.000
35.37254 1971.000
35.39248 2034.000
35.41243 1986.000
35.43238 2059.000
35.45232 2002.000
35.47227 1966.000
35.49222 1926.000
35.51216 1734.000
35.53211 1666.000
35.55206 1480.000
35.57201 1386.000
35.59195 1273.000
35.61190 1192.000
35.63185 1123.000
35.65179 1103.000
35.67174 1081.000
35.69169 935.000
35.71163 965.000
35.73158 902.000
35.75153 963.000
35.77147 899.000
35.79142 927.000
35.81137 901.000
35.83132 856.000
35.85126 933.000
35.87121 862.000
35.89116 842.000
35.91110 848.000
35.93105 880.000
35.95100 833.000
35.97094 847.000
35.99089 844.000
36.01084 849.000
36.03079 817.000
36.05073 851.000
36.07068 886.000
36.09063 864.000
36.11057 898.000
36.13052 820.000
36.15047 844.000
36.17041 792.000
36.19036 814.000
36.21031 852.000
36.23025 815.000
36.25020 858.000
36.27015 905.000
36.29010 876.000
36.31004 871.000
36.32999 877.000
36.34994 888.000
36.36988 867.000
36.38983 807.000
36.40978 893.000
36.42972 825.000
36.44967 834.000
36.46962 796.000
36.48957 847.000
36.50951 833.000
36.52946 833.000
36.54941 814.000
36.56935 836.000
36.58930 791.000
36.60925 848.000
36.62919 851.000
36.64914 903.000
36.66909 842.000
36.68903 873.000
36.70898 836.000
36.72893 878.000
36.74888 899.000
36.76882 803.000
36.78877 796.000
36.80872 833.000
36.82866 878.000
36.84861 796.000
36.86856 820.000
36.88850 867.000
36.90845 748.000
36.92840 851.000
36.94835 817.000
36.96829 803.000
36.98824 828.000
37.00819 867.000
37.02813 842.000
37.04808 768.000
37.06803 784.000
37.08797 828.000
37.10792 819.000
37.12787 851.000
37.14781 853.000
37.16776 831.000
37.18771 812.000
37.20766 805.000
37.22760 821.000
37.24755 841.000
37.26750 803.000
37.28744 842.000
37.30739 860.000
37.32734 823.000
37.34728 818.000
37.36723 835.000
37.38718 832.000
37.40713 806.000
37.42707 844.000
37.44702 839.000
37.46697 872.000
37.48691 845.000
37.50686 793.000
37.52681 866.000
37.54675 793.000
37.56670 857.000
37.58665 798.000
37.60660 834.000
37.62654 800.000
37.64649 869.000
37.66644 871.000
37.68638 825.000
37.70633 850.000
37.72628 783.000
37.74622 829.000
37.76617 845.000
37.78612 882.000
37.80606 867.000
37.82601 848.000
37.84596 880.000
37.86591 908.000
37.88585 939.000
37.90580 879.000
37.92575 884.000
37.94569 829.000
37.96564 959.000
37.98559 950.000
38.00553 904.000
38.02548 927.000
38.04543 964.000
38.06538 894.000
38.08532 1008.000
38.10527 963.000
38.12522 1075.000
38.14516 1117.000
38.16511 1081.000
38.18506 1143.000
38.20500 1164.000
38.22495 1167.000
38.24490 1186.000
38.26484 1212.000
38.28479 1151.000
38.30474 1243.000
38.32469 1231.000
38.34463 1278.000
38.36458 1364.000
38.38453 1299.000
38.40447 1383.000
38.42442 1555.000
38.44437 1619.000
38.46431 1536.000
38.48426 1663.000
38.50421 1797.000
38.52416 1849.000
38.54410 1899.000
38.56405 2081.000
38.58400 1980.000
38.60394 2103.000
38.62389 2155.000
38.64384 2258.000
38.66378 2149.000
38.68373 2146.000
38.70368 1937.000
38.72362 1854.000
38.74357 1757.000
38.76352 1733.000
38.78347 1547.000
38.80341 1529.000
38.82336 1449.000
38.84331 1290.000
38.86325 1312.000
38.88320 1232.000
38.90315 1208.000
38.92309 1169.000
38.94304 1154.000
38.96299 1042.000
38.98294 1017.000
39.00288 994.000
39.02283 970.000
39.04278 902.000
39.06272 933.000
39.08267 876.000
39.10262 931.000
39.12256 904.000
39.14251 929.000
39.16246 882.000
39.18241 827.000
39.20235 827.000
39.22230 866.000
39.24225 903.000
39.26219 803.000
39.28214 821.000
39.30209 836.000
39.32203 874.000
39.34198 830.000
39.36193 823.000
39.38187 826.000
39.40182 832.000
39.42177 905.000
39.44172 866.000
39.46166 846.000
39.48161 829.000
39.50156 785.000
39.52150 846.000
39.54145 794.000
39.56140 807.000
39.58134 765.000
39.60129 865.000
39.62124 833.000
39.64119 814.000
39.66113 809.000
39.68108 827.000
39.70103 845.000
39.72097 857.000
39.74092 806.000
39.76087 773.000
39.78081 815.000
39.80076 836.000
39.82071 825.000
39.84065 798.000
39.86060 813.000
39.88055 786.000
39.90050 795.000
39.92044 770.000
39.94039 838.000
39.96034 790.000
39.98028 831.000
40.00023 799.000
40.02018 828.000
40.04012 837.000
40.06007 843.000
40.08002 803.000
40.09997 795.000
40.11991 776.000
40.13986 800.000
40.15981 821.000
40.17975 820.000
40.19970 770.000
40.21965 794.000
40.23959 788.000
40.25954 787.000
40.27949 822.000
40.29943 822.000
40.31938 817.000
40.33933 794.000
40.35928 841.000
40.37922 788.000
40.39917 835.000
40.41912 806.000
40.43906 778.000
40.45901 793.000
40.47896 810.000
40.49890 825.000
40.51885 781.000
40.53880 814.000
40.55875 803.000
40.57869 820.000
40.59864 790.000
40.61859 789.000
40.63853 856.000
40.65848 826.000
40.67843 801.000
40.69837 815.000
40.71832 776.000
40.73827 785.000
40.75822 793.000
40.77816 817.000
40.79811 808.000
40.81806 839.000
40.83800 790.000
40.85795 789.000
40.87790 799.000
40.89784 816.000
40.91779 791.000
40.93774 820.000
40.95768 791.000
40.97763 801.000
40.99758 789.000
41.01753 788.000
41.03747 775.000
41.05742 866.000
41.07737 865.000
41.09731 858.000
41.11726 794.000
41.13721 773.000
41.15715 861.000
41.17710 789.000
41.19705 801.000
41.21700 812.000
41.23694 777.000
41.25689 864.000
41.27684 856.000
41.29678 809.000
41.31673 837.000
41.33668 836.000
41.35662 830.000
41.37657 817.000
41.39652 805.000
41.41646 756.000
41.43641 766.000
41.45636 850.000
41.47631 828.000
41.49625 800.000
41.51620 824.000
41.53615 813.000
41.55609 836.000
41.57604 771.000
41.59599 765.000
41.61593 824.000
41.63588 788.000
41.65583 789.000
41.67578 798.000
41.69572 791.000
41.71567 829.000
41.73562 786.000
41.75556 783.000
41.77551 809.000
41.79546 810.000
41.81540 784.000
41.83535 772.000
41.85530 797.000
41.87524 795.000
41.89519 763.000
41.91514 766.000
41.93509 810.000
41.95503 779.000
41.97498 815.000
41.99493 808.000
42.01487 788.000
42.03482 773.000
42.05477 767.000
42.07471 787.000
42.09466 821.000
42.11461 825.000
42.13456 776.000
42.15450 772.000
42.17445 744.000
42.19440 847.000
42.21434 772.000
42.23429 828.000
42.25424 767.000
42.27418 790.000
42.29413 733.000
42.31408 788.000
42.33403 803.000
42.35397 758.000
42.37392 759.000
42.39387 758.000
42.41381 770.000
42.43376 792.000
42.45371 755.000
42.47365 761.000
42.49360 765.000
42.51355 808.000
42.53349 760.000
42.55344 804.000
42.57339 818.000
42.59334 756.000
42.61328 762.000
42.63323 766.000
42.65318 794.000
42.67312 775.000
42.69307 750.000
42.71302 768.000
42.73296 809.000
42.75291 701.000
42.77286 733.000
42.79281 812.000
42.81275 770.000
42.83270 797.000
42.85265 774.000
42.87259 775.000
42.89254 769.000
42.91249 773.000
42.93243 783.000
42.95238 808.000
42.97233 734.000
42.99227 759.000
43.01222 770.000
43.03217 792.000
43.05212 803.000
43.07206 791.000
43.09201 814.000
43.11196 826.000
43.13190 764.000
43.15185 807.000
43.17180 772.000
43.19174 794.000
43.21169 745.000
43.23164 722.000
43.25159 834.000
43.27153 814.000
43.29148 699.000
43.31143 762.000
43.33137 750.000
43.35132 749.000
43.37127 766.000
43.39121 771.000
43.41116 828.000
43.43111 757.000
43.45105 714.000
43.47100 781.000
43.49095 770.000
43.51090 739.000
43.53084 731.000
43.55079 755.000
43.57074 710.000
43.59068 743.000
43.61063 730.000
43.63058 767.000
43.65052 742.000
43.67047 763.000
43.69042 776.000
43.71037 766.000
43.73031 744.000
43.75026 727.000
43.77021 703.000
43.79015 766.000
43.81010 723.000
43.83005 726.000
43.84999 742.000
43.86994 709.000
43.88989 714.000
43.90984 698.000
43.92978 718.000
43.94973 756.000
43.96968 703.000
43.98962 711.000
44.00957 693.000
44.02952 747.000
44.04946 768.000
44.06941 684.000
44.08936 695.000
44.10930 797.000
44.12925 727.000
44.14920 699.000
44.16915 708.000
44.18909 732.000
44.20904 705.000
44.22899 687.000
44.24893 713.000
44.26888 708.000
44.28883 716.000
44.30877 694.000
44.32872 711.000
44.34867 701.000
44.36862 743.000
44.38856 732.000
44.40851 731.000
44.42846 742.000
44.44840 661.000
44.46835 754.000
44.48830 682.000
44.50824 715.000
44.52819 691.000
44.54814 642.000
44.56808 707.000
44.58803 729.000
44.60798 706.000
44.62793 696.000
44.64787 734.000
44.66782 714.000
44.68777 703.000
44.70771 747.000
44.72766 713.000
44.74761 695.000
44.76755 680.000
44.78750 663.000
44.80745 664.000
44.82740 707.000
44.84734 665.000
44.86729 672.000
44.88724 721.000
44.90718 725.000
44.92713 653.000
44.94708 631.000
44.96702 722.000
44.98697 745.000
45.00692 689.000
45.02686 674.000
45.04681 733.000
45.06676 694.000
45.08671 705.000
45.10665 709.000
45.12660 690.000
45.14655 643.000
45.16649 643.000
45.18644 661.000
45.20639 675.000
45.22633 667.000
45.24628 669.000
45.26623 706.000
45.28618 677.000
45.30612 661.000
45.32607 634.000
45.34602 656.000
45.36596 674.000
45.38591 663.000
45.40586 673.000
45.42580 654.000
45.44575 651.000
45.46570 615.000
45.48565 656.000
45.50559 660.000
45.52554 667.000
45.54549 655.000
45.56543 655.000
45.58538 669.000
45.60533 698.000
45.62527 678.000
45.64522 655.000
45.66517 656.000
45.68511 685.000
45.70506 685.000
45.72501 659.000
45.74496 700.000
45.76490 646.000
45.78485 648.000
45.80480 719.000
45.82474 661.000
45.84469 628.000
45.86464 670.000
45.88458 649.000
45.90453 665.000
45.92448 651.000
45.94443 701.000
45.96437 634.000
45.98432 646.000
46.00427 650.000
46.02421 647.000
46.04416 672.000
46.06411 722.000
46.08405 664.000
46.10400 695.000
46.12395 645.000
46.14389 625.000
46.16384 682.000
46.18379 661.000
46.20374 732.000
46.22368 677.000
46.24363 705.000
46.26358 671.000
46.28352 670.000
46.30347 634.000
46.32342 616.000
46.34336 647.000
46.36331 652.000
46.38326 640.000
46.40321 592.000
46.42315 670.000
46.44310 640.000
46.46305 644.000
46.48299 616.000
46.50294 708.000
46.52289 659.000
46.54283 643.000
46.56278 600.000
46.58273 642.000
46.60267 586.000
46.62262 684.000
46.64257 631.000
46.66252 612.000
46.68246 629.000
46.70241 641.000
46.72236 641.000
46.74230 639.000
46.76225 611.000
46.78220 600.000
46.80214 609.000
46.82209 596.000
46.84204 625.000
46.86199 607.000
46.88193 583.000
46.90188 646.000
46.92183 627.000
46.94177 614.000
46.96172 623.000
46.98167 659.000
47.00161 580.000
47.02156 613.000
47.04151 661.000
47.06146 635.000
47.08140 595.000
47.10135 620.000
47.12130 587.000
47.14124 631.000
47.16119 618.000
47.18114 596.000
47.20108 660.000
47.22103 632.000
47.24098 670.000
47.26092 592.000
47.28087 626.000
47.30082 640.000
47.32077 582.000
47.34071 637.000
47.36066 663.000
47.38061 634.000
47.40055 614.000
47.42050 651.000
47.44045 580.000
47.46039 634.000
47.48034 567.000
47.50029 628.000
47.52024 662.000
47.54018 600.000
47.56013 620.000
47.58008 649.000
47.60002 615.000
47.61997 613.000
47.63992 612.000
47.65986 628.000
47.67981 594.000
47.69976 581.000
47.71970 647.000
47.73965 626.000
47.75960 608.000
47.77955 611.000
47.79949 626.000
47.81944 645.000
47.83939 662.000
47.85933 688.000
47.87928 636.000
47.89923 634.000
47.91917 626.000
47.93912 696.000
47.95907 663.000
47.97902 653.000
47.99896 676.000
48.01891 664.000
48.03886 645.000
48.05880 695.000
48.07875 680.000
48.09870 678.000
48.11864 669.000
48.13859 676.000
48.15854 711.000
48.17848 737.000
48.19843 699.000
48.21838 696.000
48.23833 758.000
48.25827 763.000
48.27822 768.000
48.29817 740.000
48.31811 718.000
48.33806 808.000
48.35801 801.000
48.37795 718.000
48.39790 774.000
48.41785 827.000
48.43780 802.000
48.45774 932.000
48.47769 907.000
48.49764 938.000
48.51758 927.000
48.53753 938.000
48.55748 938.000
48.57742 983.000
48.59737 1053.000
48.61732 932.000
48.63726 1027.000
48.65721 1033.000
48.67716 1036.000
48.69711 963.000
48.71705 953.000
48.73700 856.000
48.75695 852.000
48.77689 887.000
48.79684 816.000
48.81679 793.000
48.83673 710.000
48.85668 715.000
48.87663 695.000
48.89658 700.000
48.91652 721.000
48.93647 616.000
48.95642 672.000
48.97636 639.000
48.99631 682.000
49.01626 623.000
49.03620 652.000
49.05615 639.000
49.07610 662.000
49.09605 661.000
49.11599 661.000
49.13594 636.000
49.15589 578.000
49.17583 625.000
49.19578 601.000
49.21573 579.000
49.23567 608.000
49.25562 616.000
49.27557 593.000
49.29551 614.000
49.31546 641.000
49.33541 622.000
49.35536 624.000
49.37530 550.000
49.39525 600.000
49.41520 580.000
49.43514 602.000
49.45509 605.000
49.47504 634.000
49.49498 629.000
49.51493 582.000
49.53488 585.000
49.55483 602.000
49.57477 609.000
49.59472 591.000
49.61467 589.000
49.63461 623.000
49.65456 604.000
49.67451 602.000
49.69445 586.000
49.71440 590.000
49.73435 622.000
49.75429 552.000
49.77424 580.000
49.79419 565.000
49.81414 607.000
49.83408 608.000
49.85403 596.000
49.87398 576.000
49.89392 569.000
49.91387 589.000
49.93382 559.000
49.95376 634.000
49.97371 574.000
49.99366 576.000
50.01361 589.000
50.03355 577.000
50.05350 602.000
50.07345 556.000
50.09339 624.000
50.11334 614.000
50.13329 631.000
50.15323 645.000
50.17318 571.000
50.19313 580.000
50.21307 578.000
50.23302 594.000
50.25297 606.000
50.27292 587.000
50.29286 600.000
50.31281 581.000
50.33276 567.000
50.35270 562.000
50.37265 622.000
50.39260 579.000
50.41254 610.000
50.43249 597.000
50.45244 604.000
50.47239 595.000
50.49233 616.000
50.51228 612.000
50.53223 613.000
50.55217 594.000
50.57212 620.000
50.59207 580.000
50.61201 622.000
50.63196 618.000
50.65191 636.000
50.67186 587.000
50.69180 571.000
50.71175 582.000
50.73170 576.000
50.75164 604.000
50.77159 560.000
50.79154 578.000
50.81148 640.000
50.83143 592.000
50.85138 594.000
50.87132 610.000
50.89127 546.000
50.91122 598.000
50.93117 582.000
50.95111 574.000
50.97106 565.000
50.99101 623.000
51.01095 591.000
51.03090 597.000
51.05085 596.000
51.07079 610.000
51.09074 573.000
51.11069 614.000
51.13064 611.000
51.15058 603.000
51.17053 661.000
51.19048 612.000
51.21042 616.000
51.23037 603.000
51.25032 617.000
51.27026 608.000
51.29021 614.000
51.31016 586.000
51.33010 589.000
51.35005 596.000
51.37000 559.000
51.38995 570.000
51.40989 628.000
51.42984 552.000
51.44979 583.000
51.46973 600.000
51.48968 569.000
51.50963 603.000
51.52957 615.000
51.54952 608.000
51.56947 593.000
51.58942 616.000
51.60936 618.000
51.62931 569.000
51.64926 564.000
51.66920 576.000
51.68915 587.000
51.70910 601.000
51.72904 543.000
51.74899 583.000
51.76894 603.000
51.78888 593.000
51.80883 597.000
51.82878 573.000
51.84873 587.000
51.86867 582.000
51.88862 596.000
51.90857 600.000
51.92851 607.000
51.94846 602.000
51.96841 580.000
51.98835 573.000
52.00830 546.000
52.02825 563.000
52.04820 597.000
52.06814 583.000
52.08809 595.000
52.10804 617.000
52.12798 641.000
52.14793 549.000
52.16788 545.000
52.18782 570.000
52.20777 582.000
52.22772 589.000
52.24767 580.000
52.26761 595.000
52.28756 565.000
52.30751 610.000
52.32745 530.000
52.34740 615.000
52.36735 593.000
52.38729 563.000
52.40724 585.000
52.42719 619.000
52.44713 571.000
52.46708 603.000
52.48703 605.000
52.50698 602.000
52.52692 612.000
52.54687 557.000
52.56682 575.000
52.58676 579.000
52.60671 595.000
52.62666 617.000
52.64660 580.000
52.66655 623.000
52.68650 653.000
52.70645 612.000
52.72639 568.000
52.74634 528.000
52.76629 607.000
52.78623 622.000
52.80618 609.000
52.82613 601.000
52.84607 652.000
52.86602 612.000
52.88597 612.000
52.90591 576.000
52.92586 631.000
52.94581 605.000
52.96576 657.000
52.98570 668.000
53.00565 629.000
53.02560 646.000
53.04554 679.000
53.06549 630.000
53.08544 637.000
53.10538 631.000
53.12533 609.000
53.14528 691.000
53.16523 661.000
53.18517 663.000
53.20512 666.000
53.22507 655.000
53.24501 657.000
53.26496 710.000
53.28491 645.000
53.30485 758.000
53.32480 631.000
53.34475 697.000
53.36469 715.000
53.38464 702.000
53.40459 673.000
53.42454 696.000
53.44448 749.000
53.46443 652.000
53.48438 699.000
53.50432 681.000
53.52427 649.000
53.54422 650.000
53.56416 640.000
53.58411 592.000
53.60406 671.000
53.62401 624.000
53.64395 631.000
53.66390 583.000
53.68385 615.000
53.70379 571.000
53.72374 590.000
53.74369 607.000
53.76363 578.000
53.78358 570.000
53.80353 595.000
53.82348 601.000
53.84342 595.000
53.86337 569.000
53.88332 594.000
53.90326 561.000
53.92321 559.000
53.94316 557.000
53.96310 551.000
53.98305 615.000
54.00300 564.000
54.02294 604.000
54.04289 566.000
54.06284 555.000
54.08279 575.000
54.10273 559.000
54.12268 570.000
54.14263 586.000
54.16257 595.000
54.18252 573.000
54.20247 572.000
54.22241 562.000
54.24236 586.000
54.26231 587.000
54.28226 593.000
54.30220 557.000
54.32215 596.000
54.34210 591.000
54.36204 572.000
54.38199 549.000
54.40194 587.000
54.42188 595.000
54.44183 570.000
54.46178 567.000
54.48172 596.000
54.50167 586.000
54.52162 555.000
54.54157 559.000
54.56151 558.000
54.58146 544.000
54.60141 558.000
54.62135 561.000
54.64130 569.000
54.66125 549.000
54.68119 572.000
54.70114 567.000
54.72109 583.000
54.74104 528.000
54.76098 561.000
54.78093 580.000
54.80088 558.000
54.82082 530.000
54.84077 599.000
54.86072 555.000
54.88066 561.000
54.90061 527.000
54.92056 563.000
54.94050 540.000
54.96045 583.000
54.98040 575.000
55.00035 590.000
55.02029 597.000
55.04024 543.000
55.06019 550.000
55.08013 566.000
55.10008 554.000
55.12003 583.000
55.13997 556.000
55.15992 579.000
55.17987 571.000
55.19982 595.000
55.21976 571.000
55.23971 546.000
55.25966 570.000
55.27960 589.000
55.29955 585.000
55.31950 538.000
55.33944 599.000
55.35939 499.000
55.37934 533.000
55.39929 592.000
55.41923 590.000
55.43918 557.000
55.45913 571.000
55.47907 583.000
55.49902 554.000
55.51897 625.000
55.53891 550.000
55.55886 585.000
55.57881 595.000
55.59875 551.000
55.61870 577.000
55.63865 601.000
55.65860 570.000
55.67854 572.000
55.69849 542.000
55.71844 524.000
55.73838 603.000
55.75833 574.000
55.77828 605.000
55.79822 565.000
55.81817 561.000
55.83812 575.000
55.85807 560.000
55.87801 594.000
55.89796 552.000
55.91791 570.000
55.93785 584.000
55.95780 611.000
55.97775 565.000
55.99769 530.000
56.01764 531.000
56.03759 575.000
56.05753 570.000
56.07748 575.000
56.09743 541.000
56.11738 591.000
56.13732 569.000
56.15727 577.000
56.17722 595.000
56.19716 565.000
56.21711 585.000
56.23706 574.000
56.25700 616.000
56.27695 556.000
56.29690 551.000
56.31685 563.000
56.33679 595.000
56.35674 549.000
56.37669 565.000
56.39663 582.000
56.41658 543.000
56.43653 594.000
56.45647 582.000
56.47642 581.000
56.49637 572.000
56.51631 597.000
56.53626 600.000
56.55621 607.000
56.57616 537.000
56.59610 582.000
56.61605 616.000
56.63600 566.000
56.65594 578.000
56.67589 557.000
56.69584 589.000
56.71578 554.000
56.73573 563.000
56.75568 592.000
56.77563 568.000
56.79557 587.000
56.81552 586.000
56.83547 621.000
56.85541 589.000
56.87536 546.000
56.89531 593.000
56.91525 568.000
56.93520 559.000
56.95515 582.000
56.97510 575.000
56.99504 547.000
57.01499 578.000
57.03494 587.000
57.05488 628.000
57.07483 583.000
57.09478 583.000
57.11472 559.000
57.13467 596.000
57.15462 596.000
57.17456 562.000
57.19451 562.000
57.21446 577.000
57.23441 571.000
57.25435 561.000
57.27430 578.000
57.29425 562.000
57.31419 615.000
57.33414 557.000
57.35409 569.000
57.37403 610.000
57.39398 575.000
57.41393 590.000
57.43388 581.000
57.45382 610.000
57.47377 598.000
57.49372 577.000
57.51366 620.000
57.53361 647.000
57.55356 636.000
57.57350 578.000
57.59345 586.000
57.61340 598.000
57.63334 608.000
57.65329 584.000
57.67324 642.000
57.69319 627.000
57.71313 643.000
57.73308 652.000
57.75303 655.000
57.77297 637.000
57.79292 624.000
57.81287 676.000
57.83281 670.000
57.85276 614.000
57.87271 659.000
57.89266 641.000
57.91260 694.000
57.93255 670.000
57.95250 673.000
57.97244 665.000
57.99239 726.000
58.01234 715.000
58.03228 727.000
58.05223 683.000
58.07218 714.000
58.09212 701.000
58.11207 757.000
58.13202 793.000
58.15197 781.000
58.17191 760.000
58.19186 797.000
58.21181 784.000
58.23175 759.000
58.25170 828.000
58.27165 690.000
58.29159 749.000
58.31154 749.000
58.33149 693.000
58.35144 669.000
58.37138 663.000
58.39133 643.000
58.41128 642.000
58.43122 612.000
58.45117 636.000
58.47112 635.000
58.49106 586.000
58.51101 602.000
58.53096 594.000
58.55090 577.000
58.57085 589.000
58.59080 522.000
58.61075 559.000
58.63069 591.000
58.65064 601.000
58.67059 613.000
58.69053 564.000
58.71048 564.000
58.73043 539.000
58.75037 541.000
58.77032 538.000
58.79027 552.000
58.81022 556.000
58.83016 534.000
58.85011 587.000
58.87006 560.000
58.89000 558.000
58.90995 549.000
58.92990 564.000
58.94984 565.000
58.96979 582.000
58.98974 563.000
59.00969 545.000
59.02963 551.000
59.04958 582.000
59.06953 588.000
59.08947 553.000
59.10942 551.000
59.12937 527.000
59.14931 589.000
59.16926 550.000
59.18921 597.000
59.20915 568.000
59.22910 574.000
59.24905 591.000
59.26900 541.000
59.28894 556.000
59.30889 526.000
59.32884 577.000
59.34878 501.000
59.36873 547.000
59.38868 552.000
59.40862 601.000
59.42857 539.000
59.44852 571.000
59.46847 497.000
59.48841 520.000
59.50836 544.000
59.52831 523.000
59.54825 527.000
59.56820 598.000
59.58815 550.000
59.60809 574.000
59.62804 600.000
59.64799 586.000
59.66793 530.000
59.68788 537.000
59.70783 525.000
59.72778 549.000
59.74772 560.000
59.76767 565.000
59.78762 573.000
59.80756 542.000
59.82751 543.000
59.84746 583.000
59.86740 546.000
59.88735 564.000
59.90730 546.000
59.92725 566.000
59.94719 544.000
59.96714 597.000
59.98709 549.000
60.00703 547.000
60.02698 574.000
60.04693 570.000
60.06687 563.000
60.08682 579.000
60.10677 535.000
60.12671 516.000
60.14666 552.000
60.16661 497.000
60.18656 553.000
60.20650 511.000
60.22645 544.000
60.24640 555.000
60.26634 557.000
60.28629 537.000
60.30624 560.000
60.32618 554.000
60.34613 536.000
60.36608 536.000
60.38603 544.000
60.40597 564.000
60.42592 543.000
60.44587 533.000
60.46581 540.000
60.48576 569.000
60.50571 540.000
60.52565 541.000
60.54560 549.000
60.56555 592.000
60.58550 603.000
60.60544 574.000
60.62539 597.000
60.64534 613.000
60.66528 594.000
60.68523 589.000
60.70518 563.000
60.72512 610.000
60.74507 611.000
60.76502 595.000
60.78496 603.000
60.80491 606.000
60.82486 591.000
60.84481 623.000
60.86475 611.000
60.88470 618.000
60.90465 623.000
60.92459 635.000
60.94454 632.000
60.96449 622.000
60.98443 655.000
61.00438 658.000
61.02433 665.000
61.04428 669.000
61.06422 716.000
61.08417 694.000
61.10412 699.000
61.12406 718.000
61.14401 708.000
61.16396 716.000
61.18390 724.000
61.20385 767.000
61.22380 752.000
61.24374 768.000
61.26369 803.000
61.28364 765.000
61.30359 869.000
61.32353 844.000
61.34348 814.000
61.36343 835.000
61.38337 832.000
61.40332 870.000
61.42327 923.000
61.44321 919.000
61.46316 956.000
61.48311 904.000
61.50306 853.000
61.52300 852.000
61.54295 800.000
61.56290 746.000
61.58284 770.000
61.60279 738.000
61.62274 733.000
61.64268 702.000
61.66263 695.000
61.68258 698.000
61.70252 611.000
61.72247 616.000
61.74242 636.000
61.76237 584.000
61.78231 604.000
61.80226 566.000
61.82221 583.000
61.84215 597.000
61.86210 611.000
61.88205 602.000
61.90199 568.000
61.92194 601.000
61.94189 579.000
61.96184 563.000
61.98178 560.000
62.00173 537.000
62.02168 597.000
62.04162 580.000
62.06157 592.000
62.08152 541.000
62.10146 579.000
62.12141 557.000
62.14136 553.000
62.16131 570.000
62.18125 568.000
62.20120 553.000
62.22115 556.000
62.24109 574.000
62.26104 570.000
62.28099 603.000
62.30093 587.000
62.32088 584.000
62.34083 543.000
62.36077 563.000
62.38072 590.000
62.40067 560.000
62.42062 538.000
62.44056 577.000
62.46051 569.000
62.48046 542.000
62.50040 561.000
62.52035 592.000
62.54030 579.000
62.56024 593.000
62.58019 548.000
62.60014 581.000
62.62009 532.000
62.64003 537.000
62.65998 579.000
62.67993 582.000
62.69987 567.000
62.71982 577.000
62.73977 551.000
62.75971 594.000
62.77966 579.000
62.79961 584.000
62.81955 529.000
62.83950 590.000
62.85945 570.000
62.87940 544.000
62.89934 573.000
62.91929 572.000
62.93924 530.000
62.95918 565.000
62.97913 550.000
62.99908 579.000
63.01902 551.000
63.03897 587.000
63.05892 576.000
63.07887 591.000
63.09881 587.000
63.11876 562.000
63.13871 571.000
63.15865 538.000
63.17860 542.000
63.19855 547.000
63.21849 565.000
63.23844 537.000
63.25839 606.000
63.27833 521.000
63.29828 597.000
63.31823 524.000
63.33818 596.000
63.35812 571.000
63.37807 549.000
63.39802 569.000
63.41796 563.000
63.43791 551.000
63.45786 553.000
63.47780 569.000
63.49775 559.000
63.51770 558.000
63.53765 528.000
63.55759 559.000
63.57754 576.000
63.59749 602.000
63.61743 576.000
63.63738 571.000
63.65733 545.000
63.67727 624.000
63.69722 583.000
63.71717 553.000
63.73712 581.000
63.75706 547.000
63.77701 597.000
63.79696 520.000
63.81690 585.000
63.83685 545.000
63.85680 586.000
63.87674 533.000
63.89669 547.000
63.91664 562.000
63.93658 506.000
63.95653 598.000
63.97648 558.000
63.99643 576.000
64.01637 552.000
64.03632 535.000
64.05627 557.000
64.07621 557.000
64.09616 545.000
64.11611 554.000
64.13605 562.000
64.15600 584.000
64.17595 568.000
64.19590 567.000
64.21584 555.000
64.23579 540.000
64.25574 549.000
64.27568 565.000
64.29563 568.000
64.31558 571.000
64.33552 566.000
64.35547 588.000
64.37542 573.000
64.39536 585.000
64.41531 560.000
64.43526 545.000
64.45521 553.000
64.47515 590.000
64.49510 564.000
64.51505 582.000
64.53499 550.000
64.55494 535.000
64.57489 573.000
64.59483 564.000
64.61478 628.000
64.63473 571.000
64.65468 545.000
64.67462 580.000
64.69457 552.000
64.71452 559.000
64.73446 547.000
64.75441 618.000
64.77436 611.000
64.79430 571.000
64.81425 565.000
64.83420 543.000
64.85414 576.000
64.87409 579.000
64.89404 556.000
64.91399 614.000
64.93393 586.000
64.95388 591.000
64.97383 587.000
64.99377 609.000
65.01372 599.000
65.03367 615.000
65.05361 645.000
65.07356 625.000
65.09351 617.000
65.11346 605.000
65.13340 609.000
65.15335 639.000
65.17330 655.000
65.19324 648.000
65.21319 607.000
65.23314 643.000
65.25308 649.000
65.27303 680.000
65.29298 665.000
65.31293 647.000
65.33287 653.000
65.35282 708.000
65.37277 745.000
65.39271 726.000
65.41266 709.000
65.43261 667.000
65.45255 688.000
65.47250 742.000
65.49245 794.000
65.51239 798.000
65.53234 753.000
65.55229 852.000
65.57224 825.000
65.59218 832.000
65.61213 793.000
65.63208 822.000
65.65202 829.000
65.67197 831.000
65.69192 844.000
65.71186 851.000
65.73181 838.000
65.75176 863.000
65.77171 929.000
65.79165 843.000
65.81160 796.000
65.83155 800.000
65.85149 818.000
65.87144 848.000
65.89139 850.000
65.91133 806.000
65.93128 841.000
65.95123 810.000
65.97117 864.000
65.99112 808.000
66.01107 821.000
66.03102 852.000
66.05096 838.000
66.07091 889.000
66.09086 903.000
66.11080 852.000
66.13075 853.000
66.15070 918.000
66.17064 902.000
66.19059 947.000
66.21054 792.000
66.23049 837.000
66.25043 834.000
66.27038 780.000
66.29033 712.000
66.31027 758.000
66.33022 745.000
66.35017 728.000
66.37011 682.000
66.39006 692.000
66.41001 663.000
66.42995 649.000
66.44990 669.000
66.46985 630.000
66.48980 614.000
66.50974 588.000
66.52969 590.000
66.54964 593.000
66.56958 617.000
66.58953 614.000
66.60948 587.000
66.62942 595.000
66.64937 598.000
66.66932 578.000
66.68927 592.000
66.70921 586.000
66.72916 583.000
66.74911 592.000
66.76905 626.000
66.78900 602.000
66.80895 581.000
66.82889 601.000
66.84884 604.000
66.86879 542.000
66.88874 573.000
66.90868 580.000
66.92863 599.000
66.94858 609.000
66.96852 618.000
66.98847 560.000
67.00842 613.000
67.02836 606.000
67.04831 581.000
67.06826 653.000
67.08820 575.000
67.10815 596.000
67.12810 615.000
67.14805 603.000
67.16799 618.000
67.18794 610.000
67.20789 607.000
67.22783 620.000
67.24778 645.000
67.26773 626.000
67.28767 620.000
67.30762 611.000
67.32757 688.000
67.34752 648.000
67.36746 642.000
67.38741 660.000
67.40736 676.000
67.42730 689.000
67.44725 764.000
67.46720 655.000
67.48714 703.000
67.50709 743.000
67.52704 711.000
67.54698 725.000
67.56693 783.000
67.58688 748.000
67.60683 692.000
67.62677 815.000
67.64672 814.000
67.66667 766.000
67.68661 817.000
67.70656 863.000
67.72651 832.000
67.74645 824.000
67.76640 868.000
67.78635 857.000
67.80630 865.000
67.82624 879.000
67.84619 901.000
67.86614 861.000
67.88608 891.000
67.90603 881.000
67.92598 904.000
67.94592 905.000
67.96587 913.000
67.98582 917.000
68.00576 893.000
68.02571 892.000
68.04566 881.000
68.06561 829.000
68.08555 797.000
68.10550 749.000
68.12545 788.000
68.14539 702.000
68.16534 733.000
68.18529 659.000
68.20523 648.000
68.22518 687.000
68.24513 672.000
68.26508 619.000
68.28502 567.000
68.30497 609.000
68.32492 576.000
68.34486 608.000
68.36481 625.000
68.38476 654.000
68.40470 577.000
68.42465 617.000
68.44460 593.000
68.46455 607.000
68.48449 613.000
68.50444 565.000
68.52439 583.000
68.54433 565.000
68.56428 592.000
68.58423 594.000
68.60417 569.000
68.62412 565.000
68.64407 603.000
68.66401 544.000
68.68396 566.000
68.70391 574.000
68.72386 565.000
68.74380 599.000
68.76375 587.000
68.78370 593.000
68.80364 563.000
68.82359 578.000
68.84354 543.000
68.86348 568.000
68.88343 635.000
68.90338 565.000
68.92333 507.000
68.94327 533.000
68.96322 542.000
68.98317 602.000
69.00311 550.000
69.02306 535.000
69.04301 532.000
69.06295 604.000
69.08290 595.000
69.10285 569.000
69.12279 554.000
69.14274 567.000
69.16269 563.000
69.18264 517.000
69.20258 558.000
69.22253 556.000
69.24248 518.000
69.26242 540.000
69.28237 551.000
69.30232 528.000
69.32226 528.000
69.34221 544.000
69.36216 558.000
69.38211 602.000
69.40205 568.000
69.42200 581.000
69.44195 557.000
69.46189 595.000
69.48184 607.000
69.50179 575.000
69.52173 534.000
69.54168 566.000
69.56163 543.000
69.58157 558.000
69.60152 560.000
69.62147 545.000
69.64142 586.000
69.66136 550.000
69.68131 543.000
69.70126 535.000
69.72120 568.000
69.74115 522.000
69.76110 539.000
69.78104 532.000
69.80099 546.000
69.82094 541.000
69.84089 552.000
69.86083 606.000
69.88078 578.000
69.90073 542.000
69.92067 557.000
69.94062 522.000
69.96057 560.000
69.98051 559.000
70.00046 547.000
70.02041 548.000
70.04035 577.000
70.06030 577.000
70.08025 546.000
70.10020 557.000
70.12014 560.000
70.14009 534.000
70.16004 556.000
70.17998 532.000
70.19993 545.000
70.21988 512.000
70.23982 588.000
70.25977 559.000
70.27972 553.000
70.29967 607.000
70.31961 556.000
70.33956 539.000
70.35951 548.000
70.37945 531.000
70.39940 559.000
70.41935 565.000
70.43929 564.000
70.45924 570.000
70.47919 565.000
70.49914 530.000
70.51908 536.000
70.53903 557.000
70.55898 524.000
70.57892 522.000
70.59887 551.000
70.61882 579.000
70.63876 563.000
70.65871 567.000
70.67866 585.000
70.69860 562.000
70.71855 560.000
70.73850 559.000
70.75845 544.000
70.77839 535.000
70.79834 579.000
70.81829 560.000
70.83823 583.000
70.85818 587.000
70.87813 565.000
70.89807 537.000
70.91802 549.000
70.93797 589.000
70.95792 537.000
70.97786 572.000
70.99781 600.000
71.01776 543.000
71.03770 554.000
71.05765 566.000
71.07760 555.000
71.09754 532.000
71.11749 568.000
71.13744 548.000
71.15738 563.000
71.17733 491.000
71.19728 533.000
71.21723 586.000
71.23717 551.000
71.25712 568.000
71.27707 576.000
71.29701 535.000
71.31696 600.000
71.33691 588.000
71.35685 560.000
71.37680 567.000
71.39675 567.000
71.41670 555.000
71.43664 566.000
71.45659 577.000
71.47654 563.000
71.49648 576.000
71.51643 537.000
71.53638 548.000
71.55632 583.000
71.57627 577.000
71.59622 564.000
71.61616 590.000
71.63611 588.000
71.65606 592.000
71.67601 560.000
71.69595 621.000
71.71590 551.000
71.73585 599.000
71.75579 623.000
71.77574 601.000
71.79569 618.000
71.81563 590.000
71.83558 599.000
71.85553 579.000
71.87548 576.000
71.89542 580.000
71.91537 608.000
71.93532 636.000
71.95526 584.000
71.97521 628.000
71.99516 593.000
72.01510 617.000
72.03505 651.000
72.05500 616.000
72.07495 659.000
72.09489 645.000
72.11484 623.000
72.13479 701.000
72.15473 657.000
72.17468 651.000
72.19463 675.000
72.21457 650.000
72.23452 703.000
72.25447 673.000
72.27441 685.000
72.29436 684.000
72.31431 640.000
72.33426 666.000
72.35420 643.000
72.37415 601.000
72.39410 617.000
72.41404 696.000
72.43399 677.000
72.45394 618.000
72.47388 583.000
72.49383 633.000
72.51378 598.000
72.53373 647.000
72.55367 578.000
72.57362 595.000
72.59357 626.000
72.61351 596.000
72.63346 622.000
72.65341 570.000
72.67335 635.000
72.69330 589.000
72.71325 520.000
72.73319 497.000
72.75314 592.000
72.77309 609.000
72.79304 574.000
72.81298 589.000
72.83293 578.000
72.85288 598.000
72.87282 544.000
72.89277 570.000
72.91272 589.000
72.93266 581.000
72.95261 555.000
72.97256 579.000
72.99251 515.000
73.01245 586.000
73.03240 543.000
73.05235 502.000
73.07229 561.000
73.09224 503.000
73.11219 568.000
73.13213 551.000
73.15208 557.000
73.17203 569.000
73.19197 610.000
73.21192 553.000
73.23187 546.000
73.25182 553.000
73.27176 538.000
73.29171 587.000
73.31166 543.000
73.33160 538.000
73.35155 611.000
73.37150 524.000
73.39144 580.000
73.41139 583.000
73.43134 559.000
73.45129 522.000
73.47123 551.000
73.49118 493.000
73.51113 538.000
73.53107 583.000
73.55102 555.000
73.57097 558.000
73.59091 580.000
73.61086 514.000
73.63081 547.000
73.65076 553.000
73.67070 570.000
73.69065 577.000
73.71060 524.000
73.73054 559.000
73.75049 538.000
73.77044 593.000
73.79038 533.000
73.81033 563.000
73.83028 527.000
73.85022 539.000
73.87017 575.000
73.89012 557.000
73.91007 571.000
73.93001 544.000
73.94996 600.000
73.96991 531.000
73.98985 567.000
74.00980 573.000
74.02975 568.000
74.04969 587.000
74.06964 533.000
74.08959 575.000
74.10954 572.000
74.12948 562.000
74.14943 609.000
74.16938 564.000
74.18932 568.000
74.20927 588.000
74.22922 571.000
74.24916 587.000
74.26911 568.000
74.28906 572.000
74.30900 623.000
74.32895 569.000
74.34890 632.000
74.36885 563.000
74.38879 681.000
74.40874 596.000
74.42869 622.000
74.44863 649.000
74.46858 622.000
74.48853 641.000
74.50847 650.000
74.52842 630.000
74.54837 629.000
74.56832 690.000
74.58826 629.000
74.60821 653.000
74.62816 665.000
74.64810 657.000
74.66805 657.000
74.68800 673.000
74.70794 671.000
74.72789 701.000
74.74784 688.000
74.76778 759.000
74.78773 673.000
74.80768 708.000
74.82763 719.000
74.84757 710.000
74.86752 698.000
74.88747 738.000
74.90741 722.000
74.92736 738.000
74.94731 721.000
74.96725 696.000
74.98720 754.000
75.00715 732.000
75.02710 712.000
75.04704 739.000
75.06699 671.000
75.08694 696.000
75.10688 698.000
75.12683 693.000
75.14678 711.000
75.16672 706.000
75.18667 676.000
75.20662 672.000
75.22657 638.000
75.24651 652.000
75.26646 653.000
75.28641 657.000
75.30635 579.000
75.32630 621.000
75.34625 663.000
75.36619 613.000
75.38614 627.000
75.40609 631.000
75.42603 595.000
75.44598 558.000
75.46593 589.000
75.48588 584.000
75.50582 581.000
75.52577 540.000
75.54572 601.000
75.56566 568.000
75.58561 569.000
75.60556 584.000
75.62550 603.000
75.64545 560.000
75.66540 502.000
75.68535 594.000
75.70529 541.000
75.72524 582.000
75.74519 554.000
75.76513 525.000
75.78508 572.000
75.80503 525.000
75.82497 594.000
75.84492 558.000
75.86487 567.000
75.88481 533.000
75.90476 566.000
75.92471 565.000
75.94466 554.000
75.96460 529.000
75.98455 508.000
76.00450 569.000
76.02444 526.000
76.04439 576.000
76.06434 553.000
76.08428 534.000
76.10423 544.000
76.12418 519.000
76.14413 556.000
76.16407 578.000
76.18402 545.000
76.20397 540.000
76.22391 521.000
76.24386 545.000
76.26381 560.000
76.28375 536.000
76.30370 546.000
76.32365 594.000
76.34359 549.000
76.36354 545.000
76.38349 547.000
76.40344 564.000
76.42338 553.000
76.44333 587.000
76.46328 539.000
76.48322 554.000
76.50317 576.000
76.52312 548.000
76.54306 547.000
76.56301 524.000
76.58296 547.000
76.60291 543.000
76.62285 567.000
76.64280 537.000
76.66275 510.000
76.68269 540.000
76.70264 547.000
76.72259 551.000
76.74253 488.000
76.76248 550.000
76.78243 525.000
76.80238 559.000
76.82232 519.000
76.84227 543.000
76.86222 528.000
76.88216 549.000
76.90211 522.000
76.92206 519.000
76.94200 585.000
76.96195 576.000
76.98190 523.000
77.00184 512.000
77.02179 567.000
77.04174 555.000
77.06169 533.000
77.08163 544.000
77.10158 570.000
77.12153 564.000
77.14147 593.000
77.16142 516.000
77.18137 546.000
77.20131 561.000
77.22126 584.000
77.24121 536.000
77.26116 565.000
77.28110 602.000
77.30105 578.000
77.32100 539.000
77.34094 529.000
77.36089 557.000
77.38084 551.000
77.40078 585.000
77.42073 545.000
77.44068 502.000
77.46062 581.000
77.48057 558.000
77.50052 558.000
77.52047 563.000
77.54041 532.000
77.56036 557.000
77.58031 569.000
77.60025 545.000
77.62020 529.000
77.64015 595.000
77.66009 558.000
77.68004 542.000
77.69999 580.000
77.71994 524.000
77.73988 576.000
77.75983 593.000
77.77978 553.000
77.79972 523.000
77.81967 532.000
77.83962 537.000
77.85956 562.000
77.87951 570.000
77.89946 537.000
77.91940 563.000
77.93935 597.000
77.95930 562.000
77.97925 529.000
77.99919 577.000
78.01914 530.000
78.03909 513.000
78.05903 561.000
78.07898 567.000
78.09893 557.000
78.11887 575.000
78.13882 620.000
78.15877 542.000
78.17872 536.000
78.19866 557.000
78.21861 588.000
78.23856 587.000
78.25850 502.000
78.27845 549.000
78.29840 564.000
78.31834 543.000
78.33829 571.000
78.35824 573.000
78.37819 557.000
78.39813 539.000
78.41808 511.000
78.43803 546.000
78.45797 524.000
78.47792 571.000
78.49787 575.000
78.51781 574.000
78.53776 533.000
78.55771 566.000
78.57765 535.000
78.59760 556.000
78.61755 547.000
78.63750 584.000
78.65744 505.000
78.67739 510.000
78.69734 547.000
78.71728 549.000
78.73723 527.000
78.75718 517.000
78.77712 566.000
78.79707 583.000
78.81702 569.000
78.83697 580.000
78.85691 543.000
78.87686 530.000
78.89681 563.000
78.91675 572.000
78.93670 550.000
78.95665 526.000
78.97659 544.000
78.99654 569.000
79.01649 511.000
79.03643 518.000
79.05638 512.000
79.07633 498.000
79.09628 593.000
79.11622 549.000
79.13617 554.000
79.15612 608.000
79.17606 535.000
79.19601 541.000
79.21596 515.000
79.23590 556.000
79.25585 573.000
79.27580 519.000
79.29575 538.000
79.31569 559.000
79.33564 549.000
79.35559 517.000
79.37553 560.000
79.39548 561.000
79.41543 563.000
79.43537 592.000
79.45532 539.000
79.47527 549.000
79.49521 571.000
79.51516 538.000
79.53511 539.000
79.55506 578.000
79.57500 575.000
79.59495 579.000
79.61490 576.000
79.63484 608.000
79.65479 575.000
79.67474 577.000
79.69468 560.000
79.71463 560.000
79.73458 553.000
79.75453 581.000
79.77447 580.000
79.79442 570.000
79.81437 547.000
79.83431 572.000
79.85426 591.000
79.87421 587.000
79.89415 603.000
79.91410 555.000
79.93405 558.000
79.95399 559.000
79.97394 598.000
79.99389 604.000
80.01384 597.000
80.03378 575.000
80.05373 594.000
80.07368 576.000
80.09362 577.000
80.11357 576.000
80.13352 586.000
80.15346 621.000
80.17341 576.000
80.19336 579.000
80.21331 546.000
80.23325 559.000
80.25320 573.000
80.27315 559.000
80.29309 601.000
80.31304 587.000
80.33299 567.000
80.35293 563.000
80.37288 560.000
80.39283 586.000
80.41278 557.000
80.43272 523.000
80.45267 561.000
80.47262 545.000
80.49256 536.000
80.51251 547.000
80.53246 544.000
80.55240 535.000
80.57235 569.000
80.59230 561.000
80.61224 559.000
80.63219 585.000
80.65214 551.000
80.67209 540.000
80.69203 491.000
80.71198 540.000
80.73193 512.000
80.75187 570.000
80.77182 536.000
80.79177 560.000
80.81171 592.000
80.83166 572.000
80.85161 531.000
80.87156 511.000
80.89150 575.000
80.91145 558.000
80.93140 581.000
80.95134 533.000
80.97129 576.000
80.99124 566.000
81.01118 526.000
81.03113 534.000
81.05108 567.000
81.07102 566.000
81.09097 529.000
81.11092 539.000
81.13087 536.000
81.15081 523.000
81.17076 536.000
81.19071 566.000
81.21065 546.000
81.23060 527.000
81.25055 533.000
81.27049 569.000
81.29044 580.000
81.31039 567.000
81.33034 496.000
81.35028 550.000
81.37023 590.000
81.39018 507.000
81.41012 599.000
81.43007 547.000
81.45002 551.000
81.46996 545.000
81.48991 538.000
81.50986 589.000
81.52980 596.000
81.54975 563.000
81.56970 556.000
81.58965 585.000
81.60959 590.000
81.62954 562.000
81.64949 632.000
81.66943 567.000
81.68938 559.000
81.70933 602.000
81.72927 566.000
81.74922 552.000
81.76917 552.000
81.78912 610.000
81.80906 603.000
81.82901 595.000
81.84896 538.000
81.86890 558.000
81.88885 629.000
81.90880 614.000
81.92874 574.000
81.94869 641.000
81.96864 625.000
81.98859 622.000
82.00853 609.000
82.02848 654.000
82.04843 609.000
82.06837 634.000
82.08832 591.000
82.10827 608.000
82.12821 579.000
82.14816 634.000
82.16811 658.000
82.18805 604.000
82.20800 668.000
82.22795 654.000
82.24790 705.000
82.26784 682.000
82.28779 678.000
82.30774 657.000
82.32768 636.000
82.34763 631.000
82.36758 671.000
82.38752 568.000
82.40747 638.000
82.42742 673.000
82.44737 673.000
82.46731 647.000
82.48726 579.000
82.50721 631.000
82.52715 651.000
82.54710 638.000
82.56705 649.000
82.58699 597.000
82.60694 635.000
82.62689 602.000
82.64683 635.000
82.66678 600.000
82.68673 613.000
82.70668 637.000
82.72662 592.000
82.74657 587.000
82.76652 612.000
82.78646 638.000
82.80641 606.000
82.82636 609.000
82.84630 670.000
82.86625 634.000
82.88620 631.000
82.90615 641.000
82.92609 643.000
82.94604 635.000
82.96599 649.000
82.98593 628.000
83.00588 671.000
83.02583 613.000
83.04577 634.000
83.06572 630.000
83.08567 617.000
83.10561 627.000
83.12556 613.000
83.14551 611.000
83.16546 640.000
83.18540 619.000
83.20535 658.000
83.22530 603.000
83.24524 609.000
83.26519 649.000
83.28514 641.000
83.30508 645.000
83.32503 636.000
83.34498 630.000
83.36493 602.000
83.38487 612.000
83.40482 632.000
83.42477 590.000
83.44471 638.000
83.46466 620.000
83.48461 609.000
83.50455 604.000
83.52450 578.000
83.54445 638.000
83.56440 626.000
83.58434 609.000
83.60429 635.000
83.62424 557.000
83.64418 603.000
83.66413 606.000
83.68408 579.000
83.70402 607.000
83.72397 546.000
83.74392 575.000
83.76386 599.000
83.78381 577.000
83.80376 624.000
83.82371 570.000
83.84365 567.000
83.86360 551.000
83.88355 528.000
83.90349 550.000
83.92344 584.000
83.94339 571.000
83.96333 574.000
83.98328 572.000
84.00323 530.000
84.02318 520.000
84.04312 585.000
84.06307 551.000
84.08302 552.000
84.10296 559.000
84.12291 531.000
84.14286 564.000
84.16280 550.000
84.18275 593.000
84.20270 629.000
84.22264 596.000
84.24259 543.000
84.26254 544.000
84.28249 529.000
84.30243 568.000
84.32238 585.000
84.34233 503.000
84.36227 538.000
84.38222 543.000
84.40217 572.000
84.42211 512.000
84.44206 539.000
84.46201 573.000
84.48196 526.000
84.50190 516.000
84.52185 542.000
84.54180 560.000
84.56174 558.000
84.58169 582.000
84.60164 531.000
84.62158 573.000
84.64153 575.000
84.66148 583.000
84.68142 526.000
84.70137 523.000
84.72132 541.000
84.74127 531.000
84.76121 537.000
84.78116 566.000
84.80111 563.000
84.82105 517.000
84.84100 566.000
84.86095 521.000
84.88089 591.000
84.90084 534.000
84.92079 572.000
84.94074 527.000
84.96068 543.000
84.98063 534.000
85.00058 574.000
85.02052 528.000
85.04047 551.000
85.06042 586.000
85.08036 526.000
85.10031 555.000
85.12026 540.000
85.14021 564.000
85.16015 532.000
85.18010 551.000
85.20005 569.000
85.21999 538.000
85.23994 544.000
85.25989 542.000
85.27983 551.000
85.29978 518.000
85.31973 562.000
85.33967 562.000
85.35962 539.000
85.37957 534.000
85.39952 575.000
85.41946 510.000
85.43941 579.000
85.45936 502.000
85.47930 505.000
85.49925 560.000
85.51920 521.000
85.53914 544.000
85.55909 528.000
85.57904 527.000
85.59899 527.000
85.61893 566.000
85.63888 542.000
85.65883 557.000
85.67877 563.000
85.69872 542.000
85.71867 529.000
85.73861 544.000
85.75856 513.000
85.77851 528.000
85.79845 545.000
85.81840 556.000
85.83835 540.000
85.85830 554.000
85.87824 538.000
85.89819 581.000
85.91814 566.000
85.93808 561.000
85.95803 519.000
85.97798 556.000
85.99792 520.000
86.01787 564.000
86.03782 611.000
86.05777 617.000
86.07771 545.000
86.09766 559.000
86.11761 571.000
86.13755 562.000
86.15750 618.000
86.17745 564.000
86.19739 552.000
86.21734 593.000
86.23729 593.000
86.25723 553.000
86.27718 568.000
86.29713 572.000
86.31708 541.000
86.33702 562.000
86.35697 596.000
86.37692 564.000
86.39686 562.000
86.41681 527.000
86.43676 568.000
86.45670 547.000
86.47665 625.000
86.49660 593.000
86.51655 566.000
86.53649 502.000
86.55644 587.000
86.57639 555.000
86.59633 555.000
86.61628 550.000
86.63623 555.000
86.65617 589.000
86.67612 535.000
86.69607 593.000
86.71602 545.000
86.73596 576.000
86.75591 578.000
86.77586 536.000
86.79580 545.000
86.81575 566.000
86.83570 564.000
86.85564 574.000
86.87559 540.000
86.89554 542.000
86.91548 586.000
86.93543 501.000
86.95538 543.000
86.97533 536.000
86.99527 587.000
87.01522 562.000
87.03517 545.000
87.05511 541.000
87.07506 538.000
87.09501 550.000
87.11495 537.000
87.13490 559.000
87.15485 605.000
87.17480 552.000
87.19474 537.000
87.21469 532.000
87.23464 590.000
87.25458 542.000
87.27453 547.000
87.29448 530.000
87.31442 523.000
87.33437 567.000
87.35432 516.000
87.37426 536.000
87.39421 565.000
87.41416 520.000
87.43411 554.000
87.45405 605.000
87.47400 545.000
87.49395 554.000
87.51389 537.000
87.53384 574.000
87.55379 567.000
87.57373 548.000
87.59368 558.000
87.61363 537.000
87.63358 549.000
87.65352 568.000
87.67347 504.000
87.69342 534.000
87.71336 515.000
87.73331 521.000
87.75326 561.000
87.77320 590.000
87.79315 582.000
87.81310 584.000
87.83304 561.000
87.85299 529.000
87.87294 542.000
87.89289 519.000
87.91283 540.000
87.93278 545.000
87.95273 550.000
87.97267 512.000
87.99262 563.000
88.01257 537.000
88.03251 552.000
88.05246 550.000
88.07241 554.000
88.09236 550.000
88.11230 560.000
88.13225 546.000
88.15220 523.000
88.17214 544.000
88.19209 594.000
88.21204 498.000
88.23198 560.000
88.25193 532.000
88.27188 526.000
88.29183 523.000
88.31177 551.000
88.33172 551.000
88.35167 560.000
88.37161 543.000
88.39156 527.000
88.41151 525.000
88.43145 539.000
88.45140 539.000
88.47135 538.000
88.49129 605.000
88.51124 539.000
88.53119 518.000
88.55114 556.000
88.57108 580.000
88.59103 569.000
88.61098 547.000
88.63092 577.000
88.65087 542.000
88.67082 504.000
88.69076 538.000
88.71071 535.000
88.73066 555.000
88.75061 541.000
88.77055 600.000
88.79050 565.000
88.81045 551.000
88.83039 572.000
88.85034 575.000
88.87029 565.000
88.89023 560.000
88.91018 561.000
88.93013 557.000
88.95007 546.000
88.97002 535.000
88.98997 524.000
89.00992 606.000
89.02986 589.000
89.04981 566.000
89.06976 596.000
89.08970 561.000
89.10965 590.000
89.12960 572.000
89.14954 611.000
89.16949 566.000
89.18944 583.000
89.20939 577.000
89.22933 594.000
89.24928 560.000
89.26923 590.000
89.28917 571.000
89.30912 569.000
89.32907 593.000
89.34901 566.000
89.36896 597.000
89.38891 601.000
89.40885 614.000
89.42880 578.000
89.44875 608.000
89.46870 632.000
89.48864 620.000
89.50859 646.000
89.52854 606.000
89.54848 599.000
89.56843 690.000
89.58838 647.000
89.60832 618.000
89.62827 610.000
89.64822 613.000
89.66817 632.000
89.68811 643.000
89.70806 625.000
89.72801 612.000
89.74795 598.000
89.76790 622.000
89.78785 592.000
89.80779 637.000
89.82774 612.000
89.84769 573.000
89.86764 599.000
89.88758 584.000
89.90753 595.000
89.92748 592.000
89.94742 564.000
89.96737 584.000
89.98732 562.000
90.00726 563.000
