10.00000 224.000
10.01995 232.000
10.03989 216.000
10.05984 242.000
10.07979 240.000
10.09973 235.000
10.11968 248.000
10.13963 237.000
10.15958 250.000
10.17952 256.000
10.19947 232.000
10.21942 213.000
10.23936 218.000
10.25931 227.000
10.27926 245.000
10.29920 228.000
10.31915 257.000
10.33910 235.000
10.35905 238.000
10.37899 237.000
10.39894 250.000
10.41889 264.000
10.43883 243.000
10.45878 246.000
10.47873 247.000
10.49867 265.000
10.51862 211.000
10.53857 246.000
10.55851 222.000
10.57846 220.000
10.59841 231.000
10.61836 219.000
10.63830 222.000
10.65825 255.000
10.67820 235.000
10.69814 240.000
10.71809 244.000
10.73804 219.000
10.75798 267.000
10.77793 209.000
10.79788 268.000
10.81783 248.000
10.83777 228.000
10.85772 244.000
10.87767 264.000
10.89761 231.000
10.91756 227.000
10.93751 232.000
10.95745 230.000
10.97740 230.000
10.99735 239.000
11.01730 222.000
11.03724 233.000
11.05719 263.000
11.07714 235.000
11.09708 239.000
11.11703 253.000
11.13698 248.000
11.15692 237.000
11.17687 251.000
11.19682 235.000
11.21676 256.000
11.23671 236.000
11.25666 227.000
11.27661 227.000
11.29655 260.000
11.31650 231.000
11.33645 251.000
11.35639 262.000
11.37634 224.000
11.39629 225.000
11.41623 256.000
11.43618 236.000
11.45613 247.000
11.47608 260.000
11.49602 241.000
11.51597 220.000
11.53592 231.000
11.55586 271.000
11.57581 238.000
11.59576 232.000
11.61570 233.000
11.63565 220.000
11.65560 260.000
11.67554 207.000
11.69549 217.000
11.71544 254.000
11.73539 249.000
11.75533 213.000
11.77528 217.000
11.79523 256.000
11.81517 238.000
11.83512 222.000
11.85507 223.000
11.87501 235.000
11.89496 216.000
11.91491 229.000
11.93486 213.000
11.95480 236.000
11.97475 254.000
11.99470 231.000
12.01464 236.000
12.03459 227.000
12.05454 238.000
12.07448 273.000
12.09443 248.000
12.11438 217.000
12.13432 214.000
12.15427 221.000
12.17422 266.000
12.19417 226.000
12.21411 241.000
12.23406 239.000
12.25401 247.000
12.27395 240.000
12.29390 248.000
12.31385 228.000
12.33379 237.000
12.35374 217.000
12.37369 226.000
12.39364 289.000
12.41358 252.000
12.43353 230.000
12.45348 239.000
12.47342 249.000
12.49337 265.000
12.51332 219.000
12.53326 217.000
12.55321 232.000
12.57316 236.000
12.59311 260.000
12.61305 220.000
12.63300 253.000
12.65295 225.000
12.67289 236.000
12.69284 204.000
12.71279 239.000
12.73273 227.000
12.75268 266.000
12.77263 248.000
12.79257 200.000
12.81252 235.000
12.83247 251.000
12.85242 264.000
12.87236 239.000
12.89231 250.000
12.91226 245.000
12.93220 252.000
12.95215 263.000
12.97210 226.000
12.99204 248.000
13.01199 215.000
13.03194 245.000
13.05189 244.000
13.07183 230.000
13.09178 254.000
13.11173 214.000
13.13167 229.000
13.15162 210.000
13.17157 250.000
13.19151 246.000
13.21146 243.000
13.23141 241.000
13.25135 241.000
13.27130 244.000
13.29125 255.000
13.31120 239.000
13.33114 260.000
13.35109 237.000
13.37104 218.000
13.39098 223.000
13.41093 240.000
13.43088 234.000
13.45082 257.000
13.47077 263.000
13.49072 263.000
13.51067 232.000
13.53061 223.000
13.55056 222.000
13.57051 224.000
13.59045 247.000
13.61040 219.000
13.63035 224.000
13.65029 254.000
13.67024 235.000
13.69019 249.000
13.71013 233.000
13.73008 224.000
13.75003 211.000
13.76998 236.000
13.78992 215.000
13.80987 236.000
13.82982 214.000
13.84976 210.000
13.86971 246.000
13.88966 231.000
13.90960 252.000
13.92955 235.000
13.94950 237.000
13.96945 263.000
13.98939 229.000
14.00934 245.000
14.02929 237.000
14.04923 225.000
14.06918 257.000
14.08913 217.000
14.10907 243.000
14.12902 218.000
14.14897 265.000
14.16892 213.000
14.18886 240.000
14.20881 238.000
14.22876 271.000
14.24870 262.000
14.26865 238.000
14.28860 218.000
14.30854 217.000
14.32849 251.000
14.34844 219.000
14.36838 238.000
14.38833 253.000
14.40828 233.000
14.42823 260.000
14.44817 241.000
14.46812 230.000
14.48807 247.000
14.50801 263.000
14.52796 246.000
14.54791 248.000
14.56785 239.000
14.58780 243.000
14.60775 246.000
14.62770 251.000
14.64764 265.000
14.66759 228.000
14.68754 250.000
14.70748 219.000
14.72743 241.000
14.74738 244.000
14.76732 252.000
14.78727 264.000
14.80722 240.000
14.82716 244.000
14.84711 215.000
14.86706 219.000
14.88701 237.000
14.90695 248.000
14.92690 230.000
14.94685 252.000
14.96679 245.000
14.98674 242.000
15.00669 225.000
15.02663 220.000
15.04658 261.000
15.06653 232.000
15.08648 272.000
15.10642 255.000
15.12637 271.000
15.14632 251.000
15.16626 224.000
15.18621 237.000
15.20616 254.000
15.22610 256.000
15.24605 227.000
15.26600 254.000
15.28594 253.000
15.30589 261.000
15.32584 239.000
15.34579 260.000
15.36573 267.000
15.38568 274.000
15.40563 257.000
15.42557 237.000
15.44552 233.000
15.46547 227.000
15.48541 242.000
15.50536 220.000
15.52531 239.000
15.54526 222.000
15.56520 236.000
15.58515 203.000
15.60510 222.000
15.62504 225.000
15.64499 217.000
15.66494 257.000
15.68488 241.000
15.70483 251.000
15.72478 242.000
15.74472 257.000
15.76467 256.000
15.78462 255.000
15.80457 250.000
15.82451 254.000
15.84446 244.000
15.86441 232.000
15.88435 260.000
15.90430 243.000
15.92425 252.000
15.94419 263.000
15.96414 249.000
15.98409 238.000
16.00404 234.000
16.02398 229.000
16.04393 210.000
16.06388 265.000
16.08382 249.000
16.10377 249.000
16.12372 229.000
16.14366 262.000
16.16361 240.000
16.18356 244.000
16.20351 255.000
16.22345 275.000
16.24340 251.000
16.26335 232.000
16.28329 273.000
16.30324 239.000
16.32319 244.000
16.34313 253.000
16.36308 275.000
16.38303 217.000
16.40297 249.000
16.42292 263.000
16.44287 230.000
16.46282 249.000
16.48276 252.000
16.50271 229.000
16.52266 244.000
16.54260 227.000
16.56255 245.000
16.58250 263.000
16.60244 247.000
16.62239 226.000
16.64234 231.000
16.66229 232.000
16.68223 268.000
16.70218 250.000
16.72213 264.000
16.74207 285.000
16.76202 245.000
16.78197 309.000
16.80191 275.000
16.82186 304.000
16.84181 339.000
16.86175 341.000
16.88170 274.000
16.90165 293.000
16.92160 271.000
16.94154 301.000
16.96149 250.000
16.98144 256.000
17.00138 266.000
17.02133 291.000
17.04128 246.000
17.06122 251.000
17.08117 255.000
17.10112 269.000
17.12107 259.000
17.14101 262.000
17.16096 239.000
17.18091 274.000
17.20085 233.000
17.22080 255.000
17.24075 266.000
17.26069 245.000
17.28064 253.000
17.30059 261.000
17.32053 240.000
17.34048 250.000
17.36043 264.000
17.38038 235.000
17.40032 242.000
17.42027 249.000
17.44022 271.000
17.46016 248.000
17.48011 243.000
17.50006 240.000
17.52000 216.000
17.53995 246.000
17.55990 237.000
17.57985 261.000
17.59979 227.000
17.61974 238.000
17.63969 211.000
17.65963 233.000
17.67958 241.000
17.69953 231.000
17.71947 240.000
17.73942 242.000
17.75937 263.000
17.77932 258.000
17.79926 257.000
17.81921 254.000
17.83916 240.000
17.85910 280.000
17.87905 224.000
17.89900 255.000
17.91894 277.000
17.93889 237.000
17.95884 255.000
17.97878 275.000
17.99873 258.000
18.01868 255.000
18.03863 255.000
18.05857 264.000
18.07852 268.000
18.09847 244.000
18.11841 251.000
18.13836 266.000
18.15831 244.000
18.17825 243.000
18.19820 253.000
18.21815 252.000
18.23810 267.000
18.25804 275.000
18.27799 283.000
18.29794 290.000
18.31788 284.000
18.33783 279.000
18.35778 321.000
18.37772 418.000
18.39767 511.000
18.41762 501.000
18.43756 440.000
18.45751 372.000
18.47746 326.000
18.49741 293.000
18.51735 265.000
18.53730 280.000
18.55725 251.000
18.57719 271.000
18.59714 246.000
18.61709 227.000
18.63703 234.000
18.65698 251.000
18.67693 258.000
18.69688 245.000
18.71682 254.000
18.73677 231.000
18.75672 249.000
18.77666 273.000
18.79661 273.000
18.81656 258.000
18.83650 261.000
18.85645 250.000
18.87640 239.000
18.89634 271.000
18.91629 253.000
18.93624 244.000
18.95619 266.000
18.97613 294.000
18.99608 248.000
19.01603 245.000
19.03597 269.000
19.05592 266.000
19.07587 228.000
19.09581 264.000
19.11576 242.000
19.13571 218.000
19.15566 279.000
19.17560 260.000
19.19555 245.000
19.21550 236.000
19.23544 267.000
19.25539 254.000
19.27534 263.000
19.29528 283.000
19.31523 255.000
19.33518 258.000
19.35513 243.000
19.37507 298.000
19.39502 256.000
19.41497 253.000
19.43491 237.000
19.45486 247.000
19.47481 265.000
19.49475 255.000
19.51470 262.000
19.53465 258.000
19.55459 254.000
19.57454 293.000
19.59449 218.000
19.61444 267.000
19.63438 269.000
19.65433 246.000
19.67428 270.000
19.69422 266.000
19.71417 253.000
19.73412 280.000
19.75406 258.000
19.77401 252.000
19.79396 262.000
19.81391 272.000
19.83385 283.000
19.85380 242.000
19.87375 278.000
19.89369 272.000
19.91364 257.000
19.93359 274.000
19.95353 260.000
19.97348 256.000
19.99343 281.000
20.01337 266.000
20.03332 233.000
20.05327 276.000
20.07322 276.000
20.09316 303.000
20.11311 264.000
20.13306 274.000
20.15300 268.000
20.17295 260.000
20.19290 296.000
20.21284 306.000
20.23279 309.000
20.25274 260.000
20.27269 300.000
20.29263 253.000
20.31258 280.000
20.33253 291.000
20.35247 320.000
20.37242 280.000
20.39237 277.000
20.41231 288.000
20.43226 306.000
20.45221 359.000
20.47215 331.000
20.49210 323.000
20.51205 372.000
20.53200 347.000
20.55194 363.000
20.57189 341.000
20.59184 389.000
20.61178 399.000
20.63173 388.000
20.65168 445.000
20.67162 465.000
20.69157 490.000
20.71152 489.000
20.73147 500.000
20.75141 590.000
20.77136 542.000
20.79131 696.000
20.81125 710.000
20.83120 852.000
20.85115 925.000
20.87109 930.000
20.89104 832.000
20.91099 850.000
20.93094 772.000
20.95088 775.000
20.97083 692.000
20.99078 770.000
21.01072 709.000
21.03067 625.000
21.05062 606.000
21.07056 488.000
21.09051 463.000
21.11046 418.000
21.13040 367.000
21.15035 350.000
21.17030 272.000
21.19025 294.000
21.21019 304.000
21.23014 309.000
21.25009 274.000
21.27003 257.000
21.28998 252.000
21.30993 260.000
21.32987 272.000
21.34982 274.000
21.36977 271.000
21.38972 280.000
21.40966 252.000
21.42961 260.000
21.44956 247.000
21.46950 255.000
21.48945 285.000
21.50940 248.000
21.52934 249.000
21.54929 268.000
21.56924 290.000
21.58918 272.000
21.60913 262.000
21.62908 305.000
21.64903 282.000
21.66897 271.000
21.68892 248.000
21.70887 271.000
21.72881 285.000
21.74876 276.000
21.76871 296.000
21.78865 286.000
21.80860 291.000
21.82855 273.000
21.84850 292.000
21.86844 277.000
21.88839 243.000
21.90834 289.000
21.92828 294.000
21.94823 257.000
21.96818 275.000
21.98812 280.000
22.00807 261.000
22.02802 273.000
22.04796 281.000
22.06791 290.000
22.08786 231.000
22.10781 250.000
22.12775 256.000
22.14770 296.000
22.16765 289.000
22.18759 280.000
22.20754 251.000
22.22749 276.000
22.24743 303.000
22.26738 278.000
22.28733 277.000
22.30728 244.000
22.32722 271.000
22.34717 255.000
22.36712 300.000
22.38706 262.000
22.40701 259.000
22.42696 260.000
22.44690 268.000
22.46685 255.000
22.48680 287.000
22.50675 281.000
22.52669 284.000
22.54664 298.000
22.56659 266.000
22.58653 272.000
22.60648 275.000
22.62643 278.000
22.64637 257.000
22.66632 270.000
22.68627 272.000
22.70621 259.000
22.72616 287.000
22.74611 254.000
22.76606 249.000
22.78600 265.000
22.80595 291.000
22.82590 278.000
22.84584 271.000
22.86579 298.000
22.88574 292.000
22.90568 282.000
22.92563 304.000
22.94558 278.000
22.96553 291.000
22.98547 252.000
23.00542 288.000
23.02537 257.000
23.04531 322.000
23.06526 270.000
23.08521 301.000
23.10515 275.000
23.12510 305.000
23.14505 276.000
23.16499 278.000
23.18494 316.000
23.20489 261.000
23.22484 275.000
23.24478 277.000
23.26473 288.000
23.28468 253.000
23.30462 260.000
23.32457 272.000
23.34452 276.000
23.36446 310.000
23.38441 273.000
23.40436 291.000
23.42431 264.000
23.44425 286.000
23.46420 264.000
23.48415 251.000
23.50409 271.000
23.52404 290.000
23.54399 280.000
23.56393 294.000
23.58388 301.000
23.60383 298.000
23.62377 261.000
23.64372 279.000
23.66367 275.000
23.68362 293.000
23.70356 300.000
23.72351 263.000
23.74346 257.000
23.76340 301.000
23.78335 277.000
23.80330 272.000
23.82324 300.000
23.84319 286.000
23.86314 258.000
23.88309 290.000
23.90303 280.000
23.92298 256.000
23.94293 284.000
23.96287 276.000
23.98282 266.000
24.00277 309.000
24.02271 284.000
24.04266 265.000
24.06261 261.000
24.08256 310.000
24.10250 264.000
24.12245 291.000
24.14240 276.000
24.16234 284.000
24.18229 272.000
24.20224 288.000
24.22218 316.000
24.24213 281.000
24.26208 306.000
24.28202 304.000
24.30197 336.000
24.32192 286.000
24.34187 320.000
24.36181 278.000
24.38176 287.000
24.40171 247.000
24.42165 299.000
24.44160 293.000
24.46155 278.000
24.48149 306.000
24.50144 266.000
24.52139 315.000
24.54134 297.000
24.56128 265.000
24.58123 315.000
24.60118 288.000
24.62112 288.000
24.64107 315.000
24.66102 255.000
24.68096 313.000
24.70091 314.000
24.72086 297.000
24.74080 269.000
24.76075 303.000
24.78070 339.000
24.80065 305.000
24.82059 301.000
24.84054 316.000
24.86049 359.000
24.88043 301.000
24.90038 297.000
24.92033 329.000
24.94027 317.000
24.96022 377.000
24.98017 349.000
25.00012 319.000
25.02006 347.000
25.04001 321.000
25.05996 329.000
25.07990 348.000
25.09985 312.000
25.11980 299.000
25.13974 310.000
25.15969 279.000
25.17964 300.000
25.19958 335.000
25.21953 298.000
25.23948 320.000
25.25943 339.000
25.27937 283.000
25.29932 294.000
25.31927 285.000
25.33921 292.000
25.35916 301.000
25.37911 313.000
25.39905 291.000
25.41900 319.000
25.43895 272.000
25.45890 309.000
25.47884 292.000
25.49879 334.000
25.51874 278.000
25.53868 292.000
25.55863 312.000
25.57858 320.000
25.59852 335.000
25.61847 324.000
25.63842 288.000
25.65837 276.000
25.67831 282.000
25.69826 302.000
25.71821 310.000
25.73815 269.000
25.75810 292.000
25.77805 298.000
25.79799 291.000
25.81794 302.000
25.83789 336.000
25.85783 320.000
25.87778 323.000
25.89773 323.000
25.91768 310.000
25.93762 327.000
25.95757 305.000
25.97752 306.000
25.99746 345.000
26.01741 309.000
26.03736 329.000
26.05730 349.000
26.07725 311.000
26.09720 299.000
26.11715 318.000
26.13709 327.000
26.15704 316.000
26.17699 316.000
26.19693 305.000
26.21688 327.000
26.23683 320.000
26.25677 298.000
26.27672 328.000
26.29667 308.000
26.31661 317.000
26.33656 284.000
26.35651 308.000
26.37646 295.000
26.39640 326.000
26.41635 319.000
26.43630 302.000
26.45624 305.000
26.47619 313.000
26.49614 327.000
26.51608 321.000
26.53603 306.000
26.55598 345.000
26.57593 328.000
26.59587 324.000
26.61582 334.000
26.63577 304.000
26.65571 341.000
26.67566 327.000
26.69561 306.000
26.71555 328.000
26.73550 358.000
26.75545 333.000
26.77539 317.000
26.79534 334.000
26.81529 351.000
26.83524 336.000
26.85518 309.000
26.87513 345.000
26.89508 313.000
26.91502 321.000
26.93497 338.000
26.95492 343.000
26.97486 351.000
26.99481 340.000
27.01476 356.000
27.03471 290.000
27.05465 315.000
27.07460 356.000
27.09455 312.000
27.11449 342.000
27.13444 386.000
27.15439 345.000
27.17433 334.000
27.19428 324.000
27.21423 326.000
27.23417 325.000
27.25412 343.000
27.27407 314.000
27.29402 315.000
27.31396 338.000
27.33391 324.000
27.35386 363.000
27.37380 360.000
27.39375 335.000
27.41370 332.000
27.43364 336.000
27.45359 326.000
27.47354 351.000
27.49349 336.000
27.51343 296.000
27.53338 348.000
27.55333 351.000
27.57327 316.000
27.59322 357.000
27.61317 306.000
27.63311 336.000
27.65306 350.000
27.67301 324.000
27.69296 359.000
27.71290 340.000
27.73285 304.000
27.75280 369.000
27.77274 332.000
27.79269 339.000
27.81264 347.000
27.83258 365.000
27.85253 328.000
27.87248 348.000
27.89242 363.000
27.91237 328.000
27.93232 341.000
27.95227 345.000
27.97221 357.000
27.99216 353.000
28.01211 348.000
28.03205 388.000
28.05200 330.000
28.07195 345.000
28.09189 366.000
28.11184 325.000
28.13179 328.000
28.15174 337.000
28.17168 323.000
28.19163 377.000
28.21158 364.000
28.23152 351.000
28.25147 329.000
28.27142 374.000
28.29136 358.000
28.31131 357.000
28.33126 350.000
28.35120 351.000
28.37115 371.000
28.39110 335.000
28.41105 396.000
28.43099 341.000
28.45094 365.000
28.47089 369.000
28.49083 340.000
28.51078 336.000
28.53073 346.000
28.55067 373.000
28.57062 351.000
28.59057 356.000
28.61052 330.000
28.63046 346.000
28.65041 348.000
28.67036 369.000
28.69030 360.000
28.71025 367.000
28.73020 401.000
28.75014 332.000
28.77009 349.000
28.79004 367.000
28.80998 358.000
28.82993 361.000
28.84988 356.000
28.86983 360.000
28.88977 346.000
28.90972 356.000
28.92967 366.000
28.94961 342.000
28.96956 352.000
28.98951 335.000
29.00945 365.000
29.02940 362.000
29.04935 398.000
29.06930 347.000
29.08924 370.000
29.10919 392.000
29.12914 363.000
29.14908 395.000
29.16903 353.000
29.18898 348.000
29.20892 400.000
29.22887 381.000
29.24882 401.000
29.26877 398.000
29.28871 398.000
29.30866 440.000
29.32861 504.000
29.34855 496.000
29.36850 514.000
29.38845 494.000
29.40839 526.000
29.42834 505.000
29.44829 472.000
29.46823 470.000
29.48818 435.000
29.50813 454.000
29.52808 431.000
29.54802 419.000
29.56797 380.000
29.58792 425.000
29.60786 381.000
29.62781 400.000
29.64776 378.000
29.66770 366.000
29.68765 373.000
29.70760 384.000
29.72755 399.000
29.74749 356.000
29.76744 336.000
29.78739 384.000
29.80733 368.000
29.82728 394.000
29.84723 388.000
29.86717 372.000
29.88712 388.000
29.90707 398.000
29.92701 406.000
29.94696 375.000
29.96691 387.000
29.98686 385.000
30.00680 381.000
30.02675 364.000
30.04670 371.000
30.06664 377.000
30.08659 406.000
30.10654 417.000
30.12648 400.000
30.14643 436.000
30.16638 410.000
30.18633 472.000
30.20627 503.000
30.22622 582.000
30.24617 766.000
30.26611 986.000
30.28606 945.000
30.30601 717.000
30.32595 714.000
30.34590 686.000
30.36585 644.000
30.38579 523.000
30.40574 439.000
30.42569 430.000
30.44564 426.000
30.46558 405.000
30.48553 402.000
30.50548 414.000
30.52542 385.000
30.54537 395.000
30.56532 373.000
30.58526 349.000
30.60521 381.000
30.62516 375.000
30.64511 391.000
30.66505 421.000
30.68500 355.000
30.70495 401.000
30.72489 389.000
30.74484 347.000
30.76479 384.000
30.78473 388.000
30.80468 404.000
30.82463 341.000
30.84458 356.000
30.86452 336.000
30.88447 372.000
30.90442 367.000
30.92436 349.000
30.94431 348.000
30.96426 373.000
30.98420 368.000
31.00415 374.000
31.02410 355.000
31.04404 362.000
31.06399 395.000
31.08394 336.000
31.10389 397.000
31.12383 348.000
31.14378 388.000
31.16373 391.000
31.18367 362.000
31.20362 349.000
31.22357 362.000
31.24351 331.000
31.26346 354.000
31.28341 336.000
31.30336 341.000
31.32330 373.000
31.34325 371.000
31.36320 396.000
31.38314 358.000
31.40309 352.000
31.42304 336.000
31.44298 349.000
31.46293 338.000
31.48288 357.000
31.50282 389.000
31.52277 377.000
31.54272 370.000
31.56267 388.000
31.58261 360.000
31.60256 344.000
31.62251 330.000
31.64245 372.000
31.66240 365.000
31.68235 375.000
31.70229 365.000
31.72224 391.000
31.74219 378.000
31.76214 368.000
31.78208 342.000
31.80203 355.000
31.82198 347.000
31.84192 355.000
31.86187 395.000
31.88182 394.000
31.90176 372.000
31.92171 366.000
31.94166 362.000
31.96160 373.000
31.98155 387.000
32.00150 365.000
32.02145 387.000
32.04139 373.000
32.06134 376.000
32.08129 395.000
32.10123 389.000
32.12118 367.000
32.14113 380.000
32.16107 390.000
32.18102 366.000
32.20097 397.000
32.22092 381.000
32.24086 387.000
32.26081 340.000
32.28076 388.000
32.30070 394.000
32.32065 385.000
32.34060 404.000
32.36054 410.000
32.38049 386.000
32.40044 442.000
32.42039 437.000
32.44033 441.000
32.46028 444.000
32.48023 412.000
32.50017 424.000
32.52012 425.000
32.54007 450.000
32.56001 428.000
32.57996 406.000
32.59991 386.000
32.61985 382.000
32.63980 374.000
32.65975 394.000
32.67970 355.000
32.69964 399.000
32.71959 370.000
32.73954 370.000
32.75948 373.000
32.77943 373.000
32.79938 392.000
32.81932 392.000
32.83927 393.000
32.85922 349.000
32.87917 368.000
32.89911 312.000
32.91906 350.000
32.93901 364.000
32.95895 391.000
32.97890 369.000
32.99885 367.000
33.01879 332.000
33.03874 404.000
33.05869 385.000
33.07863 376.000
33.09858 367.000
33.11853 381.000
33.13848 352.000
33.15842 335.000
33.17837 354.000
33.19832 349.000
33.21826 392.000
33.23821 382.000
33.25816 369.000
33.27810 415.000
33.29805 383.000
33.31800 425.000
33.33795 381.000
33.35789 420.000
33.37784 419.000
33.39779 387.000
33.41773 402.000
33.43768 392.000
33.45763 411.000
33.47757 407.000
33.49752 403.000
33.51747 407.000
33.53741 385.000
33.55736 393.000
33.57731 377.000
33.59726 381.000
33.61720 399.000
33.63715 416.000
33.65710 407.000
33.67704 422.000
33.69699 374.000
33.71694 401.000
33.73688 428.000
33.75683 436.000
33.77678 426.000
33.79673 416.000
33.81667 425.000
33.83662 452.000
33.85657 487.000
33.87651 477.000
33.89646 477.000
33.91641 468.000
33.93635 461.000
33.95630 470.000
33.97625 473.000
33.99620 491.000
34.01614 510.000
34.03609 581.000
34.05604 549.000
34.07598 557.000
34.09593 567.000
34.11588 552.000
34.13582 613.000
34.15577 645.000
34.17572 662.000
34.19566 662.000
34.21561 729.000
34.23556 764.000
34.25551 796.000
34.27545 775.000
34.29540 893.000
34.31535 928.000
34.33529 986.000
34.35524 1023.000
34.37519 1085.000
34.39513 1074.000
34.41508 1124.000
34.43503 1092.000
34.45498 1074.000
34.47492 994.000
34.49487 994.000
34.51482 820.000
34.53476 889.000
34.55471 800.000
34.57466 821.000
34.59460 758.000
34.61455 779.000
34.63450 765.000
34.65444 775.000
34.67439 732.000
34.69434 729.000
34.71429 701.000
34.73423 638.000
34.75418 628.000
34.77413 589.000
34.79407 608.000
34.81402 637.000
34.83397 519.000
34.85391 531.000
34.87386 558.000
34.89381 524.000
34.91376 585.000
34.93370 532.000
34.95365 510.000
34.97360 489.000
34.99354 502.000
35.01349 466.000
35.03344 466.000
35.05338 494.000
35.07333 473.000
35.09328 477.000
35.11322 464.000
35.13317 501.000
35.15312 472.000
35.17307 496.000
35.19301 498.000
35.21296 555.000
35.23291 566.000
35.25285 545.000
35.27280 597.000
35.29275 638.000
35.31269 637.000
35.33264 635.000
35.35259 780.000
35.37254 837.000
35.39248 1064.000
35.41243 1150.000
35.43238 1128.000
35.45232 1166.000
35.47227 1373.000
35.49222 1690.000
35.51216 1793.000
35.53211 1519.000
35.55206 1518.000
35.57201 1498.000
35.59195 1703.000
35.61190 1874.000
35.63185 2297.000
35.65179 2777.000
35.67174 2606.000
35.69169 1996.000
35.71163 1550.000
35.73158 1662.000
35.75153 1733.000
35.77147 1515.000
35.79142 1149.000
35.81137 855.000
35.83132 760.000
35.85126 693.000
35.87121 618.000
35.89116 617.000
35.91110 609.000
35.93105 545.000
35.95100 529.000
35.97094 560.000
35.99089 533.000
36.01084 498.000
36.03079 571.000
36.05073 525.000
36.07068 526.000
36.09063 534.000
36.11057 521.000
36.13052 477.000
36.15047 519.000
36.17041 553.000
36.19036 539.000
36.21031 524.000
36.23025 511.000
36.25020 521.000
36.27015 512.000
36.29010 525.000
36.31004 553.000
36.32999 563.000
36.34994 605.000
36.36988 479.000
36.38983 553.000
36.40978 532.000
36.42972 532.000
36.44967 522.000
36.46962 548.000
36.48957 526.000
36.50951 527.000
36.52946 527.000
36.54941 585.000
36.56935 529.000
36.58930 507.000
36.60925 541.000
36.62919 529.000
36.64914 550.000
36.66909 504.000
36.68903 542.000
36.70898 607.000
36.72893 582.000
36.74888 581.000
36.76882 615.000
36.78877 624.000
36.80872 606.000
36.82866 604.000
36.84861 617.000
36.86856 669.000
36.88850 657.000
36.90845 749.000
36.92840 737.000
36.94835 742.000
36.96829 799.000
36.98824 883.000
37.00819 897.000
37.02813 944.000
37.04808 1021.000
37.06803 1015.000
37.08797 956.000
37.10792 1057.000
37.12787 1047.000
37.14781 958.000
37.16776 912.000
37.18771 833.000
37.20766 816.000
37.22760 732.000
37.24755 731.000
37.26750 639.000
37.28744 673.000
37.30739 650.000
37.32734 602.000
37.34728 486.000
37.36723 487.000
37.38718 509.000
37.40713 482.000
37.42707 492.000
37.44702 427.000
37.46697 441.000
37.48691 376.000
37.50686 387.000
37.52681 364.000
37.54675 392.000
37.56670 379.000
37.58665 359.000
37.60660 379.000
37.62654 391.000
37.64649 367.000
37.66644 403.000
37.68638 391.000
37.70633 354.000
37.72628 393.000
37.74622 364.000
37.76617 432.000
37.78612 351.000
37.80606 362.000
37.82601 348.000
37.84596 385.000
37.86591 366.000
37.88585 362.000
37.90580 406.000
37.92575 419.000
37.94569 421.000
37.96564 391.000
37.98559 425.000
38.00553 388.000
38.02548 421.000
38.04543 433.000
38.06538 396.000
38.08532 397.000
38.10527 429.000
38.12522 383.000
38.14516 406.000
38.16511 422.000
38.18506 398.000
38.20500 433.000
38.22495 420.000
38.24490 408.000
38.26484 431.000
38.28479 476.000
38.30474 447.000
38.32469 412.000
38.34463 436.000
38.36458 439.000
38.38453 473.000
38.40447 490.000
38.42442 503.000
38.44437 491.000
38.46431 535.000
38.48426 555.000
38.50421 625.000
38.52416 640.000
38.54410 672.000
38.56405 691.000
38.58400 753.000
38.60394 881.000
38.62389 862.000
38.64384 886.000
38.66378 858.000
38.68373 859.000
38.70368 847.000
38.72362 781.000
38.74357 794.000
38.76352 749.000
38.78347 702.000
38.80341 706.000
38.82336 638.000
38.84331 651.000
38.86325 600.000
38.88320 609.000
38.90315 577.000
38.92309 641.000
38.94304 602.000
38.96299 573.000
38.98294 611.000
39.00288 608.000
39.02283 629.000
39.04278 667.000
39.06272 633.000
39.08267 589.000
39.10262 518.000
39.12256 570.000
39.14251 541.000
39.16246 517.000
39.18241 546.000
39.20235 464.000
39.22230 421.000
39.24225 459.000
39.26219 436.000
39.28214 426.000
39.30209 412.000
39.32203 443.000
39.34198 394.000
39.36193 397.000
39.38187 415.000
39.40182 435.000
39.42177 369.000
39.44172 377.000
39.46166 407.000
39.48161 396.000
39.50156 374.000
39.52150 379.000
39.54145 381.000
39.56140 352.000
39.58134 344.000
39.60129 409.000
39.62124 372.000
39.64119 362.000
39.66113 390.000
39.68108 381.000
39.70103 349.000
39.72097 382.000
39.74092 354.000
39.76087 367.000
39.78081 358.000
39.80076 364.000
39.82071 368.000
39.84065 381.000
39.86060 346.000
39.88055 361.000
39.90050 341.000
39.92044 356.000
39.94039 360.000
39.96034 383.000
39.98028 391.000
40.00023 392.000
40.02018 374.000
40.04012 360.000
40.06007 355.000
40.08002 361.000
40.09997 347.000
40.11991 388.000
40.13986 340.000
40.15981 339.000
40.17975 369.000
40.19970 352.000
40.21965 328.000
40.23959 370.000
40.25954 343.000
40.27949 348.000
40.29943 371.000
40.31938 355.000
40.33933 374.000
40.35928 346.000
40.37922 384.000
40.39917 367.000
40.41912 358.000
40.43906 330.000
40.45901 396.000
40.47896 417.000
40.49890 400.000
40.51885 392.000
40.53880 372.000
40.55875 367.000
40.57869 389.000
40.59864 350.000
40.61859 358.000
40.63853 369.000
40.65848 373.000
40.67843 350.000
40.69837 392.000
40.71832 377.000
40.73827 387.000
40.75822 364.000
40.77816 373.000
40.79811 415.000
40.81806 398.000
40.83800 371.000
40.85795 356.000
40.87790 397.000
40.89784 387.000
40.91779 384.000
40.93774 413.000
40.95768 413.000
40.97763 374.000
40.99758 381.000
41.01753 398.000
41.03747 411.000
41.05742 406.000
41.07737 353.000
41.09731 390.000
41.11726 383.000
41.13721 416.000
41.15715 381.000
41.17710 396.000
41.19705 395.000
41.21700 358.000
41.23694 409.000
41.25689 379.000
41.27684 385.000
41.29678 405.000
41.31673 393.000
41.33668 393.000
41.35662 375.000
41.37657 399.000
41.39652 403.000
41.41646 390.000
41.43641 390.000
41.45636 391.000
41.47631 425.000
41.49625 404.000
41.51620 413.000
41.53615 421.000
41.55609 432.000
41.57604 444.000
41.59599 404.000
41.61593 422.000
41.63588 392.000
41.65583 441.000
41.67578 477.000
41.69572 431.000
41.71567 435.000
41.73562 438.000
41.75556 475.000
41.77551 451.000
41.79546 435.000
41.81540 400.000
41.83535 472.000
41.85530 463.000
41.87524 440.000
41.89519 455.000
41.91514 413.000
41.93509 450.000
41.95503 432.000
41.97498 473.000
41.99493 441.000
42.01487 440.000
42.03482 447.000
42.05477 454.000
42.07471 425.000
42.09466 504.000
42.11461 443.000
42.13456 483.000
42.15450 460.000
42.17445 492.000
42.19440 456.000
42.21434 418.000
42.23429 466.000
42.25424 453.000
42.27418 488.000
42.29413 464.000
42.31408 448.000
42.33403 487.000
42.35397 515.000
42.37392 507.000
42.39387 504.000
42.41381 506.000
42.43376 490.000
42.45371 491.000
42.47365 535.000
42.49360 536.000
42.51355 505.000
42.53349 551.000
42.55344 576.000
42.57339 523.000
42.59334 530.000
42.61328 519.000
42.63323 565.000
42.65318 580.000
42.67312 640.000
42.69307 600.000
42.71302 591.000
42.73296 620.000
42.75291 637.000
42.77286 638.000
42.79281 638.000
42.81275 678.000
42.83270 723.000
42.85265 771.000
42.87259 775.000
42.89254 725.000
42.91249 790.000
42.93243 857.000
42.95238 850.000
42.97233 889.000
42.99227 885.000
43.01222 921.000
43.03217 975.000
43.05212 953.000
43.07206 984.000
43.09201 979.000
43.11196 1046.000
43.13190 1030.000
43.15185 1116.000
43.17180 1076.000
43.19174 1074.000
43.21169 994.000
43.23164 999.000
43.25159 954.000
43.27153 1003.000
43.29148 969.000
43.31143 1034.000
43.33137 1106.000
43.35132 1080.000
43.37127 1031.000
43.39121 814.000
43.41116 707.000
43.43111 678.000
43.45105 769.000
43.47100 675.000
43.49095 584.000
43.51090 510.000
43.53084 491.000
43.55079 464.000
43.57074 438.000
43.59068 405.000
43.61063 363.000
43.63058 371.000
43.65052 398.000
43.67047 390.000
43.69042 398.000
43.71037 361.000
43.73031 338.000
43.75026 393.000
43.77021 370.000
43.79015 390.000
43.81010 356.000
43.83005 331.000
43.84999 372.000
43.86994 332.000
43.88989 374.000
43.90984 362.000
43.92978 367.000
43.94973 353.000
43.96968 372.000
43.98962 357.000
44.00957 317.000
44.02952 365.000
44.04946 321.000
44.06941 351.000
44.08936 330.000
44.10930 372.000
44.12925 361.000
44.14920 343.000
44.16915 349.000
44.18909 353.000
44.20904 339.000
44.22899 348.000
44.24893 328.000
44.26888 331.000
44.28883 344.000
44.30877 333.000
44.32872 331.000
44.34867 325.000
44.36862 330.000
44.38856 304.000
44.40851 359.000
44.42846 302.000
44.44840 358.000
44.46835 325.000
44.48830 318.000
44.50824 323.000
44.52819 332.000
44.54814 369.000
44.56808 296.000
44.58803 337.000
44.60798 328.000
44.62793 308.000
44.64787 325.000
44.66782 319.000
44.68777 352.000
44.70771 330.000
44.72766 319.000
44.74761 342.000
44.76755 303.000
44.78750 285.000
44.80745 318.000
44.82740 315.000
44.84734 326.000
44.86729 347.000
44.88724 331.000
44.90718 373.000
44.92713 295.000
44.94708 319.000
44.96702 332.000
44.98697 353.000
45.00692 301.000
45.02686 359.000
45.04681 336.000
45.06676 301.000
45.08671 322.000
45.10665 302.000
45.12660 351.000
45.14655 307.000
45.16649 304.000
45.18644 385.000
45.20639 319.000
45.22633 338.000
45.24628 345.000
45.26623 354.000
45.28618 364.000
45.30612 347.000
45.32607 312.000
45.34602 328.000
45.36596 349.000
45.38591 323.000
45.40586 317.000
45.42580 346.000
45.44575 338.000
45.46570 332.000
45.48565 303.000
45.50559 312.000
45.52554 350.000
45.54549 329.000
45.56543 335.000
45.58538 330.000
45.60533 321.000
45.62527 362.000
45.64522 332.000
45.66517 329.000
45.68511 329.000
45.70506 343.000
45.72501 372.000
45.74496 319.000
45.76490 309.000
45.78485 312.000
45.80480 342.000
45.82474 347.000
45.84469 321.000
45.86464 326.000
45.88458 345.000
45.90453 308.000
45.92448 322.000
45.94443 336.000
45.96437 314.000
45.98432 294.000
46.00427 338.000
46.02421 312.000
46.04416 314.000
46.06411 339.000
46.08405 338.000
46.10400 359.000
46.12395 351.000
46.14389 319.000
46.16384 350.000
46.18379 302.000
46.20374 324.000
46.22368 348.000
46.24363 348.000
46.26358 341.000
46.28352 318.000
46.30347 351.000
46.32342 305.000
46.34336 295.000
46.36331 327.000
46.38326 338.000
46.40321 344.000
46.42315 307.000
46.44310 327.000
46.46305 315.000
46.48299 293.000
46.50294 334.000
46.52289 285.000
46.54283 348.000
46.56278 307.000
46.58273 334.000
46.60267 293.000
46.62262 344.000
46.64257 306.000
46.66252 337.000
46.68246 352.000
46.70241 332.000
46.72236 302.000
46.74230 303.000
46.76225 318.000
46.78220 305.000
46.80214 314.000
46.82209 286.000
46.84204 329.000
46.86199 313.000
46.88193 319.000
46.90188 322.000
46.92183 308.000
46.94177 313.000
46.96172 330.000
46.98167 317.000
47.00161 290.000
47.02156 350.000
47.04151 306.000
47.06146 328.000
47.08140 332.000
47.10135 303.000
47.12130 312.000
47.14124 313.000
47.16119 320.000
47.18114 344.000
47.20108 334.000
47.22103 325.000
47.24098 303.000
47.26092 321.000
47.28087 322.000
47.30082 330.000
47.32077 346.000
47.34071 309.000
47.36066 334.000
47.38061 293.000
47.40055 285.000
47.42050 313.000
47.44045 320.000
47.46039 346.000
47.48034 345.000
47.50029 376.000
47.52024 334.000
47.54018 388.000
47.56013 323.000
47.58008 307.000
47.60002 291.000
47.61997 327.000
47.63992 381.000
47.65986 302.000
47.67981 356.000
47.69976 318.000
47.71970 350.000
47.73965 306.000
47.75960 314.000
47.77955 334.000
47.79949 323.000
47.81944 345.000
47.83939 311.000
47.85933 360.000
47.87928 323.000
47.89923 330.000
47.91917 348.000
47.93912 351.000
47.95907 383.000
47.97902 348.000
47.99896 334.000
48.01891 360.000
48.03886 373.000
48.05880 346.000
48.07875 362.000
48.09870 356.000
48.11864 389.000
48.13859 382.000
48.15854 360.000
48.17848 347.000
48.19843 329.000
48.21838 365.000
48.23833 346.000
48.25827 359.000
48.27822 345.000
48.29817 343.000
48.31811 336.000
48.33806 349.000
48.35801 327.000
48.37795 380.000
48.39790 373.000
48.41785 396.000
48.43780 367.000
48.45774 339.000
48.47769 360.000
48.49764 337.000
48.51758 357.000
48.53753 382.000
48.55748 385.000
48.57742 361.000
48.59737 365.000
48.61732 351.000
48.63726 344.000
48.65721 373.000
48.67716 386.000
48.69711 405.000
48.71705 393.000
48.73700 392.000
48.75695 392.000
48.77689 433.000
48.79684 434.000
48.81679 458.000
48.83673 462.000
48.85668 453.000
48.87663 453.000
48.89658 480.000
48.91652 501.000
48.93647 507.000
48.95642 462.000
48.97636 484.000
48.99631 457.000
49.01626 426.000
49.03620 439.000
49.05615 417.000
49.07610 392.000
49.09605 424.000
49.11599 411.000
49.13594 415.000
49.15589 397.000
49.17583 381.000
49.19578 360.000
49.21573 363.000
49.23567 353.000
49.25562 369.000
49.27557 375.000
49.29551 373.000
49.31546 383.000
49.33541 310.000
49.35536 369.000
49.37530 389.000
49.39525 364.000
49.41520 410.000
49.43514 354.000
49.45509 404.000
49.47504 396.000
49.49498 374.000
49.51493 357.000
49.53488 351.000
49.55483 404.000
49.57477 369.000
49.59472 335.000
49.61467 350.000
49.63461 371.000
49.65456 353.000
49.67451 382.000
49.69445 368.000
49.71440 354.000
49.73435 353.000
49.75429 354.000
49.77424 349.000
49.79419 333.000
49.81414 330.000
49.83408 328.000
49.85403 325.000
49.87398 301.000
49.89392 332.000
49.91387 305.000
49.93382 314.000
49.95376 317.000
49.97371 309.000
49.99366 340.000
50.01361 335.000
50.03355 302.000
50.05350 306.000
50.07345 287.000
50.09339 303.000
50.11334 316.000
50.13329 285.000
50.15323 319.000
50.17318 339.000
50.19313 313.000
50.21307 317.000
50.23302 339.000
50.25297 318.000
50.27292 305.000
50.29286 273.000
50.31281 294.000
50.33276 312.000
50.35270 310.000
50.37265 289.000
50.39260 310.000
50.41254 312.000
50.43249 310.000
50.45244 322.000
50.47239 315.000
50.49233 304.000
50.51228 322.000
50.53223 282.000
50.55217 295.000
50.57212 289.000
50.59207 310.000
50.61201 315.000
50.63196 289.000
50.65191 311.000
50.67186 317.000
50.69180 337.000
50.71175 316.000
50.73170 296.000
50.75164 313.000
50.77159 311.000
50.79154 319.000
50.81148 305.000
50.83143 308.000
50.85138 307.000
50.87132 334.000
50.89127 301.000
50.91122 303.000
50.93117 299.000
50.95111 312.000
50.97106 302.000
50.99101 326.000
51.01095 307.000
51.03090 279.000
51.05085 309.000
51.07079 324.000
51.09074 344.000
51.11069 344.000
51.13064 314.000
51.15058 317.000
51.17053 284.000
51.19048 279.000
51.21042 316.000
51.23037 294.000
51.25032 308.000
51.27026 319.000
51.29021 308.000
51.31016 314.000
51.33010 309.000
51.35005 294.000
51.37000 303.000
51.38995 331.000
51.40989 310.000
51.42984 329.000
51.44979 308.000
51.46973 299.000
51.48968 335.000
51.50963 297.000
51.52957 314.000
51.54952 335.000
51.56947 322.000
51.58942 303.000
51.60936 285.000
51.62931 288.000
51.64926 294.000
51.66920 301.000
51.68915 313.000
51.70910 323.000
51.72904 336.000
51.74899 298.000
51.76894 333.000
51.78888 324.000
51.80883 315.000
51.82878 316.000
51.84873 317.000
51.86867 295.000
51.88862 298.000
51.90857 334.000
51.92851 302.000
51.94846 313.000
51.96841 309.000
51.98835 316.000
52.00830 329.000
52.02825 321.000
52.04820 342.000
52.06814 349.000
52.08809 340.000
52.10804 310.000
52.12798 326.000
52.14793 338.000
52.16788 323.000
52.18782 353.000
52.20777 316.000
52.22772 328.000
52.24767 335.000
52.26761 339.000
52.28756 281.000
52.30751 343.000
52.32745 342.000
52.34740 321.000
52.36735 297.000
52.38729 325.000
52.40724 281.000
52.42719 341.000
52.44713 331.000
52.46708 305.000
52.48703 317.000
52.50698 289.000
52.52692 283.000
52.54687 277.000
52.56682 284.000
52.58676 289.000
52.60671 325.000
52.62666 301.000
52.64660 296.000
52.66655 291.000
52.68650 296.000
52.70645 310.000
52.72639 322.000
52.74634 304.000
52.76629 325.000
52.78623 317.000
52.80618 344.000
52.82613 300.000
52.84607 282.000
52.86602 318.000
52.88597 315.000
52.90591 296.000
52.92586 345.000
52.94581 304.000
52.96576 297.000
52.98570 306.000
53.00565 337.000
53.02560 347.000
53.04554 309.000
53.06549 333.000
53.08544 292.000
53.10538 322.000
53.12533 318.000
53.14528 345.000
53.16523 337.000
53.18517 335.000
53.20512 357.000
53.22507 344.000
53.24501 313.000
53.26496 341.000
53.28491 355.000
53.30485 334.000
53.32480 345.000
53.34475 366.000
53.36469 325.000
53.38464 343.000
53.40459 343.000
53.42454 315.000
53.44448 315.000
53.46443 310.000
53.48438 344.000
53.50432 355.000
53.52427 350.000
53.54422 347.000
53.56416 336.000
53.58411 336.000
53.60406 341.000
53.62401 339.000
53.64395 348.000
53.66390 307.000
53.68385 344.000
53.70379 363.000
53.72374 382.000
53.74369 431.000
53.76363 482.000
53.78358 466.000
53.80353 419.000
53.82348 375.000
53.84342 379.000
53.86337 393.000
53.88332 350.000
53.90326 344.000
53.92321 382.000
53.94316 346.000
53.96310 346.000
53.98305 349.000
54.00300 316.000
54.02294 363.000
54.04289 320.000
54.06284 339.000
54.08279 311.000
54.10273 337.000
54.12268 309.000
54.14263 342.000
54.16257 333.000
54.18252 324.000
54.20247 328.000
54.22241 332.000
54.24236 315.000
54.26231 332.000
54.28226 341.000
54.30220 337.000
54.32215 316.000
54.34210 328.000
54.36204 309.000
54.38199 315.000
54.40194 318.000
54.42188 311.000
54.44183 312.000
54.46178 304.000
54.48172 304.000
54.50167 332.000
54.52162 318.000
54.54157 318.000
54.56151 313.000
54.58146 314.000
54.60141 294.000
54.62135 318.000
54.64130 307.000
54.66125 304.000
54.68119 301.000
54.70114 313.000
54.72109 310.000
54.74104 293.000
54.76098 296.000
54.78093 314.000
54.80088 317.000
54.82082 331.000
54.84077 309.000
54.86072 280.000
54.88066 312.000
54.90061 304.000
54.92056 329.000
54.94050 278.000
54.96045 286.000
54.98040 311.000
55.00035 304.000
55.02029 280.000
55.04024 303.000
55.06019 264.000
55.08013 304.000
55.10008 307.000
55.12003 306.000
55.13997 298.000
55.15992 306.000
55.17987 300.000
55.19982 302.000
55.21976 299.000
55.23971 320.000
55.25966 298.000
55.27960 293.000
55.29955 261.000
55.31950 333.000
55.33944 306.000
55.35939 292.000
55.37934 345.000
55.39929 278.000
55.41923 289.000
55.43918 310.000
55.45913 321.000
55.47907 306.000
55.49902 284.000
55.51897 305.000
55.53891 295.000
55.55886 320.000
55.57881 282.000
55.59875 333.000
55.61870 279.000
55.63865 320.000
55.65860 323.000
55.67854 336.000
55.69849 311.000
55.71844 286.000
55.73838 321.000
55.75833 267.000
55.77828 287.000
55.79822 294.000
55.81817 310.000
55.83812 312.000
55.85807 316.000
55.87801 342.000
55.89796 294.000
55.91791 306.000
55.93785 322.000
55.95780 312.000
55.97775 276.000
55.99769 333.000
56.01764 280.000
56.03759 280.000
56.05753 304.000
56.07748 312.000
56.09743 302.000
56.11738 318.000
56.13732 298.000
56.15727 337.000
56.17722 320.000
56.19716 310.000
56.21711 347.000
56.23706 290.000
56.25700 302.000
56.27695 329.000
56.29690 301.000
56.31685 308.000
56.33679 340.000
56.35674 322.000
56.37669 283.000
56.39663 319.000
56.41658 323.000
56.43653 327.000
56.45647 297.000
56.47642 292.000
56.49637 286.000
56.51631 322.000
56.53626 298.000
56.55621 305.000
56.57616 315.000
56.59610 333.000
56.61605 310.000
56.63600 331.000
56.65594 345.000
56.67589 347.000
56.69584 363.000
56.71578 315.000
56.73573 326.000
56.75568 290.000
56.77563 312.000
56.79557 346.000
56.81552 324.000
56.83547 318.000
56.85541 317.000
56.87536 323.000
56.89531 323.000
56.91525 306.000
56.93520 353.000
56.95515 360.000
56.97510 334.000
56.99504 319.000
57.01499 331.000
57.03494 317.000
57.05488 291.000
57.07483 382.000
57.09478 353.000
57.11472 362.000
57.13467 361.000
57.15462 382.000
57.17456 378.000
57.19451 361.000
57.21446 372.000
57.23441 439.000
57.25435 442.000
57.27430 508.000
57.29425 600.000
57.31419 708.000
57.33414 808.000
57.35409 701.000
57.37403 641.000
57.39398 510.000
57.41393 534.000
57.43388 491.000
57.45382 494.000
57.47377 557.000
57.49372 616.000
57.51366 524.000
57.53361 457.000
57.55356 402.000
57.57350 402.000
57.59345 378.000
57.61340 348.000
57.63334 352.000
57.65329 347.000
57.67324 333.000
57.69319 323.000
57.71313 365.000
57.73308 335.000
57.75303 322.000
57.77297 330.000
57.79292 325.000
57.81287 316.000
57.83281 349.000
57.85276 315.000
57.87271 318.000
57.89266 299.000
57.91260 332.000
57.93255 318.000
57.95250 330.000
57.97244 362.000
57.99239 325.000
58.01234 319.000
58.03228 334.000
58.05223 344.000
58.07218 365.000
58.09212 340.000
58.11207 301.000
58.13202 335.000
58.15197 339.000
58.17191 372.000
58.19186 341.000
58.21181 368.000
58.23175 396.000
58.25170 395.000
58.27165 400.000
58.29159 375.000
58.31154 363.000
58.33149 334.000
58.35144 348.000
58.37138 350.000
58.39133 350.000
58.41128 329.000
58.43122 330.000
58.45117 325.000
58.47112 321.000
58.49106 347.000
58.51101 337.000
58.53096 301.000
58.55090 335.000
58.57085 320.000
58.59080 345.000
58.61075 328.000
58.63069 301.000
58.65064 318.000
58.67059 290.000
58.69053 299.000
58.71048 313.000
58.73043 332.000
58.75037 363.000
58.77032 325.000
58.79027 328.000
58.81022 301.000
58.83016 332.000
58.85011 311.000
58.87006 300.000
58.89000 307.000
58.90995 316.000
58.92990 321.000
58.94984 347.000
58.96979 326.000
58.98974 303.000
59.00969 298.000
59.02963 291.000
59.04958 325.000
59.06953 299.000
59.08947 337.000
59.10942 318.000
59.12937 330.000
59.14931 327.000
59.16926 315.000
59.18921 323.000
59.20915 319.000
59.22910 316.000
59.24905 336.000
59.26900 298.000
59.28894 313.000
59.30889 330.000
59.32884 329.000
59.34878 283.000
59.36873 337.000
59.38868 315.000
59.40862 346.000
59.42857 332.000
59.44852 338.000
59.46847 305.000
59.48841 332.000
59.50836 352.000
59.52831 346.000
59.54825 330.000
59.56820 343.000
59.58815 327.000
59.60809 346.000
59.62804 316.000
59.64799 346.000
59.66793 332.000
59.68788 375.000
59.70783 328.000
59.72778 357.000
59.74772 353.000
59.76767 350.000
59.78762 364.000
59.80756 329.000
59.82751 355.000
59.84746 334.000
59.86740 345.000
59.88735 330.000
59.90730 283.000
59.92725 300.000
59.94719 315.000
59.96714 357.000
59.98709 346.000
60.00703 331.000
60.02698 352.000
60.04693 345.000
60.06687 310.000
60.08682 319.000
60.10677 346.000
60.12671 322.000
60.14666 313.000
60.16661 349.000
60.18656 321.000
60.20650 354.000
60.22645 379.000
60.24640 333.000
60.26634 337.000
60.28629 351.000
60.30624 328.000
60.32618 339.000
60.34613 325.000
60.36608 337.000
60.38603 340.000
60.40597 337.000
60.42592 327.000
60.44587 338.000
60.46581 347.000
60.48576 323.000
60.50571 359.000
60.52565 348.000
60.54560 352.000
60.56555 334.000
60.58550 365.000
60.60544 324.000
60.62539 302.000
60.64534 392.000
60.66528 351.000
60.68523 379.000
60.70518 360.000
60.72512 347.000
60.74507 351.000
60.76502 355.000
60.78496 354.000
60.80491 358.000
60.82486 362.000
60.84481 336.000
60.86475 340.000
60.88470 350.000
60.90465 333.000
60.92459 360.000
60.94454 365.000
60.96449 343.000
60.98443 346.000
61.00438 375.000
61.02433 403.000
61.04428 410.000
61.06422 402.000
61.08417 371.000
61.10412 387.000
61.12406 390.000
61.14401 434.000
61.16396 409.000
61.18390 441.000
61.20385 419.000
61.22380 418.000
61.24374 452.000
61.26369 403.000
61.28364 472.000
61.30359 436.000
61.32353 433.000
61.34348 449.000
61.36343 445.000
61.38337 468.000
61.40332 509.000
61.42327 495.000
61.44321 494.000
61.46316 582.000
61.48311 572.000
61.50306 567.000
61.52300 618.000
61.54295 629.000
61.56290 608.000
61.58284 588.000
61.60279 596.000
61.62274 562.000
61.64268 569.000
61.66263 604.000
61.68258 569.000
61.70252 570.000
61.72247 566.000
61.74242 559.000
61.76237 542.000
61.78231 542.000
61.80226 544.000
61.82221 510.000
61.84215 495.000
61.86210 547.000
61.88205 529.000
61.90199 517.000
61.92194 519.000
61.94189 463.000
61.96184 475.000
61.98178 469.000
62.00173 474.000
62.02168 471.000
62.04162 514.000
62.06157 507.000
62.08152 454.000
62.10146 505.000
62.12141 501.000
62.14136 496.000
62.16131 520.000
62.18125 492.000
62.20120 502.000
62.22115 570.000
62.24109 536.000
62.26104 530.000
62.28099 545.000
62.30093 562.000
62.32088 541.000
62.34083 557.000
62.36077 545.000
62.38072 553.000
62.40067 629.000
62.42062 625.000
62.44056 616.000
62.46051 627.000
62.48046 614.000
62.50040 666.000
62.52035 666.000
62.54030 657.000
62.56024 699.000
62.58019 689.000
62.60014 667.000
62.62009 681.000
62.64003 652.000
62.65998 679.000
62.67993 640.000
62.69987 736.000
62.71982 646.000
62.73977 653.000
62.75971 673.000
62.77966 643.000
62.79961 643.000
62.81955 673.000
62.83950 611.000
62.85945 612.000
62.87940 634.000
62.89934 708.000
62.91929 793.000
62.93924 870.000
62.95918 1004.000
62.97913 953.000
62.99908 791.000
63.01902 650.000
63.03897 614.000
63.05892 556.000
63.07887 539.000
63.09881 595.000
63.11876 622.000
63.13871 645.000
63.15865 607.000
63.17860 541.000
63.19855 506.000
63.21849 451.000
63.23844 417.000
63.25839 375.000
63.27833 373.000
63.29828 366.000
63.31823 383.000
63.33818 350.000
63.35812 355.000
63.37807 367.000
63.39802 347.000
63.41796 349.000
63.43791 334.000
63.45786 340.000
63.47780 344.000
63.49775 319.000
63.51770 313.000
63.53765 322.000
63.55759 317.000
63.57754 311.000
63.59749 327.000
63.61743 302.000
63.63738 309.000
63.65733 292.000
63.67727 333.000
63.69722 284.000
63.71717 292.000
63.73712 311.000
63.75706 288.000
63.77701 347.000
63.79696 309.000
63.81690 336.000
63.83685 319.000
63.85680 340.000
63.87674 319.000
63.89669 338.000
63.91664 286.000
63.93658 312.000
63.95653 313.000
63.97648 329.000
63.99643 320.000
64.01637 295.000
64.03632 294.000
64.05627 329.000
64.07621 329.000
64.09616 301.000
64.11611 338.000
64.13605 302.000
64.15600 289.000
64.17595 306.000
64.19590 311.000
64.21584 303.000
64.23579 358.000
64.25574 325.000
64.27568 342.000
64.29563 350.000
64.31558 338.000
64.33552 323.000
64.35547 306.000
64.37542 299.000
64.39536 344.000
64.41531 301.000
64.43526 313.000
64.45521 311.000
64.47515 296.000
64.49510 294.000
64.51505 332.000
64.53499 316.000
64.55494 294.000
64.57489 304.000
64.59483 316.000
64.61478 317.000
64.63473 311.000
64.65468 330.000
64.67462 280.000
64.69457 308.000
64.71452 313.000
64.73446 318.000
64.75441 323.000
64.77436 326.000
64.79430 303.000
64.81425 281.000
64.83420 284.000
64.85414 316.000
64.87409 298.000
64.89404 260.000
64.91399 322.000
64.93393 339.000
64.95388 325.000
64.97383 284.000
64.99377 289.000
65.01372 323.000
65.03367 328.000
65.05361 352.000
65.07356 338.000
65.09351 319.000
65.11346 342.000
65.13340 277.000
65.15335 310.000
65.17330 333.000
65.19324 327.000
65.21319 313.000
65.23314 341.000
65.25308 285.000
65.27303 329.000
65.29298 344.000
65.31293 313.000
65.33287 355.000
65.35282 356.000
65.37277 369.000
65.39271 352.000
65.41266 359.000
65.43261 370.000
65.45255 354.000
65.47250 375.000
65.49245 366.000
65.51239 363.000
65.53234 406.000
65.55229 387.000
65.57224 383.000
65.59218 393.000
65.61213 385.000
65.63208 387.000
65.65202 376.000
65.67197 410.000
65.69192 436.000
65.71186 422.000
65.73181 437.000
65.75176 403.000
65.77171 404.000
65.79165 370.000
65.81160 364.000
65.83155 408.000
65.85149 347.000
65.87144 375.000
65.89139 350.000
65.91133 382.000
65.93128 358.000
65.95123 386.000
65.97117 328.000
65.99112 348.000
66.01107 379.000
66.03102 340.000
66.05096 363.000
66.07091 380.000
66.09086 379.000
66.11080 335.000
66.13075 347.000
66.15070 341.000
66.17064 369.000
66.19059 365.000
66.21054 400.000
66.23049 389.000
66.25043 396.000
66.27038 376.000
66.29033 362.000
66.31027 341.000
66.33022 332.000
66.35017 373.000
66.37011 426.000
66.39006 421.000
66.41001 369.000
66.42995 372.000
66.44990 396.000
66.46985 377.000
66.48980 378.000
66.50974 363.000
66.52969 384.000
66.54964 345.000
66.56958 377.000
66.58953 346.000
66.60948 363.000
66.62942 346.000
66.64937 350.000
66.66932 335.000
66.68927 324.000
66.70921 328.000
66.72916 349.000
66.74911 364.000
66.76905 342.000
66.78900 319.000
66.80895 351.000
66.82889 303.000
66.84884 315.000
66.86879 343.000
66.88874 316.000
66.90868 288.000
66.92863 315.000
66.94858 341.000
66.96852 297.000
66.98847 331.000
67.00842 319.000
67.02836 293.000
67.04831 354.000
67.06826 312.000
67.08820 296.000
67.10815 323.000
67.12810 316.000
67.14805 298.000
67.16799 331.000
67.18794 313.000
67.20789 286.000
67.22783 320.000
67.24778 322.000
67.26773 311.000
67.28767 297.000
67.30762 317.000
67.32757 343.000
67.34752 297.000
67.36746 345.000
67.38741 303.000
67.40736 323.000
67.42730 322.000
67.44725 304.000
67.46720 321.000
67.48714 332.000
67.50709 329.000
67.52704 309.000
67.54698 334.000
67.56693 324.000
67.58688 291.000
67.60683 306.000
67.62677 323.000
67.64672 338.000
67.66667 344.000
67.68661 366.000
67.70656 309.000
67.72651 354.000
67.74645 340.000
67.76640 324.000
67.78635 373.000
67.80630 357.000
67.82624 382.000
67.84619 375.000
67.86614 359.000
67.88608 394.000
67.90603 342.000
67.92598 395.000
67.94592 417.000
67.96587 376.000
67.98582 384.000
68.00576 407.000
68.02571 406.000
68.04566 385.000
68.06561 412.000
68.08555 359.000
68.10550 352.000
68.12545 384.000
68.14539 353.000
68.16534 354.000
68.18529 351.000
68.20523 333.000
68.22518 365.000
68.24513 360.000
68.26508 330.000
68.28502 346.000
68.30497 323.000
68.32492 344.000
68.34486 339.000
68.36481 333.000
68.38476 349.000
68.40470 338.000
68.42465 312.000
68.44460 318.000
68.46455 305.000
68.48449 341.000
68.50444 319.000
68.52439 333.000
68.54433 336.000
68.56428 312.000
68.58423 273.000
68.60417 300.000
68.62412 311.000
68.64407 325.000
68.66401 314.000
68.68396 301.000
68.70391 298.000
68.72386 313.000
68.74380 294.000
68.76375 305.000
68.78370 321.000
68.80364 295.000
68.82359 292.000
68.84354 312.000
68.86348 302.000
68.88343 281.000
68.90338 281.000
68.92333 266.000
68.94327 306.000
68.96322 302.000
68.98317 311.000
69.00311 279.000
69.02306 324.000
69.04301 326.000
69.06295 293.000
69.08290 288.000
69.10285 309.000
69.12279 283.000
69.14274 316.000
69.16269 302.000
69.18264 323.000
69.20258 331.000
69.22253 319.000
69.24248 294.000
69.26242 268.000
69.28237 286.000
69.30232 291.000
69.32226 302.000
69.34221 291.000
69.36216 285.000
69.38211 289.000
69.40205 314.000
69.42200 261.000
69.44195 295.000
69.46189 298.000
69.48184 289.000
69.50179 290.000
69.52173 301.000
69.54168 282.000
69.56163 286.000
69.58157 289.000
69.60152 304.000
69.62147 301.000
69.64142 288.000
69.66136 303.000
69.68131 294.000
69.70126 293.000
69.72120 283.000
69.74115 293.000
69.76110 277.000
69.78104 311.000
69.80099 323.000
69.82094 277.000
69.84089 295.000
69.86083 316.000
69.88078 309.000
69.90073 310.000
69.92067 295.000
69.94062 282.000
69.96057 303.000
69.98051 260.000
70.00046 309.000
70.02041 307.000
70.04035 293.000
70.06030 293.000
70.08025 303.000
70.10020 266.000
70.12014 285.000
70.14009 286.000
70.16004 307.000
70.17998 308.000
70.19993 286.000
70.21988 301.000
70.23982 299.000
70.25977 268.000
70.27972 291.000
70.29967 296.000
70.31961 272.000
70.33956 295.000
70.35951 315.000
70.37945 304.000
70.39940 293.000
70.41935 289.000
70.43929 279.000
70.45924 295.000
70.47919 283.000
70.49914 273.000
70.51908 281.000
70.53903 296.000
70.55898 297.000
70.57892 279.000
70.59887 287.000
70.61882 309.000
70.63876 327.000
70.65871 304.000
70.67866 278.000
70.69860 284.000
70.71855 289.000
70.73850 299.000
70.75845 302.000
70.77839 305.000
70.79834 302.000
70.81829 311.000
70.83823 296.000
70.85818 320.000
70.87813 272.000
70.89807 297.000
70.91802 313.000
70.93797 285.000
70.95792 302.000
70.97786 294.000
70.99781 298.000
71.01776 266.000
71.03770 318.000
71.05765 298.000
71.07760 316.000
71.09754 302.000
71.11749 304.000
71.13744 288.000
71.15738 314.000
71.17733 346.000
71.19728 286.000
71.21723 312.000
71.23717 305.000
71.25712 288.000
71.27707 319.000
71.29701 306.000
71.31696 328.000
71.33691 336.000
71.35685 315.000
71.37680 337.000
71.39675 347.000
71.41670 358.000
71.43664 304.000
71.45659 347.000
71.47654 394.000
71.49648 317.000
71.51643 304.000
71.53638 312.000
71.55632 318.000
71.57627 314.000
71.59622 302.000
71.61616 356.000
71.63611 314.000
71.65606 337.000
71.67601 323.000
71.69595 338.000
71.71590 346.000
71.73585 369.000
71.75579 342.000
71.77574 280.000
71.79569 309.000
71.81563 302.000
71.83558 338.000
71.85553 294.000
71.87548 306.000
71.89542 337.000
71.91537 307.000
71.93532 315.000
71.95526 301.000
71.97521 320.000
71.99516 323.000
72.01510 295.000
72.03505 311.000
72.05500 321.000
72.07495 311.000
72.09489 300.000
72.11484 318.000
72.13479 296.000
72.15473 325.000
72.17468 343.000
72.19463 343.000
72.21457 349.000
72.23452 305.000
72.25447 317.000
72.27441 333.000
72.29436 306.000
72.31431 360.000
72.33426 342.000
72.35420 340.000
72.37415 327.000
72.39410 363.000
72.41404 340.000
72.43399 374.000
72.45394 354.000
72.47388 328.000
72.49383 349.000
72.51378 348.000
72.53373 351.000
72.55367 336.000
72.57362 363.000
72.59357 358.000
72.61351 340.000
72.63346 345.000
72.65341 349.000
72.67335 350.000
72.69330 330.000
72.71325 345.000
72.73319 323.000
72.75314 339.000
72.77309 339.000
72.79304 331.000
72.81298 331.000
72.83293 328.000
72.85288 338.000
72.87282 323.000
72.89277 323.000
72.91272 336.000
72.93266 306.000
72.95261 305.000
72.97256 333.000
72.99251 308.000
73.01245 295.000
73.03240 336.000
73.05235 326.000
73.07229 326.000
73.09224 312.000
73.11219 323.000
73.13213 313.000
73.15208 308.000
73.17203 304.000
73.19197 309.000
73.21192 310.000
73.23187 309.000
73.25182 316.000
73.27176 301.000
73.29171 299.000
73.31166 325.000
73.33160 315.000
73.35155 315.000
73.37150 321.000
73.39144 333.000
73.41139 298.000
73.43134 306.000
73.45129 322.000
73.47123 317.000
73.49118 286.000
73.51113 290.000
73.53107 314.000
73.55102 295.000
73.57097 312.000
73.59091 301.000
73.61086 326.000
73.63081 309.000
73.65076 313.000
73.67070 321.000
73.69065 296.000
73.71060 298.000
73.73054 292.000
73.75049 329.000
73.77044 303.000
73.79038 286.000
73.81033 296.000
73.83028 327.000
73.85022 333.000
73.87017 308.000
73.89012 324.000
73.91007 323.000
73.93001 323.000
73.94996 334.000
73.96991 324.000
73.98985 320.000
74.00980 313.000
74.02975 290.000
74.04969 326.000
74.06964 327.000
74.08959 331.000
74.10954 348.000
74.12948 287.000
74.14943 334.000
74.16938 331.000
74.18932 305.000
74.20927 306.000
74.22922 328.000
74.24916 329.000
74.26911 355.000
74.28906 304.000
74.30900 322.000
74.32895 338.000
74.34890 340.000
74.36885 324.000
74.38879 352.000
74.40874 372.000
74.42869 371.000
74.44863 370.000
74.46858 381.000
74.48853 425.000
74.50847 425.000
74.52842 467.000
74.54837 430.000
74.56832 409.000
74.58826 394.000
74.60821 354.000
74.62816 352.000
74.64810 368.000
74.66805 405.000
74.68800 378.000
74.70794 390.000
74.72789 436.000
74.74784 408.000
74.76778 430.000
74.78773 434.000
74.80768 428.000
74.82763 411.000
74.84757 409.000
74.86752 425.000
74.88747 419.000
74.90741 411.000
74.92736 410.000
74.94731 422.000
74.96725 436.000
74.98720 427.000
75.00715 444.000
75.02710 404.000
75.04704 445.000
75.06699 450.000
75.08694 439.000
75.10688 477.000
75.12683 429.000
75.14678 448.000
75.16672 424.000
75.18667 442.000
75.20662 397.000
75.22657 426.000
75.24651 403.000
75.26646 431.000
75.28641 416.000
75.30635 411.000
75.32630 392.000
75.34625 389.000
75.36619 394.000
75.38614 391.000
75.40609 384.000
75.42603 409.000
75.44598 357.000
75.46593 364.000
75.48588 339.000
75.50582 415.000
75.52577 374.000
75.54572 374.000
75.56566 373.000
75.58561 350.000
75.60556 344.000
75.62550 351.000
75.64545 341.000
75.66540 330.000
75.68535 339.000
75.70529 352.000
75.72524 344.000
75.74519 347.000
75.76513 386.000
75.78508 320.000
75.80503 329.000
75.82497 324.000
75.84492 336.000
75.86487 335.000
75.88481 310.000
75.90476 292.000
75.92471 332.000
75.94466 333.000
75.96460 334.000
75.98455 330.000
76.00450 335.000
76.02444 305.000
76.04439 316.000
76.06434 306.000
76.08428 334.000
76.10423 304.000
76.12418 312.000
76.14413 312.000
76.16407 318.000
76.18402 304.000
76.20397 283.000
76.22391 295.000
76.24386 287.000
76.26381 294.000
76.28375 327.000
76.30370 331.000
76.32365 307.000
76.34359 288.000
76.36354 294.000
76.38349 341.000
76.40344 293.000
76.42338 302.000
76.44333 286.000
76.46328 286.000
76.48322 288.000
76.50317 306.000
76.52312 295.000
76.54306 276.000
76.56301 310.000
76.58296 311.000
76.60291 312.000
76.62285 315.000
76.64280 273.000
76.66275 303.000
76.68269 286.000
76.70264 298.000
76.72259 285.000
76.74253 261.000
76.76248 332.000
76.78243 290.000
76.80238 281.000
76.82232 318.000
76.84227 301.000
76.86222 318.000
76.88216 282.000
76.90211 309.000
76.92206 301.000
76.94200 316.000
76.96195 281.000
76.98190 309.000
77.00184 300.000
77.02179 292.000
77.04174 322.000
77.06169 346.000
77.08163 346.000
77.10158 337.000
77.12153 296.000
77.14147 302.000
77.16142 288.000
77.18137 290.000
77.20131 297.000
77.22126 302.000
77.24121 294.000
77.26116 306.000
77.28110 287.000
77.30105 301.000
77.32100 294.000
77.34094 308.000
77.36089 290.000
77.38084 309.000
77.40078 295.000
77.42073 284.000
77.44068 288.000
77.46062 298.000
77.48057 331.000
77.50052 309.000
77.52047 302.000
77.54041 317.000
77.56036 327.000
77.58031 300.000
77.60025 292.000
77.62020 304.000
77.64015 338.000
77.66009 321.000
77.68004 317.000
77.69999 343.000
77.71994 324.000
77.73988 299.000
77.75983 303.000
77.77978 283.000
77.79972 295.000
77.81967 289.000
77.83962 317.000
77.85956 320.000
77.87951 298.000
77.89946 302.000
77.91940 292.000
77.93935 306.000
77.95930 307.000
77.97925 310.000
77.99919 305.000
78.01914 311.000
78.03909 320.000
78.05903 268.000
78.07898 329.000
78.09893 295.000
78.11887 314.000
78.13882 351.000
78.15877 308.000
78.17872 291.000
78.19866 316.000
78.21861 287.000
78.23856 303.000
78.25850 312.000
78.27845 307.000
78.29840 357.000
78.31834 324.000
78.33829 311.000
78.35824 310.000
78.37819 294.000
78.39813 295.000
78.41808 307.000
78.43803 318.000
78.45797 324.000
78.47792 345.000
78.49787 314.000
78.51781 325.000
78.53776 316.000
78.55771 328.000
78.57765 308.000
78.59760 318.000
78.61755 289.000
78.63750 305.000
78.65744 322.000
78.67739 360.000
78.69734 339.000
78.71728 360.000
78.73723 309.000
78.75718 362.000
78.77712 325.000
78.79707 368.000
78.81702 358.000
78.83697 345.000
78.85691 369.000
78.87686 360.000
78.89681 335.000
78.91675 352.000
78.93670 352.000
78.95665 355.000
78.97659 358.000
78.99654 374.000
79.01649 374.000
79.03643 366.000
79.05638 358.000
79.07633 413.000
79.09628 363.000
79.11622 361.000
79.13617 338.000
79.15612 354.000
79.17606 331.000
79.19601 367.000
79.21596 345.000
79.23590 330.000
79.25585 297.000
79.27580 320.000
79.29575 333.000
79.31569 361.000
79.33564 328.000
79.35559 326.000
79.37553 353.000
79.39548 279.000
79.41543 338.000
79.43537 325.000
79.45532 318.000
79.47527 319.000
79.49521 359.000
79.51516 354.000
79.53511 318.000
79.55506 312.000
79.57500 298.000
79.59495 313.000
79.61490 291.000
79.63484 300.000
79.65479 287.000
79.67474 302.000
79.69468 304.000
79.71463 309.000
79.73458 300.000
79.75453 306.000
79.77447 336.000
79.79442 306.000
79.81437 320.000
79.83431 307.000
79.85426 299.000
79.87421 284.000
79.89415 329.000
79.91410 288.000
79.93405 304.000
79.95399 284.000
79.97394 292.000
79.99389 310.000
80.01384 291.000
80.03378 301.000
80.05373 304.000
80.07368 287.000
80.09362 295.000
80.11357 273.000
80.13352 281.000
80.15346 265.000
80.17341 303.000
80.19336 299.000
80.21331 298.000
80.23325 307.000
80.25320 304.000
80.27315 312.000
80.29309 324.000
80.31304 297.000
80.33299 285.000
80.35293 306.000
80.37288 296.000
80.39283 320.000
80.41278 300.000
80.43272 290.000
80.45267 289.000
80.47262 283.000
80.49256 294.000
80.51251 305.000
80.53246 286.000
80.55240 281.000
80.57235 280.000
80.59230 282.000
80.61224 290.000
80.63219 299.000
80.65214 293.000
80.67209 299.000
80.69203 294.000
80.71198 274.000
80.73193 319.000
80.75187 324.000
80.77182 287.000
80.79177 270.000
80.81171 290.000
80.83166 267.000
80.85161 294.000
80.87156 275.000
80.89150 279.000
80.91145 312.000
80.93140 248.000
80.95134 275.000
80.97129 286.000
80.99124 306.000
81.01118 288.000
81.03113 307.000
81.05108 316.000
81.07102 265.000
81.09097 289.000
81.11092 300.000
81.13087 292.000
81.15081 310.000
81.17076 252.000
81.19071 273.000
81.21065 293.000
81.23060 266.000
81.25055 284.000
81.27049 308.000
81.29044 271.000
81.31039 285.000
81.33034 290.000
81.35028 310.000
81.37023 277.000
81.39018 287.000
81.41012 272.000
81.43007 307.000
81.45002 283.000
81.46996 272.000
81.48991 259.000
81.50986 263.000
81.52980 312.000
81.54975 286.000
81.56970 287.000
81.58965 293.000
81.60959 325.000
81.62954 293.000
81.64949 278.000
81.66943 306.000
81.68938 296.000
81.70933 288.000
81.72927 323.000
81.74922 290.000
81.76917 286.000
81.78912 293.000
81.80906 299.000
81.82901 307.000
81.84896 298.000
81.86890 291.000
81.88885 289.000
81.90880 324.000
81.92874 282.000
81.94869 322.000
81.96864 315.000
81.98859 281.000
82.00853 302.000
82.02848 298.000
82.04843 278.000
82.06837 323.000
82.08832 302.000
82.10827 256.000
82.12821 310.000
82.14816 315.000
82.16811 297.000
82.18805 278.000
82.20800 314.000
82.22795 311.000
82.24790 284.000
82.26784 306.000
82.28779 277.000
82.30774 297.000
82.32768 306.000
82.34763 303.000
82.36758 318.000
82.38752 290.000
82.40747 297.000
82.42742 302.000
82.44737 340.000
82.46731 328.000
82.48726 316.000
82.50721 317.000
82.52715 328.000
82.54710 306.000
82.56705 333.000
82.58699 326.000
82.60694 326.000
82.62689 335.000
82.64683 311.000
82.66678 330.000
82.68673 322.000
82.70668 366.000
82.72662 347.000
82.74657 341.000
82.76652 293.000
82.78646 340.000
82.80641 363.000
82.82636 325.000
82.84630 322.000
82.86625 286.000
82.88620 303.000
82.90615 323.000
82.92609 326.000
82.94604 328.000
82.96599 275.000
82.98593 304.000
83.00588 309.000
83.02583 284.000
83.04577 310.000
83.06572 316.000
83.08567 282.000
83.10561 290.000
83.12556 337.000
83.14551 292.000
83.16546 305.000
83.18540 303.000
83.20535 324.000
83.22530 323.000
83.24524 303.000
83.26519 317.000
83.28514 317.000
83.30508 334.000
83.32503 289.000
83.34498 308.000
83.36493 301.000
83.38487 333.000
83.40482 287.000
83.42477 302.000
83.44471 317.000
83.46466 321.000
83.48461 256.000
83.50455 298.000
83.52450 324.000
83.54445 269.000
83.56440 322.000
83.58434 297.000
83.60429 311.000
83.62424 315.000
83.64418 292.000
83.66413 333.000
83.68408 300.000
83.70402 298.000
83.72397 303.000
83.74392 308.000
83.76386 339.000
83.78381 263.000
83.80376 301.000
83.82371 297.000
83.84365 294.000
83.86360 304.000
83.88355 282.000
83.90349 298.000
83.92344 296.000
83.94339 290.000
83.96333 305.000
83.98328 291.000
84.00323 291.000
84.02318 275.000
84.04312 290.000
84.06307 302.000
84.08302 309.000
84.10296 295.000
84.12291 274.000
84.14286 305.000
84.16280 320.000
84.18275 299.000
84.20270 309.000
84.22264 290.000
84.24259 307.000
84.26254 293.000
84.28249 317.000
84.30243 275.000
84.32238 293.000
84.34233 278.000
84.36227 325.000
84.38222 319.000
84.40217 291.000
84.42211 316.000
84.44206 288.000
84.46201 293.000
84.48196 296.000
84.50190 319.000
84.52185 274.000
84.54180 302.000
84.56174 272.000
84.58169 309.000
84.60164 267.000
84.62158 311.000
84.64153 335.000
84.66148 292.000
84.68142 273.000
84.70137 282.000
84.72132 281.000
84.74127 279.000
84.76121 249.000
84.78116 293.000
84.80111 252.000
84.82105 285.000
84.84100 255.000
84.86095 288.000
84.88089 281.000
84.90084 284.000
84.92079 302.000
84.94074 294.000
84.96068 281.000
84.98063 289.000
85.00058 274.000
85.02052 277.000
85.04047 301.000
85.06042 297.000
85.08036 264.000
85.10031 264.000
85.12026 299.000
85.14021 284.000
85.16015 267.000
85.18010 282.000
85.20005 281.000
85.21999 291.000
85.23994 292.000
85.25989 282.000
85.27983 290.000
85.29978 273.000
85.31973 262.000
85.33967 288.000
85.35962 273.000
85.37957 282.000
85.39952 266.000
85.41946 275.000
85.43941 302.000
85.45936 286.000
85.47930 269.000
85.49925 283.000
85.51920 264.000
85.53914 269.000
85.55909 311.000
85.57904 275.000
85.59899 258.000
85.61893 276.000
85.63888 310.000
85.65883 276.000
85.67877 274.000
85.69872 311.000
85.71867 289.000
85.73861 304.000
85.75856 292.000
85.77851 284.000
85.79845 270.000
85.81840 303.000
85.83835 315.000
85.85830 299.000
85.87824 293.000
85.89819 291.000
85.91814 291.000
85.93808 304.000
85.95803 282.000
85.97798 303.000
85.99792 299.000
86.01787 272.000
86.03782 296.000
86.05777 270.000
86.07771 290.000
86.09766 286.000
86.11761 288.000
86.13755 258.000
86.15750 286.000
86.17745 303.000
86.19739 271.000
86.21734 298.000
86.23729 288.000
86.25723 288.000
86.27718 251.000
86.29713 287.000
86.31708 317.000
86.33702 257.000
86.35697 275.000
86.37692 314.000
86.39686 280.000
86.41681 267.000
86.43676 307.000
86.45670 286.000
86.47665 268.000
86.49660 276.000
86.51655 247.000
86.53649 276.000
86.55644 294.000
86.57639 297.000
86.59633 301.000
86.61628 281.000
86.63623 283.000
86.65617 285.000
86.67612 287.000
86.69607 251.000
86.71602 281.000
86.73596 308.000
86.75591 322.000
86.77586 285.000
86.79580 264.000
86.81575 290.000
86.83570 323.000
86.85564 289.000
86.87559 294.000
86.89554 315.000
86.91548 337.000
86.93543 322.000
86.95538 275.000
86.97533 294.000
86.99527 281.000
87.01522 303.000
87.03517 301.000
87.05511 308.000
87.07506 329.000
87.09501 319.000
87.11495 298.000
87.13490 283.000
87.15485 289.000
87.17480 294.000
87.19474 292.000
87.21469 298.000
87.23464 300.000
87.25458 311.000
87.27453 317.000
87.29448 321.000
87.31442 328.000
87.33437 297.000
87.35432 312.000
87.37426 310.000
87.39421 332.000
87.41416 337.000
87.43411 349.000
87.45405 297.000
87.47400 302.000
87.49395 297.000
87.51389 310.000
87.53384 271.000
87.55379 333.000
87.57373 332.000
87.59368 290.000
87.61363 320.000
87.63358 289.000
87.65352 306.000
87.67347 313.000
87.69342 322.000
87.71336 310.000
87.73331 292.000
87.75326 290.000
87.77320 320.000
87.79315 315.000
87.81310 308.000
87.83304 295.000
87.85299 273.000
87.87294 303.000
87.89289 281.000
87.91283 258.000
87.93278 317.000
87.95273 300.000
87.97267 305.000
87.99262 276.000
88.01257 277.000
88.03251 308.000
88.05246 299.000
88.07241 299.000
88.09236 267.000
88.11230 271.000
88.13225 305.000
88.15220 284.000
88.17214 279.000
88.19209 273.000
88.21204 290.000
88.23198 257.000
88.25193 301.000
88.27188 292.000
88.29183 337.000
88.31177 304.000
88.33172 275.000
88.35167 276.000
88.37161 283.000
88.39156 251.000
88.41151 313.000
88.43145 308.000
88.45140 280.000
88.47135 278.000
88.49129 306.000
88.51124 276.000
88.53119 286.000
88.55114 290.000
88.57108 298.000
88.59103 296.000
88.61098 276.000
88.63092 265.000
88.65087 276.000
88.67082 313.000
88.69076 279.000
88.71071 281.000
88.73066 307.000
88.75061 277.000
88.77055 284.000
88.79050 292.000
88.81045 296.000
88.83039 297.000
88.85034 305.000
88.87029 259.000
88.89023 285.000
88.91018 316.000
88.93013 304.000
88.95007 271.000
88.97002 300.000
88.98997 293.000
89.00992 311.000
89.02986 290.000
89.04981 296.000
89.06976 290.000
89.08970 287.000
89.10965 298.000
89.12960 305.000
89.14954 273.000
89.16949 297.000
89.18944 286.000
89.20939 313.000
89.22933 312.000
89.24928 295.000
89.26923 306.000
89.28917 295.000
89.30912 286.000
89.32907 296.000
89.34901 293.000
89.36896 304.000
89.38891 293.000
89.40885 280.000
89.42880 275.000
89.44875 282.000
89.46870 288.000
89.48864 327.000
89.50859 309.000
89.52854 321.000
89.54848 319.000
89.56843 285.000
89.58838 314.000
89.60832 292.000
89.62827 288.000
89.64822 272.000
89.66817 298.000
89.68811 306.000
89.70806 294.000
89.72801 276.000
89.74795 333.000
89.76790 323.000
89.78785 283.000
89.80779 288.000
89.82774 302.000
89.84769 319.000
89.86764 288.000
89.88758 312.000
89.90753 285.000
89.92748 313.000
89.94742 344.000
89.96737 299.000
89.98732 322.000
90.00726 331.000
