10.00000 165.000
10.01995 164.000
10.03989 164.000
10.05984 164.000
10.07979 176.000
10.09973 151.000
10.11968 176.000
10.13963 166.000
10.15958 167.000
10.17952 182.000
10.19947 178.000
10.21942 174.000
10.23936 167.000
10.25931 140.000
10.27926 166.000
10.29920 157.000
10.31915 193.000
10.33910 156.000
10.35905 171.000
10.37899 165.000
10.39894 187.000
10.41889 165.000
10.43883 180.000
10.45878 157.000
10.47873 162.000
10.49867 197.000
10.51862 196.000
10.53857 186.000
10.55851 154.000
10.57846 168.000
10.59841 184.000
10.61836 180.000
10.63830 173.000
10.65825 200.000
10.67820 177.000
10.69814 165.000
10.71809 177.000
10.73804 156.000
10.75798 140.000
10.77793 161.000
10.79788 166.000
10.81783 159.000
10.83777 150.000
10.85772 173.000
10.87767 183.000
10.89761 184.000
10.91756 169.000
10.93751 175.000
10.95745 164.000
10.97740 157.000
10.99735 187.000
11.01730 160.000
11.03724 183.000
11.05719 158.000
11.07714 168.000
11.09708 154.000
11.11703 175.000
11.13698 157.000
11.15692 174.000
11.17687 150.000
11.19682 174.000
11.21676 161.000
11.23671 188.000
11.25666 173.000
11.27661 171.000
11.29655 176.000
11.31650 175.000
11.33645 178.000
11.35639 176.000
11.37634 182.000
11.39629 180.000
11.41623 164.000
11.43618 184.000
11.45613 178.000
11.47608 176.000
11.49602 180.000
11.51597 170.000
11.53592 178.000
11.55586 186.000
11.57581 137.000
11.59576 170.000
11.61570 171.000
11.63565 179.000
11.65560 183.000
11.67554 168.000
11.69549 155.000
11.71544 175.000
11.73539 202.000
11.75533 157.000
11.77528 171.000
11.79523 177.000
11.81517 187.000
11.83512 199.000
11.85507 206.000
11.87501 167.000
11.89496 181.000
11.91491 175.000
11.93486 144.000
11.95480 183.000
11.97475 181.000
11.99470 190.000
12.01464 157.000
12.03459 182.000
12.05454 162.000
12.07448 174.000
12.09443 188.000
12.11438 173.000
12.13432 179.000
12.15427 168.000
12.17422 183.000
12.19417 181.000
12.21411 200.000
12.23406 180.000
12.25401 176.000
12.27395 169.000
12.29390 182.000
12.31385 175.000
12.33379 165.000
12.35374 156.000
12.37369 183.000
12.39364 168.000
12.41358 197.000
12.43353 198.000
12.45348 205.000
12.47342 204.000
12.49337 175.000
12.51332 179.000
12.53326 179.000
12.55321 202.000
12.57316 175.000
12.59311 185.000
12.61305 189.000
12.63300 191.000
12.65295 182.000
12.67289 185.000
12.69284 201.000
12.71279 157.000
12.73273 184.000
12.75268 181.000
12.77263 170.000
12.79257 182.000
12.81252 167.000
12.83247 204.000
12.85242 165.000
12.87236 189.000
12.89231 183.000
12.91226 175.000
12.93220 200.000
12.95215 191.000
12.97210 182.000
12.99204 193.000
13.01199 199.000
13.03194 210.000
13.05189 205.000
13.07183 176.000
13.09178 186.000
13.11173 203.000
13.13167 187.000
13.15162 174.000
13.17157 177.000
13.19151 197.000
13.21146 205.000
13.23141 180.000
13.25135 199.000
13.27130 164.000
13.29125 194.000
13.31120 167.000
13.33114 190.000
13.35109 184.000
13.37104 188.000
13.39098 207.000
13.41093 184.000
13.43088 198.000
13.45082 172.000
13.47077 194.000
13.49072 184.000
13.51067 192.000
13.53061 191.000
13.55056 193.000
13.57051 191.000
13.59045 176.000
13.61040 194.000
13.63035 190.000
13.65029 191.000
13.67024 196.000
13.69019 214.000
13.71013 188.000
13.73008 165.000
13.75003 182.000
13.76998 201.000
13.78992 200.000
13.80987 198.000
13.82982 204.000
13.84976 211.000
13.86971 209.000
13.88966 202.000
13.90960 176.000
13.92955 190.000
13.94950 203.000
13.96945 206.000
13.98939 191.000
14.00934 201.000
14.02929 173.000
14.04923 197.000
14.06918 202.000
14.08913 200.000
14.10907 191.000
14.12902 198.000
14.14897 181.000
14.16892 211.000
14.18886 192.000
14.20881 200.000
14.22876 182.000
14.24870 185.000
14.26865 202.000
14.28860 181.000
14.30854 207.000
14.32849 177.000
14.34844 194.000
14.36838 185.000
14.38833 188.000
14.40828 213.000
14.42823 173.000
14.44817 198.000
14.46812 200.000
14.48807 189.000
14.50801 208.000
14.52796 215.000
14.54791 189.000
14.56785 179.000
14.58780 192.000
14.60775 241.000
14.62770 189.000
14.64764 188.000
14.66759 212.000
14.68754 177.000
14.70748 218.000
14.72743 204.000
14.74738 220.000
14.76732 183.000
14.78727 179.000
14.80722 204.000
14.82716 192.000
14.84711 190.000
14.86706 207.000
14.88701 187.000
14.90695 209.000
14.92690 190.000
14.94685 197.000
14.96679 197.000
14.98674 195.000
15.00669 184.000
15.02663 196.000
15.04658 200.000
15.06653 195.000
15.08648 197.000
15.10642 199.000
15.12637 213.000
15.14632 211.000
15.16626 181.000
15.18621 203.000
15.20616 154.000
15.22610 182.000
15.24605 201.000
15.26600 208.000
15.28594 179.000
15.30589 210.000
15.32584 216.000
15.34579 188.000
15.36573 203.000
15.38568 167.000
15.40563 203.000
15.42557 208.000
15.44552 223.000
15.46547 190.000
15.48541 221.000
15.50536 212.000
15.52531 229.000
15.54526 196.000
15.56520 238.000
15.58515 202.000
15.60510 213.000
15.62504 192.000
15.64499 202.000
15.66494 206.000
15.68488 218.000
15.70483 224.000
15.72478 254.000
15.74472 235.000
15.76467 335.000
15.78462 373.000
15.80457 339.000
15.82451 295.000
15.84446 257.000
15.86441 248.000
15.88435 218.000
15.90430 194.000
15.92425 227.000
15.94419 225.000
15.96414 227.000
15.98409 209.000
16.00404 197.000
16.02398 196.000
16.04393 215.000
16.06388 225.000
16.08382 191.000
16.10377 200.000
16.12372 220.000
16.14366 206.000
16.16361 222.000
16.18356 238.000
16.20351 222.000
16.22345 209.000
16.24340 215.000
16.26335 210.000
16.28329 220.000
16.30324 199.000
16.32319 200.000
16.34313 212.000
16.36308 197.000
16.38303 198.000
16.40297 211.000
16.42292 223.000
16.44287 225.000
16.46282 245.000
16.48276 211.000
16.50271 218.000
16.52266 212.000
16.54260 207.000
16.56255 194.000
16.58250 213.000
16.60244 230.000
16.62239 208.000
16.64234 208.000
16.66229 220.000
16.68223 188.000
16.70218 224.000
16.72213 200.000
16.74207 211.000
16.76202 208.000
16.78197 212.000
16.80191 223.000
16.82186 244.000
16.84181 216.000
16.86175 210.000
16.88170 207.000
16.90165 215.000
16.92160 212.000
16.94154 200.000
16.96149 212.000
16.98144 229.000
17.00138 191.000
17.02133 220.000
17.04128 251.000
17.06122 229.000
17.08117 232.000
17.10112 217.000
17.12107 213.000
17.14101 216.000
17.16096 215.000
17.18091 216.000
17.20085 220.000
17.22080 215.000
17.24075 212.000
17.26069 199.000
17.28064 219.000
17.30059 223.000
17.32053 213.000
17.34048 229.000
17.36043 211.000
17.38038 212.000
17.40032 218.000
17.42027 224.000
17.44022 205.000
17.46016 236.000
17.48011 223.000
17.50006 203.000
17.52000 190.000
17.53995 218.000
17.55990 209.000
17.57985 205.000
17.59979 194.000
17.61974 217.000
17.63969 258.000
17.65963 209.000
17.67958 226.000
17.69953 228.000
17.71947 224.000
17.73942 253.000
17.75937 246.000
17.77932 235.000
17.79926 252.000
17.81921 227.000
17.83916 234.000
17.85910 226.000
17.87905 233.000
17.89900 203.000
17.91894 218.000
17.93889 254.000
17.95884 247.000
17.97878 221.000
17.99873 264.000
18.01868 231.000
18.03863 253.000
18.05857 233.000
18.07852 232.000
18.09847 236.000
18.11841 232.000
18.13836 230.000
18.15831 225.000
18.17825 239.000
18.19820 252.000
18.21815 242.000
18.23810 248.000
18.25804 246.000
18.27799 250.000
18.29794 247.000
18.31788 228.000
18.33783 269.000
18.35778 299.000
18.37772 298.000
18.39767 331.000
18.41762 422.000
18.43756 526.000
18.45751 588.000
18.47746 472.000
18.49741 429.000
18.51735 332.000
18.53730 281.000
18.55725 270.000
18.57719 250.000
18.59714 249.000
18.61709 253.000
18.63703 218.000
18.65698 241.000
18.67693 223.000
18.69688 246.000
18.71682 254.000
18.73677 255.000
18.75672 235.000
18.77666 225.000
18.79661 244.000
18.81656 221.000
18.83650 240.000
18.85645 259.000
18.87640 220.000
18.89634 261.000
18.91629 244.000
18.93624 243.000
18.95619 255.000
18.97613 249.000
18.99608 256.000
19.01603 221.000
19.03597 254.000
19.05592 278.000
19.07587 249.000
19.09581 257.000
19.11576 252.000
19.13571 242.000
19.15566 262.000
19.17560 224.000
19.19555 272.000
19.21550 265.000
19.23544 277.000
19.25539 256.000
19.27534 236.000
19.29528 225.000
19.31523 277.000
19.33518 264.000
19.35513 248.000
19.37507 252.000
19.39502 271.000
19.41497 247.000
19.43491 266.000
19.45486 229.000
19.47481 258.000
19.49475 258.000
19.51470 250.000
19.53465 291.000
19.55459 258.000
19.57454 251.000
19.59449 255.000
19.61444 233.000
19.63438 290.000
19.65433 251.000
19.67428 259.000
19.69422 304.000
19.71417 261.000
19.73412 278.000
19.75406 271.000
19.77401 258.000
19.79396 259.000
19.81391 251.000
19.83385 266.000
19.85380 256.000
19.87375 279.000
19.89369 256.000
19.91364 246.000
19.93359 276.000
19.95353 262.000
19.97348 255.000
19.99343 267.000
20.01337 283.000
20.03332 283.000
20.05327 275.000
20.07322 277.000
20.09316 242.000
20.11311 258.000
20.13306 271.000
20.15300 273.000
20.17295 285.000
20.19290 257.000
20.21284 265.000
20.23279 279.000
20.25274 286.000
20.27269 286.000
20.29263 272.000
20.31258 276.000
20.33253 263.000
20.35247 283.000
20.37242 277.000
20.39237 267.000
20.41231 293.000
20.43226 273.000
20.45221 275.000
20.47215 259.000
20.49210 298.000
20.51205 305.000
20.53200 291.000
20.55194 268.000
20.57189 273.000
20.59184 261.000
20.61178 280.000
20.63173 289.000
20.65168 282.000
20.67162 270.000
20.69157 311.000
20.71152 295.000
20.73147 254.000
20.75141 280.000
20.77136 283.000
20.79131 282.000
20.81125 292.000
20.83120 265.000
20.85115 275.000
20.87109 315.000
20.89104 327.000
20.91099 330.000
20.93094 322.000
20.95088 328.000
20.97083 340.000
20.99078 402.000
21.01072 415.000
21.03067 459.000
21.05062 571.000
21.07056 603.000
21.09051 663.000
21.11046 629.000
21.13040 615.000
21.15035 483.000
21.17030 470.000
21.19025 410.000
21.21019 352.000
21.23014 324.000
21.25009 333.000
21.27003 327.000
21.28998 325.000
21.30993 319.000
21.32987 291.000
21.34982 323.000
21.36977 307.000
21.38972 314.000
21.40966 319.000
21.42961 310.000
21.44956 305.000
21.46950 313.000
21.48945 279.000
21.50940 305.000
21.52934 305.000
21.54929 287.000
21.56924 327.000
21.58918 270.000
21.60913 299.000
21.62908 281.000
21.64903 278.000
21.66897 272.000
21.68892 284.000
21.70887 300.000
21.72881 319.000
21.74876 308.000
21.76871 296.000
21.78865 311.000
21.80860 308.000
21.82855 310.000
21.84850 284.000
21.86844 321.000
21.88839 314.000
21.90834 265.000
21.92828 309.000
21.94823 300.000
21.96818 287.000
21.98812 287.000
22.00807 296.000
22.02802 288.000
22.04796 264.000
22.06791 333.000
22.08786 291.000
22.10781 292.000
22.12775 315.000
22.14770 312.000
22.16765 306.000
22.18759 300.000
22.20754 343.000
22.22749 281.000
22.24743 307.000
22.26738 296.000
22.28733 313.000
22.30728 319.000
22.32722 310.000
22.34717 309.000
22.36712 282.000
22.38706 335.000
22.40701 314.000
22.42696 282.000
22.44690 285.000
22.46685 321.000
22.48680 320.000
22.50675 310.000
22.52669 328.000
22.54664 331.000
22.56659 289.000
22.58653 291.000
22.60648 302.000
22.62643 329.000
22.64637 336.000
22.66632 309.000
22.68627 302.000
22.70621 311.000
22.72616 338.000
22.74611 347.000
22.76606 297.000
22.78600 322.000
22.80595 310.000
22.82590 311.000
22.84584 339.000
22.86579 308.000
22.88574 351.000
22.90568 331.000
22.92563 316.000
22.94558 315.000
22.96553 294.000
22.98547 310.000
23.00542 343.000
23.02537 323.000
23.04531 321.000
23.06526 312.000
23.08521 309.000
23.10515 320.000
23.12510 320.000
23.14505 339.000
23.16499 334.000
23.18494 348.000
23.20489 306.000
23.22484 342.000
23.24478 332.000
23.26473 328.000
23.28468 340.000
23.30462 364.000
23.32457 331.000
23.34452 318.000
23.36446 330.000
23.38441 317.000
23.40436 340.000
23.42431 346.000
23.44425 336.000
23.46420 318.000
23.48415 323.000
23.50409 346.000
23.52404 332.000
23.54399 317.000
23.56393 337.000
23.58388 329.000
23.60383 311.000
23.62377 335.000
23.64372 291.000
23.66367 341.000
23.68362 352.000
23.70356 360.000
23.72351 348.000
23.74346 349.000
23.76340 351.000
23.78335 333.000
23.80330 366.000
23.82324 382.000
23.84319 329.000
23.86314 339.000
23.88309 351.000
23.90303 351.000
23.92298 343.000
23.94293 362.000
23.96287 303.000
23.98282 354.000
24.00277 344.000
24.02271 361.000
24.04266 362.000
24.06261 339.000
24.08256 345.000
24.10250 382.000
24.12245 344.000
24.14240 340.000
24.16234 373.000
24.18229 344.000
24.20224 350.000
24.22218 377.000
24.24213 374.000
24.26208 353.000
24.28202 332.000
24.30197 355.000
24.32192 408.000
24.34187 357.000
24.36181 350.000
24.38176 382.000
24.40171 361.000
24.42165 357.000
24.44160 364.000
24.46155 431.000
24.48149 411.000
24.50144 365.000
24.52139 390.000
24.54134 424.000
24.56128 386.000
24.58123 382.000
24.60118 376.000
24.62112 338.000
24.64107 398.000
24.66102 369.000
24.68096 382.000
24.70091 393.000
24.72086 359.000
24.74080 371.000
24.76075 400.000
24.78070 396.000
24.80065 351.000
24.82059 398.000
24.84054 395.000
24.86049 375.000
24.88043 349.000
24.90038 395.000
24.92033 396.000
24.94027 412.000
24.96022 359.000
24.98017 398.000
25.00012 393.000
25.02006 358.000
25.04001 356.000
25.05996 382.000
25.07990 432.000
25.09985 394.000
25.11980 374.000
25.13974 397.000
25.15969 400.000
25.17964 413.000
25.19958 411.000
25.21953 395.000
25.23948 404.000
25.25943 430.000
25.27937 399.000
25.29932 375.000
25.31927 377.000
25.33921 445.000
25.35916 402.000
25.37911 434.000
25.39905 409.000
25.41900 404.000
25.43895 378.000
25.45890 406.000
25.47884 383.000
25.49879 409.000
25.51874 391.000
25.53868 420.000
25.55863 424.000
25.57858 433.000
25.59852 411.000
25.61847 431.000
25.63842 431.000
25.65837 419.000
25.67831 360.000
25.69826 436.000
25.71821 422.000
25.73815 444.000
25.75810 434.000
25.77805 370.000
25.79799 388.000
25.81794 426.000
25.83789 414.000
25.85783 438.000
25.87778 410.000
25.89773 456.000
25.91768 401.000
25.93762 450.000
25.95757 492.000
25.97752 450.000
25.99746 438.000
26.01741 465.000
26.03736 429.000
26.05730 413.000
26.07725 422.000
26.09720 443.000
26.11715 423.000
26.13709 411.000
26.15704 409.000
26.17699 460.000
26.19693 441.000
26.21688 405.000
26.23683 432.000
26.25677 465.000
26.27672 435.000
26.29667 464.000
26.31661 460.000
26.33656 455.000
26.35651 452.000
26.37646 473.000
26.39640 476.000
26.41635 473.000
26.43630 468.000
26.45624 456.000
26.47619 437.000
26.49614 440.000
26.51608 468.000
26.53603 454.000
26.55598 495.000
26.57593 474.000
26.59587 446.000
26.61582 498.000
26.63577 455.000
26.65571 464.000
26.67566 463.000
26.69561 489.000
26.71555 476.000
26.73550 476.000
26.75545 523.000
26.77539 489.000
26.79534 481.000
26.81529 478.000
26.83524 502.000
26.85518 471.000
26.87513 464.000
26.89508 473.000
26.91502 478.000
26.93497 484.000
26.95492 482.000
26.97486 465.000
26.99481 482.000
27.01476 489.000
27.03471 477.000
27.05465 483.000
27.07460 471.000
27.09455 494.000
27.11449 480.000
27.13444 470.000
27.15439 507.000
27.17433 537.000
27.19428 505.000
27.21423 495.000
27.23417 528.000
27.25412 513.000
27.27407 568.000
27.29402 500.000
27.31396 535.000
27.33391 519.000
27.35386 528.000
27.37380 468.000
27.39375 506.000
27.41370 495.000
27.43364 486.000
27.45359 510.000
27.47354 477.000
27.49349 489.000
27.51343 540.000
27.53338 500.000
27.55333 558.000
27.57327 542.000
27.59322 522.000
27.61317 517.000
27.63311 533.000
27.65306 512.000
27.67301 526.000
27.69296 544.000
27.71290 553.000
27.73285 558.000
27.75280 494.000
27.77274 498.000
27.79269 536.000
27.81264 515.000
27.83258 565.000
27.85253 523.000
27.87248 496.000
27.89242 555.000
27.91237 526.000
27.93232 568.000
27.95227 531.000
27.97221 511.000
27.99216 542.000
28.01211 518.000
28.03205 524.000
28.05200 526.000
28.07195 550.000
28.09189 561.000
28.11184 613.000
28.13179 566.000
28.15174 569.000
28.17168 548.000
28.19163 562.000
28.21158 531.000
28.23152 570.000
28.25147 560.000
28.27142 540.000
28.29136 539.000
28.31131 584.000
28.33126 558.000
28.35120 603.000
28.37115 555.000
28.39110 540.000
28.41105 576.000
28.43099 536.000
28.45094 578.000
28.47089 544.000
28.49083 542.000
28.51078 587.000
28.53073 597.000
28.55067 586.000
28.57062 554.000
28.59057 555.000
28.61052 629.000
28.63046 549.000
28.65041 542.000
28.67036 561.000
28.69030 581.000
28.71025 594.000
28.73020 600.000
28.75014 603.000
28.77009 536.000
28.79004 585.000
28.80998 605.000
28.82993 584.000
28.84988 582.000
28.86983 590.000
28.88977 561.000
28.90972 565.000
28.92967 591.000
28.94961 582.000
28.96956 579.000
28.98951 610.000
29.00945 614.000
29.02940 622.000
29.04935 556.000
29.06930 598.000
29.08924 554.000
29.10919 578.000
29.12914 590.000
29.14908 581.000
29.16903 601.000
29.18898 564.000
29.20892 648.000
29.22887 591.000
29.24882 573.000
29.26877 627.000
29.28871 590.000
29.30866 603.000
29.32861 557.000
29.34855 608.000
29.36850 575.000
29.38845 612.000
29.40839 579.000
29.42834 589.000
29.44829 614.000
29.46823 607.000
29.48818 585.000
29.50813 659.000
29.52808 634.000
29.54802 601.000
29.56797 574.000
29.58792 571.000
29.60786 627.000
29.62781 603.000
29.64776 632.000
29.66770 631.000
29.68765 612.000
29.70760 624.000
29.72755 618.000
29.74749 615.000
29.76744 561.000
29.78739 601.000
29.80733 598.000
29.82728 617.000
29.84723 615.000
29.86717 620.000
29.88712 613.000
29.90707 602.000
29.92701 602.000
29.94696 577.000
29.96691 565.000
29.98686 592.000
30.00680 598.000
30.02675 612.000
30.04670 604.000
30.06664 624.000
30.08659 638.000
30.10654 650.000
30.12648 671.000
30.14643 666.000
30.16638 658.000
30.18633 688.000
30.20627 694.000
30.22622 734.000
30.24617 705.000
30.26611 835.000
30.28606 1036.000
30.30601 1285.000
30.32595 1337.000
30.34590 1146.000
30.36585 997.000
30.38579 1102.000
30.40574 976.000
30.42569 840.000
30.44564 696.000
30.46558 607.000
30.48553 644.000
30.50548 640.000
30.52542 637.000
30.54537 607.000
30.56532 589.000
30.58526 599.000
30.60521 596.000
30.62516 615.000
30.64511 609.000
30.66505 579.000
30.68500 617.000
30.70495 618.000
30.72489 618.000
30.74484 577.000
30.76479 586.000
30.78473 607.000
30.80468 572.000
30.82463 608.000
30.84458 630.000
30.86452 622.000
30.88447 573.000
30.90442 612.000
30.92436 601.000
30.94431 604.000
30.96426 613.000
30.98420 593.000
31.00415 597.000
31.02410 605.000
31.04404 551.000
31.06399 590.000
31.08394 622.000
31.10389 598.000
31.12383 607.000
31.14378 646.000
31.16373 608.000
31.18367 609.000
31.20362 570.000
31.22357 607.000
31.24351 642.000
31.26346 621.000
31.28341 634.000
31.30336 569.000
31.32330 608.000
31.34325 561.000
31.36320 616.000
31.38314 645.000
31.40309 600.000
31.42304 602.000
31.44298 630.000
31.46293 569.000
31.48288 609.000
31.50282 602.000
31.52277 582.000
31.54272 579.000
31.56267 631.000
31.58261 606.000
31.60256 631.000
31.62251 597.000
31.64245 604.000
31.66240 604.000
31.68235 525.000
31.70229 625.000
31.72224 568.000
31.74219 606.000
31.76214 620.000
31.78208 566.000
31.80203 572.000
31.82198 588.000
31.84192 627.000
31.86187 610.000
31.88182 529.000
31.90176 604.000
31.92171 583.000
31.94166 595.000
31.96160 598.000
31.98155 589.000
32.00150 602.000
32.02145 578.000
32.04139 526.000
32.06134 588.000
32.08129 576.000
32.10123 614.000
32.12118 563.000
32.14113 569.000
32.16107 543.000
32.18102 569.000
32.20097 586.000
32.22092 603.000
32.24086 622.000
32.26081 624.000
32.28076 561.000
32.30070 628.000
32.32065 598.000
32.34060 594.000
32.36054 595.000
32.38049 587.000
32.40044 594.000
32.42039 635.000
32.44033 640.000
32.46028 630.000
32.48023 632.000
32.50017 619.000
32.52012 659.000
32.54007 681.000
32.56001 607.000
32.57996 623.000
32.59991 622.000
32.61985 607.000
32.63980 577.000
32.65975 579.000
32.67970 556.000
32.69964 568.000
32.71959 586.000
32.73954 582.000
32.75948 543.000
32.77943 589.000
32.79938 605.000
32.81932 576.000
32.83927 564.000
32.85922 581.000
32.87917 512.000
32.89911 572.000
32.91906 554.000
32.93901 517.000
32.95895 622.000
32.97890 583.000
32.99885 583.000
33.01879 586.000
33.03874 549.000
33.05869 553.000
33.07863 538.000
33.09858 556.000
33.11853 577.000
33.13848 532.000
33.15842 536.000
33.17837 553.000
33.19832 560.000
33.21826 563.000
33.23821 573.000
33.25816 567.000
33.27810 589.000
33.29805 523.000
33.31800 502.000
33.33795 540.000
33.35789 521.000
33.37784 572.000
33.39779 539.000
33.41773 580.000
33.43768 558.000
33.45763 565.000
33.47757 586.000
33.49752 548.000
33.51747 546.000
33.53741 523.000
33.55736 541.000
33.57731 589.000
33.59726 546.000
33.61720 560.000
33.63715 547.000
33.65710 553.000
33.67704 545.000
33.69699 537.000
33.71694 552.000
33.73688 523.000
33.75683 505.000
33.77678 517.000
33.79673 550.000
33.81667 572.000
33.83662 545.000
33.85657 541.000
33.87651 549.000
33.89646 525.000
33.91641 549.000
33.93635 564.000
33.95630 518.000
33.97625 526.000
33.99620 538.000
34.01614 525.000
34.03609 553.000
34.05604 533.000
34.07598 560.000
34.09593 521.000
34.11588 550.000
34.13582 555.000
34.15577 535.000
34.17572 530.000
34.19566 526.000
34.21561 507.000
34.23556 523.000
34.25551 538.000
34.27545 587.000
34.29540 539.000
34.31535 574.000
34.33529 535.000
34.35524 557.000
34.37519 540.000
34.39513 549.000
34.41508 564.000
34.43503 628.000
34.45498 548.000
34.47492 571.000
34.49487 532.000
34.51482 565.000
34.53476 553.000
34.55471 625.000
34.57466 609.000
34.59460 661.000
34.61455 703.000
34.63450 706.000
34.65444 708.000
34.67439 745.000
34.69434 774.000
34.71429 790.000
34.73423 758.000
34.75418 731.000
34.77413 766.000
34.79407 701.000
34.81402 760.000
34.83397 692.000
34.85391 662.000
34.87386 639.000
34.89381 651.000
34.91376 622.000
34.93370 651.000
34.95365 616.000
34.97360 661.000
34.99354 680.000
35.01349 626.000
35.03344 634.000
35.05338 622.000
35.07333 668.000
35.09328 639.000
35.11322 638.000
35.13317 690.000
35.15312 659.000
35.17307 659.000
35.19301 664.000
35.21296 620.000
35.23291 639.000
35.25285 717.000
35.27280 662.000
35.29275 742.000
35.31269 748.000
35.33264 781.000
35.35259 831.000
35.37254 802.000
35.39248 819.000
35.41243 872.000
35.43238 981.000
35.45232 1034.000
35.47227 1026.000
35.49222 1149.000
35.51216 1172.000
35.53211 1406.000
35.55206 1384.000
35.57201 1412.000
35.59195 1314.000
35.61190 1337.000
35.63185 1473.000
35.65179 1771.000
35.67174 2262.000
35.69169 2713.000
35.71163 2741.000
35.73158 2146.000
35.75153 1701.000
35.77147 1650.000
35.79142 1863.000
35.81137 1484.000
35.83132 1138.000
35.85126 876.000
35.87121 752.000
35.89116 671.000
35.91110 674.000
35.93105 623.000
35.95100 552.000
35.97094 592.000
35.99089 600.000
36.01084 541.000
36.03079 553.000
36.05073 529.000
36.07068 563.000
36.09063 533.000
36.11057 515.000
36.13052 506.000
36.15047 519.000
36.17041 546.000
36.19036 547.000
36.21031 540.000
36.23025 527.000
36.25020 547.000
36.27015 506.000
36.29010 512.000
36.31004 519.000
36.32999 538.000
36.34994 566.000
36.36988 528.000
36.38983 517.000
36.40978 541.000
36.42972 549.000
36.44967 539.000
36.46962 526.000
36.48957 535.000
36.50951 549.000
36.52946 578.000
36.54941 539.000
36.56935 574.000
36.58930 542.000
36.60925 553.000
36.62919 511.000
36.64914 574.000
36.66909 557.000
36.68903 565.000
36.70898 526.000
36.72893 529.000
36.74888 505.000
36.76882 549.000
36.78877 523.000
36.80872 566.000
36.82866 550.000
36.84861 545.000
36.86856 540.000
36.88850 575.000
36.90845 553.000
36.92840 610.000
36.94835 569.000
36.96829 601.000
36.98824 592.000
37.00819 699.000
37.02813 670.000
37.04808 721.000
37.06803 803.000
37.08797 945.000
37.10792 1002.000
37.12787 1155.000
37.14781 1318.000
37.16776 1319.000
37.18771 1305.000
37.20766 1246.000
37.22760 1207.000
37.24755 1138.000
37.26750 1022.000
37.28744 917.000
37.30739 858.000
37.32734 882.000
37.34728 822.000
37.36723 691.000
37.38718 654.000
37.40713 635.000
37.42707 630.000
37.44702 669.000
37.46697 623.000
37.48691 528.000
37.50686 504.000
37.52681 479.000
37.54675 499.000
37.56670 479.000
37.58665 487.000
37.60660 497.000
37.62654 489.000
37.64649 550.000
37.66644 435.000
37.68638 495.000
37.70633 502.000
37.72628 512.000
37.74622 502.000
37.76617 483.000
37.78612 481.000
37.80606 488.000
37.82601 481.000
37.84596 495.000
37.86591 500.000
37.88585 532.000
37.90580 483.000
37.92575 481.000
37.94569 520.000
37.96564 490.000
37.98559 528.000
38.00553 507.000
38.02548 458.000
38.04543 514.000
38.06538 538.000
38.08532 489.000
38.10527 515.000
38.12522 564.000
38.14516 530.000
38.16511 496.000
38.18506 519.000
38.20500 554.000
38.22495 541.000
38.24490 520.000
38.26484 512.000
38.28479 526.000
38.30474 603.000
38.32469 562.000
38.34463 558.000
38.36458 570.000
38.38453 569.000
38.40447 690.000
38.42442 589.000
38.44437 614.000
38.46431 639.000
38.48426 633.000
38.50421 704.000
38.52416 736.000
38.54410 749.000
38.56405 801.000
38.58400 933.000
38.60394 959.000
38.62389 945.000
38.64384 1065.000
38.66378 1060.000
38.68373 1035.000
38.70368 980.000
38.72362 930.000
38.74357 917.000
38.76352 802.000
38.78347 830.000
38.80341 725.000
38.82336 692.000
38.84331 720.000
38.86325 665.000
38.88320 611.000
38.90315 605.000
38.92309 632.000
38.94304 591.000
38.96299 622.000
38.98294 609.000
39.00288 578.000
39.02283 635.000
39.04278 670.000
39.06272 656.000
39.08267 633.000
39.10262 607.000
39.12256 660.000
39.14251 584.000
39.16246 558.000
39.18241 633.000
39.20235 564.000
39.22230 579.000
39.24225 544.000
39.26219 563.000
39.28214 503.000
39.30209 523.000
39.32203 523.000
39.34198 516.000
39.36193 483.000
39.38187 509.000
39.40182 501.000
39.42177 484.000
39.44172 514.000
39.46166 483.000
39.48161 493.000
39.50156 524.000
39.52150 467.000
39.54145 540.000
39.56140 527.000
39.58134 483.000
39.60129 514.000
39.62124 519.000
39.64119 480.000
39.66113 481.000
39.68108 481.000
39.70103 465.000
39.72097 518.000
39.74092 454.000
39.76087 463.000
39.78081 521.000
39.80076 479.000
39.82071 515.000
39.84065 482.000
39.86060 496.000
39.88055 481.000
39.90050 459.000
39.92044 459.000
39.94039 468.000
39.96034 503.000
39.98028 508.000
40.00023 475.000
40.02018 427.000
40.04012 467.000
40.06007 497.000
40.08002 460.000
40.09997 494.000
40.11991 474.000
40.13986 483.000
40.15981 455.000
40.17975 469.000
40.19970 515.000
40.21965 447.000
40.23959 497.000
40.25954 506.000
40.27949 467.000
40.29943 457.000
40.31938 439.000
40.33933 484.000
40.35928 517.000
40.37922 487.000
40.39917 485.000
40.41912 515.000
40.43906 519.000
40.45901 510.000
40.47896 490.000
40.49890 464.000
40.51885 488.000
40.53880 498.000
40.55875 461.000
40.57869 452.000
40.59864 499.000
40.61859 442.000
40.63853 502.000
40.65848 476.000
40.67843 492.000
40.69837 463.000
40.71832 460.000
40.73827 485.000
40.75822 466.000
40.77816 454.000
40.79811 489.000
40.81806 492.000
40.83800 511.000
40.85795 476.000
40.87790 472.000
40.89784 483.000
40.91779 497.000
40.93774 527.000
40.95768 478.000
40.97763 491.000
40.99758 486.000
41.01753 443.000
41.03747 482.000
41.05742 456.000
41.07737 455.000
41.09731 469.000
41.11726 456.000
41.13721 447.000
41.15715 433.000
41.17710 429.000
41.19705 459.000
41.21700 473.000
41.23694 479.000
41.25689 446.000
41.27684 494.000
41.29678 458.000
41.31673 450.000
41.33668 444.000
41.35662 476.000
41.37657 485.000
41.39652 480.000
41.41646 453.000
41.43641 473.000
41.45636 498.000
41.47631 453.000
41.49625 496.000
41.51620 443.000
41.53615 486.000
41.55609 450.000
41.57604 454.000
41.59599 463.000
41.61593 455.000
41.63588 477.000
41.65583 470.000
41.67578 468.000
41.69572 460.000
41.71567 491.000
41.73562 451.000
41.75556 484.000
41.77551 493.000
41.79546 489.000
41.81540 484.000
41.83535 473.000
41.85530 490.000
41.87524 451.000
41.89519 477.000
41.91514 476.000
41.93509 491.000
41.95503 477.000
41.97498 495.000
41.99493 505.000
42.01487 469.000
42.03482 463.000
42.05477 426.000
42.07471 420.000
42.09466 474.000
42.11461 470.000
42.13456 446.000
42.15450 517.000
42.17445 464.000
42.19440 481.000
42.21434 461.000
42.23429 517.000
42.25424 496.000
42.27418 535.000
42.29413 475.000
42.31408 530.000
42.33403 443.000
42.35397 528.000
42.37392 506.000
42.39387 510.000
42.41381 501.000
42.43376 508.000
42.45371 529.000
42.47365 464.000
42.49360 458.000
42.51355 499.000
42.53349 529.000
42.55344 529.000
42.57339 540.000
42.59334 521.000
42.61328 549.000
42.63323 509.000
42.65318 585.000
42.67312 554.000
42.69307 539.000
42.71302 568.000
42.73296 581.000
42.75291 580.000
42.77286 577.000
42.79281 619.000
42.81275 602.000
42.83270 636.000
42.85265 620.000
42.87259 664.000
42.89254 638.000
42.91249 653.000
42.93243 677.000
42.95238 775.000
42.97233 765.000
42.99227 860.000
43.01222 840.000
43.03217 956.000
43.05212 939.000
43.07206 969.000
43.09201 1009.000
43.11196 1097.000
43.13190 1200.000
43.15185 1269.000
43.17180 1315.000
43.19174 1335.000
43.21169 1412.000
43.23164 1366.000
43.25159 1292.000
43.27153 1235.000
43.29148 1173.000
43.31143 1226.000
43.33137 1184.000
43.35132 1271.000
43.37127 1297.000
43.39121 1289.000
43.41116 1182.000
43.43111 990.000
43.45105 897.000
43.47100 845.000
43.49095 811.000
43.51090 810.000
43.53084 704.000
43.55079 619.000
43.57074 564.000
43.59068 488.000
43.61063 560.000
43.63058 510.000
43.65052 474.000
43.67047 500.000
43.69042 456.000
43.71037 517.000
43.73031 464.000
43.75026 463.000
43.77021 471.000
43.79015 471.000
43.81010 426.000
43.83005 485.000
43.84999 458.000
43.86994 508.000
43.88989 429.000
43.90984 440.000
43.92978 451.000
43.94973 449.000
43.96968 437.000
43.98962 444.000
44.00957 491.000
44.02952 451.000
44.04946 469.000
44.06941 472.000
44.08936 470.000
44.10930 471.000
44.12925 438.000
44.14920 408.000
44.16915 410.000
44.18909 479.000
44.20904 371.000
44.22899 387.000
44.24893 423.000
44.26888 423.000
44.28883 424.000
44.30877 434.000
44.32872 385.000
44.34867 432.000
44.36862 430.000
44.38856 420.000
44.40851 420.000
44.42846 478.000
44.44840 419.000
44.46835 421.000
44.48830 431.000
44.50824 442.000
44.52819 417.000
44.54814 432.000
44.56808 449.000
44.58803 444.000
44.60798 454.000
44.62793 438.000
44.64787 380.000
44.66782 397.000
44.68777 411.000
44.70771 438.000
44.72766 412.000
44.74761 415.000
44.76755 368.000
44.78750 419.000
44.80745 420.000
44.82740 417.000
44.84734 440.000
44.86729 447.000
44.88724 417.000
44.90718 409.000
44.92713 392.000
44.94708 407.000
44.96702 403.000
44.98697 409.000
45.00692 406.000
45.02686 424.000
45.04681 440.000
45.06676 420.000
45.08671 422.000
45.10665 369.000
45.12660 389.000
45.14655 426.000
45.16649 433.000
45.18644 421.000
45.20639 406.000
45.22633 458.000
45.24628 417.000
45.26623 405.000
45.28618 394.000
45.30612 419.000
45.32607 379.000
45.34602 380.000
45.36596 438.000
45.38591 366.000
45.40586 406.000
45.42580 412.000
45.44575 393.000
45.46570 408.000
45.48565 442.000
45.50559 390.000
45.52554 394.000
45.54549 416.000
45.56543 372.000
45.58538 406.000
45.60533 361.000
45.62527 368.000
45.64522 436.000
45.66517 405.000
45.68511 398.000
45.70506 439.000
45.72501 409.000
45.74496 406.000
45.76490 376.000
45.78485 387.000
45.80480 406.000
45.82474 358.000
45.84469 400.000
45.86464 406.000
45.88458 420.000
45.90453 408.000
45.92448 422.000
45.94443 384.000
45.96437 404.000
45.98432 388.000
46.00427 391.000
46.02421 430.000
46.04416 426.000
46.06411 366.000
46.08405 393.000
46.10400 381.000
46.12395 417.000
46.14389 375.000
46.16384 397.000
46.18379 394.000
46.20374 380.000
46.22368 394.000
46.24363 390.000
46.26358 404.000
46.28352 403.000
46.30347 438.000
46.32342 401.000
46.34336 379.000
46.36331 408.000
46.38326 399.000
46.40321 395.000
46.42315 393.000
46.44310 400.000
46.46305 383.000
46.48299 395.000
46.50294 396.000
46.52289 402.000
46.54283 387.000
46.56278 399.000
46.58273 376.000
46.60267 395.000
46.62262 389.000
46.64257 341.000
46.66252 406.000
46.68246 363.000
46.70241 410.000
46.72236 408.000
46.74230 362.000
46.76225 426.000
46.78220 398.000
46.80214 381.000
46.82209 389.000
46.84204 382.000
46.86199 352.000
46.88193 359.000
46.90188 378.000
46.92183 360.000
46.94177 380.000
46.96172 375.000
46.98167 365.000
47.00161 375.000
47.02156 381.000
47.04151 396.000
47.06146 403.000
47.08140 392.000
47.10135 372.000
47.12130 351.000
47.14124 356.000
47.16119 387.000
47.18114 384.000
47.20108 348.000
47.22103 344.000
47.24098 378.000
47.26092 398.000
47.28087 350.000
47.30082 400.000
47.32077 369.000
47.34071 367.000
47.36066 384.000
47.38061 381.000
47.40055 366.000
47.42050 371.000
47.44045 366.000
47.46039 367.000
47.48034 394.000
47.50029 392.000
47.52024 400.000
47.54018 372.000
47.56013 388.000
47.58008 361.000
47.60002 363.000
47.61997 389.000
47.63992 395.000
47.65986 366.000
47.67981 397.000
47.69976 371.000
47.71970 369.000
47.73965 385.000
47.75960 368.000
47.77955 386.000
47.79949 379.000
47.81944 337.000
47.83939 358.000
47.85933 358.000
47.87928 363.000
47.89923 341.000
47.91917 378.000
47.93912 382.000
47.95907 365.000
47.97902 394.000
47.99896 363.000
48.01891 387.000
48.03886 394.000
48.05880 376.000
48.07875 349.000
48.09870 335.000
48.11864 370.000
48.13859 377.000
48.15854 373.000
48.17848 343.000
48.19843 352.000
48.21838 383.000
48.23833 366.000
48.25827 390.000
48.27822 382.000
48.29817 361.000
48.31811 351.000
48.33806 412.000
48.35801 388.000
48.37795 364.000
48.39790 373.000
48.41785 376.000
48.43780 395.000
48.45774 385.000
48.47769 391.000
48.49764 384.000
48.51758 417.000
48.53753 372.000
48.55748 382.000
48.57742 365.000
48.59737 368.000
48.61732 375.000
48.63726 393.000
48.65721 410.000
48.67716 378.000
48.69711 381.000
48.71705 421.000
48.73700 387.000
48.75695 392.000
48.77689 399.000
48.79684 411.000
48.81679 423.000
48.83673 418.000
48.85668 391.000
48.87663 415.000
48.89658 471.000
48.91652 511.000
48.93647 434.000
48.95642 478.000
48.97636 505.000
48.99631 484.000
49.01626 522.000
49.03620 488.000
49.05615 472.000
49.07610 446.000
49.09605 426.000
49.11599 405.000
49.13594 434.000
49.15589 403.000
49.17583 412.000
49.19578 370.000
49.21573 381.000
49.23567 392.000
49.25562 369.000
49.27557 372.000
49.29551 374.000
49.31546 369.000
49.33541 399.000
49.35536 419.000
49.37530 383.000
49.39525 349.000
49.41520 366.000
49.43514 371.000
49.45509 350.000
49.47504 356.000
49.49498 335.000
49.51493 371.000
49.53488 337.000
49.55483 395.000
49.57477 390.000
49.59472 372.000
49.61467 368.000
49.63461 362.000
49.65456 337.000
49.67451 364.000
49.69445 358.000
49.71440 330.000
49.73435 363.000
49.75429 319.000
49.77424 350.000
49.79419 376.000
49.81414 346.000
49.83408 361.000
49.85403 387.000
49.87398 380.000
49.89392 352.000
49.91387 373.000
49.93382 373.000
49.95376 366.000
49.97371 358.000
49.99366 327.000
50.01361 373.000
50.03355 351.000
50.05350 360.000
50.07345 400.000
50.09339 329.000
50.11334 371.000
50.13329 374.000
50.15323 383.000
50.17318 385.000
50.19313 356.000
50.21307 338.000
50.23302 333.000
50.25297 361.000
50.27292 329.000
50.29286 334.000
50.31281 373.000
50.33276 324.000
50.35270 347.000
50.37265 360.000
50.39260 349.000
50.41254 359.000
50.43249 353.000
50.45244 378.000
50.47239 336.000
50.49233 315.000
50.51228 332.000
50.53223 361.000
50.55217 364.000
50.57212 354.000
50.59207 382.000
50.61201 322.000
50.63196 352.000
50.65191 329.000
50.67186 368.000
50.69180 356.000
50.71175 397.000
50.73170 361.000
50.75164 342.000
50.77159 323.000
50.79154 371.000
50.81148 333.000
50.83143 324.000
50.85138 394.000
50.87132 349.000
50.89127 322.000
50.91122 345.000
50.93117 342.000
50.95111 327.000
50.97106 312.000
50.99101 356.000
51.01095 373.000
51.03090 332.000
51.05085 345.000
51.07079 347.000
51.09074 358.000
51.11069 338.000
51.13064 341.000
51.15058 331.000
51.17053 354.000
51.19048 336.000
51.21042 337.000
51.23037 328.000
51.25032 344.000
51.27026 335.000
51.29021 363.000
51.31016 330.000
51.33010 326.000
51.35005 353.000
51.37000 376.000
51.38995 305.000
51.40989 311.000
51.42984 382.000
51.44979 327.000
51.46973 356.000
51.48968 334.000
51.50963 342.000
51.52957 346.000
51.54952 361.000
51.56947 356.000
51.58942 352.000
51.60936 323.000
51.62931 311.000
51.64926 338.000
51.66920 325.000
51.68915 361.000
51.70910 355.000
51.72904 326.000
51.74899 349.000
51.76894 316.000
51.78888 339.000
51.80883 354.000
51.82878 362.000
51.84873 349.000
51.86867 317.000
51.88862 384.000
51.90857 348.000
51.92851 349.000
51.94846 299.000
51.96841 330.000
51.98835 344.000
52.00830 301.000
52.02825 355.000
52.04820 335.000
52.06814 328.000
52.08809 344.000
52.10804 353.000
52.12798 326.000
52.14793 340.000
52.16788 335.000
52.18782 357.000
52.20777 330.000
52.22772 327.000
52.24767 344.000
52.26761 381.000
52.28756 334.000
52.30751 325.000
52.32745 329.000
52.34740 344.000
52.36735 344.000
52.38729 327.000
52.40724 326.000
52.42719 347.000
52.44713 357.000
52.46708 323.000
52.48703 362.000
52.50698 321.000
52.52692 355.000
52.54687 326.000
52.56682 344.000
52.58676 324.000
52.60671 321.000
52.62666 357.000
52.64660 358.000
52.66655 340.000
52.68650 340.000
52.70645 339.000
52.72639 321.000
52.74634 338.000
52.76629 313.000
52.78623 346.000
52.80618 329.000
52.82613 329.000
52.84607 366.000
52.86602 319.000
52.88597 317.000
52.90591 331.000
52.92586 347.000
52.94581 339.000
52.96576 356.000
52.98570 358.000
53.00565 379.000
53.02560 359.000
53.04554 338.000
53.06549 342.000
53.08544 391.000
53.10538 349.000
53.12533 404.000
53.14528 394.000
53.16523 358.000
53.18517 350.000
53.20512 398.000
53.22507 395.000
53.24501 359.000
53.26496 382.000
53.28491 370.000
53.30485 394.000
53.32480 364.000
53.34475 390.000
53.36469 367.000
53.38464 397.000
53.40459 363.000
53.42454 349.000
53.44448 358.000
53.46443 328.000
53.48438 370.000
53.50432 361.000
53.52427 375.000
53.54422 360.000
53.56416 378.000
53.58411 336.000
53.60406 329.000
53.62401 358.000
53.64395 373.000
53.66390 337.000
53.68385 368.000
53.70379 366.000
53.72374 401.000
53.74369 397.000
53.76363 417.000
53.78358 444.000
53.80353 512.000
53.82348 490.000
53.84342 502.000
53.86337 432.000
53.88332 371.000
53.90326 365.000
53.92321 396.000
53.94316 406.000
53.96310 441.000
53.98305 441.000
54.00300 391.000
54.02294 369.000
54.04289 356.000
54.06284 369.000
54.08279 336.000
54.10273 311.000
54.12268 346.000
54.14263 325.000
54.16257 332.000
54.18252 373.000
54.20247 335.000
54.22241 312.000
54.24236 325.000
54.26231 310.000
54.28226 319.000
54.30220 350.000
54.32215 322.000
54.34210 325.000
54.36204 328.000
54.38199 322.000
54.40194 352.000
54.42188 339.000
54.44183 339.000
54.46178 310.000
54.48172 338.000
54.50167 347.000
54.52162 348.000
54.54157 348.000
54.56151 308.000
54.58146 326.000
54.60141 337.000
54.62135 353.000
54.64130 321.000
54.66125 340.000
54.68119 364.000
54.70114 340.000
54.72109 317.000
54.74104 318.000
54.76098 339.000
54.78093 328.000
54.80088 290.000
54.82082 332.000
54.84077 370.000
54.86072 310.000
54.88066 325.000
54.90061 363.000
54.92056 315.000
54.94050 364.000
54.96045 313.000
54.98040 333.000
55.00035 320.000
55.02029 323.000
55.04024 329.000
55.06019 324.000
55.08013 322.000
55.10008 335.000
55.12003 321.000
55.13997 346.000
55.15992 305.000
55.17987 321.000
55.19982 330.000
55.21976 310.000
55.23971 312.000
55.25966 368.000
55.27960 300.000
55.29955 336.000
55.31950 341.000
55.33944 287.000
55.35939 321.000
55.37934 314.000
55.39929 345.000
55.41923 372.000
55.43918 323.000
55.45913 318.000
55.47907 322.000
55.49902 330.000
55.51897 322.000
55.53891 345.000
55.55886 332.000
55.57881 330.000
55.59875 306.000
55.61870 350.000
55.63865 311.000
55.65860 309.000
55.67854 335.000
55.69849 356.000
55.71844 337.000
55.73838 337.000
55.75833 297.000
55.77828 289.000
55.79822 336.000
55.81817 327.000
55.83812 318.000
55.85807 314.000
55.87801 303.000
55.89796 349.000
55.91791 358.000
55.93785 336.000
55.95780 310.000
55.97775 296.000
55.99769 327.000
56.01764 331.000
56.03759 318.000
56.05753 325.000
56.07748 298.000
56.09743 373.000
56.11738 332.000
56.13732 364.000
56.15727 320.000
56.17722 299.000
56.19716 317.000
56.21711 348.000
56.23706 288.000
56.25700 279.000
56.27695 324.000
56.29690 332.000
56.31685 349.000
56.33679 366.000
56.35674 315.000
56.37669 324.000
56.39663 355.000
56.41658 361.000
56.43653 338.000
56.45647 348.000
56.47642 323.000
56.49637 304.000
56.51631 340.000
56.53626 340.000
56.55621 327.000
56.57616 331.000
56.59610 348.000
56.61605 319.000
56.63600 352.000
56.65594 332.000
56.67589 342.000
56.69584 341.000
56.71578 344.000
56.73573 321.000
56.75568 321.000
56.77563 365.000
56.79557 369.000
56.81552 373.000
56.83547 369.000
56.85541 365.000
56.87536 355.000
56.89531 369.000
56.91525 348.000
56.93520 386.000
56.95515 390.000
56.97510 348.000
56.99504 321.000
57.01499 366.000
57.03494 339.000
57.05488 375.000
57.07483 357.000
57.09478 377.000
57.11472 371.000
57.13467 388.000
57.15462 407.000
57.17456 369.000
57.19451 358.000
57.21446 351.000
57.23441 410.000
57.25435 434.000
57.27430 469.000
57.29425 491.000
57.31419 561.000
57.33414 689.000
57.35409 812.000
57.37403 905.000
57.39398 832.000
57.41393 707.000
57.43388 606.000
57.45382 541.000
57.47377 546.000
57.49372 530.000
57.51366 592.000
57.53361 577.000
57.55356 553.000
57.57350 516.000
57.59345 420.000
57.61340 415.000
57.63334 354.000
57.65329 361.000
57.67324 380.000
57.69319 368.000
57.71313 403.000
57.73308 341.000
57.75303 314.000
57.77297 391.000
57.79292 350.000
57.81287 341.000
57.83281 350.000
57.85276 361.000
57.87271 317.000
57.89266 301.000
57.91260 357.000
57.93255 368.000
57.95250 341.000
57.97244 321.000
57.99239 349.000
58.01234 309.000
58.03228 351.000
58.05223 348.000
58.07218 355.000
58.09212 375.000
58.11207 361.000
58.13202 376.000
58.15197 365.000
58.17191 400.000
58.19186 352.000
58.21181 339.000
58.23175 383.000
58.25170 408.000
58.27165 387.000
58.29159 406.000
58.31154 388.000
58.33149 373.000
58.35144 407.000
58.37138 376.000
58.39133 369.000
58.41128 381.000
58.43122 370.000
58.45117 404.000
58.47112 306.000
58.49106 350.000
58.51101 357.000
58.53096 354.000
58.55090 344.000
58.57085 380.000
58.59080 301.000
58.61075 329.000
58.63069 349.000
58.65064 320.000
58.67059 364.000
58.69053 309.000
58.71048 317.000
58.73043 309.000
58.75037 309.000
58.77032 340.000
58.79027 307.000
58.81022 323.000
58.83016 315.000
58.85011 329.000
58.87006 291.000
58.89000 313.000
58.90995 333.000
58.92990 326.000
58.94984 298.000
58.96979 321.000
58.98974 336.000
59.00969 340.000
59.02963 320.000
59.04958 329.000
59.06953 303.000
59.08947 306.000
59.10942 314.000
59.12937 314.000
59.14931 280.000
59.16926 333.000
59.18921 308.000
59.20915 296.000
59.22910 319.000
59.24905 307.000
59.26900 328.000
59.28894 293.000
59.30889 297.000
59.32884 286.000
59.34878 284.000
59.36873 323.000
59.38868 319.000
59.40862 293.000
59.42857 323.000
59.44852 364.000
59.46847 345.000
59.48841 293.000
59.50836 331.000
59.52831 311.000
59.54825 321.000
59.56820 309.000
59.58815 288.000
59.60809 300.000
59.62804 319.000
59.64799 327.000
59.66793 345.000
59.68788 301.000
59.70783 326.000
59.72778 286.000
59.74772 293.000
59.76767 324.000
59.78762 317.000
59.80756 308.000
59.82751 363.000
59.84746 317.000
59.86740 290.000
59.88735 322.000
59.90730 332.000
59.92725 290.000
59.94719 309.000
59.96714 336.000
59.98709 260.000
60.00703 342.000
60.02698 301.000
60.04693 318.000
60.06687 321.000
60.08682 299.000
60.10677 318.000
60.12671 308.000
60.14666 316.000
60.16661 322.000
60.18656 283.000
60.20650 333.000
60.22645 299.000
60.24640 316.000
60.26634 311.000
60.28629 314.000
60.30624 350.000
60.32618 313.000
60.34613 302.000
60.36608 300.000
60.38603 320.000
60.40597 350.000
60.42592 316.000
60.44587 328.000
60.46581 287.000
60.48576 315.000
60.50571 330.000
60.52565 313.000
60.54560 323.000
60.56555 334.000
60.58550 334.000
60.60544 327.000
60.62539 307.000
60.64534 327.000
60.66528 308.000
60.68523 299.000
60.70518 326.000
60.72512 308.000
60.74507 311.000
60.76502 310.000
60.78496 310.000
60.80491 316.000
60.82486 328.000
60.84481 299.000
60.86475 318.000
60.88470 326.000
60.90465 309.000
60.92459 342.000
60.94454 289.000
60.96449 339.000
60.98443 284.000
61.00438 297.000
61.02433 307.000
61.04428 314.000
61.06422 318.000
61.08417 324.000
61.10412 330.000
61.12406 322.000
61.14401 319.000
61.16396 339.000
61.18390 351.000
61.20385 315.000
61.22380 348.000
61.24374 311.000
61.26369 349.000
61.28364 312.000
61.30359 340.000
61.32353 313.000
61.34348 318.000
61.36343 335.000
61.38337 296.000
61.40332 362.000
61.42327 344.000
61.44321 366.000
61.46316 369.000
61.48311 393.000
61.50306 401.000
61.52300 387.000
61.54295 402.000
61.56290 418.000
61.58284 411.000
61.60279 417.000
61.62274 416.000
61.64268 399.000
61.66263 375.000
61.68258 376.000
61.70252 399.000
61.72247 405.000
61.74242 402.000
61.76237 369.000
61.78231 375.000
61.80226 393.000
61.82221 383.000
61.84215 422.000
61.86210 346.000
61.88205 344.000
61.90199 344.000
61.92194 372.000
61.94189 362.000
61.96184 345.000
61.98178 378.000
62.00173 358.000
62.02168 349.000
62.04162 367.000
62.06157 391.000
62.08152 409.000
62.10146 403.000
62.12141 372.000
62.14136 397.000
62.16131 371.000
62.18125 391.000
62.20120 412.000
62.22115 438.000
62.24109 396.000
62.26104 385.000
62.28099 423.000
62.30093 443.000
62.32088 467.000
62.34083 422.000
62.36077 460.000
62.38072 472.000
62.40067 465.000
62.42062 469.000
62.44056 493.000
62.46051 455.000
62.48046 508.000
62.50040 570.000
62.52035 539.000
62.54030 618.000
62.56024 652.000
62.58019 599.000
62.60014 686.000
62.62009 695.000
62.64003 709.000
62.65998 753.000
62.67993 727.000
62.69987 791.000
62.71982 770.000
62.73977 768.000
62.75971 799.000
62.77966 749.000
62.79961 764.000
62.81955 675.000
62.83950 682.000
62.85945 644.000
62.87940 659.000
62.89934 732.000
62.91929 709.000
62.93924 761.000
62.95918 875.000
62.97913 1057.000
62.99908 1170.000
63.01902 1165.000
63.03897 977.000
63.05892 790.000
63.07887 695.000
63.09881 607.000
63.11876 600.000
63.13871 639.000
63.15865 685.000
63.17860 760.000
63.19855 688.000
63.21849 656.000
63.23844 507.000
63.25839 446.000
63.27833 464.000
63.29828 393.000
63.31823 380.000
63.33818 338.000
63.35812 357.000
63.37807 355.000
63.39802 327.000
63.41796 322.000
63.43791 316.000
63.45786 335.000
63.47780 325.000
63.49775 350.000
63.51770 345.000
63.53765 320.000
63.55759 305.000
63.57754 353.000
63.59749 339.000
63.61743 325.000
63.63738 313.000
63.65733 292.000
63.67727 316.000
63.69722 307.000
63.71717 312.000
63.73712 314.000
63.75706 309.000
63.77701 307.000
63.79696 295.000
63.81690 322.000
63.83685 300.000
63.85680 281.000
63.87674 329.000
63.89669 308.000
63.91664 316.000
63.93658 290.000
63.95653 300.000
63.97648 299.000
63.99643 343.000
64.01637 326.000
64.03632 305.000
64.05627 302.000
64.07621 302.000
64.09616 316.000
64.11611 295.000
64.13605 309.000
64.15600 324.000
64.17595 325.000
64.19590 291.000
64.21584 321.000
64.23579 316.000
64.25574 328.000
64.27568 299.000
64.29563 288.000
64.31558 282.000
64.33552 267.000
64.35547 324.000
64.37542 329.000
64.39536 280.000
64.41531 304.000
64.43526 319.000
64.45521 320.000
64.47515 350.000
64.49510 306.000
64.51505 303.000
64.53499 308.000
64.55494 287.000
64.57489 308.000
64.59483 311.000
64.61478 298.000
64.63473 268.000
64.65468 293.000
64.67462 313.000
64.69457 293.000
64.71452 302.000
64.73446 307.000
64.75441 323.000
64.77436 288.000
64.79430 295.000
64.81425 345.000
64.83420 299.000
64.85414 285.000
64.87409 323.000
64.89404 298.000
64.91399 326.000
64.93393 322.000
64.95388 297.000
64.97383 315.000
64.99377 337.000
65.01372 325.000
65.03367 308.000
65.05361 304.000
65.07356 323.000
65.09351 328.000
65.11346 328.000
65.13340 319.000
65.15335 317.000
65.17330 338.000
65.19324 320.000
65.21319 328.000
65.23314 308.000
65.25308 297.000
65.27303 333.000
65.29298 321.000
65.31293 318.000
65.33287 321.000
65.35282 339.000
65.37277 324.000
65.39271 341.000
65.41266 354.000
65.43261 335.000
65.45255 323.000
65.47250 307.000
65.49245 331.000
65.51239 352.000
65.53234 347.000
65.55229 337.000
65.57224 394.000
65.59218 362.000
65.61213 366.000
65.63208 366.000
65.65202 346.000
65.67197 372.000
65.69192 344.000
65.71186 399.000
65.73181 339.000
65.75176 339.000
65.77171 334.000
65.79165 347.000
65.81160 345.000
65.83155 298.000
65.85149 358.000
65.87144 333.000
65.89139 300.000
65.91133 336.000
65.93128 324.000
65.95123 372.000
65.97117 331.000
65.99112 341.000
66.01107 341.000
66.03102 334.000
66.05096 322.000
66.07091 296.000
66.09086 325.000
66.11080 311.000
66.13075 372.000
66.15070 364.000
66.17064 314.000
66.19059 361.000
66.21054 356.000
66.23049 318.000
66.25043 354.000
66.27038 354.000
66.29033 337.000
66.31027 379.000
66.33022 332.000
66.35017 361.000
66.37011 369.000
66.39006 373.000
66.41001 374.000
66.42995 404.000
66.44990 358.000
66.46985 408.000
66.48980 378.000
66.50974 381.000
66.52969 333.000
66.54964 343.000
66.56958 367.000
66.58953 361.000
66.60948 370.000
66.62942 345.000
66.64937 359.000
66.66932 349.000
66.68927 316.000
66.70921 328.000
66.72916 354.000
66.74911 349.000
66.76905 338.000
66.78900 318.000
66.80895 328.000
66.82889 305.000
66.84884 306.000
66.86879 288.000
66.88874 326.000
66.90868 276.000
66.92863 302.000
66.94858 304.000
66.96852 311.000
66.98847 303.000
67.00842 289.000
67.02836 303.000
67.04831 317.000
67.06826 279.000
67.08820 306.000
67.10815 353.000
67.12810 319.000
67.14805 301.000
67.16799 283.000
67.18794 325.000
67.20789 293.000
67.22783 278.000
67.24778 315.000
67.26773 344.000
67.28767 295.000
67.30762 332.000
67.32757 334.000
67.34752 307.000
67.36746 325.000
67.38741 325.000
67.40736 311.000
67.42730 306.000
67.44725 330.000
67.46720 319.000
67.48714 327.000
67.50709 327.000
67.52704 289.000
67.54698 350.000
67.56693 320.000
67.58688 328.000
67.60683 336.000
67.62677 339.000
67.64672 343.000
67.66667 342.000
67.68661 329.000
67.70656 351.000
67.72651 370.000
67.74645 344.000
67.76640 366.000
67.78635 358.000
67.80630 373.000
67.82624 369.000
67.84619 368.000
67.86614 374.000
67.88608 383.000
67.90603 388.000
67.92598 397.000
67.94592 415.000
67.96587 416.000
67.98582 364.000
68.00576 377.000
68.02571 388.000
68.04566 378.000
68.06561 371.000
68.08555 359.000
68.10550 364.000
68.12545 353.000
68.14539 364.000
68.16534 353.000
68.18529 356.000
68.20523 312.000
68.22518 343.000
68.24513 323.000
68.26508 343.000
68.28502 316.000
68.30497 312.000
68.32492 307.000
68.34486 309.000
68.36481 331.000
68.38476 289.000
68.40470 317.000
68.42465 301.000
68.44460 309.000
68.46455 328.000
68.48449 325.000
68.50444 284.000
68.52439 314.000
68.54433 305.000
68.56428 312.000
68.58423 263.000
68.60417 285.000
68.62412 298.000
68.64407 284.000
68.66401 314.000
68.68396 299.000
68.70391 277.000
68.72386 298.000
68.74380 275.000
68.76375 330.000
68.78370 303.000
68.80364 285.000
68.82359 292.000
68.84354 311.000
68.86348 277.000
68.88343 285.000
68.90338 305.000
68.92333 273.000
68.94327 270.000
68.96322 308.000
68.98317 286.000
69.00311 279.000
69.02306 310.000
69.04301 270.000
69.06295 308.000
69.08290 315.000
69.10285 263.000
69.12279 314.000
69.14274 289.000
69.16269 273.000
69.18264 273.000
69.20258 274.000
69.22253 286.000
69.24248 307.000
69.26242 323.000
69.28237 294.000
69.30232 280.000
69.32226 294.000
69.34221 310.000
69.36216 267.000
69.38211 307.000
69.40205 278.000
69.42200 318.000
69.44195 276.000
69.46189 318.000
69.48184 275.000
69.50179 283.000
69.52173 263.000
69.54168 305.000
69.56163 290.000
69.58157 266.000
69.60152 304.000
69.62147 284.000
69.64142 246.000
69.66136 278.000
69.68131 290.000
69.70126 283.000
69.72120 291.000
69.74115 287.000
69.76110 280.000
69.78104 286.000
69.80099 299.000
69.82094 291.000
69.84089 301.000
69.86083 281.000
69.88078 284.000
69.90073 338.000
69.92067 288.000
69.94062 288.000
69.96057 280.000
69.98051 293.000
70.00046 253.000
70.02041 299.000
70.04035 290.000
70.06030 263.000
70.08025 281.000
70.10020 313.000
70.12014 280.000
70.14009 299.000
70.16004 288.000
70.17998 281.000
70.19993 274.000
70.21988 294.000
70.23982 272.000
70.25977 306.000
70.27972 264.000
70.29967 269.000
70.31961 287.000
70.33956 305.000
70.35951 323.000
70.37945 281.000
70.39940 293.000
70.41935 308.000
70.43929 294.000
70.45924 300.000
70.47919 261.000
70.49914 284.000
70.51908 283.000
70.53903 270.000
70.55898 288.000
70.57892 293.000
70.59887 283.000
70.61882 314.000
70.63876 290.000
70.65871 293.000
70.67866 277.000
70.69860 276.000
70.71855 297.000
70.73850 254.000
70.75845 261.000
70.77839 282.000
70.79834 313.000
70.81829 296.000
70.83823 284.000
70.85818 312.000
70.87813 306.000
70.89807 284.000
70.91802 289.000
70.93797 283.000
70.95792 289.000
70.97786 280.000
70.99781 301.000
71.01776 293.000
71.03770 292.000
71.05765 284.000
71.07760 288.000
71.09754 269.000
71.11749 310.000
71.13744 294.000
71.15738 285.000
71.17733 277.000
71.19728 287.000
71.21723 279.000
71.23717 273.000
71.25712 299.000
71.27707 265.000
71.29701 304.000
71.31696 271.000
71.33691 260.000
71.35685 282.000
71.37680 292.000
71.39675 314.000
71.41670 312.000
71.43664 334.000
71.45659 345.000
71.47654 342.000
71.49648 316.000
71.51643 321.000
71.53638 339.000
71.55632 337.000
71.57627 322.000
71.59622 303.000
71.61616 322.000
71.63611 275.000
71.65606 300.000
71.67601 316.000
71.69595 311.000
71.71590 331.000
71.73585 288.000
71.75579 318.000
71.77574 285.000
71.79569 265.000
71.81563 298.000
71.83558 300.000
71.85553 301.000
71.87548 291.000
71.89542 294.000
71.91537 289.000
71.93532 277.000
71.95526 277.000
71.97521 306.000
71.99516 294.000
72.01510 303.000
72.03505 277.000
72.05500 291.000
72.07495 280.000
72.09489 303.000
72.11484 313.000
72.13479 304.000
72.15473 321.000
72.17468 300.000
72.19463 292.000
72.21457 287.000
72.23452 310.000
72.25447 322.000
72.27441 293.000
72.29436 308.000
72.31431 299.000
72.33426 277.000
72.35420 315.000
72.37415 322.000
72.39410 314.000
72.41404 308.000
72.43399 330.000
72.45394 330.000
72.47388 307.000
72.49383 299.000
72.51378 323.000
72.53373 277.000
72.55367 311.000
72.57362 317.000
72.59357 296.000
72.61351 335.000
72.63346 311.000
72.65341 281.000
72.67335 317.000
72.69330 315.000
72.71325 292.000
72.73319 312.000
72.75314 287.000
72.77309 282.000
72.79304 292.000
72.81298 302.000
72.83293 260.000
72.85288 297.000
72.87282 302.000
72.89277 312.000
72.91272 278.000
72.93266 289.000
72.95261 288.000
72.97256 299.000
72.99251 304.000
73.01245 297.000
73.03240 298.000
73.05235 283.000
73.07229 291.000
73.09224 294.000
73.11219 294.000
73.13213 305.000
73.15208 295.000
73.17203 333.000
73.19197 293.000
73.21192 312.000
73.23187 315.000
73.25182 281.000
73.27176 298.000
73.29171 293.000
73.31166 307.000
73.33160 298.000
73.35155 318.000
73.37150 274.000
73.39144 308.000
73.41139 294.000
73.43134 306.000
73.45129 271.000
73.47123 293.000
73.49118 302.000
73.51113 305.000
73.53107 291.000
73.55102 292.000
73.57097 290.000
73.59091 290.000
73.61086 312.000
73.63081 284.000
73.65076 288.000
73.67070 272.000
73.69065 312.000
73.71060 269.000
73.73054 286.000
73.75049 277.000
73.77044 316.000
73.79038 256.000
73.81033 277.000
73.83028 293.000
73.85022 303.000
73.87017 283.000
73.89012 286.000
73.91007 281.000
73.93001 272.000
73.94996 291.000
73.96991 287.000
73.98985 278.000
74.00980 309.000
74.02975 299.000
74.04969 304.000
74.06964 280.000
74.08959 285.000
74.10954 293.000
74.12948 298.000
74.14943 323.000
74.16938 284.000
74.18932 326.000
74.20927 286.000
74.22922 265.000
74.24916 319.000
74.26911 285.000
74.28906 335.000
74.30900 322.000
74.32895 304.000
74.34890 321.000
74.36885 313.000
74.38879 313.000
74.40874 304.000
74.42869 343.000
74.44863 308.000
74.46858 343.000
74.48853 353.000
74.50847 397.000
74.52842 391.000
74.54837 448.000
74.56832 390.000
74.58826 397.000
74.60821 387.000
74.62816 347.000
74.64810 352.000
74.66805 370.000
74.68800 346.000
74.70794 331.000
74.72789 368.000
74.74784 382.000
74.76778 396.000
74.78773 351.000
74.80768 411.000
74.82763 360.000
74.84757 379.000
74.86752 392.000
74.88747 380.000
74.90741 365.000
74.92736 399.000
74.94731 390.000
74.96725 404.000
74.98720 406.000
75.00715 374.000
75.02710 409.000
75.04704 392.000
75.06699 439.000
75.08694 396.000
75.10688 398.000
75.12683 419.000
75.14678 447.000
75.16672 409.000
75.18667 437.000
75.20662 442.000
75.22657 462.000
75.24651 442.000
75.26646 447.000
75.28641 438.000
75.30635 427.000
75.32630 410.000
75.34625 393.000
75.36619 375.000
75.38614 379.000
75.40609 414.000
75.42603 374.000
75.44598 373.000
75.46593 373.000
75.48588 410.000
75.50582 368.000
75.52577 351.000
75.54572 373.000
75.56566 369.000
75.58561 384.000
75.60556 339.000
75.62550 325.000
75.64545 339.000
75.66540 321.000
75.68535 339.000
75.70529 328.000
75.72524 326.000
75.74519 315.000
75.76513 337.000
75.78508 314.000
75.80503 319.000
75.82497 308.000
75.84492 300.000
75.86487 290.000
75.88481 299.000
75.90476 309.000
75.92471 306.000
75.94466 322.000
75.96460 275.000
75.98455 277.000
76.00450 247.000
76.02444 294.000
76.04439 304.000
76.06434 272.000
76.08428 278.000
76.10423 315.000
76.12418 261.000
76.14413 264.000
76.16407 293.000
76.18402 259.000
76.20397 267.000
76.22391 263.000
76.24386 275.000
76.26381 270.000
76.28375 278.000
76.30370 289.000
76.32365 300.000
76.34359 258.000
76.36354 266.000
76.38349 258.000
76.40344 269.000
76.42338 280.000
76.44333 282.000
76.46328 277.000
76.48322 307.000
76.50317 286.000
76.52312 266.000
76.54306 307.000
76.56301 283.000
76.58296 263.000
76.60291 299.000
76.62285 261.000
76.64280 307.000
76.66275 266.000
76.68269 294.000
76.70264 279.000
76.72259 273.000
76.74253 262.000
76.76248 305.000
76.78243 276.000
76.80238 293.000
76.82232 274.000
76.84227 270.000
76.86222 261.000
76.88216 312.000
76.90211 269.000
76.92206 286.000
76.94200 257.000
76.96195 290.000
76.98190 315.000
77.00184 298.000
77.02179 314.000
77.04174 308.000
77.06169 281.000
77.08163 283.000
77.10158 300.000
77.12153 272.000
77.14147 255.000
77.16142 250.000
77.18137 273.000
77.20131 306.000
77.22126 308.000
77.24121 268.000
77.26116 273.000
77.28110 278.000
77.30105 280.000
77.32100 297.000
77.34094 299.000
77.36089 277.000
77.38084 291.000
77.40078 283.000
77.42073 262.000
77.44068 311.000
77.46062 258.000
77.48057 294.000
77.50052 285.000
77.52047 297.000
77.54041 288.000
77.56036 266.000
77.58031 308.000
77.60025 273.000
77.62020 262.000
77.64015 269.000
77.66009 270.000
77.68004 290.000
77.69999 264.000
77.71994 307.000
77.73988 255.000
77.75983 295.000
77.77978 268.000
77.79972 281.000
77.81967 293.000
77.83962 270.000
77.85956 280.000
77.87951 286.000
77.89946 279.000
77.91940 293.000
77.93935 294.000
77.95930 265.000
77.97925 293.000
77.99919 281.000
78.01914 287.000
78.03909 267.000
78.05903 298.000
78.07898 278.000
78.09893 296.000
78.11887 253.000
78.13882 279.000
78.15877 279.000
78.17872 274.000
78.19866 259.000
78.21861 286.000
78.23856 268.000
78.25850 259.000
78.27845 271.000
78.29840 296.000
78.31834 274.000
78.33829 294.000
78.35824 241.000
78.37819 278.000
78.39813 282.000
78.41808 267.000
78.43803 310.000
78.45797 300.000
78.47792 292.000
78.49787 287.000
78.51781 305.000
78.53776 298.000
78.55771 294.000
78.57765 315.000
78.59760 291.000
78.61755 303.000
78.63750 319.000
78.65744 273.000
78.67739 276.000
78.69734 321.000
78.71728 294.000
78.73723 304.000
78.75718 315.000
78.77712 318.000
78.79707 283.000
78.81702 351.000
78.83697 319.000
78.85691 277.000
78.87686 333.000
78.89681 324.000
78.91675 325.000
78.93670 324.000
78.95665 350.000
78.97659 353.000
78.99654 348.000
79.01649 356.000
79.03643 341.000
79.05638 291.000
79.07633 378.000
79.09628 401.000
79.11622 386.000
79.13617 395.000
79.15612 382.000
79.17606 374.000
79.19601 345.000
79.21596 343.000
79.23590 367.000
79.25585 388.000
79.27580 369.000
79.29575 350.000
79.31569 334.000
79.33564 354.000
79.35559 369.000
79.37553 369.000
79.39548 335.000
79.41543 330.000
79.43537 345.000
79.45532 306.000
79.47527 302.000
79.49521 353.000
79.51516 347.000
79.53511 370.000
79.55506 374.000
79.57500 352.000
79.59495 354.000
79.61490 317.000
79.63484 325.000
79.65479 313.000
79.67474 325.000
79.69468 253.000
79.71463 302.000
79.73458 272.000
79.75453 320.000
79.77447 312.000
79.79442 297.000
79.81437 304.000
79.83431 316.000
79.85426 319.000
79.87421 283.000
79.89415 294.000
79.91410 272.000
79.93405 304.000
79.95399 303.000
79.97394 260.000
79.99389 275.000
80.01384 259.000
80.03378 257.000
80.05373 270.000
80.07368 257.000
80.09362 285.000
80.11357 267.000
80.13352 291.000
80.15346 268.000
80.17341 291.000
80.19336 265.000
80.21331 293.000
80.23325 312.000
80.25320 279.000
80.27315 275.000
80.29309 267.000
80.31304 264.000
80.33299 308.000
80.35293 295.000
80.37288 287.000
80.39283 301.000
80.41278 286.000
80.43272 279.000
80.45267 288.000
80.47262 275.000
80.49256 280.000
80.51251 283.000
80.53246 284.000
80.55240 292.000
80.57235 271.000
80.59230 276.000
80.61224 257.000
80.63219 301.000
80.65214 315.000
80.67209 263.000
80.69203 259.000
80.71198 274.000
80.73193 278.000
80.75187 281.000
80.77182 297.000
80.79177 300.000
80.81171 294.000
80.83166 280.000
80.85161 283.000
80.87156 291.000
80.89150 285.000
80.91145 297.000
80.93140 265.000
80.95134 298.000
80.97129 291.000
80.99124 280.000
81.01118 271.000
81.03113 281.000
81.05108 311.000
81.07102 287.000
81.09097 272.000
81.11092 290.000
81.13087 285.000
81.15081 295.000
81.17076 301.000
81.19071 280.000
81.21065 268.000
81.23060 276.000
81.25055 293.000
81.27049 288.000
81.29044 291.000
81.31039 300.000
81.33034 284.000
81.35028 275.000
81.37023 300.000
81.39018 266.000
81.41012 265.000
81.43007 285.000
81.45002 286.000
81.46996 281.000
81.48991 271.000
81.50986 264.000
81.52980 260.000
81.54975 278.000
81.56970 264.000
81.58965 289.000
81.60959 261.000
81.62954 258.000
81.64949 268.000
81.66943 308.000
81.68938 281.000
81.70933 293.000
81.72927 274.000
81.74922 262.000
81.76917 271.000
81.78912 287.000
81.80906 291.000
81.82901 276.000
81.84896 261.000
81.86890 278.000
81.88885 311.000
81.90880 274.000
81.92874 295.000
81.94869 263.000
81.96864 297.000
81.98859 285.000
82.00853 275.000
82.02848 264.000
82.04843 274.000
82.06837 291.000
82.08832 272.000
82.10827 298.000
82.12821 297.000
82.14816 266.000
82.16811 255.000
82.18805 270.000
82.20800 306.000
82.22795 308.000
82.24790 257.000
82.26784 247.000
82.28779 291.000
82.30774 312.000
82.32768 292.000
82.34763 288.000
82.36758 265.000
82.38752 281.000
82.40747 300.000
82.42742 301.000
82.44737 307.000
82.46731 289.000
82.48726 260.000
82.50721 327.000
82.52715 326.000
82.54710 316.000
82.56705 312.000
82.58699 334.000
82.60694 308.000
82.62689 310.000
82.64683 289.000
82.66678 306.000
82.68673 318.000
82.70668 271.000
82.72662 309.000
82.74657 305.000
82.76652 301.000
82.78646 305.000
82.80641 288.000
82.82636 289.000
82.84630 320.000
82.86625 316.000
82.88620 329.000
82.90615 306.000
82.92609 309.000
82.94604 310.000
82.96599 310.000
82.98593 293.000
83.00588 304.000
83.02583 288.000
83.04577 298.000
83.06572 304.000
83.08567 272.000
83.10561 282.000
83.12556 287.000
83.14551 319.000
83.16546 287.000
83.18540 296.000
83.20535 301.000
83.22530 318.000
83.24524 299.000
83.26519 279.000
83.28514 282.000
83.30508 283.000
83.32503 279.000
83.34498 275.000
83.36493 277.000
83.38487 312.000
83.40482 318.000
83.42477 290.000
83.44471 327.000
83.46466 289.000
83.48461 270.000
83.50455 264.000
83.52450 273.000
83.54445 280.000
83.56440 318.000
83.58434 282.000
83.60429 274.000
83.62424 274.000
83.64418 271.000
83.66413 296.000
83.68408 272.000
83.70402 273.000
83.72397 303.000
83.74392 281.000
83.76386 294.000
83.78381 289.000
83.80376 307.000
83.82371 309.000
83.84365 302.000
83.86360 296.000
83.88355 273.000
83.90349 308.000
83.92344 294.000
83.94339 310.000
83.96333 295.000
83.98328 260.000
84.00323 297.000
84.02318 254.000
84.04312 277.000
84.06307 296.000
84.08302 266.000
84.10296 306.000
84.12291 270.000
84.14286 245.000
84.16280 310.000
84.18275 271.000
84.20270 245.000
84.22264 288.000
84.24259 313.000
84.26254 282.000
84.28249 276.000
84.30243 277.000
84.32238 273.000
84.34233 271.000
84.36227 278.000
84.38222 295.000
84.40217 271.000
84.42211 263.000
84.44206 296.000
84.46201 264.000
84.48196 286.000
84.50190 271.000
84.52185 257.000
84.54180 275.000
84.56174 288.000
84.58169 289.000
84.60164 311.000
84.62158 268.000
84.64153 257.000
84.66148 282.000
84.68142 260.000
84.70137 284.000
84.72132 252.000
84.74127 261.000
84.76121 284.000
84.78116 273.000
84.80111 272.000
84.82105 274.000
84.84100 277.000
84.86095 268.000
84.88089 300.000
84.90084 284.000
84.92079 305.000
84.94074 270.000
84.96068 283.000
84.98063 284.000
85.00058 268.000
85.02052 273.000
85.04047 245.000
85.06042 266.000
85.08036 260.000
85.10031 292.000
85.12026 298.000
85.14021 276.000
85.16015 302.000
85.18010 250.000
85.20005 273.000
85.21999 276.000
85.23994 288.000
85.25989 267.000
85.27983 283.000
85.29978 276.000
85.31973 278.000
85.33967 276.000
85.35962 281.000
85.37957 305.000
85.39952 291.000
85.41946 284.000
85.43941 261.000
85.45936 296.000
85.47930 281.000
85.49925 261.000
85.51920 247.000
85.53914 241.000
85.55909 289.000
85.57904 274.000
85.59899 296.000
85.61893 259.000
85.63888 257.000
85.65883 249.000
85.67877 293.000
85.69872 281.000
85.71867 281.000
85.73861 270.000
85.75856 269.000
85.77851 277.000
85.79845 299.000
85.81840 296.000
85.83835 313.000
85.85830 275.000
85.87824 275.000
85.89819 278.000
85.91814 277.000
85.93808 258.000
85.95803 296.000
85.97798 281.000
85.99792 277.000
86.01787 249.000
86.03782 281.000
86.05777 253.000
86.07771 284.000
86.09766 292.000
86.11761 254.000
86.13755 286.000
86.15750 283.000
86.17745 258.000
86.19739 280.000
86.21734 294.000
86.23729 298.000
86.25723 263.000
86.27718 280.000
86.29713 279.000
86.31708 261.000
86.33702 291.000
86.35697 283.000
86.37692 252.000
86.39686 272.000
86.41681 267.000
86.43676 277.000
86.45670 253.000
86.47665 281.000
86.49660 281.000
86.51655 275.000
86.53649 272.000
86.55644 262.000
86.57639 250.000
86.59633 311.000
86.61628 296.000
86.63623 306.000
86.65617 244.000
86.67612 283.000
86.69607 268.000
86.71602 303.000
86.73596 249.000
86.75591 264.000
86.77586 258.000
86.79580 268.000
86.81575 283.000
86.83570 296.000
86.85564 257.000
86.87559 281.000
86.89554 299.000
86.91548 284.000
86.93543 288.000
86.95538 307.000
86.97533 305.000
86.99527 278.000
87.01522 293.000
87.03517 296.000
87.05511 297.000
87.07506 276.000
87.09501 315.000
87.11495 301.000
87.13490 313.000
87.15485 286.000
87.17480 271.000
87.19474 298.000
87.21469 273.000
87.23464 265.000
87.25458 262.000
87.27453 290.000
87.29448 299.000
87.31442 265.000
87.33437 297.000
87.35432 307.000
87.37426 304.000
87.39421 326.000
87.41416 307.000
87.43411 303.000
87.45405 319.000
87.47400 322.000
87.49395 296.000
87.51389 285.000
87.53384 297.000
87.55379 301.000
87.57373 296.000
87.59368 287.000
87.61363 250.000
87.63358 313.000
87.65352 287.000
87.67347 280.000
87.69342 305.000
87.71336 307.000
87.73331 305.000
87.75326 267.000
87.77320 290.000
87.79315 305.000
87.81310 297.000
87.83304 256.000
87.85299 294.000
87.87294 261.000
87.89289 240.000
87.91283 248.000
87.93278 261.000
87.95273 259.000
87.97267 279.000
87.99262 280.000
88.01257 302.000
88.03251 267.000
88.05246 258.000
88.07241 255.000
88.09236 271.000
88.11230 255.000
88.13225 290.000
88.15220 300.000
88.17214 285.000
88.19209 255.000
88.21204 295.000
88.23198 288.000
88.25193 269.000
88.27188 290.000
88.29183 309.000
88.31177 269.000
88.33172 290.000
88.35167 265.000
88.37161 279.000
88.39156 299.000
88.41151 306.000
88.43145 287.000
88.45140 292.000
88.47135 286.000
88.49129 291.000
88.51124 282.000
88.53119 266.000
88.55114 286.000
88.57108 279.000
88.59103 254.000
88.61098 268.000
88.63092 263.000
88.65087 278.000
88.67082 266.000
88.69076 298.000
88.71071 267.000
88.73066 270.000
88.75061 265.000
88.77055 310.000
88.79050 272.000
88.81045 286.000
88.83039 282.000
88.85034 267.000
88.87029 298.000
88.89023 266.000
88.91018 251.000
88.93013 299.000
88.95007 304.000
88.97002 302.000
88.98997 256.000
89.00992 311.000
89.02986 302.000
89.04981 285.000
89.06976 281.000
89.08970 306.000
89.10965 288.000
89.12960 287.000
89.14954 293.000
89.16949 331.000
89.18944 298.000
89.20939 328.000
89.22933 313.000
89.24928 343.000
89.26923 278.000
89.28917 317.000
89.30912 322.000
89.32907 319.000
89.34901 369.000
89.36896 328.000
89.38891 340.000
89.40885 302.000
89.42880 338.000
89.44875 348.000
89.46870 321.000
89.48864 353.000
89.50859 352.000
89.52854 350.000
89.54848 343.000
89.56843 332.000
89.58838 332.000
89.60832 313.000
89.62827 335.000
89.64822 353.000
89.66817 334.000
89.68811 343.000
89.70806 312.000
89.72801 309.000
89.74795 361.000
89.76790 291.000
89.78785 317.000
89.80779 317.000
89.82774 330.000
89.84769 319.000
89.86764 326.000
89.88758 314.000
89.90753 300.000
89.92748 317.000
89.94742 287.000
89.96737 295.000
89.98732 328.000
90.00726 313.000
