10.00000 134.000
10.01995 120.000
10.03989 123.000
10.05984 135.000
10.07979 130.000
10.09973 128.000
10.11968 119.000
10.13963 122.000
10.15958 138.000
10.17952 124.000
10.19947 105.000
10.21942 129.000
10.23936 113.000
10.25931 138.000
10.27926 123.000
10.29920 131.000
10.31915 132.000
10.33910 113.000
10.35905 111.000
10.37899 127.000
10.39894 120.000
10.41889 107.000
10.43883 113.000
10.45878 128.000
10.47873 126.000
10.49867 112.000
10.51862 129.000
10.53857 118.000
10.55851 122.000
10.57846 87.000
10.59841 112.000
10.61836 112.000
10.63830 115.000
10.65825 128.000
10.67820 114.000
10.69814 124.000
10.71809 98.000
10.73804 129.000
10.75798 118.000
10.77793 121.000
10.79788 121.000
10.81783 114.000
10.83777 112.000
10.85772 112.000
10.87767 136.000
10.89761 106.000
10.91756 122.000
10.93751 114.000
10.95745 110.000
10.97740 115.000
10.99735 119.000
11.01730 123.000
11.03724 113.000
11.05719 112.000
11.07714 132.000
11.09708 106.000
11.11703 125.000
11.13698 117.000
11.15692 126.000
11.17687 121.000
11.19682 101.000
11.21676 97.000
11.23671 107.000
11.25666 114.000
11.27661 105.000
11.29655 112.000
11.31650 115.000
11.33645 118.000
11.35639 101.000
11.37634 110.000
11.39629 108.000
11.41623 107.000
11.43618 117.000
11.45613 104.000
11.47608 116.000
11.49602 109.000
11.51597 114.000
11.53592 118.000
11.55586 110.000
11.57581 110.000
11.59576 117.000
11.61570 101.000
11.63565 104.000
11.65560 102.000
11.67554 126.000
11.69549 114.000
11.71544 103.000
11.73539 97.000
11.75533 118.000
11.77528 108.000
11.79523 93.000
11.81517 111.000
11.83512 102.000
11.85507 90.000
11.87501 121.000
11.89496 128.000
11.91491 94.000
11.93486 98.000
11.95480 100.000
11.97475 107.000
11.99470 103.000
12.01464 109.000
12.03459 109.000
12.05454 109.000
12.07448 114.000
12.09443 98.000
12.11438 96.000
12.13432 107.000
12.15427 108.000
12.17422 97.000
12.19417 93.000
12.21411 116.000
12.23406 128.000
12.25401 109.000
12.27395 106.000
12.29390 104.000
12.31385 115.000
12.33379 108.000
12.35374 113.000
12.37369 102.000
12.39364 103.000
12.41358 95.000
12.43353 113.000
12.45348 102.000
12.47342 94.000
12.49337 102.000
12.51332 122.000
12.53326 116.000
12.55321 130.000
12.57316 102.000
12.59311 125.000
12.61305 98.000
12.63300 113.000
12.65295 110.000
12.67289 112.000
12.69284 103.000
12.71279 107.000
12.73273 109.000
12.75268 105.000
12.77263 108.000
12.79257 92.000
12.81252 101.000
12.83247 126.000
12.85242 92.000
12.87236 95.000
12.89231 109.000
12.91226 118.000
12.93220 115.000
12.95215 104.000
12.97210 110.000
12.99204 107.000
13.01199 92.000
13.03194 140.000
13.05189 106.000
13.07183 88.000
13.09178 108.000
13.11173 119.000
13.13167 112.000
13.15162 120.000
13.17157 105.000
13.19151 110.000
13.21146 121.000
13.23141 104.000
13.25135 113.000
13.27130 115.000
13.29125 141.000
13.31120 96.000
13.33114 103.000
13.35109 106.000
13.37104 121.000
13.39098 115.000
13.41093 117.000
13.43088 108.000
13.45082 111.000
13.47077 114.000
13.49072 121.000
13.51067 112.000
13.53061 106.000
13.55056 128.000
13.57051 103.000
13.59045 100.000
13.61040 125.000
13.63035 109.000
13.65029 118.000
13.67024 115.000
13.69019 118.000
13.71013 109.000
13.73008 97.000
13.75003 108.000
13.76998 120.000
13.78992 114.000
13.80987 94.000
13.82982 101.000
13.84976 106.000
13.86971 109.000
13.88966 107.000
13.90960 110.000
13.92955 112.000
13.94950 106.000
13.96945 114.000
13.98939 114.000
14.00934 102.000
14.02929 125.000
14.04923 129.000
14.06918 106.000
14.08913 121.000
14.10907 130.000
14.12902 134.000
14.14897 126.000
14.16892 108.000
14.18886 128.000
14.20881 110.000
14.22876 121.000
14.24870 129.000
14.26865 99.000
14.28860 101.000
14.30854 139.000
14.32849 131.000
14.34844 139.000
14.36838 121.000
14.38833 148.000
14.40828 125.000
14.42823 145.000
14.44817 141.000
14.46812 152.000
14.48807 151.000
14.50801 154.000
14.52796 156.000
14.54791 166.000
14.56785 173.000
14.58780 178.000
14.60775 196.000
14.62770 202.000
14.64764 230.000
14.66759 250.000
14.68754 266.000
14.70748 325.000
14.72743 296.000
14.74738 306.000
14.76732 263.000
14.78727 246.000
14.80722 247.000
14.82716 188.000
14.84711 170.000
14.86706 165.000
14.88701 152.000
14.90695 139.000
14.92690 147.000
14.94685 130.000
14.96679 131.000
14.98674 146.000
15.00669 138.000
15.02663 111.000
15.04658 138.000
15.06653 125.000
15.08648 126.000
15.10642 132.000
15.12637 118.000
15.14632 144.000
15.16626 126.000
15.18621 128.000
15.20616 123.000
15.22610 110.000
15.24605 116.000
15.26600 109.000
15.28594 110.000
15.30589 121.000
15.32584 108.000
15.34579 116.000
15.36573 113.000
15.38568 112.000
15.40563 111.000
15.42557 112.000
15.44552 126.000
15.46547 124.000
15.48541 126.000
15.50536 115.000
15.52531 108.000
15.54526 98.000
15.56520 103.000
15.58515 101.000
15.60510 120.000
15.62504 111.000
15.64499 102.000
15.66494 141.000
15.68488 112.000
15.70483 115.000
15.72478 115.000
15.74472 127.000
15.76467 123.000
15.78462 109.000
15.80457 104.000
15.82451 113.000
15.84446 104.000
15.86441 91.000
15.88435 94.000
15.90430 102.000
15.92425 93.000
15.94419 111.000
15.96414 112.000
15.98409 93.000
16.00404 103.000
16.02398 100.000
16.04393 109.000
16.06388 109.000
16.08382 117.000
16.10377 118.000
16.12372 106.000
16.14366 112.000
16.16361 123.000
16.18356 103.000
16.20351 110.000
16.22345 103.000
16.24340 120.000
16.26335 99.000
16.28329 113.000
16.30324 98.000
16.32319 110.000
16.34313 116.000
16.36308 101.000
16.38303 108.000
16.40297 92.000
16.42292 105.000
16.44287 99.000
16.46282 97.000
16.48276 107.000
16.50271 105.000
16.52266 118.000
16.54260 115.000
16.56255 132.000
16.58250 97.000
16.60244 96.000
16.62239 110.000
16.64234 118.000
16.66229 110.000
16.68223 107.000
16.70218 110.000
16.72213 109.000
16.74207 105.000
16.76202 126.000
16.78197 106.000
16.80191 122.000
16.82186 123.000
16.84181 117.000
16.86175 111.000
16.88170 111.000
16.90165 111.000
16.92160 96.000
16.94154 105.000
16.96149 103.000
16.98144 103.000
17.00138 104.000
17.02133 109.000
17.04128 94.000
17.06122 106.000
17.08117 108.000
17.10112 85.000
17.12107 108.000
17.14101 110.000
17.16096 130.000
17.18091 117.000
17.20085 109.000
17.22080 120.000
17.24075 100.000
17.26069 121.000
17.28064 100.000
17.30059 98.000
17.32053 99.000
17.34048 98.000
17.36043 92.000
17.38038 107.000
17.40032 109.000
17.42027 102.000
17.44022 108.000
17.46016 120.000
17.48011 105.000
17.50006 110.000
17.52000 107.000
17.53995 96.000
17.55990 110.000
17.57985 113.000
17.59979 88.000
17.61974 120.000
17.63969 102.000
17.65963 115.000
17.67958 102.000
17.69953 99.000
17.71947 122.000
17.73942 111.000
17.75937 119.000
17.77932 115.000
17.79926 128.000
17.81921 107.000
17.83916 106.000
17.85910 80.000
17.87905 105.000
17.89900 121.000
17.91894 108.000
17.93889 102.000
17.95884 105.000
17.97878 113.000
17.99873 104.000
18.01868 103.000
18.03863 109.000
18.05857 120.000
18.07852 116.000
18.09847 116.000
18.11841 107.000
18.13836 94.000
18.15831 117.000
18.17825 99.000
18.19820 123.000
18.21815 109.000
18.23810 124.000
18.25804 127.000
18.27799 155.000
18.29794 150.000
18.31788 173.000
18.33783 178.000
18.35778 261.000
18.37772 371.000
18.39767 500.000
18.41762 552.000
18.43756 479.000
18.45751 439.000
18.47746 298.000
18.49741 233.000
18.51735 166.000
18.53730 136.000
18.55725 127.000
18.57719 111.000
18.59714 122.000
18.61709 124.000
18.63703 112.000
18.65698 118.000
18.67693 115.000
18.69688 114.000
18.71682 126.000
18.73677 91.000
18.75672 102.000
18.77666 124.000
18.79661 110.000
18.81656 108.000
18.83650 94.000
18.85645 111.000
18.87640 114.000
18.89634 115.000
18.91629 117.000
18.93624 126.000
18.95619 124.000
18.97613 82.000
18.99608 117.000
19.01603 119.000
19.03597 110.000
19.05592 96.000
19.07587 98.000
19.09581 102.000
19.11576 126.000
19.13571 128.000
19.15566 109.000
19.17560 101.000
19.19555 102.000
19.21550 79.000
19.23544 110.000
19.25539 105.000
19.27534 102.000
19.29528 93.000
19.31523 103.000
19.33518 98.000
19.35513 109.000
19.37507 106.000
19.39502 106.000
19.41497 91.000
19.43491 110.000
19.45486 111.000
19.47481 102.000
19.49475 94.000
19.51470 110.000
19.53465 105.000
19.55459 107.000
19.57454 102.000
19.59449 99.000
19.61444 109.000
19.63438 106.000
19.65433 103.000
19.67428 116.000
19.69422 108.000
19.71417 116.000
19.73412 105.000
19.75406 114.000
19.77401 103.000
19.79396 124.000
19.81391 103.000
19.83385 118.000
19.85380 133.000
19.87375 104.000
19.89369 94.000
19.91364 115.000
19.93359 102.000
19.95353 91.000
19.97348 100.000
19.99343 108.000
20.01337 105.000
20.03332 115.000
20.05327 120.000
20.07322 92.000
20.09316 111.000
20.11311 100.000
20.13306 93.000
20.15300 115.000
20.17295 105.000
20.19290 104.000
20.21284 81.000
20.23279 106.000
20.25274 87.000
20.27269 115.000
20.29263 119.000
20.31258 97.000
20.33253 98.000
20.35247 113.000
20.37242 114.000
20.39237 104.000
20.41231 106.000
20.43226 106.000
20.45221 96.000
20.47215 98.000
20.49210 116.000
20.51205 82.000
20.53200 130.000
20.55194 103.000
20.57189 106.000
20.59184 88.000
20.61178 127.000
20.63173 120.000
20.65168 115.000
20.67162 116.000
20.69157 104.000
20.71152 109.000
20.73147 115.000
20.75141 113.000
20.77136 120.000
20.79131 128.000
20.81125 120.000
20.83120 131.000
20.85115 152.000
20.87109 160.000
20.89104 154.000
20.91099 145.000
20.93094 156.000
20.95088 168.000
20.97083 180.000
20.99078 180.000
21.01072 187.000
21.03067 158.000
21.05062 158.000
21.07056 148.000
21.09051 128.000
21.11046 123.000
21.13040 106.000
21.15035 112.000
21.17030 135.000
21.19025 102.000
21.21019 115.000
21.23014 119.000
21.25009 98.000
21.27003 111.000
21.28998 125.000
21.30993 104.000
21.32987 105.000
21.34982 102.000
21.36977 105.000
21.38972 115.000
21.40966 113.000
21.42961 79.000
21.44956 124.000
21.46950 111.000
21.48945 85.000
21.50940 116.000
21.52934 92.000
21.54929 100.000
21.56924 98.000
21.58918 108.000
21.60913 125.000
21.62908 114.000
21.64903 104.000
21.66897 118.000
21.68892 91.000
21.70887 91.000
21.72881 101.000
21.74876 117.000
21.76871 84.000
21.78865 107.000
21.80860 101.000
21.82855 105.000
21.84850 115.000
21.86844 103.000
21.88839 114.000
21.90834 110.000
21.92828 133.000
21.94823 125.000
21.96818 107.000
21.98812 108.000
22.00807 117.000
22.02802 135.000
22.04796 126.000
22.06791 130.000
22.08786 135.000
22.10781 132.000
22.12775 124.000
22.14770 144.000
22.16765 136.000
22.18759 116.000
22.20754 123.000
22.22749 116.000
22.24743 119.000
22.26738 139.000
22.28733 113.000
22.30728 103.000
22.32722 114.000
22.34717 122.000
22.36712 122.000
22.38706 110.000
22.40701 104.000
22.42696 130.000
22.44690 138.000
22.46685 104.000
22.48680 110.000
22.50675 124.000
22.52669 100.000
22.54664 92.000
22.56659 109.000
22.58653 130.000
22.60648 118.000
22.62643 93.000
22.64637 107.000
22.66632 113.000
22.68627 100.000
22.70621 110.000
22.72616 97.000
22.74611 108.000
22.76606 115.000
22.78600 117.000
22.80595 96.000
22.82590 111.000
22.84584 115.000
22.86579 107.000
22.88574 113.000
22.90568 93.000
22.92563 94.000
22.94558 97.000
22.96553 125.000
22.98547 95.000
23.00542 103.000
23.02537 114.000
23.04531 103.000
23.06526 104.000
23.08521 113.000
23.10515 109.000
23.12510 96.000
23.14505 102.000
23.16499 110.000
23.18494 111.000
23.20489 117.000
23.22484 114.000
23.24478 101.000
23.26473 97.000
23.28468 107.000
23.30462 110.000
23.32457 116.000
23.34452 119.000
23.36446 104.000
23.38441 89.000
23.40436 89.000
23.42431 110.000
23.44425 115.000
23.46420 106.000
23.48415 109.000
23.50409 93.000
23.52404 113.000
23.54399 117.000
23.56393 120.000
23.58388 116.000
23.60383 113.000
23.62377 115.000
23.64372 102.000
23.66367 104.000
23.68362 96.000
23.70356 109.000
23.72351 113.000
23.74346 109.000
23.76340 108.000
23.78335 122.000
23.80330 115.000
23.82324 134.000
23.84319 119.000
23.86314 93.000
23.88309 104.000
23.90303 105.000
23.92298 104.000
23.94293 105.000
23.96287 107.000
23.98282 89.000
24.00277 129.000
24.02271 101.000
24.04266 127.000
24.06261 103.000
24.08256 118.000
24.10250 114.000
24.12245 124.000
24.14240 105.000
24.16234 99.000
24.18229 110.000
24.20224 106.000
24.22218 101.000
24.24213 105.000
24.26208 123.000
24.28202 92.000
24.30197 102.000
24.32192 116.000
24.34187 143.000
24.36181 107.000
24.38176 114.000
24.40171 108.000
24.42165 93.000
24.44160 110.000
24.46155 105.000
24.48149 117.000
24.50144 96.000
24.52139 124.000
24.54134 100.000
24.56128 97.000
24.58123 103.000
24.60118 112.000
24.62112 113.000
24.64107 117.000
24.66102 112.000
24.68096 107.000
24.70091 108.000
24.72086 101.000
24.74080 117.000
24.76075 125.000
24.78070 116.000
24.80065 123.000
24.82059 113.000
24.84054 120.000
24.86049 121.000
24.88043 119.000
24.90038 118.000
24.92033 119.000
24.94027 100.000
24.96022 116.000
24.98017 112.000
25.00012 137.000
25.02006 126.000
25.04001 106.000
25.05996 120.000
25.07990 103.000
25.09985 132.000
25.11980 114.000
25.13974 152.000
25.15969 104.000
25.17964 111.000
25.19958 92.000
25.21953 113.000
25.23948 101.000
25.25943 132.000
25.27937 111.000
25.29932 113.000
25.31927 101.000
25.33921 97.000
25.35916 110.000
25.37911 107.000
25.39905 92.000
25.41900 95.000
25.43895 117.000
25.45890 129.000
25.47884 116.000
25.49879 114.000
25.51874 114.000
25.53868 116.000
25.55863 123.000
25.57858 111.000
25.59852 122.000
25.61847 127.000
25.63842 105.000
25.65837 115.000
25.67831 103.000
25.69826 91.000
25.71821 117.000
25.73815 114.000
25.75810 90.000
25.77805 123.000
25.79799 108.000
25.81794 123.000
25.83789 113.000
25.85783 104.000
25.87778 102.000
25.89773 93.000
25.91768 108.000
25.93762 121.000
25.95757 114.000
25.97752 113.000
25.99746 108.000
26.01741 132.000
26.03736 118.000
26.05730 141.000
26.07725 144.000
26.09720 116.000
26.11715 133.000
26.13709 110.000
26.15704 101.000
26.17699 117.000
26.19693 115.000
26.21688 122.000
26.23683 134.000
26.25677 103.000
26.27672 109.000
26.29667 129.000
26.31661 124.000
26.33656 122.000
26.35651 105.000
26.37646 114.000
26.39640 124.000
26.41635 134.000
26.43630 122.000
26.45624 122.000
26.47619 121.000
26.49614 126.000
26.51608 118.000
26.53603 116.000
26.55598 125.000
26.57593 114.000
26.59587 128.000
26.61582 98.000
26.63577 113.000
26.65571 101.000
26.67566 113.000
26.69561 121.000
26.71555 111.000
26.73550 123.000
26.75545 125.000
26.77539 111.000
26.79534 100.000
26.81529 124.000
26.83524 112.000
26.85518 131.000
26.87513 100.000
26.89508 112.000
26.91502 109.000
26.93497 116.000
26.95492 136.000
26.97486 104.000
26.99481 119.000
27.01476 101.000
27.03471 126.000
27.05465 121.000
27.07460 107.000
27.09455 104.000
27.11449 124.000
27.13444 108.000
27.15439 127.000
27.17433 137.000
27.19428 91.000
27.21423 116.000
27.23417 132.000
27.25412 123.000
27.27407 134.000
27.29402 126.000
27.31396 118.000
27.33391 130.000
27.35386 136.000
27.37380 153.000
27.39375 125.000
27.41370 105.000
27.43364 112.000
27.45359 131.000
27.47354 119.000
27.49349 137.000
27.51343 112.000
27.53338 127.000
27.55333 128.000
27.57327 109.000
27.59322 121.000
27.61317 113.000
27.63311 125.000
27.65306 115.000
27.67301 124.000
27.69296 128.000
27.71290 114.000
27.73285 128.000
27.75280 111.000
27.77274 116.000
27.79269 125.000
27.81264 139.000
27.83258 114.000
27.85253 116.000
27.87248 116.000
27.89242 127.000
27.91237 136.000
27.93232 150.000
27.95227 111.000
27.97221 134.000
27.99216 120.000
28.01211 121.000
28.03205 116.000
28.05200 110.000
28.07195 126.000
28.09189 99.000
28.11184 108.000
28.13179 121.000
28.15174 101.000
28.17168 121.000
28.19163 124.000
28.21158 113.000
28.23152 120.000
28.25147 139.000
28.27142 103.000
28.29136 120.000
28.31131 124.000
28.33126 110.000
28.35120 130.000
28.37115 112.000
28.39110 128.000
28.41105 117.000
28.43099 103.000
28.45094 118.000
28.47089 120.000
28.49083 109.000
28.51078 136.000
28.53073 120.000
28.55067 125.000
28.57062 117.000
28.59057 140.000
28.61052 129.000
28.63046 131.000
28.65041 120.000
28.67036 118.000
28.69030 147.000
28.71025 111.000
28.73020 131.000
28.75014 112.000
28.77009 151.000
28.79004 132.000
28.80998 116.000
28.82993 129.000
28.84988 139.000
28.86983 134.000
28.88977 135.000
28.90972 138.000
28.92967 125.000
28.94961 142.000
28.96956 132.000
28.98951 144.000
29.00945 137.000
29.02940 132.000
29.04935 126.000
29.06930 123.000
29.08924 145.000
29.10919 133.000
29.12914 139.000
29.14908 119.000
29.16903 142.000
29.18898 153.000
29.20892 129.000
29.22887 145.000
29.24882 161.000
29.26877 155.000
29.28871 176.000
29.30866 147.000
29.32861 154.000
29.34855 174.000
29.36850 162.000
29.38845 169.000
29.40839 166.000
29.42834 197.000
29.44829 168.000
29.46823 180.000
29.48818 208.000
29.50813 200.000
29.52808 219.000
29.54802 232.000
29.56797 235.000
29.58792 262.000
29.60786 260.000
29.62781 273.000
29.64776 297.000
29.66770 320.000
29.68765 262.000
29.70760 283.000
29.72755 265.000
29.74749 271.000
29.76744 240.000
29.78739 219.000
29.80733 203.000
29.82728 176.000
29.84723 192.000
29.86717 177.000
29.88712 172.000
29.90707 174.000
29.92701 173.000
29.94696 158.000
29.96691 174.000
29.98686 166.000
30.00680 195.000
30.02675 163.000
30.04670 186.000
30.06664 229.000
30.08659 216.000
30.10654 232.000
30.12648 226.000
30.14643 243.000
30.16638 267.000
30.18633 325.000
30.20627 406.000
30.22622 488.000
30.24617 716.000
30.26611 1054.000
30.28606 1276.000
30.30601 1150.000
30.32595 925.000
30.34590 902.000
30.36585 890.000
30.38579 745.000
30.40574 508.000
30.42569 378.000
30.44564 280.000
30.46558 260.000
30.48553 222.000
30.50548 193.000
30.52542 160.000
30.54537 147.000
30.56532 150.000
30.58526 128.000
30.60521 125.000
30.62516 140.000
30.64511 145.000
30.66505 146.000
30.68500 134.000
30.70495 132.000
30.72489 129.000
30.74484 136.000
30.76479 137.000
30.78473 133.000
30.80468 103.000
30.82463 117.000
30.84458 125.000
30.86452 121.000
30.88447 122.000
30.90442 126.000
30.92436 127.000
30.94431 134.000
30.96426 150.000
30.98420 139.000
31.00415 136.000
31.02410 122.000
31.04404 117.000
31.06399 121.000
31.08394 122.000
31.10389 141.000
31.12383 134.000
31.14378 105.000
31.16373 119.000
31.18367 128.000
31.20362 142.000
31.22357 158.000
31.24351 133.000
31.26346 113.000
31.28341 127.000
31.30336 122.000
31.32330 130.000
31.34325 129.000
31.36320 118.000
31.38314 137.000
31.40309 117.000
31.42304 131.000
31.44298 136.000
31.46293 135.000
31.48288 128.000
31.50282 123.000
31.52277 131.000
31.54272 137.000
31.56267 114.000
31.58261 139.000
31.60256 118.000
31.62251 136.000
31.64245 128.000
31.66240 119.000
31.68235 109.000
31.70229 110.000
31.72224 130.000
31.74219 121.000
31.76214 124.000
31.78208 110.000
31.80203 113.000
31.82198 112.000
31.84192 136.000
31.86187 109.000
31.88182 126.000
31.90176 133.000
31.92171 118.000
31.94166 133.000
31.96160 103.000
31.98155 121.000
32.00150 127.000
32.02145 133.000
32.04139 139.000
32.06134 106.000
32.08129 133.000
32.10123 115.000
32.12118 125.000
32.14113 127.000
32.16107 148.000
32.18102 116.000
32.20097 123.000
32.22092 121.000
32.24086 111.000
32.26081 133.000
32.28076 129.000
32.30070 121.000
32.32065 121.000
32.34060 110.000
32.36054 138.000
32.38049 117.000
32.40044 117.000
32.42039 116.000
32.44033 109.000
32.46028 119.000
32.48023 136.000
32.50017 126.000
32.52012 132.000
32.54007 130.000
32.56001 108.000
32.57996 130.000
32.59991 130.000
32.61985 125.000
32.63980 126.000
32.65975 126.000
32.67970 106.000
32.69964 120.000
32.71959 123.000
32.73954 144.000
32.75948 134.000
32.77943 118.000
32.79938 114.000
32.81932 135.000
32.83927 119.000
32.85922 136.000
32.87917 118.000
32.89911 141.000
32.91906 111.000
32.93901 117.000
32.95895 132.000
32.97890 146.000
32.99885 131.000
33.01879 119.000
33.03874 135.000
33.05869 135.000
33.07863 157.000
33.09858 112.000
33.11853 106.000
33.13848 149.000
33.15842 129.000
33.17837 133.000
33.19832 144.000
33.21826 121.000
33.23821 118.000
33.25816 132.000
33.27810 154.000
33.29805 119.000
33.31800 108.000
33.33795 120.000
33.35789 133.000
33.37784 125.000
33.39779 128.000
33.41773 119.000
33.43768 117.000
33.45763 144.000
33.47757 119.000
33.49752 125.000
33.51747 118.000
33.53741 114.000
33.55736 139.000
33.57731 119.000
33.59726 125.000
33.61720 133.000
33.63715 138.000
33.65710 107.000
33.67704 127.000
33.69699 127.000
33.71694 120.000
33.73688 119.000
33.75683 114.000
33.77678 130.000
33.79673 122.000
33.81667 120.000
33.83662 146.000
33.85657 129.000
33.87651 143.000
33.89646 148.000
33.91641 125.000
33.93635 116.000
33.95630 125.000
33.97625 142.000
33.99620 137.000
34.01614 146.000
34.03609 133.000
34.05604 145.000
34.07598 159.000
34.09593 139.000
34.11588 155.000
34.13582 181.000
34.15577 151.000
34.17572 151.000
34.19566 163.000
34.21561 157.000
34.23556 170.000
34.25551 186.000
34.27545 167.000
34.29540 178.000
34.31535 174.000
34.33529 187.000
34.35524 180.000
34.37519 200.000
34.39513 207.000
34.41508 218.000
34.43503 227.000
34.45498 207.000
34.47492 216.000
34.49487 215.000
34.51482 242.000
34.53476 228.000
34.55471 238.000
34.57466 247.000
34.59460 227.000
34.61455 229.000
34.63450 200.000
34.65444 203.000
34.67439 179.000
34.69434 192.000
34.71429 220.000
34.73423 197.000
34.75418 178.000
34.77413 194.000
34.79407 167.000
34.81402 189.000
34.83397 160.000
34.85391 205.000
34.87386 216.000
34.89381 189.000
34.91376 199.000
34.93370 207.000
34.95365 195.000
34.97360 245.000
34.99354 236.000
35.01349 255.000
35.03344 261.000
35.05338 285.000
35.07333 298.000
35.09328 315.000
35.11322 361.000
35.13317 417.000
35.15312 491.000
35.17307 520.000
35.19301 554.000
35.21296 616.000
35.23291 554.000
35.25285 579.000
35.27280 570.000
35.29275 533.000
35.31269 494.000
35.33264 434.000
35.35259 376.000
35.37254 376.000
35.39248 372.000
35.41243 335.000
35.43238 313.000
35.45232 322.000
35.47227 405.000
35.49222 367.000
35.51216 441.000
35.53211 497.000
35.55206 586.000
35.57201 716.000
35.59195 980.000
35.61190 1351.000
35.63185 1901.000
35.65179 2810.000
35.67174 3445.000
35.69169 3456.000
35.71163 2905.000
35.73158 2487.000
35.75153 2498.000
35.77147 2359.000
35.79142 1882.000
35.81137 1432.000
35.83132 1007.000
35.85126 756.000
35.87121 578.000
35.89116 465.000
35.91110 362.000
35.93105 318.000
35.95100 273.000
35.97094 253.000
35.99089 202.000
36.01084 232.000
36.03079 197.000
36.05073 167.000
36.07068 173.000
36.09063 181.000
36.11057 181.000
36.13052 172.000
36.15047 187.000
36.17041 190.000
36.19036 155.000
36.21031 156.000
36.23025 157.000
36.25020 145.000
36.27015 121.000
36.29010 156.000
36.31004 167.000
36.32999 182.000
36.34994 148.000
36.36988 165.000
36.38983 157.000
36.40978 179.000
36.42972 149.000
36.44967 180.000
36.46962 174.000
36.48957 158.000
36.50951 170.000
36.52946 160.000
36.54941 183.000
36.56935 158.000
36.58930 173.000
36.60925 176.000
36.62919 149.000
36.64914 139.000
36.66909 153.000
36.68903 153.000
36.70898 181.000
36.72893 174.000
36.74888 159.000
36.76882 156.000
36.78877 171.000
36.80872 168.000
36.82866 159.000
36.84861 161.000
36.86856 157.000
36.88850 163.000
36.90845 179.000
36.92840 180.000
36.94835 171.000
36.96829 170.000
36.98824 206.000
37.00819 205.000
37.02813 205.000
37.04808 233.000
37.06803 221.000
37.08797 282.000
37.10792 306.000
37.12787 355.000
37.14781 444.000
37.16776 507.000
37.18771 555.000
37.20766 730.000
37.22760 755.000
37.24755 856.000
37.26750 834.000
37.28744 824.000
37.30739 801.000
37.32734 805.000
37.34728 721.000
37.36723 606.000
37.38718 556.000
37.40713 525.000
37.42707 489.000
37.44702 404.000
37.46697 345.000
37.48691 368.000
37.50686 360.000
37.52681 379.000
37.54675 351.000
37.56670 363.000
37.58665 357.000
37.60660 345.000
37.62654 334.000
37.64649 338.000
37.66644 304.000
37.68638 309.000
37.70633 295.000
37.72628 281.000
37.74622 261.000
37.76617 255.000
37.78612 220.000
37.80606 223.000
37.82601 215.000
37.84596 191.000
37.86591 152.000
37.88585 193.000
37.90580 156.000
37.92575 192.000
37.94569 164.000
37.96564 191.000
37.98559 198.000
38.00553 188.000
38.02548 195.000
38.04543 151.000
38.06538 185.000
38.08532 186.000
38.10527 134.000
38.12522 146.000
38.14516 152.000
38.16511 134.000
38.18506 150.000
38.20500 118.000
38.22495 144.000
38.24490 141.000
38.26484 137.000
38.28479 122.000
38.30474 116.000
38.32469 127.000
38.34463 152.000
38.36458 137.000
38.38453 118.000
38.40447 125.000
38.42442 129.000
38.44437 126.000
38.46431 128.000
38.48426 136.000
38.50421 129.000
38.52416 125.000
38.54410 114.000
38.56405 121.000
38.58400 131.000
38.60394 134.000
38.62389 123.000
38.64384 122.000
38.66378 108.000
38.68373 141.000
38.70368 129.000
38.72362 105.000
38.74357 122.000
38.76352 129.000
38.78347 115.000
38.80341 135.000
38.82336 125.000
38.84331 138.000
38.86325 126.000
38.88320 106.000
38.90315 118.000
38.92309 106.000
38.94304 108.000
38.96299 117.000
38.98294 122.000
39.00288 101.000
39.02283 107.000
39.04278 124.000
39.06272 119.000
39.08267 105.000
39.10262 107.000
39.12256 127.000
39.14251 105.000
39.16246 126.000
39.18241 121.000
39.20235 117.000
39.22230 97.000
39.24225 102.000
39.26219 107.000
39.28214 121.000
39.30209 120.000
39.32203 106.000
39.34198 124.000
39.36193 118.000
39.38187 111.000
39.40182 121.000
39.42177 127.000
39.44172 132.000
39.46166 123.000
39.48161 109.000
39.50156 121.000
39.52150 118.000
39.54145 119.000
39.56140 123.000
39.58134 121.000
39.60129 135.000
39.62124 116.000
39.64119 114.000
39.66113 121.000
39.68108 109.000
39.70103 128.000
39.72097 128.000
39.74092 129.000
39.76087 135.000
39.78081 145.000
39.80076 138.000
39.82071 132.000
39.84065 124.000
39.86060 137.000
39.88055 137.000
39.90050 133.000
39.92044 142.000
39.94039 138.000
39.96034 142.000
39.98028 117.000
40.00023 144.000
40.02018 123.000
40.04012 108.000
40.06007 121.000
40.08002 134.000
40.09997 103.000
40.11991 120.000
40.13986 104.000
40.15981 115.000
40.17975 93.000
40.19970 116.000
40.21965 130.000
40.23959 133.000
40.25954 116.000
40.27949 123.000
40.29943 139.000
40.31938 129.000
40.33933 106.000
40.35928 116.000
40.37922 133.000
40.39917 113.000
40.41912 113.000
40.43906 125.000
40.45901 126.000
40.47896 122.000
40.49890 118.000
40.51885 115.000
40.53880 124.000
40.55875 121.000
40.57869 150.000
40.59864 144.000
40.61859 138.000
40.63853 116.000
40.65848 150.000
40.67843 146.000
40.69837 162.000
40.71832 133.000
40.73827 140.000
40.75822 135.000
40.77816 130.000
40.79811 161.000
40.81806 153.000
40.83800 163.000
40.85795 154.000
40.87790 226.000
40.89784 190.000
40.91779 201.000
40.93774 225.000
40.95768 247.000
40.97763 225.000
40.99758 275.000
41.01753 237.000
41.03747 329.000
41.05742 370.000
41.07737 365.000
41.09731 394.000
41.11726 487.000
41.13721 440.000
41.15715 507.000
41.17710 575.000
41.19705 529.000
41.21700 585.000
41.23694 662.000
41.25689 631.000
41.27684 691.000
41.29678 702.000
41.31673 711.000
41.33668 683.000
41.35662 653.000
41.37657 702.000
41.39652 637.000
41.41646 634.000
41.43641 533.000
41.45636 557.000
41.47631 482.000
41.49625 477.000
41.51620 442.000
41.53615 435.000
41.55609 395.000
41.57604 329.000
41.59599 303.000
41.61593 302.000
41.63588 306.000
41.65583 258.000
41.67578 251.000
41.69572 231.000
41.71567 255.000
41.73562 197.000
41.75556 221.000
41.77551 199.000
41.79546 195.000
41.81540 204.000
41.83535 217.000
41.85530 210.000
41.87524 202.000
41.89519 190.000
41.91514 179.000
41.93509 167.000
41.95503 203.000
41.97498 168.000
41.99493 167.000
42.01487 178.000
42.03482 154.000
42.05477 141.000
42.07471 156.000
42.09466 143.000
42.11461 163.000
42.13456 144.000
42.15450 141.000
42.17445 140.000
42.19440 135.000
42.21434 150.000
42.23429 148.000
42.25424 139.000
42.27418 132.000
42.29413 134.000
42.31408 142.000
42.33403 143.000
42.35397 129.000
42.37392 118.000
42.39387 130.000
42.41381 130.000
42.43376 137.000
42.45371 126.000
42.47365 147.000
42.49360 126.000
42.51355 141.000
42.53349 148.000
42.55344 149.000
42.57339 135.000
42.59334 154.000
42.61328 129.000
42.63323 141.000
42.65318 152.000
42.67312 152.000
42.69307 149.000
42.71302 122.000
42.73296 115.000
42.75291 164.000
42.77286 141.000
42.79281 139.000
42.81275 145.000
42.83270 159.000
42.85265 136.000
42.87259 144.000
42.89254 145.000
42.91249 152.000
42.93243 168.000
42.95238 145.000
42.97233 158.000
42.99227 186.000
43.01222 175.000
43.03217 209.000
43.05212 228.000
43.07206 276.000
43.09201 253.000
43.11196 340.000
43.13190 403.000
43.15185 500.000
43.17180 604.000
43.19174 746.000
43.21169 842.000
43.23164 963.000
43.25159 1081.000
43.27153 1110.000
43.29148 1325.000
43.31143 1346.000
43.33137 1319.000
43.35132 1296.000
43.37127 1227.000
43.39121 1170.000
43.41116 1020.000
43.43111 854.000
43.45105 760.000
43.47100 660.000
43.49095 575.000
43.51090 513.000
43.53084 400.000
43.55079 329.000
43.57074 263.000
43.59068 242.000
43.61063 200.000
43.63058 222.000
43.65052 187.000
43.67047 171.000
43.69042 164.000
43.71037 169.000
43.73031 151.000
43.75026 153.000
43.77021 129.000
43.79015 146.000
43.81010 131.000
43.83005 103.000
43.84999 120.000
43.86994 104.000
43.88989 134.000
43.90984 119.000
43.92978 131.000
43.94973 115.000
43.96968 122.000
43.98962 111.000
44.00957 133.000
44.02952 148.000
44.04946 95.000
44.06941 118.000
44.08936 137.000
44.10930 119.000
44.12925 121.000
44.14920 123.000
44.16915 120.000
44.18909 122.000
44.20904 129.000
44.22899 100.000
44.24893 127.000
44.26888 119.000
44.28883 148.000
44.30877 122.000
44.32872 109.000
44.34867 106.000
44.36862 118.000
44.38856 125.000
44.40851 126.000
44.42846 110.000
44.44840 136.000
44.46835 145.000
44.48830 111.000
44.50824 124.000
44.52819 117.000
44.54814 105.000
44.56808 96.000
44.58803 107.000
44.60798 111.000
44.62793 138.000
44.64787 93.000
44.66782 122.000
44.68777 116.000
44.70771 116.000
44.72766 122.000
44.74761 116.000
44.76755 137.000
44.78750 117.000
44.80745 98.000
44.82740 120.000
44.84734 125.000
44.86729 116.000
44.88724 150.000
44.90718 107.000
44.92713 112.000
44.94708 122.000
44.96702 106.000
44.98697 126.000
45.00692 120.000
45.02686 133.000
45.04681 110.000
45.06676 112.000
45.08671 127.000
45.10665 116.000
45.12660 117.000
45.14655 133.000
45.16649 130.000
45.18644 141.000
45.20639 153.000
45.22633 124.000
45.24628 113.000
45.26623 116.000
45.28618 124.000
45.30612 122.000
45.32607 112.000
45.34602 120.000
45.36596 143.000
45.38591 148.000
45.40586 135.000
45.42580 104.000
45.44575 137.000
45.46570 114.000
45.48565 120.000
45.50559 107.000
45.52554 127.000
45.54549 146.000
45.56543 145.000
45.58538 137.000
45.60533 142.000
45.62527 131.000
45.64522 130.000
45.66517 146.000
45.68511 154.000
45.70506 160.000
45.72501 170.000
45.74496 154.000
45.76490 174.000
45.78485 166.000
45.80480 187.000
45.82474 179.000
45.84469 207.000
45.86464 204.000
45.88458 210.000
45.90453 243.000
45.92448 253.000
45.94443 264.000
45.96437 254.000
45.98432 265.000
46.00427 288.000
46.02421 279.000
46.04416 276.000
46.06411 306.000
46.08405 296.000
46.10400 289.000
46.12395 289.000
46.14389 294.000
46.16384 269.000
46.18379 295.000
46.20374 265.000
46.22368 253.000
46.24363 247.000
46.26358 240.000
46.28352 244.000
46.30347 229.000
46.32342 222.000
46.34336 200.000
46.36331 226.000
46.38326 178.000
46.40321 200.000
46.42315 171.000
46.44310 178.000
46.46305 156.000
46.48299 188.000
46.50294 179.000
46.52289 156.000
46.54283 156.000
46.56278 150.000
46.58273 158.000
46.60267 129.000
46.62262 141.000
46.64257 154.000
46.66252 131.000
46.68246 129.000
46.70241 120.000
46.72236 139.000
46.74230 149.000
46.76225 128.000
46.78220 128.000
46.80214 152.000
46.82209 131.000
46.84204 109.000
46.86199 99.000
46.88193 144.000
46.90188 127.000
46.92183 123.000
46.94177 101.000
46.96172 118.000
46.98167 122.000
47.00161 123.000
47.02156 119.000
47.04151 123.000
47.06146 122.000
47.08140 115.000
47.10135 110.000
47.12130 125.000
47.14124 111.000
47.16119 115.000
47.18114 119.000
47.20108 111.000
47.22103 111.000
47.24098 119.000
47.26092 126.000
47.28087 120.000
47.30082 137.000
47.32077 117.000
47.34071 115.000
47.36066 132.000
47.38061 130.000
47.40055 127.000
47.42050 136.000
47.44045 122.000
47.46039 112.000
47.48034 125.000
47.50029 141.000
47.52024 117.000
47.54018 124.000
47.56013 126.000
47.58008 114.000
47.60002 122.000
47.61997 109.000
47.63992 116.000
47.65986 115.000
47.67981 115.000
47.69976 109.000
47.71970 129.000
47.73965 113.000
47.75960 113.000
47.77955 123.000
47.79949 116.000
47.81944 119.000
47.83939 121.000
47.85933 120.000
47.87928 100.000
47.89923 111.000
47.91917 115.000
47.93912 107.000
47.95907 130.000
47.97902 118.000
47.99896 119.000
48.01891 118.000
48.03886 103.000
48.05880 110.000
48.07875 115.000
48.09870 105.000
48.11864 125.000
48.13859 120.000
48.15854 120.000
48.17848 114.000
48.19843 137.000
48.21838 124.000
48.23833 132.000
48.25827 125.000
48.27822 147.000
48.29817 128.000
48.31811 118.000
48.33806 105.000
48.35801 115.000
48.37795 128.000
48.39790 118.000
48.41785 107.000
48.43780 118.000
48.45774 101.000
48.47769 98.000
48.49764 115.000
48.51758 126.000
48.53753 114.000
48.55748 99.000
48.57742 96.000
48.59737 101.000
48.61732 115.000
48.63726 92.000
48.65721 108.000
48.67716 109.000
48.69711 141.000
48.71705 117.000
48.73700 95.000
48.75695 110.000
48.77689 108.000
48.79684 100.000
48.81679 107.000
48.83673 110.000
48.85668 111.000
48.87663 91.000
48.89658 101.000
48.91652 110.000
48.93647 108.000
48.95642 100.000
48.97636 102.000
48.99631 104.000
49.01626 112.000
49.03620 100.000
49.05615 106.000
49.07610 88.000
49.09605 111.000
49.11599 109.000
49.13594 113.000
49.15589 101.000
49.17583 99.000
49.19578 112.000
49.21573 113.000
49.23567 101.000
49.25562 114.000
49.27557 103.000
49.29551 98.000
49.31546 113.000
49.33541 104.000
49.35536 99.000
49.37530 115.000
49.39525 106.000
49.41520 131.000
49.43514 131.000
49.45509 107.000
49.47504 123.000
49.49498 114.000
49.51493 117.000
49.53488 128.000
49.55483 121.000
49.57477 110.000
49.59472 96.000
49.61467 110.000
49.63461 119.000
49.65456 111.000
49.67451 106.000
49.69445 109.000
49.71440 102.000
49.73435 89.000
49.75429 102.000
49.77424 103.000
49.79419 102.000
49.81414 116.000
49.83408 105.000
49.85403 110.000
49.87398 105.000
49.89392 136.000
49.91387 95.000
49.93382 106.000
49.95376 95.000
49.97371 124.000
49.99366 114.000
50.01361 93.000
50.03355 102.000
50.05350 109.000
50.07345 108.000
50.09339 114.000
50.11334 131.000
50.13329 109.000
50.15323 105.000
50.17318 112.000
50.19313 87.000
50.21307 104.000
50.23302 126.000
50.25297 105.000
50.27292 115.000
50.29286 111.000
50.31281 117.000
50.33276 108.000
50.35270 119.000
50.37265 113.000
50.39260 106.000
50.41254 101.000
50.43249 115.000
50.45244 90.000
50.47239 79.000
50.49233 74.000
50.51228 102.000
50.53223 99.000
50.55217 119.000
50.57212 101.000
50.59207 102.000
50.61201 95.000
50.63196 111.000
50.65191 94.000
50.67186 122.000
50.69180 112.000
50.71175 107.000
50.73170 123.000
50.75164 98.000
50.77159 116.000
50.79154 127.000
50.81148 113.000
50.83143 116.000
50.85138 107.000
50.87132 113.000
50.89127 89.000
50.91122 107.000
50.93117 118.000
50.95111 89.000
50.97106 105.000
50.99101 115.000
51.01095 90.000
51.03090 99.000
51.05085 105.000
51.07079 103.000
51.09074 91.000
51.11069 112.000
51.13064 107.000
51.15058 105.000
51.17053 109.000
51.19048 95.000
51.21042 105.000
51.23037 109.000
51.25032 134.000
51.27026 100.000
51.29021 99.000
51.31016 91.000
51.33010 103.000
51.35005 105.000
51.37000 92.000
51.38995 116.000
51.40989 106.000
51.42984 115.000
51.44979 114.000
51.46973 102.000
51.48968 101.000
51.50963 118.000
51.52957 96.000
51.54952 116.000
51.56947 104.000
51.58942 104.000
51.60936 113.000
51.62931 120.000
51.64926 96.000
51.66920 102.000
51.68915 110.000
51.70910 123.000
51.72904 107.000
51.74899 117.000
51.76894 97.000
51.78888 136.000
51.80883 115.000
51.82878 94.000
51.84873 94.000
51.86867 95.000
51.88862 123.000
51.90857 96.000
51.92851 119.000
51.94846 108.000
51.96841 110.000
51.98835 114.000
52.00830 99.000
52.02825 98.000
52.04820 115.000
52.06814 117.000
52.08809 102.000
52.10804 106.000
52.12798 113.000
52.14793 101.000
52.16788 103.000
52.18782 105.000
52.20777 112.000
52.22772 96.000
52.24767 109.000
52.26761 124.000
52.28756 104.000
52.30751 114.000
52.32745 108.000
52.34740 89.000
52.36735 85.000
52.38729 103.000
52.40724 93.000
52.42719 102.000
52.44713 115.000
52.46708 108.000
52.48703 113.000
52.50698 97.000
52.52692 106.000
52.54687 102.000
52.56682 100.000
52.58676 113.000
52.60671 97.000
52.62666 97.000
52.64660 99.000
52.66655 123.000
52.68650 93.000
52.70645 94.000
52.72639 110.000
52.74634 120.000
52.76629 113.000
52.78623 118.000
52.80618 119.000
52.82613 97.000
52.84607 120.000
52.86602 93.000
52.88597 103.000
52.90591 87.000
52.92586 127.000
52.94581 109.000
52.96576 102.000
52.98570 107.000
53.00565 118.000
53.02560 123.000
53.04554 96.000
53.06549 104.000
53.08544 97.000
53.10538 114.000
53.12533 122.000
53.14528 116.000
53.16523 112.000
53.18517 106.000
53.20512 105.000
53.22507 115.000
53.24501 109.000
53.26496 100.000
53.28491 109.000
53.30485 124.000
53.32480 118.000
53.34475 115.000
53.36469 123.000
53.38464 99.000
53.40459 105.000
53.42454 116.000
53.44448 102.000
53.46443 123.000
53.48438 120.000
53.50432 104.000
53.52427 97.000
53.54422 131.000
53.56416 120.000
53.58411 136.000
53.60406 111.000
53.62401 140.000
53.64395 143.000
53.66390 157.000
53.68385 156.000
53.70379 151.000
53.72374 188.000
53.74369 217.000
53.76363 239.000
53.78358 319.000
53.80353 353.000
53.82348 356.000
53.84342 307.000
53.86337 294.000
53.88332 246.000
53.90326 244.000
53.92321 263.000
53.94316 282.000
53.96310 263.000
53.98305 230.000
54.00300 207.000
54.02294 186.000
54.04289 142.000
54.06284 172.000
54.08279 136.000
54.10273 118.000
54.12268 119.000
54.14263 129.000
54.16257 133.000
54.18252 101.000
54.20247 119.000
54.22241 125.000
54.24236 129.000
54.26231 116.000
54.28226 96.000
54.30220 112.000
54.32215 106.000
54.34210 121.000
54.36204 120.000
54.38199 114.000
54.40194 118.000
54.42188 112.000
54.44183 111.000
54.46178 134.000
54.48172 120.000
54.50167 106.000
54.52162 112.000
54.54157 113.000
54.56151 104.000
54.58146 122.000
54.60141 108.000
54.62135 117.000
54.64130 131.000
54.66125 111.000
54.68119 112.000
54.70114 121.000
54.72109 114.000
54.74104 117.000
54.76098 118.000
54.78093 128.000
54.80088 123.000
54.82082 130.000
54.84077 118.000
54.86072 105.000
54.88066 108.000
54.90061 129.000
54.92056 118.000
54.94050 107.000
54.96045 100.000
54.98040 119.000
55.00035 108.000
55.02029 137.000
55.04024 124.000
55.06019 129.000
55.08013 136.000
55.10008 114.000
55.12003 108.000
55.13997 122.000
55.15992 103.000
55.17987 99.000
55.19982 125.000
55.21976 100.000
55.23971 115.000
55.25966 108.000
55.27960 113.000
55.29955 111.000
55.31950 104.000
55.33944 108.000
55.35939 123.000
55.37934 88.000
55.39929 111.000
55.41923 124.000
55.43918 109.000
55.45913 120.000
55.47907 97.000
55.49902 93.000
55.51897 114.000
55.53891 102.000
55.55886 101.000
55.57881 108.000
55.59875 102.000
55.61870 105.000
55.63865 107.000
55.65860 105.000
55.67854 119.000
55.69849 96.000
55.71844 111.000
55.73838 104.000
55.75833 120.000
55.77828 126.000
55.79822 120.000
55.81817 104.000
55.83812 109.000
55.85807 109.000
55.87801 120.000
55.89796 134.000
55.91791 105.000
55.93785 112.000
55.95780 101.000
55.97775 114.000
55.99769 116.000
56.01764 109.000
56.03759 121.000
56.05753 119.000
56.07748 108.000
56.09743 108.000
56.11738 131.000
56.13732 117.000
56.15727 116.000
56.17722 94.000
56.19716 112.000
56.21711 99.000
56.23706 104.000
56.25700 120.000
56.27695 117.000
56.29690 138.000
56.31685 119.000
56.33679 99.000
56.35674 109.000
56.37669 113.000
56.39663 105.000
56.41658 136.000
56.43653 117.000
56.45647 131.000
56.47642 111.000
56.49637 125.000
56.51631 118.000
56.53626 114.000
56.55621 125.000
56.57616 120.000
56.59610 121.000
56.61605 117.000
56.63600 128.000
56.65594 101.000
56.67589 107.000
56.69584 121.000
56.71578 110.000
56.73573 135.000
56.75568 110.000
56.77563 120.000
56.79557 113.000
56.81552 124.000
56.83547 134.000
56.85541 116.000
56.87536 118.000
56.89531 118.000
56.91525 129.000
56.93520 143.000
56.95515 114.000
56.97510 146.000
56.99504 139.000
57.01499 153.000
57.03494 162.000
57.05488 152.000
57.07483 182.000
57.09478 177.000
57.11472 173.000
57.13467 195.000
57.15462 200.000
57.17456 192.000
57.19451 207.000
57.21446 252.000
57.23441 296.000
57.25435 323.000
57.27430 359.000
57.29425 442.000
57.31419 565.000
57.33414 718.000
57.35409 762.000
57.37403 832.000
57.39398 774.000
57.41393 706.000
57.43388 624.000
57.45382 558.000
57.47377 519.000
57.49372 579.000
57.51366 605.000
57.53361 578.000
57.55356 470.000
57.57350 445.000
57.59345 402.000
57.61340 328.000
57.63334 277.000
57.65329 245.000
57.67324 225.000
57.69319 217.000
57.71313 265.000
57.73308 191.000
57.75303 198.000
57.77297 190.000
57.79292 153.000
57.81287 192.000
57.83281 181.000
57.85276 165.000
57.87271 182.000
57.89266 183.000
57.91260 186.000
57.93255 196.000
57.95250 195.000
57.97244 165.000
57.99239 202.000
58.01234 183.000
58.03228 194.000
58.05223 206.000
58.07218 193.000
58.09212 176.000
58.11207 173.000
58.13202 184.000
58.15197 179.000
58.17191 154.000
58.19186 183.000
58.21181 182.000
58.23175 164.000
58.25170 153.000
58.27165 151.000
58.29159 182.000
58.31154 159.000
58.33149 142.000
58.35144 152.000
58.37138 157.000
58.39133 130.000
58.41128 143.000
58.43122 162.000
58.45117 150.000
58.47112 129.000
58.49106 149.000
58.51101 134.000
58.53096 139.000
58.55090 104.000
58.57085 127.000
58.59080 123.000
58.61075 108.000
58.63069 138.000
58.65064 141.000
58.67059 135.000
58.69053 114.000
58.71048 129.000
58.73043 135.000
58.75037 123.000
58.77032 131.000
58.79027 118.000
58.81022 131.000
58.83016 116.000
58.85011 106.000
58.87006 118.000
58.89000 109.000
58.90995 142.000
58.92990 127.000
58.94984 101.000
58.96979 109.000
58.98974 111.000
59.00969 117.000
59.02963 121.000
59.04958 109.000
59.06953 116.000
59.08947 109.000
59.10942 134.000
59.12937 125.000
59.14931 97.000
59.16926 122.000
59.18921 121.000
59.20915 133.000
59.22910 117.000
59.24905 126.000
59.26900 115.000
59.28894 124.000
59.30889 112.000
59.32884 112.000
59.34878 105.000
59.36873 113.000
59.38868 109.000
59.40862 138.000
59.42857 116.000
59.44852 107.000
59.46847 129.000
59.48841 123.000
59.50836 122.000
59.52831 118.000
59.54825 107.000
59.56820 118.000
59.58815 121.000
59.60809 101.000
59.62804 116.000
59.64799 117.000
59.66793 117.000
59.68788 126.000
59.70783 126.000
59.72778 112.000
59.74772 106.000
59.76767 134.000
59.78762 107.000
59.80756 102.000
59.82751 121.000
59.84746 125.000
59.86740 128.000
59.88735 136.000
59.90730 125.000
59.92725 112.000
59.94719 120.000
59.96714 107.000
59.98709 116.000
60.00703 115.000
60.02698 109.000
60.04693 105.000
60.06687 118.000
60.08682 121.000
60.10677 123.000
60.12671 114.000
60.14666 115.000
60.16661 106.000
60.18656 107.000
60.20650 114.000
60.22645 123.000
60.24640 97.000
60.26634 105.000
60.28629 124.000
60.30624 98.000
60.32618 105.000
60.34613 138.000
60.36608 100.000
60.38603 116.000
60.40597 125.000
60.42592 91.000
60.44587 134.000
60.46581 130.000
60.48576 114.000
60.50571 107.000
60.52565 136.000
60.54560 130.000
60.56555 154.000
60.58550 118.000
60.60544 126.000
60.62539 123.000
60.64534 105.000
60.66528 101.000
60.68523 120.000
60.70518 110.000
60.72512 101.000
60.74507 111.000
60.76502 122.000
60.78496 121.000
60.80491 91.000
60.82486 106.000
60.84481 105.000
60.86475 96.000
60.88470 117.000
60.90465 102.000
60.92459 107.000
60.94454 117.000
60.96449 115.000
60.98443 122.000
61.00438 144.000
61.02433 107.000
61.04428 125.000
61.06422 142.000
61.08417 118.000
61.10412 132.000
61.12406 131.000
61.14401 127.000
61.16396 127.000
61.18390 119.000
61.20385 119.000
61.22380 118.000
61.24374 137.000
61.26369 141.000
61.28364 132.000
61.30359 107.000
61.32353 160.000
61.34348 146.000
61.36343 153.000
61.38337 162.000
61.40332 170.000
61.42327 174.000
61.44321 200.000
61.46316 214.000
61.48311 225.000
61.50306 287.000
61.52300 310.000
61.54295 312.000
61.56290 351.000
61.58284 365.000
61.60279 341.000
61.62274 351.000
61.64268 369.000
61.66263 345.000
61.68258 324.000
61.70252 321.000
61.72247 335.000
61.74242 338.000
61.76237 277.000
61.78231 300.000
61.80226 259.000
61.82221 241.000
61.84215 266.000
61.86210 223.000
61.88205 226.000
61.90199 188.000
61.92194 199.000
61.94189 188.000
61.96184 196.000
61.98178 223.000
62.00173 184.000
62.02168 181.000
62.04162 170.000
62.06157 201.000
62.08152 184.000
62.10146 177.000
62.12141 200.000
62.14136 203.000
62.16131 196.000
62.18125 205.000
62.20120 190.000
62.22115 207.000
62.24109 172.000
62.26104 185.000
62.28099 199.000
62.30093 176.000
62.32088 171.000
62.34083 168.000
62.36077 165.000
62.38072 164.000
62.40067 170.000
62.42062 164.000
62.44056 166.000
62.46051 161.000
62.48046 169.000
62.50040 149.000
62.52035 197.000
62.54030 198.000
62.56024 192.000
62.58019 202.000
62.60014 209.000
62.62009 255.000
62.64003 254.000
62.65998 280.000
62.67993 299.000
62.69987 327.000
62.71982 342.000
62.73977 414.000
62.75971 400.000
62.77966 480.000
62.79961 509.000
62.81955 548.000
62.83950 581.000
62.85945 615.000
62.87940 715.000
62.89934 722.000
62.91929 877.000
62.93924 927.000
62.95918 1030.000
62.97913 1169.000
62.99908 1229.000
63.01902 1193.000
63.03897 1073.000
63.05892 995.000
63.07887 863.000
63.09881 767.000
63.11876 770.000
63.13871 801.000
63.15865 795.000
63.17860 782.000
63.19855 703.000
63.21849 552.000
63.23844 493.000
63.25839 398.000
63.27833 356.000
63.29828 317.000
63.31823 281.000
63.33818 235.000
63.35812 233.000
63.37807 231.000
63.39802 210.000
63.41796 188.000
63.43791 188.000
63.45786 140.000
63.47780 152.000
63.49775 168.000
63.51770 153.000
63.53765 134.000
63.55759 157.000
63.57754 150.000
63.59749 134.000
63.61743 123.000
63.63738 135.000
63.65733 140.000
63.67727 167.000
63.69722 131.000
63.71717 125.000
63.73712 127.000
63.75706 159.000
63.77701 124.000
63.79696 126.000
63.81690 133.000
63.83685 147.000
63.85680 152.000
63.87674 130.000
63.89669 120.000
63.91664 120.000
63.93658 122.000
63.95653 118.000
63.97648 136.000
63.99643 98.000
64.01637 133.000
64.03632 138.000
64.05627 118.000
64.07621 119.000
64.09616 129.000
64.11611 122.000
64.13605 134.000
64.15600 128.000
64.17595 138.000
64.19590 130.000
64.21584 126.000
64.23579 129.000
64.25574 126.000
64.27568 117.000
64.29563 126.000
64.31558 128.000
64.33552 114.000
64.35547 124.000
64.37542 127.000
64.39536 125.000
64.41531 142.000
64.43526 131.000
64.45521 136.000
64.47515 113.000
64.49510 135.000
64.51505 138.000
64.53499 134.000
64.55494 141.000
64.57489 145.000
64.59483 127.000
64.61478 139.000
64.63473 121.000
64.65468 141.000
64.67462 153.000
64.69457 121.000
64.71452 140.000
64.73446 171.000
64.75441 149.000
64.77436 166.000
64.79430 157.000
64.81425 178.000
64.83420 162.000
64.85414 153.000
64.87409 131.000
64.89404 174.000
64.91399 168.000
64.93393 162.000
64.95388 185.000
64.97383 161.000
64.99377 172.000
65.01372 186.000
65.03367 169.000
65.05361 153.000
65.07356 174.000
65.09351 156.000
65.11346 170.000
65.13340 170.000
65.15335 155.000
65.17330 166.000
65.19324 143.000
65.21319 135.000
65.23314 134.000
65.25308 156.000
65.27303 129.000
65.29298 157.000
65.31293 160.000
65.33287 125.000
65.35282 144.000
65.37277 126.000
65.39271 116.000
65.41266 133.000
65.43261 157.000
65.45255 134.000
65.47250 129.000
65.49245 142.000
65.51239 117.000
65.53234 115.000
65.55229 118.000
65.57224 106.000
65.59218 114.000
65.61213 141.000
65.63208 122.000
65.65202 120.000
65.67197 106.000
65.69192 106.000
65.71186 124.000
65.73181 133.000
65.75176 109.000
65.77171 134.000
65.79165 123.000
65.81160 99.000
65.83155 113.000
65.85149 105.000
65.87144 125.000
65.89139 111.000
65.91133 118.000
65.93128 131.000
65.95123 109.000
65.97117 115.000
65.99112 122.000
66.01107 116.000
66.03102 116.000
66.05096 116.000
66.07091 105.000
66.09086 106.000
66.11080 135.000
66.13075 133.000
66.15070 131.000
66.17064 114.000
66.19059 140.000
66.21054 139.000
66.23049 107.000
66.25043 136.000
66.27038 133.000
66.29033 105.000
66.31027 128.000
66.33022 117.000
66.35017 122.000
66.37011 113.000
66.39006 126.000
66.41001 126.000
66.42995 130.000
66.44990 116.000
66.46985 111.000
66.48980 126.000
66.50974 125.000
66.52969 99.000
66.54964 99.000
66.56958 124.000
66.58953 100.000
66.60948 105.000
66.62942 100.000
66.64937 117.000
66.66932 95.000
66.68927 101.000
66.70921 95.000
66.72916 111.000
66.74911 122.000
66.76905 123.000
66.78900 89.000
66.80895 104.000
66.82889 91.000
66.84884 101.000
66.86879 122.000
66.88874 86.000
66.90868 100.000
66.92863 96.000
66.94858 96.000
66.96852 95.000
66.98847 132.000
67.00842 104.000
67.02836 73.000
67.04831 110.000
67.06826 123.000
67.08820 116.000
67.10815 96.000
67.12810 102.000
67.14805 81.000
67.16799 112.000
67.18794 102.000
67.20789 93.000
67.22783 119.000
67.24778 118.000
67.26773 105.000
67.28767 116.000
67.30762 105.000
67.32757 105.000
67.34752 104.000
67.36746 102.000
67.38741 84.000
67.40736 115.000
67.42730 101.000
67.44725 82.000
67.46720 104.000
67.48714 104.000
67.50709 102.000
67.52704 128.000
67.54698 115.000
67.56693 91.000
67.58688 94.000
67.60683 108.000
67.62677 98.000
67.64672 109.000
67.66667 94.000
67.68661 96.000
67.70656 99.000
67.72651 113.000
67.74645 107.000
67.76640 98.000
67.78635 100.000
67.80630 118.000
67.82624 109.000
67.84619 114.000
67.86614 88.000
67.88608 119.000
67.90603 122.000
67.92598 103.000
67.94592 103.000
67.96587 114.000
67.98582 95.000
68.00576 111.000
68.02571 98.000
68.04566 116.000
68.06561 98.000
68.08555 118.000
68.10550 112.000
68.12545 111.000
68.14539 83.000
68.16534 105.000
68.18529 85.000
68.20523 107.000
68.22518 92.000
68.24513 113.000
68.26508 105.000
68.28502 107.000
68.30497 101.000
68.32492 97.000
68.34486 96.000
68.36481 99.000
68.38476 88.000
68.40470 99.000
68.42465 94.000
68.44460 108.000
68.46455 95.000
68.48449 88.000
68.50444 110.000
68.52439 112.000
68.54433 111.000
68.56428 97.000
68.58423 98.000
68.60417 102.000
68.62412 93.000
68.64407 109.000
68.66401 86.000
68.68396 112.000
68.70391 118.000
68.72386 112.000
68.74380 104.000
68.76375 111.000
68.78370 114.000
68.80364 105.000
68.82359 110.000
68.84354 110.000
68.86348 104.000
68.88343 96.000
68.90338 107.000
68.92333 103.000
68.94327 91.000
68.96322 104.000
68.98317 120.000
69.00311 110.000
69.02306 94.000
69.04301 108.000
69.06295 120.000
69.08290 115.000
69.10285 103.000
69.12279 97.000
69.14274 97.000
69.16269 121.000
69.18264 108.000
69.20258 103.000
69.22253 107.000
69.24248 93.000
69.26242 114.000
69.28237 114.000
69.30232 119.000
69.32226 106.000
69.34221 100.000
69.36216 95.000
69.38211 121.000
69.40205 101.000
69.42200 109.000
69.44195 98.000
69.46189 87.000
69.48184 107.000
69.50179 97.000
69.52173 116.000
69.54168 106.000
69.56163 100.000
69.58157 105.000
69.60152 117.000
69.62147 104.000
69.64142 117.000
69.66136 111.000
69.68131 129.000
69.70126 125.000
69.72120 129.000
69.74115 102.000
69.76110 120.000
69.78104 110.000
69.80099 129.000
69.82094 112.000
69.84089 101.000
69.86083 108.000
69.88078 118.000
69.90073 124.000
69.92067 124.000
69.94062 106.000
69.96057 129.000
69.98051 119.000
70.00046 134.000
70.02041 121.000
70.04035 114.000
70.06030 127.000
70.08025 125.000
70.10020 117.000
70.12014 118.000
70.14009 115.000
70.16004 116.000
70.17998 92.000
70.19993 88.000
70.21988 121.000
70.23982 114.000
70.25977 122.000
70.27972 125.000
70.29967 112.000
70.31961 120.000
70.33956 102.000
70.35951 112.000
70.37945 128.000
70.39940 134.000
70.41935 110.000
70.43929 110.000
70.45924 103.000
70.47919 120.000
70.49914 107.000
70.51908 101.000
70.53903 101.000
70.55898 104.000
70.57892 107.000
70.59887 104.000
70.61882 82.000
70.63876 101.000
70.65871 94.000
70.67866 116.000
70.69860 113.000
70.71855 114.000
70.73850 111.000
70.75845 106.000
70.77839 106.000
70.79834 115.000
70.81829 124.000
70.83823 99.000
70.85818 106.000
70.87813 103.000
70.89807 89.000
70.91802 93.000
70.93797 131.000
70.95792 90.000
70.97786 109.000
70.99781 104.000
71.01776 109.000
71.03770 114.000
71.05765 108.000
71.07760 110.000
71.09754 100.000
71.11749 112.000
71.13744 115.000
71.15738 102.000
71.17733 114.000
71.19728 104.000
71.21723 100.000
71.23717 97.000
71.25712 133.000
71.27707 121.000
71.29701 126.000
71.31696 126.000
71.33691 151.000
71.35685 132.000
71.37680 132.000
71.39675 129.000
71.41670 143.000
71.43664 163.000
71.45659 166.000
71.47654 159.000
71.49648 148.000
71.51643 151.000
71.53638 166.000
71.55632 140.000
71.57627 155.000
71.59622 157.000
71.61616 136.000
71.63611 136.000
71.65606 154.000
71.67601 156.000
71.69595 147.000
71.71590 139.000
71.73585 147.000
71.75579 121.000
71.77574 140.000
71.79569 114.000
71.81563 130.000
71.83558 102.000
71.85553 118.000
71.87548 114.000
71.89542 104.000
71.91537 140.000
71.93532 107.000
71.95526 106.000
71.97521 126.000
71.99516 102.000
72.01510 121.000
72.03505 114.000
72.05500 114.000
72.07495 118.000
72.09489 136.000
72.11484 140.000
72.13479 116.000
72.15473 128.000
72.17468 117.000
72.19463 121.000
72.21457 122.000
72.23452 109.000
72.25447 119.000
72.27441 120.000
72.29436 117.000
72.31431 126.000
72.33426 136.000
72.35420 115.000
72.37415 128.000
72.39410 138.000
72.41404 119.000
72.43399 115.000
72.45394 128.000
72.47388 136.000
72.49383 135.000
72.51378 111.000
72.53373 142.000
72.55367 117.000
72.57362 121.000
72.59357 137.000
72.61351 125.000
72.63346 109.000
72.65341 120.000
72.67335 126.000
72.69330 99.000
72.71325 134.000
72.73319 115.000
72.75314 111.000
72.77309 132.000
72.79304 131.000
72.81298 128.000
72.83293 126.000
72.85288 135.000
72.87282 132.000
72.89277 133.000
72.91272 152.000
72.93266 133.000
72.95261 147.000
72.97256 146.000
72.99251 146.000
73.01245 128.000
73.03240 129.000
73.05235 133.000
73.07229 118.000
73.09224 145.000
73.11219 148.000
73.13213 114.000
73.15208 130.000
73.17203 144.000
73.19197 126.000
73.21192 134.000
73.23187 126.000
73.25182 146.000
73.27176 124.000
73.29171 101.000
73.31166 118.000
73.33160 116.000
73.35155 116.000
73.37150 111.000
73.39144 86.000
73.41139 112.000
73.43134 119.000
73.45129 117.000
73.47123 113.000
73.49118 108.000
73.51113 131.000
73.53107 122.000
73.55102 123.000
73.57097 109.000
73.59091 98.000
73.61086 120.000
73.63081 114.000
73.65076 119.000
73.67070 122.000
73.69065 147.000
73.71060 111.000
73.73054 123.000
73.75049 117.000
73.77044 126.000
73.79038 121.000
73.81033 116.000
73.83028 124.000
73.85022 123.000
73.87017 125.000
73.89012 101.000
73.91007 131.000
73.93001 101.000
73.94996 129.000
73.96991 107.000
73.98985 125.000
74.00980 115.000
74.02975 130.000
74.04969 125.000
74.06964 135.000
74.08959 134.000
74.10954 120.000
74.12948 148.000
74.14943 144.000
74.16938 141.000
74.18932 143.000
74.20927 151.000
74.22922 138.000
74.24916 122.000
74.26911 137.000
74.28906 169.000
74.30900 171.000
74.32895 172.000
74.34890 148.000
74.36885 154.000
74.38879 177.000
74.40874 179.000
74.42869 185.000
74.44863 195.000
74.46858 209.000
74.48853 252.000
74.50847 229.000
74.52842 269.000
74.54837 312.000
74.56832 288.000
74.58826 314.000
74.60821 248.000
74.62816 263.000
74.64810 213.000
74.66805 210.000
74.68800 221.000
74.70794 217.000
74.72789 217.000
74.74784 198.000
74.76778 225.000
74.78773 223.000
74.80768 219.000
74.82763 199.000
74.84757 169.000
74.86752 169.000
74.88747 142.000
74.90741 153.000
74.92736 140.000
74.94731 135.000
74.96725 149.000
74.98720 131.000
75.00715 128.000
75.02710 133.000
75.04704 141.000
75.06699 131.000
75.08694 121.000
75.10688 142.000
75.12683 134.000
75.14678 135.000
75.16672 143.000
75.18667 135.000
75.20662 161.000
75.22657 160.000
75.24651 175.000
75.26646 171.000
75.28641 177.000
75.30635 206.000
75.32630 178.000
75.34625 191.000
75.36619 190.000
75.38614 225.000
75.40609 240.000
75.42603 205.000
75.44598 222.000
75.46593 215.000
75.48588 245.000
75.50582 227.000
75.52577 226.000
75.54572 231.000
75.56566 214.000
75.58561 218.000
75.60556 197.000
75.62550 224.000
75.64545 200.000
75.66540 189.000
75.68535 163.000
75.70529 151.000
75.72524 175.000
75.74519 166.000
75.76513 147.000
75.78508 158.000
75.80503 147.000
75.82497 149.000
75.84492 129.000
75.86487 132.000
75.88481 127.000
75.90476 138.000
75.92471 122.000
75.94466 116.000
75.96460 121.000
75.98455 109.000
76.00450 107.000
76.02444 97.000
76.04439 119.000
76.06434 135.000
76.08428 123.000
76.10423 116.000
76.12418 111.000
76.14413 97.000
76.16407 101.000
76.18402 102.000
76.20397 107.000
76.22391 106.000
76.24386 110.000
76.26381 128.000
76.28375 113.000
76.30370 124.000
76.32365 94.000
76.34359 122.000
76.36354 121.000
76.38349 97.000
76.40344 95.000
76.42338 103.000
76.44333 115.000
76.46328 120.000
76.48322 108.000
76.50317 107.000
76.52312 114.000
76.54306 123.000
76.56301 123.000
76.58296 130.000
76.60291 146.000
76.62285 133.000
76.64280 140.000
76.66275 124.000
76.68269 128.000
76.70264 133.000
76.72259 137.000
76.74253 127.000
76.76248 149.000
76.78243 142.000
76.80238 127.000
76.82232 125.000
76.84227 147.000
76.86222 138.000
76.88216 147.000
76.90211 138.000
76.92206 134.000
76.94200 159.000
76.96195 153.000
76.98190 135.000
77.00184 153.000
77.02179 136.000
77.04174 132.000
77.06169 143.000
77.08163 137.000
77.10158 130.000
77.12153 142.000
77.14147 145.000
77.16142 137.000
77.18137 143.000
77.20131 143.000
77.22126 133.000
77.24121 132.000
77.26116 148.000
77.28110 132.000
77.30105 112.000
77.32100 131.000
77.34094 131.000
77.36089 114.000
77.38084 125.000
77.40078 121.000
77.42073 109.000
77.44068 120.000
77.46062 118.000
77.48057 117.000
77.50052 126.000
77.52047 102.000
77.54041 111.000
77.56036 102.000
77.58031 100.000
77.60025 108.000
77.62020 103.000
77.64015 111.000
77.66009 94.000
77.68004 118.000
77.69999 115.000
77.71994 109.000
77.73988 117.000
77.75983 116.000
77.77978 110.000
77.79972 88.000
77.81967 103.000
77.83962 97.000
77.85956 110.000
77.87951 106.000
77.89946 96.000
77.91940 93.000
77.93935 105.000
77.95930 111.000
77.97925 96.000
77.99919 102.000
78.01914 107.000
78.03909 102.000
78.05903 92.000
78.07898 82.000
78.09893 123.000
78.11887 103.000
78.13882 106.000
78.15877 101.000
78.17872 94.000
78.19866 100.000
78.21861 100.000
78.23856 107.000
78.25850 108.000
78.27845 96.000
78.29840 120.000
78.31834 118.000
78.33829 110.000
78.35824 104.000
78.37819 111.000
78.39813 108.000
78.41808 111.000
78.43803 95.000
78.45797 101.000
78.47792 97.000
78.49787 92.000
78.51781 96.000
78.53776 107.000
78.55771 96.000
78.57765 99.000
78.59760 105.000
78.61755 98.000
78.63750 110.000
78.65744 109.000
78.67739 110.000
78.69734 99.000
78.71728 89.000
78.73723 103.000
78.75718 117.000
78.77712 104.000
78.79707 104.000
78.81702 104.000
78.83697 126.000
78.85691 104.000
78.87686 123.000
78.89681 110.000
78.91675 130.000
78.93670 100.000
78.95665 83.000
78.97659 104.000
78.99654 103.000
79.01649 93.000
79.03643 136.000
79.05638 141.000
79.07633 117.000
79.09628 130.000
79.11622 122.000
79.13617 135.000
79.15612 136.000
79.17606 166.000
79.19601 141.000
79.21596 158.000
79.23590 152.000
79.25585 172.000
79.27580 170.000
79.29575 157.000
79.31569 177.000
79.33564 170.000
79.35559 183.000
79.37553 172.000
79.39548 185.000
79.41543 197.000
79.43537 204.000
79.45532 192.000
79.47527 197.000
79.49521 195.000
79.51516 194.000
79.53511 211.000
79.55506 206.000
79.57500 227.000
79.59495 203.000
79.61490 196.000
79.63484 209.000
79.65479 219.000
79.67474 167.000
79.69468 138.000
79.71463 171.000
79.73458 164.000
79.75453 163.000
79.77447 149.000
79.79442 175.000
79.81437 163.000
79.83431 160.000
79.85426 159.000
79.87421 149.000
79.89415 135.000
79.91410 149.000
79.93405 126.000
79.95399 112.000
79.97394 127.000
79.99389 147.000
80.01384 120.000
80.03378 141.000
80.05373 127.000
80.07368 121.000
80.09362 120.000
80.11357 108.000
80.13352 138.000
80.15346 139.000
80.17341 114.000
80.19336 137.000
80.21331 117.000
80.23325 139.000
80.25320 103.000
80.27315 123.000
80.29309 134.000
80.31304 127.000
80.33299 124.000
80.35293 126.000
80.37288 123.000
80.39283 128.000
80.41278 144.000
80.43272 131.000
80.45267 124.000
80.47262 128.000
80.49256 100.000
80.51251 113.000
80.53246 110.000
80.55240 128.000
80.57235 106.000
80.59230 117.000
80.61224 103.000
80.63219 105.000
80.65214 91.000
80.67209 98.000
80.69203 123.000
80.71198 107.000
80.73193 96.000
80.75187 90.000
80.77182 122.000
80.79177 115.000
80.81171 113.000
80.83166 109.000
80.85161 116.000
80.87156 105.000
80.89150 105.000
80.91145 111.000
80.93140 113.000
80.95134 119.000
80.97129 119.000
80.99124 112.000
81.01118 102.000
81.03113 112.000
81.05108 96.000
81.07102 106.000
81.09097 110.000
81.11092 91.000
81.13087 93.000
81.15081 96.000
81.17076 94.000
81.19071 109.000
81.21065 123.000
81.23060 117.000
81.25055 89.000
81.27049 102.000
81.29044 81.000
81.31039 110.000
81.33034 98.000
81.35028 99.000
81.37023 99.000
81.39018 113.000
81.41012 111.000
81.43007 96.000
81.45002 90.000
81.46996 94.000
81.48991 100.000
81.50986 95.000
81.52980 111.000
81.54975 113.000
81.56970 102.000
81.58965 131.000
81.60959 105.000
81.62954 99.000
81.64949 110.000
81.66943 106.000
81.68938 101.000
81.70933 105.000
81.72927 106.000
81.74922 97.000
81.76917 82.000
81.78912 111.000
81.80906 108.000
81.82901 108.000
81.84896 101.000
81.86890 95.000
81.88885 88.000
81.90880 93.000
81.92874 98.000
81.94869 95.000
81.96864 97.000
81.98859 95.000
82.00853 106.000
82.02848 87.000
82.04843 103.000
82.06837 97.000
82.08832 107.000
82.10827 107.000
82.12821 105.000
82.14816 99.000
82.16811 102.000
82.18805 103.000
82.20800 94.000
82.22795 92.000
82.24790 78.000
82.26784 84.000
82.28779 106.000
82.30774 111.000
82.32768 96.000
82.34763 100.000
82.36758 105.000
82.38752 105.000
82.40747 97.000
82.42742 101.000
82.44737 99.000
82.46731 110.000
82.48726 114.000
82.50721 109.000
82.52715 111.000
82.54710 110.000
82.56705 93.000
82.58699 96.000
82.60694 101.000
82.62689 99.000
82.64683 112.000
82.66678 107.000
82.68673 104.000
82.70668 102.000
82.72662 99.000
82.74657 96.000
82.76652 120.000
82.78646 107.000
82.80641 106.000
82.82636 83.000
82.84630 119.000
82.86625 107.000
82.88620 104.000
82.90615 108.000
82.92609 87.000
82.94604 109.000
82.96599 118.000
82.98593 97.000
83.00588 112.000
83.02583 91.000
83.04577 89.000
83.06572 87.000
83.08567 106.000
83.10561 115.000
83.12556 111.000
83.14551 95.000
83.16546 117.000
83.18540 104.000
83.20535 104.000
83.22530 91.000
83.24524 88.000
83.26519 91.000
83.28514 110.000
83.30508 87.000
83.32503 125.000
83.34498 103.000
83.36493 105.000
83.38487 90.000
83.40482 97.000
83.42477 107.000
83.44471 94.000
83.46466 85.000
83.48461 100.000
83.50455 105.000
83.52450 89.000
83.54445 88.000
83.56440 93.000
83.58434 105.000
83.60429 110.000
83.62424 96.000
83.64418 107.000
83.66413 109.000
83.68408 100.000
83.70402 112.000
83.72397 106.000
83.74392 99.000
83.76386 104.000
83.78381 103.000
83.80376 94.000
83.82371 101.000
83.84365 114.000
83.86360 90.000
83.88355 98.000
83.90349 112.000
83.92344 91.000
83.94339 89.000
83.96333 116.000
83.98328 97.000
84.00323 100.000
84.02318 101.000
84.04312 115.000
84.06307 97.000
84.08302 80.000
84.10296 120.000
84.12291 92.000
84.14286 89.000
84.16280 106.000
84.18275 101.000
84.20270 87.000
84.22264 113.000
84.24259 122.000
84.26254 103.000
84.28249 105.000
84.30243 85.000
84.32238 82.000
84.34233 104.000
84.36227 103.000
84.38222 94.000
84.40217 93.000
84.42211 87.000
84.44206 97.000
84.46201 89.000
84.48196 97.000
84.50190 101.000
84.52185 117.000
84.54180 94.000
84.56174 91.000
84.58169 86.000
84.60164 97.000
84.62158 87.000
84.64153 111.000
84.66148 107.000
84.68142 106.000
84.70137 112.000
84.72132 104.000
84.74127 93.000
84.76121 91.000
84.78116 101.000
84.80111 110.000
84.82105 103.000
84.84100 88.000
84.86095 93.000
84.88089 116.000
84.90084 98.000
84.92079 113.000
84.94074 91.000
84.96068 101.000
84.98063 108.000
85.00058 95.000
85.02052 101.000
85.04047 99.000
85.06042 97.000
85.08036 114.000
85.10031 101.000
85.12026 122.000
85.14021 98.000
85.16015 101.000
85.18010 107.000
85.20005 95.000
85.21999 97.000
85.23994 95.000
85.25989 108.000
85.27983 110.000
85.29978 110.000
85.31973 105.000
85.33967 105.000
85.35962 103.000
85.37957 103.000
85.39952 104.000
85.41946 87.000
85.43941 99.000
85.45936 109.000
85.47930 106.000
85.49925 103.000
85.51920 100.000
85.53914 115.000
85.55909 80.000
85.57904 104.000
85.59899 111.000
85.61893 99.000
85.63888 106.000
85.65883 118.000
85.67877 101.000
85.69872 111.000
85.71867 94.000
85.73861 111.000
85.75856 119.000
85.77851 126.000
85.79845 89.000
85.81840 92.000
85.83835 105.000
85.85830 90.000
85.87824 98.000
85.89819 105.000
85.91814 80.000
85.93808 99.000
85.95803 86.000
85.97798 102.000
85.99792 101.000
86.01787 100.000
86.03782 113.000
86.05777 80.000
86.07771 107.000
86.09766 86.000
86.11761 88.000
86.13755 82.000
86.15750 94.000
86.17745 104.000
86.19739 117.000
86.21734 112.000
86.23729 88.000
86.25723 106.000
86.27718 105.000
86.29713 92.000
86.31708 90.000
86.33702 115.000
86.35697 101.000
86.37692 90.000
86.39686 103.000
86.41681 106.000
86.43676 100.000
86.45670 110.000
86.47665 109.000
86.49660 93.000
86.51655 97.000
86.53649 89.000
86.55644 95.000
86.57639 97.000
86.59633 97.000
86.61628 85.000
86.63623 91.000
86.65617 98.000
86.67612 110.000
86.69607 96.000
86.71602 101.000
86.73596 91.000
86.75591 85.000
86.77586 95.000
86.79580 95.000
86.81575 111.000
86.83570 101.000
86.85564 103.000
86.87559 91.000
86.89554 105.000
86.91548 94.000
86.93543 77.000
86.95538 120.000
86.97533 101.000
86.99527 96.000
87.01522 95.000
87.03517 109.000
87.05511 116.000
87.07506 105.000
87.09501 114.000
87.11495 105.000
87.13490 96.000
87.15485 122.000
87.17480 133.000
87.19474 125.000
87.21469 119.000
87.23464 110.000
87.25458 110.000
87.27453 117.000
87.29448 110.000
87.31442 106.000
87.33437 123.000
87.35432 134.000
87.37426 137.000
87.39421 143.000
87.41416 140.000
87.43411 164.000
87.45405 150.000
87.47400 140.000
87.49395 164.000
87.51389 164.000
87.53384 124.000
87.55379 134.000
87.57373 142.000
87.59368 168.000
87.61363 161.000
87.63358 130.000
87.65352 139.000
87.67347 143.000
87.69342 162.000
87.71336 156.000
87.73331 139.000
87.75326 136.000
87.77320 134.000
87.79315 117.000
87.81310 116.000
87.83304 128.000
87.85299 113.000
87.87294 125.000
87.89289 129.000
87.91283 94.000
87.93278 109.000
87.95273 100.000
87.97267 87.000
87.99262 86.000
88.01257 102.000
88.03251 123.000
88.05246 109.000
88.07241 99.000
88.09236 115.000
88.11230 90.000
88.13225 96.000
88.15220 112.000
88.17214 106.000
88.19209 102.000
88.21204 82.000
88.23198 127.000
88.25193 105.000
88.27188 112.000
88.29183 92.000
88.31177 103.000
88.33172 115.000
88.35167 93.000
88.37161 95.000
88.39156 81.000
88.41151 101.000
88.43145 100.000
88.45140 100.000
88.47135 88.000
88.49129 110.000
88.51124 103.000
88.53119 110.000
88.55114 95.000
88.57108 110.000
88.59103 107.000
88.61098 86.000
88.63092 109.000
88.65087 102.000
88.67082 98.000
88.69076 101.000
88.71071 108.000
88.73066 106.000
88.75061 100.000
88.77055 111.000
88.79050 95.000
88.81045 103.000
88.83039 107.000
88.85034 84.000
88.87029 97.000
88.89023 103.000
88.91018 90.000
88.93013 110.000
88.95007 100.000
88.97002 109.000
88.98997 106.000
89.00992 93.000
89.02986 90.000
89.04981 106.000
89.06976 119.000
89.08970 91.000
89.10965 115.000
89.12960 110.000
89.14954 101.000
89.16949 91.000
89.18944 127.000
89.20939 118.000
89.22933 93.000
89.24928 112.000
89.26923 111.000
89.28917 92.000
89.30912 113.000
89.32907 116.000
89.34901 95.000
89.36896 107.000
89.38891 107.000
89.40885 118.000
89.42880 118.000
89.44875 119.000
89.46870 120.000
89.48864 124.000
89.50859 104.000
89.52854 107.000
89.54848 111.000
89.56843 97.000
89.58838 103.000
89.60832 108.000
89.62827 106.000
89.64822 99.000
89.66817 104.000
89.68811 112.000
89.70806 123.000
89.72801 140.000
89.74795 119.000
89.76790 109.000
89.78785 129.000
89.80779 112.000
89.82774 110.000
89.84769 120.000
89.86764 116.000
89.88758 107.000
89.90753 113.000
89.92748 114.000
89.94742 128.000
89.96737 118.000
89.98732 119.000
90.00726 140.000
