10.00000 96.000
10.01995 89.000
10.03989 94.000
10.05984 79.000
10.07979 97.000
10.09973 90.000
10.11968 86.000
10.13963 82.000
10.15958 94.000
10.17952 90.000
10.19947 81.000
10.21942 101.000
10.23936 94.000
10.25931 97.000
10.27926 78.000
10.29920 98.000
10.31915 88.000
10.33910 98.000
10.35905 97.000
10.37899 108.000
10.39894 103.000
10.41889 100.000
10.43883 98.000
10.45878 111.000
10.47873 106.000
10.49867 77.000
10.51862 110.000
10.53857 83.000
10.55851 82.000
10.57846 101.000
10.59841 95.000
10.61836 97.000
10.63830 94.000
10.65825 91.000
10.67820 86.000
10.69814 94.000
10.71809 94.000
10.73804 100.000
10.75798 102.000
10.77793 85.000
10.79788 99.000
10.81783 92.000
10.83777 97.000
10.85772 96.000
10.87767 104.000
10.89761 100.000
10.91756 98.000
10.93751 91.000
10.95745 99.000
10.97740 112.000
10.99735 95.000
11.01730 113.000
11.03724 94.000
11.05719 102.000
11.07714 116.000
11.09708 103.000
11.11703 111.000
11.13698 87.000
11.15692 107.000
11.17687 88.000
11.19682 108.000
11.21676 84.000
11.23671 102.000
11.25666 106.000
11.27661 96.000
11.29655 103.000
11.31650 127.000
11.33645 108.000
11.35639 110.000
11.37634 99.000
11.39629 108.000
11.41623 111.000
11.43618 109.000
11.45613 84.000
11.47608 99.000
11.49602 96.000
11.51597 122.000
11.53592 116.000
11.55586 91.000
11.57581 83.000
11.59576 124.000
11.61570 111.000
11.63565 99.000
11.65560 109.000
11.67554 93.000
11.69549 114.000
11.71544 94.000
11.73539 91.000
11.75533 113.000
11.77528 106.000
11.79523 127.000
11.81517 114.000
11.83512 110.000
11.85507 111.000
11.87501 117.000
11.89496 123.000
11.91491 108.000
11.93486 99.000
11.95480 119.000
11.97475 118.000
11.99470 98.000
12.01464 102.000
12.03459 98.000
12.05454 124.000
12.07448 111.000
12.09443 120.000
12.11438 88.000
12.13432 114.000
12.15427 113.000
12.17422 107.000
12.19417 106.000
12.21411 104.000
12.23406 118.000
12.25401 116.000
12.27395 126.000
12.29390 130.000
12.31385 114.000
12.33379 117.000
12.35374 92.000
12.37369 100.000
12.39364 101.000
12.41358 119.000
12.43353 107.000
12.45348 105.000
12.47342 134.000
12.49337 124.000
12.51332 98.000
12.53326 122.000
12.55321 133.000
12.57316 96.000
12.59311 120.000
12.61305 92.000
12.63300 119.000
12.65295 125.000
12.67289 117.000
12.69284 122.000
12.71279 132.000
12.73273 128.000
12.75268 132.000
12.77263 104.000
12.79257 110.000
12.81252 140.000
12.83247 102.000
12.85242 136.000
12.87236 133.000
12.89231 125.000
12.91226 118.000
12.93220 106.000
12.95215 113.000
12.97210 119.000
12.99204 117.000
13.01199 137.000
13.03194 120.000
13.05189 121.000
13.07183 119.000
13.09178 119.000
13.11173 130.000
13.13167 103.000
13.15162 119.000
13.17157 116.000
13.19151 103.000
13.21146 122.000
13.23141 116.000
13.25135 119.000
13.27130 132.000
13.29125 138.000
13.31120 114.000
13.33114 125.000
13.35109 120.000
13.37104 129.000
13.39098 109.000
13.41093 110.000
13.43088 114.000
13.45082 129.000
13.47077 115.000
13.49072 137.000
13.51067 133.000
13.53061 133.000
13.55056 128.000
13.57051 134.000
13.59045 125.000
13.61040 132.000
13.63035 116.000
13.65029 124.000
13.67024 122.000
13.69019 125.000
13.71013 137.000
13.73008 104.000
13.75003 138.000
13.76998 107.000
13.78992 118.000
13.80987 113.000
13.82982 136.000
13.84976 129.000
13.86971 119.000
13.88966 136.000
13.90960 126.000
13.92955 127.000
13.94950 119.000
13.96945 129.000
13.98939 139.000
14.00934 143.000
14.02929 115.000
14.04923 116.000
14.06918 141.000
14.08913 133.000
14.10907 119.000
14.12902 136.000
14.14897 125.000
14.16892 124.000
14.18886 113.000
14.20881 125.000
14.22876 118.000
14.24870 150.000
14.26865 141.000
14.28860 143.000
14.30854 138.000
14.32849 129.000
14.34844 116.000
14.36838 139.000
14.38833 132.000
14.40828 126.000
14.42823 126.000
14.44817 141.000
14.46812 134.000
14.48807 142.000
14.50801 132.000
14.52796 127.000
14.54791 127.000
14.56785 135.000
14.58780 136.000
14.60775 133.000
14.62770 152.000
14.64764 141.000
14.66759 143.000
14.68754 146.000
14.70748 128.000
14.72743 166.000
14.74738 128.000
14.76732 121.000
14.78727 138.000
14.80722 134.000
14.82716 140.000
14.84711 162.000
14.86706 132.000
14.88701 140.000
14.90695 162.000
14.92690 155.000
14.94685 155.000
14.96679 155.000
14.98674 161.000
15.00669 152.000
15.02663 145.000
15.04658 142.000
15.06653 145.000
15.08648 131.000
15.10642 161.000
15.12637 152.000
15.14632 144.000
15.16626 151.000
15.18621 148.000
15.20616 160.000
15.22610 168.000
15.24605 160.000
15.26600 138.000
15.28594 169.000
15.30589 165.000
15.32584 154.000
15.34579 149.000
15.36573 166.000
15.38568 164.000
15.40563 166.000
15.42557 140.000
15.44552 157.000
15.46547 158.000
15.48541 169.000
15.50536 147.000
15.52531 139.000
15.54526 141.000
15.56520 120.000
15.58515 163.000
15.60510 158.000
15.62504 167.000
15.64499 139.000
15.66494 170.000
15.68488 152.000
15.70483 137.000
15.72478 178.000
15.74472 174.000
15.76467 166.000
15.78462 174.000
15.80457 140.000
15.82451 159.000
15.84446 150.000
15.86441 162.000
15.88435 155.000
15.90430 161.000
15.92425 179.000
15.94419 178.000
15.96414 186.000
15.98409 183.000
16.00404 180.000
16.02398 171.000
16.04393 185.000
16.06388 188.000
16.08382 146.000
16.10377 184.000
16.12372 183.000
16.14366 163.000
16.16361 186.000
16.18356 171.000
16.20351 196.000
16.22345 187.000
16.24340 168.000
16.26335 179.000
16.28329 174.000
16.30324 181.000
16.32319 199.000
16.34313 186.000
16.36308 180.000
16.38303 204.000
16.40297 191.000
16.42292 209.000
16.44287 171.000
16.46282 207.000
16.48276 200.000
16.50271 204.000
16.52266 211.000
16.54260 193.000
16.56255 197.000
16.58250 187.000
16.60244 220.000
16.62239 198.000
16.64234 212.000
16.66229 194.000
16.68223 200.000
16.70218 210.000
16.72213 208.000
16.74207 209.000
16.76202 225.000
16.78197 203.000
16.80191 226.000
16.82186 232.000
16.84181 236.000
16.86175 226.000
16.88170 212.000
16.90165 223.000
16.92160 220.000
16.94154 229.000
16.96149 248.000
16.98144 231.000
17.00138 222.000
17.02133 222.000
17.04128 254.000
17.06122 215.000
17.08117 249.000
17.10112 229.000
17.12107 236.000
17.14101 257.000
17.16096 249.000
17.18091 238.000
17.20085 254.000
17.22080 236.000
17.24075 247.000
17.26069 264.000
17.28064 243.000
17.30059 255.000
17.32053 270.000
17.34048 249.000
17.36043 280.000
17.38038 251.000
17.40032 238.000
17.42027 252.000
17.44022 279.000
17.46016 285.000
17.48011 263.000
17.50006 254.000
17.52000 299.000
17.53995 241.000
17.55990 300.000
17.57985 271.000
17.59979 275.000
17.61974 290.000
17.63969 263.000
17.65963 266.000
17.67958 281.000
17.69953 291.000
17.71947 287.000
17.73942 288.000
17.75937 293.000
17.77932 283.000
17.79926 281.000
17.81921 297.000
17.83916 297.000
17.85910 280.000
17.87905 307.000
17.89900 291.000
17.91894 258.000
17.93889 309.000
17.95884 292.000
17.97878 288.000
17.99873 317.000
18.01868 281.000
18.03863 339.000
18.05857 319.000
18.07852 339.000
18.09847 328.000
18.11841 311.000
18.13836 330.000
18.15831 327.000
18.17825 327.000
18.19820 337.000
18.21815 320.000
18.23810 322.000
18.25804 320.000
18.27799 365.000
18.29794 296.000
18.31788 333.000
18.33783 322.000
18.35778 365.000
18.37772 372.000
18.39767 347.000
18.41762 308.000
18.43756 338.000
18.45751 324.000
18.47746 342.000
18.49741 342.000
18.51735 363.000
18.53730 348.000
18.55725 338.000
18.57719 347.000
18.59714 385.000
18.61709 353.000
18.63703 342.000
18.65698 392.000
18.67693 392.000
18.69688 382.000
18.71682 387.000
18.73677 368.000
18.75672 397.000
18.77666 380.000
18.79661 371.000
18.81656 383.000
18.83650 378.000
18.85645 404.000
18.87640 380.000
18.89634 379.000
18.91629 376.000
18.93624 389.000
18.95619 414.000
18.97613 383.000
18.99608 393.000
19.01603 394.000
19.03597 386.000
19.05592 395.000
19.07587 408.000
19.09581 402.000
19.11576 409.000
19.13571 418.000
19.15566 400.000
19.17560 396.000
19.19555 428.000
19.21550 367.000
19.23544 420.000
19.25539 418.000
19.27534 384.000
19.29528 427.000
19.31523 422.000
19.33518 406.000
19.35513 417.000
19.37507 395.000
19.39502 411.000
19.41497 450.000
19.43491 403.000
19.45486 435.000
19.47481 408.000
19.49475 419.000
19.51470 445.000
19.53465 425.000
19.55459 429.000
19.57454 430.000
19.59449 417.000
19.61444 428.000
19.63438 446.000
19.65433 429.000
19.67428 458.000
19.69422 460.000
19.71417 440.000
19.73412 443.000
19.75406 432.000
19.77401 435.000
19.79396 476.000
19.81391 452.000
19.83385 458.000
19.85380 442.000
19.87375 424.000
19.89369 485.000
19.91364 471.000
19.93359 468.000
19.95353 446.000
19.97348 454.000
19.99343 508.000
20.01337 483.000
20.03332 463.000
20.05327 508.000
20.07322 454.000
20.09316 441.000
20.11311 484.000
20.13306 465.000
20.15300 473.000
20.17295 492.000
20.19290 458.000
20.21284 477.000
20.23279 464.000
20.25274 471.000
20.27269 511.000
20.29263 468.000
20.31258 458.000
20.33253 470.000
20.35247 497.000
20.37242 509.000
20.39237 495.000
20.41231 476.000
20.43226 495.000
20.45221 484.000
20.47215 491.000
20.49210 482.000
20.51205 514.000
20.53200 475.000
20.55194 508.000
20.57189 493.000
20.59184 534.000
20.61178 519.000
20.63173 491.000
20.65168 492.000
20.67162 534.000
20.69157 480.000
20.71152 507.000
20.73147 541.000
20.75141 520.000
20.77136 468.000
20.79131 485.000
20.81125 491.000
20.83120 516.000
20.85115 518.000
20.87109 515.000
20.89104 496.000
20.91099 556.000
20.93094 538.000
20.95088 533.000
20.97083 494.000
20.99078 549.000
21.01072 494.000
21.03067 499.000
21.05062 516.000
21.07056 522.000
21.09051 532.000
21.11046 491.000
21.13040 521.000
21.15035 560.000
21.17030 511.000
21.19025 550.000
21.21019 531.000
21.23014 556.000
21.25009 512.000
21.27003 531.000
21.28998 513.000
21.30993 554.000
21.32987 542.000
21.34982 530.000
21.36977 548.000
21.38972 531.000
21.40966 538.000
21.42961 507.000
21.44956 534.000
21.46950 545.000
21.48945 514.000
21.50940 551.000
21.52934 554.000
21.54929 575.000
21.56924 577.000
21.58918 528.000
21.60913 548.000
21.62908 521.000
21.64903 552.000
21.66897 549.000
21.68892 541.000
21.70887 537.000
21.72881 534.000
21.74876 588.000
21.76871 541.000
21.78865 550.000
21.80860 518.000
21.82855 550.000
21.84850 553.000
21.86844 541.000
21.88839 581.000
21.90834 538.000
21.92828 578.000
21.94823 534.000
21.96818 557.000
21.98812 571.000
22.00807 556.000
22.02802 547.000
22.04796 604.000
22.06791 544.000
22.08786 578.000
22.10781 540.000
22.12775 542.000
22.14770 626.000
22.16765 606.000
22.18759 575.000
22.20754 573.000
22.22749 584.000
22.24743 625.000
22.26738 549.000
22.28733 545.000
22.30728 619.000
22.32722 597.000
22.34717 587.000
22.36712 580.000
22.38706 567.000
22.40701 561.000
22.42696 593.000
22.44690 630.000
22.46685 614.000
22.48680 606.000
22.50675 579.000
22.52669 621.000
22.54664 603.000
22.56659 632.000
22.58653 596.000
22.60648 590.000
22.62643 637.000
22.64637 592.000
22.66632 599.000
22.68627 625.000
22.70621 620.000
22.72616 661.000
22.74611 591.000
22.76606 579.000
22.78600 628.000
22.80595 628.000
22.82590 662.000
22.84584 545.000
22.86579 646.000
22.88574 599.000
22.90568 711.000
22.92563 659.000
22.94558 581.000
22.96553 626.000
22.98547 605.000
23.00542 604.000
23.02537 639.000
23.04531 657.000
23.06526 654.000
23.08521 647.000
23.10515 632.000
23.12510 613.000
23.14505 601.000
23.16499 649.000
23.18494 660.000
23.20489 620.000
23.22484 589.000
23.24478 650.000
23.26473 589.000
23.28468 621.000
23.30462 664.000
23.32457 620.000
23.34452 656.000
23.36446 653.000
23.38441 670.000
23.40436 675.000
23.42431 633.000
23.44425 640.000
23.46420 668.000
23.48415 669.000
23.50409 671.000
23.52404 660.000
23.54399 705.000
23.56393 630.000
23.58388 650.000
23.60383 666.000
23.62377 680.000
23.64372 729.000
23.66367 699.000
23.68362 678.000
23.70356 705.000
23.72351 695.000
23.74346 656.000
23.76340 676.000
23.78335 685.000
23.80330 663.000
23.82324 708.000
23.84319 720.000
23.86314 646.000
23.88309 693.000
23.90303 709.000
23.92298 729.000
23.94293 692.000
23.96287 686.000
23.98282 699.000
24.00277 741.000
24.02271 714.000
24.04266 716.000
24.06261 753.000
24.08256 678.000
24.10250 718.000
24.12245 738.000
24.14240 733.000
24.16234 667.000
24.18229 740.000
24.20224 686.000
24.22218 736.000
24.24213 760.000
24.26208 738.000
24.28202 727.000
24.30197 755.000
24.32192 759.000
24.34187 726.000
24.36181 748.000
24.38176 749.000
24.40171 719.000
24.42165 780.000
24.44160 748.000
24.46155 750.000
24.48149 756.000
24.50144 789.000
24.52139 758.000
24.54134 764.000
24.56128 743.000
24.58123 764.000
24.60118 815.000
24.62112 802.000
24.64107 791.000
24.66102 788.000
24.68096 804.000
24.70091 751.000
24.72086 746.000
24.74080 753.000
24.76075 773.000
24.78070 742.000
24.80065 784.000
24.82059 799.000
24.84054 812.000
24.86049 824.000
24.88043 794.000
24.90038 819.000
24.92033 812.000
24.94027 829.000
24.96022 763.000
24.98017 863.000
25.00012 777.000
25.02006 818.000
25.04001 823.000
25.05996 818.000
25.07990 795.000
25.09985 853.000
25.11980 833.000
25.13974 823.000
25.15969 851.000
25.17964 805.000
25.19958 901.000
25.21953 837.000
25.23948 876.000
25.25943 853.000
25.27937 860.000
25.29932 853.000
25.31927 883.000
25.33921 834.000
25.35916 830.000
25.37911 908.000
25.39905 896.000
25.41900 904.000
25.43895 860.000
25.45890 857.000
25.47884 880.000
25.49879 911.000
25.51874 832.000
25.53868 907.000
25.55863 889.000
25.57858 872.000
25.59852 868.000
25.61847 911.000
25.63842 959.000
25.65837 948.000
25.67831 835.000
25.69826 945.000
25.71821 888.000
25.73815 930.000
25.75810 913.000
25.77805 916.000
25.79799 880.000
25.81794 886.000
25.83789 874.000
25.85783 917.000
25.87778 923.000
25.89773 999.000
25.91768 912.000
25.93762 934.000
25.95757 978.000
25.97752 982.000
25.99746 949.000
26.01741 961.000
26.03736 969.000
26.05730 983.000
26.07725 991.000
26.09720 923.000
26.11715 1037.000
26.13709 953.000
26.15704 981.000
26.17699 1025.000
26.19693 929.000
26.21688 1013.000
26.23683 981.000
26.25677 972.000
26.27672 956.000
26.29667 1022.000
26.31661 985.000
26.33656 990.000
26.35651 1019.000
26.37646 1012.000
26.39640 995.000
26.41635 1063.000
26.43630 1083.000
26.45624 1059.000
26.47619 987.000
26.49614 1053.000
26.51608 1044.000
26.53603 1040.000
26.55598 1024.000
26.57593 1027.000
26.59587 1066.000
26.61582 1031.000
26.63577 983.000
26.65571 1086.000
26.67566 1093.000
26.69561 1052.000
26.71555 1080.000
26.73550 1091.000
26.75545 1040.000
26.77539 1104.000
26.79534 1076.000
26.81529 1069.000
26.83524 1084.000
26.85518 1058.000
26.87513 1071.000
26.89508 1073.000
26.91502 1093.000
26.93497 1111.000
26.95492 1123.000
26.97486 1112.000
26.99481 1094.000
27.01476 1108.000
27.03471 1121.000
27.05465 1152.000
27.07460 1121.000
27.09455 1138.000
27.11449 1077.000
27.13444 1116.000
27.15439 1133.000
27.17433 1142.000
27.19428 1176.000
27.21423 1253.000
27.23417 1150.000
27.25412 1162.000
27.27407 1119.000
27.29402 1100.000
27.31396 1133.000
27.33391 1145.000
27.35386 1140.000
27.37380 1171.000
27.39375 1170.000
27.41370 1179.000
27.43364 1142.000
27.45359 1191.000
27.47354 1166.000
27.49349 1181.000
27.51343 1255.000
27.53338 1148.000
27.55333 1204.000
27.57327 1157.000
27.59322 1194.000
27.61317 1160.000
27.63311 1236.000
27.65306 1221.000
27.67301 1170.000
27.69296 1144.000
27.71290 1184.000
27.73285 1234.000
27.75280 1267.000
27.77274 1177.000
27.79269 1239.000
27.81264 1200.000
27.83258 1202.000
27.85253 1159.000
27.87248 1184.000
27.89242 1193.000
27.91237 1245.000
27.93232 1213.000
27.95227 1266.000
27.97221 1248.000
27.99216 1204.000
28.01211 1267.000
28.03205 1205.000
28.05200 1245.000
28.07195 1239.000
28.09189 1234.000
28.11184 1238.000
28.13179 1277.000
28.15174 1253.000
28.17168 1274.000
28.19163 1224.000
28.21158 1284.000
28.23152 1263.000
28.25147 1276.000
28.27142 1241.000
28.29136 1256.000
28.31131 1218.000
28.33126 1276.000
28.35120 1195.000
28.37115 1248.000
28.39110 1294.000
28.41105 1299.000
28.43099 1322.000
28.45094 1325.000
28.47089 1264.000
28.49083 1244.000
28.51078 1239.000
28.53073 1291.000
28.55067 1234.000
28.57062 1290.000
28.59057 1297.000
28.61052 1271.000
28.63046 1310.000
28.65041 1295.000
28.67036 1251.000
28.69030 1307.000
28.71025 1224.000
28.73020 1273.000
28.75014 1250.000
28.77009 1316.000
28.79004 1250.000
28.80998 1325.000
28.82993 1294.000
28.84988 1299.000
28.86983 1257.000
28.88977 1324.000
28.90972 1310.000
28.92967 1330.000
28.94961 1299.000
28.96956 1331.000
28.98951 1309.000
29.00945 1285.000
29.02940 1396.000
29.04935 1303.000
29.06930 1294.000
29.08924 1316.000
29.10919 1268.000
29.12914 1394.000
29.14908 1365.000
29.16903 1318.000
29.18898 1318.000
29.20892 1325.000
29.22887 1385.000
29.24882 1272.000
29.26877 1269.000
29.28871 1352.000
29.30866 1298.000
29.32861 1384.000
29.34855 1319.000
29.36850 1260.000
29.38845 1311.000
29.40839 1318.000
29.42834 1292.000
29.44829 1283.000
29.46823 1289.000
29.48818 1406.000
29.50813 1228.000
29.52808 1352.000
29.54802 1298.000
29.56797 1271.000
29.58792 1403.000
29.60786 1288.000
29.62781 1370.000
29.64776 1303.000
29.66770 1335.000
29.68765 1352.000
29.70760 1285.000
29.72755 1334.000
29.74749 1325.000
29.76744 1335.000
29.78739 1319.000
29.80733 1285.000
29.82728 1304.000
29.84723 1325.000
29.86717 1277.000
29.88712 1371.000
29.90707 1374.000
29.92701 1358.000
29.94696 1264.000
29.96691 1357.000
29.98686 1317.000
30.00680 1338.000
30.02675 1225.000
30.04670 1332.000
30.06664 1308.000
30.08659 1273.000
30.10654 1299.000
30.12648 1367.000
30.14643 1344.000
30.16638 1345.000
30.18633 1356.000
30.20627 1348.000
30.22622 1322.000
30.24617 1273.000
30.26611 1344.000
30.28606 1276.000
30.30601 1364.000
30.32595 1233.000
30.34590 1289.000
30.36585 1299.000
30.38579 1342.000
30.40574 1242.000
30.42569 1274.000
30.44564 1337.000
30.46558 1299.000
30.48553 1282.000
30.50548 1290.000
30.52542 1361.000
30.54537 1308.000
30.56532 1264.000
30.58526 1298.000
30.60521 1184.000
30.62516 1211.000
30.64511 1256.000
30.66505 1283.000
30.68500 1208.000
30.70495 1289.000
30.72489 1292.000
30.74484 1274.000
30.76479 1291.000
30.78473 1279.000
30.80468 1307.000
30.82463 1312.000
30.84458 1285.000
30.86452 1354.000
30.88447 1231.000
30.90442 1303.000
30.92436 1265.000
30.94431 1238.000
30.96426 1232.000
30.98420 1269.000
31.00415 1189.000
31.02410 1346.000
31.04404 1237.000
31.06399 1225.000
31.08394 1336.000
31.10389 1280.000
31.12383 1257.000
31.14378 1246.000
31.16373 1252.000
31.18367 1235.000
31.20362 1340.000
31.22357 1297.000
31.24351 1257.000
31.26346 1264.000
31.28341 1262.000
31.30336 1247.000
31.32330 1300.000
31.34325 1255.000
31.36320 1275.000
31.38314 1224.000
31.40309 1249.000
31.42304 1277.000
31.44298 1212.000
31.46293 1210.000
31.48288 1233.000
31.50282 1204.000
31.52277 1174.000
31.54272 1206.000
31.56267 1170.000
31.58261 1214.000
31.60256 1217.000
31.62251 1214.000
31.64245 1179.000
31.66240 1211.000
31.68235 1241.000
31.70229 1204.000
31.72224 1245.000
31.74219 1148.000
31.76214 1230.000
31.78208 1169.000
31.80203 1231.000
31.82198 1215.000
31.84192 1240.000
31.86187 1229.000
31.88182 1184.000
31.90176 1214.000
31.92171 1170.000
31.94166 1260.000
31.96160 1190.000
31.98155 1286.000
32.00150 1192.000
32.02145 1178.000
32.04139 1293.000
32.06134 1276.000
32.08129 1174.000
32.10123 1176.000
32.12118 1224.000
32.14113 1160.000
32.16107 1172.000
32.18102 1191.000
32.20097 1163.000
32.22092 1188.000
32.24086 1165.000
32.26081 1166.000
32.28076 1125.000
32.30070 1144.000
32.32065 1183.000
32.34060 1144.000
32.36054 1197.000
32.38049 1193.000
32.40044 1144.000
32.42039 1114.000
32.44033 1086.000
32.46028 1161.000
32.48023 1136.000
32.50017 1152.000
32.52012 1118.000
32.54007 1133.000
32.56001 1170.000
32.57996 1146.000
32.59991 1134.000
32.61985 1123.000
32.63980 1122.000
32.65975 1093.000
32.67970 1043.000
32.69964 1145.000
32.71959 1082.000
32.73954 1128.000
32.75948 1093.000
32.77943 1114.000
32.79938 1110.000
32.81932 1091.000
32.83927 1135.000
32.85922 1068.000
32.87917 1109.000
32.89911 1161.000
32.91906 1007.000
32.93901 1132.000
32.95895 1097.000
32.97890 1077.000
32.99885 1065.000
33.01879 1058.000
33.03874 1077.000
33.05869 1096.000
33.07863 1091.000
33.09858 1127.000
33.11853 1027.000
33.13848 1057.000
33.15842 1069.000
33.17837 1088.000
33.19832 1114.000
33.21826 1087.000
33.23821 1063.000
33.25816 1077.000
33.27810 1057.000
33.29805 1043.000
33.31800 1091.000
33.33795 1080.000
33.35789 1045.000
33.37784 1069.000
33.39779 1014.000
33.41773 1022.000
33.43768 1094.000
33.45763 1078.000
33.47757 998.000
33.49752 1051.000
33.51747 1011.000
33.53741 1028.000
33.55736 1082.000
33.57731 994.000
33.59726 1072.000
33.61720 1048.000
33.63715 1015.000
33.65710 1004.000
33.67704 975.000
33.69699 1042.000
33.71694 1045.000
33.73688 996.000
33.75683 943.000
33.77678 1067.000
33.79673 979.000
33.81667 1053.000
33.83662 988.000
33.85657 1044.000
33.87651 1018.000
33.89646 1033.000
33.91641 995.000
33.93635 954.000
33.95630 932.000
33.97625 945.000
33.99620 966.000
34.01614 986.000
34.03609 956.000
34.05604 980.000
34.07598 1004.000
34.09593 1014.000
34.11588 943.000
34.13582 1008.000
34.15577 955.000
34.17572 903.000
34.19566 1003.000
34.21561 976.000
34.23556 996.000
34.25551 953.000
34.27545 892.000
34.29540 988.000
34.31535 1009.000
34.33529 946.000
34.35524 926.000
34.37519 1043.000
34.39513 943.000
34.41508 1011.000
34.43503 993.000
34.45498 952.000
34.47492 944.000
34.49487 937.000
34.51482 966.000
34.53476 963.000
34.55471 961.000
34.57466 1010.000
34.59460 975.000
34.61455 988.000
34.63450 990.000
34.65444 1021.000
34.67439 978.000
34.69434 947.000
34.71429 1015.000
34.73423 1068.000
34.75418 1047.000
34.77413 1089.000
34.79407 1028.000
34.81402 1087.000
34.83397 1087.000
34.85391 1124.000
34.87386 1168.000
34.89381 1143.000
34.91376 1238.000
34.93370 1201.000
34.95365 1277.000
34.97360 1249.000
34.99354 1258.000
35.01349 1225.000
35.03344 1231.000
35.05338 1226.000
35.07333 1136.000
35.09328 1209.000
35.11322 1127.000
35.13317 1087.000
35.15312 1065.000
35.17307 1060.000
35.19301 1041.000
35.21296 972.000
35.23291 996.000
35.25285 955.000
35.27280 936.000
35.29275 929.000
35.31269 908.000
35.33264 875.000
35.35259 868.000
35.37254 906.000
35.39248 881.000
35.41243 918.000
35.43238 955.000
35.45232 893.000
35.47227 866.000
35.49222 911.000
35.51216 883.000
35.53211 932.000
35.55206 855.000
35.57201 876.000
35.59195 825.000
35.61190 848.000
35.63185 850.000
35.65179 934.000
35.67174 853.000
35.69169 848.000
35.71163 825.000
35.73158 944.000
35.75153 800.000
35.77147 865.000
35.79142 929.000
35.81137 867.000
35.83132 843.000
35.85126 880.000
35.87121 885.000
35.89116 896.000
35.91110 838.000
35.93105 856.000
35.95100 830.000
35.97094 887.000
35.99089 899.000
36.01084 899.000
36.03079 851.000
36.05073 819.000
36.07068 820.000
36.09063 859.000
36.11057 805.000
36.13052 906.000
36.15047 861.000
36.17041 892.000
36.19036 887.000
36.21031 900.000
36.23025 903.000
36.25020 954.000
36.27015 954.000
36.29010 942.000
36.31004 987.000
36.32999 977.000
36.34994 1022.000
36.36988 1014.000
36.38983 1051.000
36.40978 1041.000
36.42972 1134.000
36.44967 1246.000
36.46962 1285.000
36.48957 1433.000
36.50951 1580.000
36.52946 1756.000
36.54941 1750.000
36.56935 1854.000
36.58930 1908.000
36.60925 1815.000
36.62919 1849.000
36.64914 1837.000
36.66909 1746.000
36.68903 1529.000
36.70898 1495.000
36.72893 1377.000
36.74888 1218.000
36.76882 1136.000
36.78877 1046.000
36.80872 973.000
36.82866 958.000
36.84861 966.000
36.86856 862.000
36.88850 861.000
36.90845 885.000
36.92840 843.000
36.94835 814.000
36.96829 851.000
36.98824 872.000
37.00819 866.000
37.02813 825.000
37.04808 804.000
37.06803 801.000
37.08797 844.000
37.10792 816.000
37.12787 812.000
37.14781 821.000
37.16776 863.000
37.18771 827.000
37.20766 822.000
37.22760 854.000
37.24755 824.000
37.26750 827.000
37.28744 842.000
37.30739 856.000
37.32734 807.000
37.34728 829.000
37.36723 852.000
37.38718 843.000
37.40713 833.000
37.42707 857.000
37.44702 824.000
37.46697 895.000
37.48691 789.000
37.50686 861.000
37.52681 806.000
37.54675 826.000
37.56670 818.000
37.58665 868.000
37.60660 777.000
37.62654 849.000
37.64649 851.000
37.66644 868.000
37.68638 789.000
37.70633 870.000
37.72628 892.000
37.74622 845.000
37.76617 894.000
37.78612 914.000
37.80606 885.000
37.82601 904.000
37.84596 953.000
37.86591 949.000
37.88585 942.000
37.90580 970.000
37.92575 978.000
37.94569 997.000
37.96564 985.000
37.98559 1024.000
38.00553 1059.000
38.02548 1104.000
38.04543 1123.000
38.06538 1083.000
38.08532 1112.000
38.10527 1162.000
38.12522 1110.000
38.14516 1192.000
38.16511 1122.000
38.18506 1179.000
38.20500 1187.000
38.22495 1081.000
38.24490 1057.000
38.26484 988.000
38.28479 1018.000
38.30474 999.000
38.32469 978.000
38.34463 1003.000
38.36458 963.000
38.38453 928.000
38.40447 911.000
38.42442 957.000
38.44437 912.000
38.46431 923.000
38.48426 957.000
38.50421 892.000
38.52416 879.000
38.54410 855.000
38.56405 932.000
38.58400 924.000
38.60394 878.000
38.62389 869.000
38.64384 843.000
38.66378 824.000
38.68373 860.000
38.70368 842.000
38.72362 875.000
38.74357 856.000
38.76352 840.000
38.78347 837.000
38.80341 818.000
38.82336 840.000
38.84331 835.000
38.86325 788.000
38.88320 805.000
38.90315 857.000
38.92309 853.000
38.94304 813.000
38.96299 823.000
38.98294 840.000
39.00288 795.000
39.02283 779.000
39.04278 845.000
39.06272 828.000
39.08267 802.000
39.10262 808.000
39.12256 814.000
39.14251 816.000
39.16246 822.000
39.18241 823.000
39.20235 824.000
39.22230 790.000
39.24225 838.000
39.26219 810.000
39.28214 826.000
39.30209 768.000
39.32203 804.000
39.34198 813.000
39.36193 840.000
39.38187 798.000
39.40182 828.000
39.42177 808.000
39.44172 851.000
39.46166 839.000
39.48161 771.000
39.50156 840.000
39.52150 817.000
39.54145 767.000
39.56140 797.000
39.58134 783.000
39.60129 794.000
39.62124 869.000
39.64119 770.000
39.66113 817.000
39.68108 815.000
39.70103 768.000
39.72097 816.000
39.74092 827.000
39.76087 834.000
39.78081 786.000
39.80076 804.000
39.82071 844.000
39.84065 782.000
39.86060 839.000
39.88055 795.000
39.90050 804.000
39.92044 855.000
39.94039 835.000
39.96034 779.000
39.98028 760.000
40.00023 786.000
40.02018 803.000
40.04012 779.000
40.06007 807.000
40.08002 814.000
40.09997 765.000
40.11991 801.000
40.13986 761.000
40.15981 756.000
40.17975 794.000
40.19970 784.000
40.21965 805.000
40.23959 857.000
40.25954 805.000
40.27949 804.000
40.29943 787.000
40.31938 760.000
40.33933 767.000
40.35928 772.000
40.37922 786.000
40.39917 807.000
40.41912 830.000
40.43906 814.000
40.45901 826.000
40.47896 832.000
40.49890 803.000
40.51885 815.000
40.53880 852.000
40.55875 816.000
40.57869 866.000
40.59864 814.000
40.61859 843.000
40.63853 814.000
40.65848 807.000
40.67843 824.000
40.69837 814.000
40.71832 824.000
40.73827 771.000
40.75822 736.000
40.77816 785.000
40.79811 801.000
40.81806 853.000
40.83800 786.000
40.85795 830.000
40.87790 779.000
40.89784 758.000
40.91779 787.000
40.93774 872.000
40.95768 836.000
40.97763 835.000
40.99758 861.000
41.01753 829.000
41.03747 806.000
41.05742 796.000
41.07737 788.000
41.09731 771.000
41.11726 781.000
41.13721 759.000
41.15715 786.000
41.17710 796.000
41.19705 796.000
41.21700 794.000
41.23694 790.000
41.25689 772.000
41.27684 821.000
41.29678 828.000
41.31673 847.000
41.33668 804.000
41.35662 816.000
41.37657 791.000
41.39652 790.000
41.41646 802.000
41.43641 819.000
41.45636 879.000
41.47631 827.000
41.49625 785.000
41.51620 781.000
41.53615 813.000
41.55609 817.000
41.57604 755.000
41.59599 836.000
41.61593 752.000
41.63588 854.000
41.65583 830.000
41.67578 767.000
41.69572 832.000
41.71567 809.000
41.73562 848.000
41.75556 761.000
41.77551 765.000
41.79546 841.000
41.81540 777.000
41.83535 886.000
41.85530 858.000
41.87524 826.000
41.89519 839.000
41.91514 848.000
41.93509 857.000
41.95503 841.000
41.97498 844.000
41.99493 903.000
42.01487 880.000
42.03482 887.000
42.05477 875.000
42.07471 897.000
42.09466 918.000
42.11461 930.000
42.13456 956.000
42.15450 980.000
42.17445 1002.000
42.19440 1016.000
42.21434 978.000
42.23429 1069.000
42.25424 1118.000
42.27418 1081.000
42.29413 1170.000
42.31408 1271.000
42.33403 1302.000
42.35397 1386.000
42.37392 1341.000
42.39387 1438.000
42.41381 1463.000
42.43376 1562.000
42.45371 1650.000
42.47365 1734.000
42.49360 1749.000
42.51355 1843.000
42.53349 1991.000
42.55344 1988.000
42.57339 1977.000
42.59334 2102.000
42.61328 2055.000
42.63323 2027.000
42.65318 1982.000
42.67312 1909.000
42.69307 1933.000
42.71302 1844.000
42.73296 1714.000
42.75291 1651.000
42.77286 1672.000
42.79281 1554.000
42.81275 1474.000
42.83270 1402.000
42.85265 1356.000
42.87259 1283.000
42.89254 1201.000
42.91249 1226.000
42.93243 1094.000
42.95238 1140.000
42.97233 1068.000
42.99227 1007.000
43.01222 1013.000
43.03217 978.000
43.05212 930.000
43.07206 876.000
43.09201 935.000
43.11196 848.000
43.13190 842.000
43.15185 879.000
43.17180 813.000
43.19174 827.000
43.21169 793.000
43.23164 792.000
43.25159 837.000
43.27153 832.000
43.29148 798.000
43.31143 760.000
43.33137 762.000
43.35132 779.000
43.37127 740.000
43.39121 726.000
43.41116 767.000
43.43111 777.000
43.45105 789.000
43.47100 783.000
43.49095 756.000
43.51090 732.000
43.53084 717.000
43.55079 712.000
43.57074 729.000
43.59068 776.000
43.61063 803.000
43.63058 780.000
43.65052 751.000
43.67047 717.000
43.69042 737.000
43.71037 739.000
43.73031 721.000
43.75026 715.000
43.77021 782.000
43.79015 733.000
43.81010 734.000
43.83005 714.000
43.84999 743.000
43.86994 718.000
43.88989 731.000
43.90984 708.000
43.92978 757.000
43.94973 724.000
43.96968 735.000
43.98962 775.000
44.00957 754.000
44.02952 707.000
44.04946 680.000
44.06941 700.000
44.08936 723.000
44.10930 723.000
44.12925 718.000
44.14920 734.000
44.16915 699.000
44.18909 667.000
44.20904 688.000
44.22899 688.000
44.24893 705.000
44.26888 702.000
44.28883 697.000
44.30877 666.000
44.32872 669.000
44.34867 659.000
44.36862 737.000
44.38856 710.000
44.40851 660.000
44.42846 712.000
44.44840 676.000
44.46835 678.000
44.48830 685.000
44.50824 692.000
44.52819 686.000
44.54814 702.000
44.56808 660.000
44.58803 692.000
44.60798 714.000
44.62793 700.000
44.64787 689.000
44.66782 716.000
44.68777 686.000
44.70771 655.000
44.72766 653.000
44.74761 751.000
44.76755 678.000
44.78750 664.000
44.80745 669.000
44.82740 680.000
44.84734 660.000
44.86729 665.000
44.88724 659.000
44.90718 682.000
44.92713 657.000
44.94708 641.000
44.96702 673.000
44.98697 655.000
45.00692 656.000
45.02686 684.000
45.04681 682.000
45.06676 642.000
45.08671 661.000
45.10665 680.000
45.12660 646.000
45.14655 655.000
45.16649 682.000
45.18644 677.000
45.20639 650.000
45.22633 708.000
45.24628 654.000
45.26623 641.000
45.28618 695.000
45.30612 694.000
45.32607 642.000
45.34602 660.000
45.36596 668.000
45.38591 677.000
45.40586 693.000
45.42580 646.000
45.44575 649.000
45.46570 638.000
45.48565 704.000
45.50559 654.000
45.52554 624.000
45.54549 622.000
45.56543 649.000
45.58538 626.000
45.60533 647.000
45.62527 621.000
45.64522 603.000
45.66517 613.000
45.68511 658.000
45.70506 618.000
45.72501 621.000
45.74496 653.000
45.76490 613.000
45.78485 625.000
45.80480 633.000
45.82474 668.000
45.84469 654.000
45.86464 636.000
45.88458 635.000
45.90453 623.000
45.92448 613.000
45.94443 657.000
45.96437 643.000
45.98432 650.000
46.00427 621.000
46.02421 634.000
46.04416 591.000
46.06411 624.000
46.08405 603.000
46.10400 640.000
46.12395 650.000
46.14389 627.000
46.16384 627.000
46.18379 631.000
46.20374 596.000
46.22368 614.000
46.24363 650.000
46.26358 634.000
46.28352 587.000
46.30347 591.000
46.32342 629.000
46.34336 624.000
46.36331 623.000
46.38326 574.000
46.40321 623.000
46.42315 614.000
46.44310 586.000
46.46305 622.000
46.48299 635.000
46.50294 595.000
46.52289 602.000
46.54283 649.000
46.56278 617.000
46.58273 605.000
46.60267 607.000
46.62262 596.000
46.64257 618.000
46.66252 608.000
46.68246 612.000
46.70241 580.000
46.72236 574.000
46.74230 610.000
46.76225 614.000
46.78220 630.000
46.80214 604.000
46.82209 613.000
46.84204 590.000
46.86199 616.000
46.88193 584.000
46.90188 568.000
46.92183 609.000
46.94177 571.000
46.96172 603.000
46.98167 600.000
47.00161 590.000
47.02156 636.000
47.04151 585.000
47.06146 562.000
47.08140 619.000
47.10135 561.000
47.12130 642.000
47.14124 586.000
47.16119 640.000
47.18114 651.000
47.20108 637.000
47.22103 653.000
47.24098 598.000
47.26092 603.000
47.28087 560.000
47.30082 603.000
47.32077 607.000
47.34071 570.000
47.36066 562.000
47.38061 585.000
47.40055 586.000
47.42050 550.000
47.44045 524.000
47.46039 560.000
47.48034 569.000
47.50029 577.000
47.52024 593.000
47.54018 617.000
47.56013 582.000
47.58008 603.000
47.60002 614.000
47.61997 586.000
47.63992 600.000
47.65986 583.000
47.67981 610.000
47.69976 594.000
47.71970 583.000
47.73965 591.000
47.75960 564.000
47.77955 568.000
47.79949 602.000
47.81944 580.000
47.83939 529.000
47.85933 563.000
47.87928 600.000
47.89923 600.000
47.91917 607.000
47.93912 607.000
47.95907 602.000
47.97902 560.000
47.99896 608.000
48.01891 574.000
48.03886 599.000
48.05880 588.000
48.07875 599.000
48.09870 591.000
48.11864 646.000
48.13859 658.000
48.15854 656.000
48.17848 625.000
48.19843 580.000
48.21838 648.000
48.23833 649.000
48.25827 591.000
48.27822 673.000
48.29817 618.000
48.31811 660.000
48.33806 675.000
48.35801 678.000
48.37795 737.000
48.39790 649.000
48.41785 672.000
48.43780 755.000
48.45774 718.000
48.47769 715.000
48.49764 691.000
48.51758 711.000
48.53753 705.000
48.55748 733.000
48.57742 743.000
48.59737 718.000
48.61732 670.000
48.63726 692.000
48.65721 636.000
48.67716 621.000
48.69711 614.000
48.71705 624.000
48.73700 624.000
48.75695 580.000
48.77689 614.000
48.79684 598.000
48.81679 626.000
48.83673 639.000
48.85668 600.000
48.87663 550.000
48.89658 626.000
48.91652 555.000
48.93647 566.000
48.95642 548.000
48.97636 578.000
48.99631 591.000
49.01626 561.000
49.03620 565.000
49.05615 531.000
49.07610 549.000
49.09605 558.000
49.11599 549.000
49.13594 573.000
49.15589 612.000
49.17583 568.000
49.19578 562.000
49.21573 583.000
49.23567 571.000
49.25562 598.000
49.27557 549.000
49.29551 556.000
49.31546 528.000
49.33541 525.000
49.35536 570.000
49.37530 563.000
49.39525 519.000
49.41520 554.000
49.43514 523.000
49.45509 563.000
49.47504 565.000
49.49498 558.000
49.51493 545.000
49.53488 588.000
49.55483 537.000
49.57477 527.000
49.59472 547.000
49.61467 544.000
49.63461 541.000
49.65456 590.000
49.67451 573.000
49.69445 558.000
49.71440 537.000
49.73435 581.000
49.75429 539.000
49.77424 574.000
49.79419 562.000
49.81414 580.000
49.83408 578.000
49.85403 565.000
49.87398 554.000
49.89392 534.000
49.91387 552.000
49.93382 541.000
49.95376 518.000
49.97371 599.000
49.99366 573.000
50.01361 513.000
50.03355 531.000
50.05350 529.000
50.07345 531.000
50.09339 541.000
50.11334 576.000
50.13329 558.000
50.15323 567.000
50.17318 544.000
50.19313 565.000
50.21307 518.000
50.23302 532.000
50.25297 553.000
50.27292 515.000
50.29286 547.000
50.31281 543.000
50.33276 537.000
50.35270 542.000
50.37265 531.000
50.39260 557.000
50.41254 560.000
50.43249 510.000
50.45244 544.000
50.47239 552.000
50.49233 558.000
50.51228 560.000
50.53223 526.000
50.55217 552.000
50.57212 568.000
50.59207 541.000
50.61201 554.000
50.63196 554.000
50.65191 592.000
50.67186 566.000
50.69180 535.000
50.71175 581.000
50.73170 535.000
50.75164 560.000
50.77159 547.000
50.79154 523.000
50.81148 508.000
50.83143 534.000
50.85138 531.000
50.87132 543.000
50.89127 553.000
50.91122 576.000
50.93117 547.000
50.95111 554.000
50.97106 559.000
50.99101 511.000
51.01095 537.000
51.03090 583.000
51.05085 568.000
51.07079 537.000
51.09074 527.000
51.11069 559.000
51.13064 552.000
51.15058 531.000
51.17053 544.000
51.19048 547.000
51.21042 551.000
51.23037 553.000
51.25032 551.000
51.27026 522.000
51.29021 545.000
51.31016 504.000
51.33010 580.000
51.35005 561.000
51.37000 531.000
51.38995 569.000
51.40989 538.000
51.42984 515.000
51.44979 525.000
51.46973 502.000
51.48968 521.000
51.50963 568.000
51.52957 558.000
51.54952 550.000
51.56947 540.000
51.58942 528.000
51.60936 580.000
51.62931 545.000
51.64926 523.000
51.66920 540.000
51.68915 546.000
51.70910 545.000
51.72904 545.000
51.74899 542.000
51.76894 553.000
51.78888 523.000
51.80883 523.000
51.82878 553.000
51.84873 529.000
51.86867 546.000
51.88862 525.000
51.90857 558.000
51.92851 532.000
51.94846 552.000
51.96841 564.000
51.98835 555.000
52.00830 551.000
52.02825 557.000
52.04820 560.000
52.06814 519.000
52.08809 525.000
52.10804 563.000
52.12798 525.000
52.14793 489.000
52.16788 556.000
52.18782 584.000
52.20777 520.000
52.22772 551.000
52.24767 539.000
52.26761 512.000
52.28756 494.000
52.30751 516.000
52.32745 554.000
52.34740 530.000
52.36735 544.000
52.38729 539.000
52.40724 578.000
52.42719 513.000
52.44713 544.000
52.46708 508.000
52.48703 533.000
52.50698 565.000
52.52692 561.000
52.54687 529.000
52.56682 542.000
52.58676 573.000
52.60671 559.000
52.62666 530.000
52.64660 544.000
52.66655 556.000
52.68650 517.000
52.70645 572.000
52.72639 513.000
52.74634 518.000
52.76629 572.000
52.78623 565.000
52.80618 560.000
52.82613 565.000
52.84607 552.000
52.86602 542.000
52.88597 538.000
52.90591 514.000
52.92586 574.000
52.94581 537.000
52.96576 522.000
52.98570 539.000
53.00565 562.000
53.02560 558.000
53.04554 538.000
53.06549 549.000
53.08544 547.000
53.10538 534.000
53.12533 548.000
53.14528 577.000
53.16523 552.000
53.18517 538.000
53.20512 507.000
53.22507 512.000
53.24501 524.000
53.26496 474.000
53.28491 539.000
53.30485 521.000
53.32480 555.000
53.34475 540.000
53.36469 556.000
53.38464 526.000
53.40459 533.000
53.42454 564.000
53.44448 482.000
53.46443 517.000
53.48438 531.000
53.50432 534.000
53.52427 515.000
53.54422 529.000
53.56416 531.000
53.58411 551.000
53.60406 518.000
53.62401 509.000
53.64395 558.000
53.66390 521.000
53.68385 551.000
53.70379 510.000
53.72374 526.000
53.74369 541.000
53.76363 528.000
53.78358 531.000
53.80353 480.000
53.82348 553.000
53.84342 546.000
53.86337 565.000
53.88332 492.000
53.90326 507.000
53.92321 509.000
53.94316 486.000
53.96310 530.000
53.98305 502.000
54.00300 535.000
54.02294 508.000
54.04289 528.000
54.06284 558.000
54.08279 542.000
54.10273 533.000
54.12268 477.000
54.14263 523.000
54.16257 503.000
54.18252 515.000
54.20247 490.000
54.22241 562.000
54.24236 518.000
54.26231 551.000
54.28226 552.000
54.30220 532.000
54.32215 533.000
54.34210 513.000
54.36204 545.000
54.38199 506.000
54.40194 508.000
54.42188 526.000
54.44183 507.000
54.46178 505.000
54.48172 565.000
54.50167 507.000
54.52162 525.000
54.54157 534.000
54.56151 531.000
54.58146 514.000
54.60141 515.000
54.62135 460.000
54.64130 539.000
54.66125 498.000
54.68119 487.000
54.70114 567.000
54.72109 520.000
54.74104 486.000
54.76098 478.000
54.78093 501.000
54.80088 531.000
54.82082 522.000
54.84077 513.000
54.86072 534.000
54.88066 484.000
54.90061 525.000
54.92056 535.000
54.94050 524.000
54.96045 543.000
54.98040 525.000
55.00035 484.000
55.02029 536.000
55.04024 520.000
55.06019 503.000
55.08013 524.000
55.10008 526.000
55.12003 501.000
55.13997 522.000
55.15992 463.000
55.17987 497.000
55.19982 511.000
55.21976 504.000
55.23971 509.000
55.25966 488.000
55.27960 521.000
55.29955 541.000
55.31950 516.000
55.33944 518.000
55.35939 509.000
55.37934 528.000
55.39929 531.000
55.41923 455.000
55.43918 474.000
55.45913 514.000
55.47907 483.000
55.49902 529.000
55.51897 528.000
55.53891 470.000
55.55886 510.000
55.57881 478.000
55.59875 527.000
55.61870 508.000
55.63865 491.000
55.65860 501.000
55.67854 477.000
55.69849 501.000
55.71844 544.000
55.73838 530.000
55.75833 567.000
55.77828 477.000
55.79822 488.000
55.81817 510.000
55.83812 520.000
55.85807 520.000
55.87801 503.000
55.89796 480.000
55.91791 490.000
55.93785 481.000
55.95780 528.000
55.97775 506.000
55.99769 503.000
56.01764 517.000
56.03759 489.000
56.05753 514.000
56.07748 547.000
56.09743 539.000
56.11738 525.000
56.13732 493.000
56.15727 505.000
56.17722 478.000
56.19716 509.000
56.21711 493.000
56.23706 534.000
56.25700 488.000
56.27695 459.000
56.29690 509.000
56.31685 517.000
56.33679 536.000
56.35674 522.000
56.37669 533.000
56.39663 505.000
56.41658 504.000
56.43653 482.000
56.45647 544.000
56.47642 525.000
56.49637 522.000
56.51631 498.000
56.53626 471.000
56.55621 497.000
56.57616 470.000
56.59610 505.000
56.61605 492.000
56.63600 514.000
56.65594 474.000
56.67589 498.000
56.69584 498.000
56.71578 480.000
56.73573 493.000
56.75568 496.000
56.77563 523.000
56.79557 507.000
56.81552 483.000
56.83547 520.000
56.85541 514.000
56.87536 506.000
56.89531 489.000
56.91525 507.000
56.93520 506.000
56.95515 465.000
56.97510 522.000
56.99504 513.000
57.01499 496.000
57.03494 505.000
57.05488 467.000
57.07483 514.000
57.09478 507.000
57.11472 472.000
57.13467 519.000
57.15462 475.000
57.17456 527.000
57.19451 525.000
57.21446 507.000
57.23441 503.000
57.25435 485.000
57.27430 515.000
57.29425 525.000
57.31419 490.000
57.33414 487.000
57.35409 519.000
57.37403 510.000
57.39398 506.000
57.41393 539.000
57.43388 545.000
57.45382 552.000
57.47377 547.000
57.49372 545.000
57.51366 557.000
57.53361 546.000
57.55356 578.000
57.57350 579.000
57.59345 525.000
57.61340 555.000
57.63334 616.000
57.65329 578.000
57.67324 568.000
57.69319 603.000
57.71313 606.000
57.73308 623.000
57.75303 616.000
57.77297 555.000
57.79292 535.000
57.81287 618.000
57.83281 559.000
57.85276 555.000
57.87271 518.000
57.89266 537.000
57.91260 525.000
57.93255 533.000
57.95250 488.000
57.97244 524.000
57.99239 560.000
58.01234 493.000
58.03228 500.000
58.05223 508.000
58.07218 545.000
58.09212 515.000
58.11207 546.000
58.13202 492.000
58.15197 532.000
58.17191 481.000
58.19186 516.000
58.21181 477.000
58.23175 459.000
58.25170 497.000
58.27165 514.000
58.29159 485.000
58.31154 470.000
58.33149 527.000
58.35144 515.000
58.37138 516.000
58.39133 474.000
58.41128 499.000
58.43122 486.000
58.45117 498.000
58.47112 480.000
58.49106 516.000
58.51101 486.000
58.53096 498.000
58.55090 531.000
58.57085 500.000
58.59080 478.000
58.61075 483.000
58.63069 494.000
58.65064 481.000
58.67059 511.000
58.69053 528.000
58.71048 504.000
58.73043 513.000
58.75037 522.000
58.77032 487.000
58.79027 510.000
58.81022 505.000
58.83016 475.000
58.85011 467.000
58.87006 496.000
58.89000 439.000
58.90995 499.000
58.92990 481.000
58.94984 500.000
58.96979 455.000
58.98974 480.000
59.00969 452.000
59.02963 520.000
59.04958 491.000
59.06953 518.000
59.08947 485.000
59.10942 491.000
59.12937 523.000
59.14931 495.000
59.16926 462.000
59.18921 468.000
59.20915 479.000
59.22910 525.000
59.24905 507.000
59.26900 475.000
59.28894 475.000
59.30889 504.000
59.32884 499.000
59.34878 503.000
59.36873 492.000
59.38868 468.000
59.40862 486.000
59.42857 466.000
59.44852 460.000
59.46847 480.000
59.48841 515.000
59.50836 465.000
59.52831 531.000
59.54825 461.000
59.56820 520.000
59.58815 503.000
59.60809 498.000
59.62804 454.000
59.64799 501.000
59.66793 519.000
59.68788 479.000
59.70783 452.000
59.72778 476.000
59.74772 487.000
59.76767 471.000
59.78762 479.000
59.80756 489.000
59.82751 485.000
59.84746 473.000
59.86740 478.000
59.88735 474.000
59.90730 500.000
59.92725 507.000
59.94719 529.000
59.96714 482.000
59.98709 471.000
60.00703 488.000
60.02698 498.000
60.04693 481.000
60.06687 515.000
60.08682 484.000
60.10677 523.000
60.12671 463.000
60.14666 488.000
60.16661 526.000
60.18656 500.000
60.20650 489.000
60.22645 496.000
60.24640 493.000
60.26634 500.000
60.28629 499.000
60.30624 502.000
60.32618 491.000
60.34613 492.000
60.36608 481.000
60.38603 498.000
60.40597 494.000
60.42592 495.000
60.44587 533.000
60.46581 504.000
60.48576 505.000
60.50571 560.000
60.52565 468.000
60.54560 510.000
60.56555 521.000
60.58550 530.000
60.60544 526.000
60.62539 497.000
60.64534 505.000
60.66528 505.000
60.68523 515.000
60.70518 507.000
60.72512 506.000
60.74507 518.000
60.76502 546.000
60.78496 523.000
60.80491 528.000
60.82486 497.000
60.84481 576.000
60.86475 557.000
60.88470 549.000
60.90465 546.000
60.92459 608.000
60.94454 603.000
60.96449 603.000
60.98443 572.000
61.00438 621.000
61.02433 607.000
61.04428 641.000
61.06422 650.000
61.08417 614.000
61.10412 656.000
61.12406 674.000
61.14401 644.000
61.16396 666.000
61.18390 636.000
61.20385 626.000
61.22380 619.000
61.24374 673.000
61.26369 583.000
61.28364 640.000
61.30359 607.000
61.32353 599.000
61.34348 535.000
61.36343 591.000
61.38337 627.000
61.40332 630.000
61.42327 583.000
61.44321 577.000
61.46316 542.000
61.48311 595.000
61.50306 600.000
61.52300 609.000
61.54295 565.000
61.56290 559.000
61.58284 596.000
61.60279 597.000
61.62274 602.000
61.64268 595.000
61.66263 647.000
61.68258 614.000
61.70252 637.000
61.72247 651.000
61.74242 699.000
61.76237 697.000
61.78231 768.000
61.80226 885.000
61.82221 851.000
61.84215 820.000
61.86210 965.000
61.88205 1024.000
61.90199 1017.000
61.92194 1088.000
61.94189 1096.000
61.96184 1152.000
61.98178 1181.000
62.00173 1195.000
62.02168 1390.000
62.04162 1380.000
62.06157 1428.000
62.08152 1535.000
62.10146 1559.000
62.12141 1516.000
62.14136 1607.000
62.16131 1556.000
62.18125 1530.000
62.20120 1511.000
62.22115 1470.000
62.24109 1454.000
62.26104 1373.000
62.28099 1367.000
62.30093 1295.000
62.32088 1202.000
62.34083 1111.000
62.36077 1075.000
62.38072 1028.000
62.40067 962.000
62.42062 897.000
62.44056 966.000
62.46051 801.000
62.48046 764.000
62.50040 747.000
62.52035 733.000
62.54030 681.000
62.56024 637.000
62.58019 616.000
62.60014 637.000
62.62009 569.000
62.64003 590.000
62.65998 582.000
62.67993 563.000
62.69987 535.000
62.71982 560.000
62.73977 514.000
62.75971 534.000
62.77966 561.000
62.79961 556.000
62.81955 566.000
62.83950 545.000
62.85945 513.000
62.87940 537.000
62.89934 510.000
62.91929 531.000
62.93924 491.000
62.95918 544.000
62.97913 500.000
62.99908 494.000
63.01902 505.000
63.03897 532.000
63.05892 472.000
63.07887 511.000
63.09881 488.000
63.11876 504.000
63.13871 516.000
63.15865 548.000
63.17860 542.000
63.19855 500.000
63.21849 477.000
63.23844 481.000
63.25839 524.000
63.27833 523.000
63.29828 475.000
63.31823 497.000
63.33818 530.000
63.35812 511.000
63.37807 490.000
63.39802 492.000
63.41796 478.000
63.43791 486.000
63.45786 505.000
63.47780 493.000
63.49775 474.000
63.51770 506.000
63.53765 493.000
63.55759 502.000
63.57754 480.000
63.59749 489.000
63.61743 491.000
63.63738 511.000
63.65733 479.000
63.67727 472.000
63.69722 510.000
63.71717 503.000
63.73712 501.000
63.75706 498.000
63.77701 506.000
63.79696 473.000
63.81690 497.000
63.83685 497.000
63.85680 543.000
63.87674 466.000
63.89669 476.000
63.91664 518.000
63.93658 471.000
63.95653 517.000
63.97648 475.000
63.99643 518.000
64.01637 489.000
64.03632 469.000
64.05627 487.000
64.07621 490.000
64.09616 524.000
64.11611 477.000
64.13605 490.000
64.15600 513.000
64.17595 470.000
64.19590 490.000
64.21584 466.000
64.23579 495.000
64.25574 432.000
64.27568 488.000
64.29563 512.000
64.31558 503.000
64.33552 484.000
64.35547 470.000
64.37542 479.000
64.39536 494.000
64.41531 466.000
64.43526 464.000
64.45521 498.000
64.47515 511.000
64.49510 515.000
64.51505 511.000
64.53499 496.000
64.55494 497.000
64.57489 542.000
64.59483 526.000
64.61478 499.000
64.63473 528.000
64.65468 457.000
64.67462 531.000
64.69457 471.000
64.71452 493.000
64.73446 494.000
64.75441 470.000
64.77436 513.000
64.79430 482.000
64.81425 534.000
64.83420 526.000
64.85414 533.000
64.87409 505.000
64.89404 513.000
64.91399 546.000
64.93393 529.000
64.95388 572.000
64.97383 545.000
64.99377 493.000
65.01372 492.000
65.03367 520.000
65.05361 575.000
65.07356 540.000
65.09351 540.000
65.11346 531.000
65.13340 540.000
65.15335 545.000
65.17330 568.000
65.19324 491.000
65.21319 565.000
65.23314 547.000
65.25308 543.000
65.27303 504.000
65.29298 538.000
65.31293 545.000
65.33287 527.000
65.35282 500.000
65.37277 539.000
65.39271 531.000
65.41266 497.000
65.43261 497.000
65.45255 500.000
65.47250 503.000
65.49245 516.000
65.51239 518.000
65.53234 554.000
65.55229 505.000
65.57224 516.000
65.59218 529.000
65.61213 549.000
65.63208 556.000
65.65202 580.000
65.67197 534.000
65.69192 518.000
65.71186 527.000
65.73181 531.000
65.75176 529.000
65.77171 514.000
65.79165 550.000
65.81160 592.000
65.83155 532.000
65.85149 556.000
65.87144 605.000
65.89139 564.000
65.91133 553.000
65.93128 543.000
65.95123 545.000
65.97117 611.000
65.99112 581.000
66.01107 626.000
66.03102 581.000
66.05096 541.000
66.07091 610.000
66.09086 558.000
66.11080 535.000
66.13075 584.000
66.15070 533.000
66.17064 568.000
66.19059 546.000
66.21054 521.000
66.23049 530.000
66.25043 497.000
66.27038 558.000
66.29033 504.000
66.31027 530.000
66.33022 511.000
66.35017 512.000
66.37011 558.000
66.39006 478.000
66.41001 459.000
66.42995 526.000
66.44990 519.000
66.46985 499.000
66.48980 486.000
66.50974 524.000
66.52969 527.000
66.54964 478.000
66.56958 474.000
66.58953 500.000
66.60948 455.000
66.62942 487.000
66.64937 500.000
66.66932 464.000
66.68927 481.000
66.70921 473.000
66.72916 467.000
66.74911 478.000
66.76905 531.000
66.78900 501.000
66.80895 498.000
66.82889 491.000
66.84884 481.000
66.86879 508.000
66.88874 484.000
66.90868 486.000
66.92863 445.000
66.94858 506.000
66.96852 526.000
66.98847 476.000
67.00842 521.000
67.02836 491.000
67.04831 504.000
67.06826 516.000
67.08820 493.000
67.10815 521.000
67.12810 571.000
67.14805 518.000
67.16799 558.000
67.18794 554.000
67.20789 520.000
67.22783 523.000
67.24778 549.000
67.26773 570.000
67.28767 556.000
67.30762 583.000
67.32757 570.000
67.34752 563.000
67.36746 570.000
67.38741 597.000
67.40736 612.000
67.42730 572.000
67.44725 573.000
67.46720 594.000
67.48714 576.000
67.50709 578.000
67.52704 578.000
67.54698 572.000
67.56693 574.000
67.58688 560.000
67.60683 567.000
67.62677 588.000
67.64672 572.000
67.66667 577.000
67.68661 574.000
67.70656 525.000
67.72651 547.000
67.74645 530.000
67.76640 495.000
67.78635 511.000
67.80630 501.000
67.82624 546.000
67.84619 536.000
67.86614 518.000
67.88608 526.000
67.90603 467.000
67.92598 501.000
67.94592 486.000
67.96587 506.000
67.98582 460.000
68.00576 502.000
68.02571 489.000
68.04566 522.000
68.06561 460.000
68.08555 453.000
68.10550 481.000
68.12545 473.000
68.14539 434.000
68.16534 469.000
68.18529 462.000
68.20523 485.000
68.22518 445.000
68.24513 479.000
68.26508 456.000
68.28502 508.000
68.30497 449.000
68.32492 496.000
68.34486 444.000
68.36481 466.000
68.38476 474.000
68.40470 468.000
68.42465 466.000
68.44460 493.000
68.46455 487.000
68.48449 456.000
68.50444 473.000
68.52439 503.000
68.54433 461.000
68.56428 462.000
68.58423 469.000
68.60417 455.000
68.62412 530.000
68.64407 468.000
68.66401 443.000
68.68396 452.000
68.70391 473.000
68.72386 472.000
68.74380 470.000
68.76375 480.000
68.78370 500.000
68.80364 460.000
68.82359 478.000
68.84354 493.000
68.86348 463.000
68.88343 470.000
68.90338 468.000
68.92333 442.000
68.94327 451.000
68.96322 494.000
68.98317 447.000
69.00311 473.000
69.02306 447.000
69.04301 464.000
69.06295 474.000
69.08290 474.000
69.10285 428.000
69.12279 494.000
69.14274 452.000
69.16269 450.000
69.18264 454.000
69.20258 431.000
69.22253 455.000
69.24248 434.000
69.26242 511.000
69.28237 454.000
69.30232 450.000
69.32226 449.000
69.34221 496.000
69.36216 505.000
69.38211 449.000
69.40205 465.000
69.42200 461.000
69.44195 488.000
69.46189 482.000
69.48184 442.000
69.50179 464.000
69.52173 472.000
69.54168 441.000
69.56163 455.000
69.58157 448.000
69.60152 457.000
69.62147 451.000
69.64142 430.000
69.66136 447.000
69.68131 484.000
69.70126 438.000
69.72120 404.000
69.74115 476.000
69.76110 431.000
69.78104 486.000
69.80099 445.000
69.82094 460.000
69.84089 465.000
69.86083 457.000
69.88078 472.000
69.90073 442.000
69.92067 427.000
69.94062 459.000
69.96057 452.000
69.98051 480.000
70.00046 468.000
70.02041 467.000
70.04035 454.000
70.06030 452.000
70.08025 447.000
70.10020 494.000
70.12014 500.000
70.14009 441.000
70.16004 434.000
70.17998 437.000
70.19993 468.000
70.21988 461.000
70.23982 402.000
70.25977 435.000
70.27972 484.000
70.29967 418.000
70.31961 419.000
70.33956 474.000
70.35951 465.000
70.37945 493.000
70.39940 439.000
70.41935 443.000
70.43929 436.000
70.45924 476.000
70.47919 439.000
70.49914 508.000
70.51908 469.000
70.53903 461.000
70.55898 450.000
70.57892 462.000
70.59887 425.000
70.61882 497.000
70.63876 470.000
70.65871 473.000
70.67866 472.000
70.69860 471.000
70.71855 455.000
70.73850 441.000
70.75845 467.000
70.77839 437.000
70.79834 456.000
70.81829 481.000
70.83823 440.000
70.85818 431.000
70.87813 475.000
70.89807 425.000
70.91802 495.000
70.93797 446.000
70.95792 462.000
70.97786 446.000
70.99781 459.000
71.01776 442.000
71.03770 477.000
71.05765 454.000
71.07760 472.000
71.09754 459.000
71.11749 459.000
71.13744 454.000
71.15738 440.000
71.17733 424.000
71.19728 470.000
71.21723 462.000
71.23717 460.000
71.25712 442.000
71.27707 472.000
71.29701 469.000
71.31696 414.000
71.33691 470.000
71.35685 475.000
71.37680 441.000
71.39675 437.000
71.41670 461.000
71.43664 489.000
71.45659 484.000
71.47654 478.000
71.49648 477.000
71.51643 440.000
71.53638 464.000
71.55632 451.000
71.57627 450.000
71.59622 470.000
71.61616 500.000
71.63611 454.000
71.65606 481.000
71.67601 464.000
71.69595 566.000
71.71590 449.000
71.73585 445.000
71.75579 527.000
71.77574 499.000
71.79569 502.000
71.81563 498.000
71.83558 497.000
71.85553 507.000
71.87548 528.000
71.89542 519.000
71.91537 484.000
71.93532 504.000
71.95526 517.000
71.97521 483.000
71.99516 494.000
72.01510 506.000
72.03505 528.000
72.05500 494.000
72.07495 530.000
72.09489 471.000
72.11484 525.000
72.13479 507.000
72.15473 490.000
72.17468 514.000
72.19463 493.000
72.21457 488.000
72.23452 472.000
72.25447 462.000
72.27441 465.000
72.29436 462.000
72.31431 460.000
72.33426 477.000
72.35420 464.000
72.37415 453.000
72.39410 498.000
72.41404 454.000
72.43399 471.000
72.45394 476.000
72.47388 451.000
72.49383 454.000
72.51378 435.000
72.53373 443.000
72.55367 446.000
72.57362 460.000
72.59357 503.000
72.61351 494.000
72.63346 486.000
72.65341 464.000
72.67335 433.000
72.69330 478.000
72.71325 460.000
72.73319 470.000
72.75314 484.000
72.77309 456.000
72.79304 484.000
72.81298 476.000
72.83293 506.000
72.85288 457.000
72.87282 454.000
72.89277 423.000
72.91272 444.000
72.93266 475.000
72.95261 442.000
72.97256 491.000
72.99251 462.000
73.01245 453.000
73.03240 489.000
73.05235 403.000
73.07229 466.000
73.09224 442.000
73.11219 466.000
73.13213 486.000
73.15208 459.000
73.17203 437.000
73.19197 483.000
73.21192 437.000
73.23187 490.000
73.25182 441.000
73.27176 491.000
73.29171 501.000
73.31166 450.000
73.33160 455.000
73.35155 450.000
73.37150 440.000
73.39144 431.000
73.41139 479.000
73.43134 458.000
73.45129 457.000
73.47123 487.000
73.49118 455.000
73.51113 489.000
73.53107 440.000
73.55102 472.000
73.57097 479.000
73.59091 451.000
73.61086 458.000
73.63081 471.000
73.65076 485.000
73.67070 450.000
73.69065 461.000
73.71060 468.000
73.73054 471.000
73.75049 506.000
73.77044 487.000
73.79038 490.000
73.81033 479.000
73.83028 490.000
73.85022 481.000
73.87017 471.000
73.89012 445.000
73.91007 498.000
73.93001 505.000
73.94996 510.000
73.96991 541.000
73.98985 489.000
74.00980 483.000
74.02975 488.000
74.04969 532.000
74.06964 536.000
74.08959 561.000
74.10954 580.000
74.12948 547.000
74.14943 562.000
74.16938 573.000
74.18932 605.000
74.20927 571.000
74.22922 631.000
74.24916 600.000
74.26911 620.000
74.28906 588.000
74.30900 623.000
74.32895 611.000
74.34890 662.000
74.36885 677.000
74.38879 639.000
74.40874 719.000
74.42869 737.000
74.44863 762.000
74.46858 774.000
74.48853 767.000
74.50847 820.000
74.52842 807.000
74.54837 763.000
74.56832 805.000
74.58826 823.000
74.60821 878.000
74.62816 776.000
74.64810 833.000
74.66805 835.000
74.68800 832.000
74.70794 887.000
74.72789 758.000
74.74784 834.000
74.76778 741.000
74.78773 793.000
74.80768 775.000
74.82763 730.000
74.84757 729.000
74.86752 745.000
74.88747 753.000
74.90741 698.000
74.92736 701.000
74.94731 654.000
74.96725 635.000
74.98720 620.000
75.00715 628.000
75.02710 638.000
75.04704 615.000
75.06699 608.000
75.08694 597.000
75.10688 589.000
75.12683 592.000
75.14678 566.000
75.16672 558.000
75.18667 574.000
75.20662 552.000
75.22657 533.000
75.24651 527.000
75.26646 505.000
75.28641 479.000
75.30635 496.000
75.32630 527.000
75.34625 464.000
75.36619 516.000
75.38614 483.000
75.40609 514.000
75.42603 481.000
75.44598 503.000
75.46593 479.000
75.48588 503.000
75.50582 503.000
75.52577 468.000
75.54572 471.000
75.56566 465.000
75.58561 510.000
75.60556 495.000
75.62550 499.000
75.64545 488.000
75.66540 482.000
75.68535 480.000
75.70529 449.000
75.72524 454.000
75.74519 412.000
75.76513 481.000
75.78508 481.000
75.80503 442.000
75.82497 459.000
75.84492 518.000
75.86487 457.000
75.88481 450.000
75.90476 428.000
75.92471 445.000
75.94466 472.000
75.96460 436.000
75.98455 482.000
76.00450 432.000
76.02444 438.000
76.04439 459.000
76.06434 440.000
76.08428 458.000
76.10423 457.000
76.12418 466.000
76.14413 453.000
76.16407 445.000
76.18402 455.000
76.20397 458.000
76.22391 492.000
76.24386 474.000
76.26381 478.000
76.28375 455.000
76.30370 442.000
76.32365 445.000
76.34359 451.000
76.36354 466.000
76.38349 443.000
76.40344 495.000
76.42338 453.000
76.44333 447.000
76.46328 447.000
76.48322 480.000
76.50317 468.000
76.52312 446.000
76.54306 448.000
76.56301 454.000
76.58296 461.000
76.60291 447.000
76.62285 442.000
76.64280 445.000
76.66275 426.000
76.68269 405.000
76.70264 478.000
76.72259 471.000
76.74253 454.000
76.76248 453.000
76.78243 476.000
76.80238 472.000
76.82232 468.000
76.84227 453.000
76.86222 464.000
76.88216 445.000
76.90211 477.000
76.92206 449.000
76.94200 449.000
76.96195 468.000
76.98190 453.000
77.00184 448.000
77.02179 432.000
77.04174 474.000
77.06169 449.000
77.08163 455.000
77.10158 430.000
77.12153 439.000
77.14147 452.000
77.16142 470.000
77.18137 457.000
77.20131 464.000
77.22126 498.000
77.24121 432.000
77.26116 446.000
77.28110 467.000
77.30105 500.000
77.32100 438.000
77.34094 434.000
77.36089 461.000
77.38084 438.000
77.40078 477.000
77.42073 465.000
77.44068 466.000
77.46062 483.000
77.48057 472.000
77.50052 441.000
77.52047 478.000
77.54041 421.000
77.56036 438.000
77.58031 451.000
77.60025 480.000
77.62020 454.000
77.64015 448.000
77.66009 444.000
77.68004 509.000
77.69999 463.000
77.71994 423.000
77.73988 458.000
77.75983 451.000
77.77978 469.000
77.79972 429.000
77.81967 432.000
77.83962 472.000
77.85956 477.000
77.87951 441.000
77.89946 468.000
77.91940 448.000
77.93935 474.000
77.95930 497.000
77.97925 451.000
77.99919 494.000
78.01914 461.000
78.03909 509.000
78.05903 455.000
78.07898 497.000
78.09893 478.000
78.11887 474.000
78.13882 518.000
78.15877 466.000
78.17872 509.000
78.19866 507.000
78.21861 508.000
78.23856 535.000
78.25850 524.000
78.27845 507.000
78.29840 519.000
78.31834 508.000
78.33829 555.000
78.35824 560.000
78.37819 535.000
78.39813 568.000
78.41808 637.000
78.43803 607.000
78.45797 641.000
78.47792 660.000
78.49787 662.000
78.51781 711.000
78.53776 758.000
78.55771 817.000
78.57765 827.000
78.59760 892.000
78.61755 804.000
78.63750 818.000
78.65744 760.000
78.67739 744.000
78.69734 693.000
78.71728 750.000
78.73723 685.000
78.75718 697.000
78.77712 705.000
78.79707 713.000
78.81702 758.000
78.83697 723.000
78.85691 667.000
78.87686 641.000
78.89681 571.000
78.91675 633.000
78.93670 572.000
78.95665 524.000
78.97659 494.000
78.99654 479.000
79.01649 494.000
79.03643 505.000
79.05638 485.000
79.07633 485.000
79.09628 453.000
79.11622 502.000
79.13617 506.000
79.15612 475.000
79.17606 496.000
79.19601 487.000
79.21596 493.000
79.23590 452.000
79.25585 479.000
79.27580 462.000
79.29575 440.000
79.31569 456.000
79.33564 493.000
79.35559 421.000
79.37553 491.000
79.39548 423.000
79.41543 466.000
79.43537 449.000
79.45532 491.000
79.47527 464.000
79.49521 474.000
79.51516 465.000
79.53511 440.000
79.55506 438.000
79.57500 426.000
79.59495 502.000
79.61490 448.000
79.63484 423.000
79.65479 448.000
79.67474 473.000
79.69468 454.000
79.71463 453.000
79.73458 492.000
79.75453 443.000
79.77447 450.000
79.79442 457.000
79.81437 455.000
79.83431 440.000
79.85426 459.000
79.87421 448.000
79.89415 454.000
79.91410 433.000
79.93405 393.000
79.95399 503.000
79.97394 445.000
79.99389 470.000
80.01384 448.000
80.03378 498.000
80.05373 521.000
80.07368 455.000
80.09362 489.000
80.11357 500.000
80.13352 448.000
80.15346 467.000
80.17341 447.000
80.19336 470.000
80.21331 473.000
80.23325 437.000
80.25320 447.000
80.27315 447.000
80.29309 450.000
80.31304 497.000
80.33299 459.000
80.35293 459.000
80.37288 473.000
80.39283 484.000
80.41278 442.000
80.43272 515.000
80.45267 441.000
80.47262 458.000
80.49256 429.000
80.51251 429.000
80.53246 472.000
80.55240 462.000
80.57235 458.000
80.59230 457.000
80.61224 448.000
80.63219 437.000
80.65214 452.000
80.67209 453.000
80.69203 403.000
80.71198 451.000
80.73193 468.000
80.75187 474.000
80.77182 440.000
80.79177 406.000
80.81171 483.000
80.83166 463.000
80.85161 460.000
80.87156 441.000
80.89150 491.000
80.91145 463.000
80.93140 444.000
80.95134 453.000
80.97129 458.000
80.99124 486.000
81.01118 471.000
81.03113 465.000
81.05108 474.000
81.07102 445.000
81.09097 463.000
81.11092 455.000
81.13087 471.000
81.15081 456.000
81.17076 438.000
81.19071 432.000
81.21065 434.000
81.23060 449.000
81.25055 489.000
81.27049 452.000
81.29044 412.000
81.31039 447.000
81.33034 475.000
81.35028 483.000
81.37023 417.000
81.39018 474.000
81.41012 434.000
81.43007 402.000
81.45002 467.000
81.46996 428.000
81.48991 447.000
81.50986 435.000
81.52980 459.000
81.54975 456.000
81.56970 445.000
81.58965 399.000
81.60959 424.000
81.62954 479.000
81.64949 419.000
81.66943 456.000
81.68938 462.000
81.70933 446.000
81.72927 463.000
81.74922 444.000
81.76917 491.000
81.78912 462.000
81.80906 435.000
81.82901 460.000
81.84896 464.000
81.86890 470.000
81.88885 461.000
81.90880 442.000
81.92874 429.000
81.94869 457.000
81.96864 465.000
81.98859 496.000
82.00853 460.000
82.02848 467.000
82.04843 484.000
82.06837 451.000
82.08832 467.000
82.10827 515.000
82.12821 489.000
82.14816 453.000
82.16811 477.000
82.18805 516.000
82.20800 470.000
82.22795 484.000
82.24790 495.000
82.26784 468.000
82.28779 498.000
82.30774 479.000
82.32768 497.000
82.34763 451.000
82.36758 509.000
82.38752 502.000
82.40747 492.000
82.42742 485.000
82.44737 454.000
82.46731 489.000
82.48726 497.000
82.50721 511.000
82.52715 497.000
82.54710 485.000
82.56705 463.000
82.58699 473.000
82.60694 465.000
82.62689 478.000
82.64683 439.000
82.66678 460.000
82.68673 493.000
82.70668 446.000
82.72662 457.000
82.74657 449.000
82.76652 489.000
82.78646 492.000
82.80641 449.000
82.82636 467.000
82.84630 429.000
82.86625 449.000
82.88620 426.000
82.90615 464.000
82.92609 453.000
82.94604 464.000
82.96599 458.000
82.98593 453.000
83.00588 448.000
83.02583 461.000
83.04577 419.000
83.06572 457.000
83.08567 488.000
83.10561 449.000
83.12556 448.000
83.14551 464.000
83.16546 459.000
83.18540 471.000
83.20535 481.000
83.22530 453.000
83.24524 464.000
83.26519 459.000
83.28514 454.000
83.30508 424.000
83.32503 460.000
83.34498 476.000
83.36493 436.000
83.38487 435.000
83.40482 479.000
83.42477 445.000
83.44471 415.000
83.46466 483.000
83.48461 451.000
83.50455 442.000
83.52450 468.000
83.54445 457.000
83.56440 436.000
83.58434 485.000
83.60429 426.000
83.62424 463.000
83.64418 442.000
83.66413 448.000
83.68408 470.000
83.70402 444.000
83.72397 427.000
83.74392 485.000
83.76386 459.000
83.78381 422.000
83.80376 428.000
83.82371 462.000
83.84365 442.000
83.86360 452.000
83.88355 459.000
83.90349 427.000
83.92344 504.000
83.94339 417.000
83.96333 449.000
83.98328 427.000
84.00323 447.000
84.02318 412.000
84.04312 452.000
84.06307 430.000
84.08302 415.000
84.10296 479.000
84.12291 454.000
84.14286 442.000
84.16280 472.000
84.18275 448.000
84.20270 412.000
84.22264 452.000
84.24259 433.000
84.26254 434.000
84.28249 497.000
84.30243 447.000
84.32238 434.000
84.34233 451.000
84.36227 443.000
84.38222 421.000
84.40217 423.000
84.42211 417.000
84.44206 454.000
84.46201 426.000
84.48196 463.000
84.50190 478.000
84.52185 504.000
84.54180 440.000
84.56174 470.000
84.58169 451.000
84.60164 436.000
84.62158 423.000
84.64153 460.000
84.66148 463.000
84.68142 434.000
84.70137 454.000
84.72132 464.000
84.74127 460.000
84.76121 461.000
84.78116 447.000
84.80111 431.000
84.82105 439.000
84.84100 444.000
84.86095 432.000
84.88089 439.000
84.90084 429.000
84.92079 456.000
84.94074 437.000
84.96068 454.000
84.98063 463.000
85.00058 445.000
85.02052 437.000
85.04047 449.000
85.06042 443.000
85.08036 452.000
85.10031 429.000
85.12026 450.000
85.14021 446.000
85.16015 454.000
85.18010 469.000
85.20005 478.000
85.21999 448.000
85.23994 443.000
85.25989 429.000
85.27983 443.000
85.29978 425.000
85.31973 446.000
85.33967 415.000
85.35962 426.000
85.37957 447.000
85.39952 436.000
85.41946 410.000
85.43941 391.000
85.45936 460.000
85.47930 424.000
85.49925 414.000
85.51920 465.000
85.53914 463.000
85.55909 446.000
85.57904 435.000
85.59899 446.000
85.61893 423.000
85.63888 420.000
85.65883 441.000
85.67877 435.000
85.69872 397.000
85.71867 441.000
85.73861 430.000
85.75856 444.000
85.77851 406.000
85.79845 409.000
85.81840 441.000
85.83835 446.000
85.85830 433.000
85.87824 421.000
85.89819 458.000
85.91814 455.000
85.93808 464.000
85.95803 441.000
85.97798 443.000
85.99792 442.000
86.01787 434.000
86.03782 423.000
86.05777 456.000
86.07771 429.000
86.09766 449.000
86.11761 407.000
86.13755 455.000
86.15750 463.000
86.17745 435.000
86.19739 438.000
86.21734 442.000
86.23729 437.000
86.25723 392.000
86.27718 457.000
86.29713 470.000
86.31708 440.000
86.33702 422.000
86.35697 423.000
86.37692 420.000
86.39686 472.000
86.41681 433.000
86.43676 456.000
86.45670 438.000
86.47665 458.000
86.49660 449.000
86.51655 450.000
86.53649 416.000
86.55644 457.000
86.57639 448.000
86.59633 401.000
86.61628 455.000
86.63623 459.000
86.65617 492.000
86.67612 466.000
86.69607 485.000
86.71602 428.000
86.73596 454.000
86.75591 448.000
86.77586 444.000
86.79580 439.000
86.81575 419.000
86.83570 444.000
86.85564 468.000
86.87559 391.000
86.89554 443.000
86.91548 437.000
86.93543 468.000
86.95538 472.000
86.97533 418.000
86.99527 434.000
87.01522 480.000
87.03517 452.000
87.05511 452.000
87.07506 453.000
87.09501 439.000
87.11495 423.000
87.13490 455.000
87.15485 440.000
87.17480 395.000
87.19474 449.000
87.21469 424.000
87.23464 455.000
87.25458 447.000
87.27453 449.000
87.29448 462.000
87.31442 418.000
87.33437 420.000
87.35432 436.000
87.37426 444.000
87.39421 411.000
87.41416 431.000
87.43411 443.000
87.45405 452.000
87.47400 414.000
87.49395 457.000
87.51389 440.000
87.53384 451.000
87.55379 444.000
87.57373 457.000
87.59368 430.000
87.61363 489.000
87.63358 447.000
87.65352 412.000
87.67347 425.000
87.69342 441.000
87.71336 422.000
87.73331 401.000
87.75326 427.000
87.77320 447.000
87.79315 463.000
87.81310 421.000
87.83304 440.000
87.85299 452.000
87.87294 431.000
87.89289 413.000
87.91283 431.000
87.93278 441.000
87.95273 481.000
87.97267 446.000
87.99262 454.000
88.01257 449.000
88.03251 428.000
88.05246 428.000
88.07241 472.000
88.09236 458.000
88.11230 421.000
88.13225 420.000
88.15220 460.000
88.17214 426.000
88.19209 446.000
88.21204 429.000
88.23198 458.000
88.25193 456.000
88.27188 451.000
88.29183 425.000
88.31177 420.000
88.33172 441.000
88.35167 448.000
88.37161 442.000
88.39156 464.000
88.41151 436.000
88.43145 450.000
88.45140 462.000
88.47135 413.000
88.49129 420.000
88.51124 418.000
88.53119 431.000
88.55114 445.000
88.57108 488.000
88.59103 445.000
88.61098 448.000
88.63092 474.000
88.65087 437.000
88.67082 448.000
88.69076 452.000
88.71071 485.000
88.73066 418.000
88.75061 457.000
88.77055 438.000
88.79050 444.000
88.81045 441.000
88.83039 446.000
88.85034 407.000
88.87029 450.000
88.89023 455.000
88.91018 457.000
88.93013 473.000
88.95007 433.000
88.97002 464.000
88.98997 421.000
89.00992 449.000
89.02986 435.000
89.04981 450.000
89.06976 453.000
89.08970 443.000
89.10965 427.000
89.12960 435.000
89.14954 481.000
89.16949 440.000
89.18944 432.000
89.20939 451.000
89.22933 454.000
89.24928 460.000
89.26923 517.000
89.28917 426.000
89.30912 431.000
89.32907 450.000
89.34901 425.000
89.36896 439.000
89.38891 465.000
89.40885 389.000
89.42880 430.000
89.44875 404.000
89.46870 465.000
89.48864 460.000
89.50859 468.000
89.52854 430.000
89.54848 470.000
89.56843 430.000
89.58838 476.000
89.60832 413.000
89.62827 463.000
89.64822 454.000
89.66817 492.000
89.68811 451.000
89.70806 448.000
89.72801 431.000
89.74795 440.000
89.76790 460.000
89.78785 454.000
89.80779 484.000
89.82774 448.000
89.84769 448.000
89.86764 453.000
89.88758 423.000
89.90753 444.000
89.92748 419.000
89.94742 445.000
89.96737 485.000
89.98732 411.000
90.00726 440.000
