10.00000 109.000
10.01995 102.000
10.03989 129.000
10.05984 109.000
10.07979 123.000
10.09973 89.000
10.11968 111.000
10.13963 123.000
10.15958 118.000
10.17952 112.000
10.19947 129.000
10.21942 114.000
10.23936 103.000
10.25931 114.000
10.27926 121.000
10.29920 129.000
10.31915 120.000
10.33910 106.000
10.35905 123.000
10.37899 130.000
10.39894 122.000
10.41889 108.000
10.43883 112.000
10.45878 121.000
10.47873 118.000
10.49867 115.000
10.51862 100.000
10.53857 107.000
10.55851 86.000
10.57846 111.000
10.59841 127.000
10.61836 97.000
10.63830 81.000
10.65825 113.000
10.67820 105.000
10.69814 108.000
10.71809 119.000
10.73804 125.000
10.75798 93.000
10.77793 112.000
10.79788 107.000
10.81783 117.000
10.83777 102.000
10.85772 115.000
10.87767 106.000
10.89761 100.000
10.91756 97.000
10.93751 91.000
10.95745 114.000
10.97740 123.000
10.99735 114.000
11.01730 116.000
11.03724 97.000
11.05719 97.000
11.07714 116.000
11.09708 110.000
11.11703 126.000
11.13698 109.000
11.15692 104.000
11.17687 97.000
11.19682 94.000
11.21676 117.000
11.23671 96.000
11.25666 99.000
11.27661 125.000
11.29655 117.000
11.31650 117.000
11.33645 106.000
11.35639 113.000
11.37634 114.000
11.39629 109.000
11.41623 99.000
11.43618 135.000
11.45613 121.000
11.47608 90.000
11.49602 105.000
11.51597 117.000
11.53592 109.000
11.55586 108.000
11.57581 108.000
11.59576 120.000
11.61570 103.000
11.63565 112.000
11.65560 97.000
11.67554 99.000
11.69549 92.000
11.71544 100.000
11.73539 109.000
11.75533 108.000
11.77528 102.000
11.79523 112.000
11.81517 105.000
11.83512 122.000
11.85507 91.000
11.87501 97.000
11.89496 101.000
11.91491 103.000
11.93486 112.000
11.95480 112.000
11.97475 113.000
11.99470 100.000
12.01464 98.000
12.03459 120.000
12.05454 90.000
12.07448 117.000
12.09443 99.000
12.11438 106.000
12.13432 97.000
12.15427 117.000
12.17422 124.000
12.19417 89.000
12.21411 96.000
12.23406 110.000
12.25401 92.000
12.27395 113.000
12.29390 107.000
12.31385 110.000
12.33379 103.000
12.35374 111.000
12.37369 114.000
12.39364 93.000
12.41358 125.000
12.43353 94.000
12.45348 90.000
12.47342 112.000
12.49337 83.000
12.51332 99.000
12.53326 103.000
12.55321 105.000
12.57316 114.000
12.59311 104.000
12.61305 106.000
12.63300 110.000
12.65295 97.000
12.67289 121.000
12.69284 113.000
12.71279 111.000
12.73273 87.000
12.75268 94.000
12.77263 98.000
12.79257 113.000
12.81252 112.000
12.83247 84.000
12.85242 117.000
12.87236 91.000
12.89231 87.000
12.91226 114.000
12.93220 105.000
12.95215 104.000
12.97210 103.000
12.99204 103.000
13.01199 118.000
13.03194 94.000
13.05189 113.000
13.07183 102.000
13.09178 97.000
13.11173 129.000
13.13167 111.000
13.15162 104.000
13.17157 108.000
13.19151 92.000
13.21146 127.000
13.23141 95.000
13.25135 109.000
13.27130 108.000
13.29125 99.000
13.31120 112.000
13.33114 114.000
13.35109 113.000
13.37104 109.000
13.39098 117.000
13.41093 118.000
13.43088 102.000
13.45082 110.000
13.47077 111.000
13.49072 88.000
13.51067 83.000
13.53061 108.000
13.55056 114.000
13.57051 100.000
13.59045 117.000
13.61040 98.000
13.63035 93.000
13.65029 106.000
13.67024 90.000
13.69019 104.000
13.71013 105.000
13.73008 85.000
13.75003 107.000
13.76998 115.000
13.78992 114.000
13.80987 100.000
13.82982 86.000
13.84976 90.000
13.86971 90.000
13.88966 102.000
13.90960 90.000
13.92955 102.000
13.94950 118.000
13.96945 105.000
13.98939 109.000
14.00934 119.000
14.02929 100.000
14.04923 122.000
14.06918 123.000
14.08913 106.000
14.10907 115.000
14.12902 99.000
14.14897 114.000
14.16892 119.000
14.18886 125.000
14.20881 109.000
14.22876 117.000
14.24870 129.000
14.26865 112.000
14.28860 126.000
14.30854 127.000
14.32849 123.000
14.34844 117.000
14.36838 130.000
14.38833 116.000
14.40828 121.000
14.42823 105.000
14.44817 115.000
14.46812 136.000
14.48807 125.000
14.50801 149.000
14.52796 141.000
14.54791 128.000
14.56785 148.000
14.58780 166.000
14.60775 161.000
14.62770 166.000
14.64764 163.000
14.66759 219.000
14.68754 190.000
14.70748 237.000
14.72743 269.000
14.74738 290.000
14.76732 292.000
14.78727 304.000
14.80722 286.000
14.82716 255.000
14.84711 183.000
14.86706 171.000
14.88701 168.000
14.90695 159.000
14.92690 171.000
14.94685 155.000
14.96679 129.000
14.98674 132.000
15.00669 128.000
15.02663 122.000
15.04658 139.000
15.06653 120.000
15.08648 127.000
15.10642 137.000
15.12637 132.000
15.14632 118.000
15.16626 122.000
15.18621 123.000
15.20616 132.000
15.22610 133.000
15.24605 137.000
15.26600 115.000
15.28594 118.000
15.30589 108.000
15.32584 117.000
15.34579 122.000
15.36573 114.000
15.38568 105.000
15.40563 97.000
15.42557 105.000
15.44552 130.000
15.46547 115.000
15.48541 121.000
15.50536 117.000
15.52531 123.000
15.54526 99.000
15.56520 95.000
15.58515 112.000
15.60510 120.000
15.62504 109.000
15.64499 111.000
15.66494 113.000
15.68488 120.000
15.70483 129.000
15.72478 119.000
15.74472 147.000
15.76467 129.000
15.78462 115.000
15.80457 97.000
15.82451 118.000
15.84446 117.000
15.86441 101.000
15.88435 103.000
15.90430 118.000
15.92425 99.000
15.94419 103.000
15.96414 116.000
15.98409 124.000
16.00404 104.000
16.02398 105.000
16.04393 110.000
16.06388 126.000
16.08382 90.000
16.10377 98.000
16.12372 103.000
16.14366 112.000
16.16361 97.000
16.18356 122.000
16.20351 105.000
16.22345 114.000
16.24340 120.000
16.26335 108.000
16.28329 121.000
16.30324 104.000
16.32319 103.000
16.34313 116.000
16.36308 118.000
16.38303 114.000
16.40297 108.000
16.42292 106.000
16.44287 116.000
16.46282 130.000
16.48276 114.000
16.50271 108.000
16.52266 116.000
16.54260 100.000
16.56255 111.000
16.58250 119.000
16.60244 132.000
16.62239 116.000
16.64234 120.000
16.66229 130.000
16.68223 115.000
16.70218 115.000
16.72213 124.000
16.74207 130.000
16.76202 139.000
16.78197 113.000
16.80191 125.000
16.82186 128.000
16.84181 117.000
16.86175 119.000
16.88170 124.000
16.90165 128.000
16.92160 139.000
16.94154 129.000
16.96149 133.000
16.98144 143.000
17.00138 114.000
17.02133 132.000
17.04128 116.000
17.06122 146.000
17.08117 122.000
17.10112 154.000
17.12107 152.000
17.14101 149.000
17.16096 160.000
17.18091 142.000
17.20085 160.000
17.22080 196.000
17.24075 163.000
17.26069 219.000
17.28064 220.000
17.30059 203.000
17.32053 220.000
17.34048 202.000
17.36043 212.000
17.38038 208.000
17.40032 174.000
17.42027 187.000
17.44022 174.000
17.46016 140.000
17.48011 147.000
17.50006 131.000
17.52000 145.000
17.53995 122.000
17.55990 145.000
17.57985 132.000
17.59979 119.000
17.61974 125.000
17.63969 129.000
17.65963 113.000
17.67958 111.000
17.69953 132.000
17.71947 117.000
17.73942 127.000
17.75937 108.000
17.77932 110.000
17.79926 121.000
17.81921 137.000
17.83916 112.000
17.85910 112.000
17.87905 102.000
17.89900 119.000
17.91894 114.000
17.93889 118.000
17.95884 136.000
17.97878 118.000
17.99873 132.000
18.01868 129.000
18.03863 101.000
18.05857 103.000
18.07852 110.000
18.09847 119.000
18.11841 137.000
18.13836 126.000
18.15831 120.000
18.17825 100.000
18.19820 109.000
18.21815 111.000
18.23810 114.000
18.25804 125.000
18.27799 108.000
18.29794 120.000
18.31788 130.000
18.33783 127.000
18.35778 128.000
18.37772 166.000
18.39767 186.000
18.41762 228.000
18.43756 281.000
18.45751 275.000
18.47746 271.000
18.49741 226.000
18.51735 182.000
18.53730 135.000
18.55725 152.000
18.57719 116.000
18.59714 137.000
18.61709 113.000
18.63703 115.000
18.65698 111.000
18.67693 109.000
18.69688 108.000
18.71682 119.000
18.73677 115.000
18.75672 89.000
18.77666 105.000
18.79661 95.000
18.81656 111.000
18.83650 90.000
18.85645 106.000
18.87640 99.000
18.89634 112.000
18.91629 109.000
18.93624 124.000
18.95619 108.000
18.97613 110.000
18.99608 114.000
19.01603 92.000
19.03597 111.000
19.05592 122.000
19.07587 106.000
19.09581 110.000
19.11576 103.000
19.13571 105.000
19.15566 102.000
19.17560 117.000
19.19555 113.000
19.21550 101.000
19.23544 115.000
19.25539 95.000
19.27534 127.000
19.29528 112.000
19.31523 105.000
19.33518 108.000
19.35513 109.000
19.37507 106.000
19.39502 111.000
19.41497 94.000
19.43491 108.000
19.45486 122.000
19.47481 124.000
19.49475 106.000
19.51470 98.000
19.53465 105.000
19.55459 122.000
19.57454 108.000
19.59449 136.000
19.61444 109.000
19.63438 121.000
19.65433 120.000
19.67428 103.000
19.69422 104.000
19.71417 122.000
19.73412 107.000
19.75406 110.000
19.77401 94.000
19.79396 101.000
19.81391 113.000
19.83385 111.000
19.85380 99.000
19.87375 133.000
19.89369 121.000
19.91364 127.000
19.93359 122.000
19.95353 126.000
19.97348 160.000
19.99343 148.000
20.01337 165.000
20.03332 179.000
20.05327 162.000
20.07322 160.000
20.09316 160.000
20.11311 127.000
20.13306 133.000
20.15300 129.000
20.17295 137.000
20.19290 131.000
20.21284 134.000
20.23279 109.000
20.25274 115.000
20.27269 113.000
20.29263 125.000
20.31258 139.000
20.33253 134.000
20.35247 121.000
20.37242 127.000
20.39237 105.000
20.41231 120.000
20.43226 129.000
20.45221 109.000
20.47215 152.000
20.49210 150.000
20.51205 135.000
20.53200 133.000
20.55194 171.000
20.57189 148.000
20.59184 196.000
20.61178 189.000
20.63173 227.000
20.65168 225.000
20.67162 253.000
20.69157 209.000
20.71152 245.000
20.73147 211.000
20.75141 190.000
20.77136 202.000
20.79131 198.000
20.81125 164.000
20.83120 187.000
20.85115 166.000
20.87109 154.000
20.89104 147.000
20.91099 170.000
20.93094 141.000
20.95088 146.000
20.97083 146.000
20.99078 134.000
21.01072 131.000
21.03067 139.000
21.05062 135.000
21.07056 131.000
21.09051 116.000
21.11046 130.000
21.13040 146.000
21.15035 135.000
21.17030 132.000
21.19025 112.000
21.21019 119.000
21.23014 126.000
21.25009 98.000
21.27003 116.000
21.28998 101.000
21.30993 104.000
21.32987 106.000
21.34982 128.000
21.36977 107.000
21.38972 127.000
21.40966 111.000
21.42961 113.000
21.44956 127.000
21.46950 119.000
21.48945 113.000
21.50940 113.000
21.52934 107.000
21.54929 82.000
21.56924 117.000
21.58918 114.000
21.60913 98.000
21.62908 94.000
21.64903 124.000
21.66897 100.000
21.68892 129.000
21.70887 103.000
21.72881 102.000
21.74876 128.000
21.76871 114.000
21.78865 102.000
21.80860 108.000
21.82855 122.000
21.84850 116.000
21.86844 111.000
21.88839 112.000
21.90834 120.000
21.92828 118.000
21.94823 126.000
21.96818 120.000
21.98812 119.000
22.00807 128.000
22.02802 106.000
22.04796 124.000
22.06791 137.000
22.08786 136.000
22.10781 152.000
22.12775 109.000
22.14770 117.000
22.16765 132.000
22.18759 145.000
22.20754 155.000
22.22749 128.000
22.24743 167.000
22.26738 120.000
22.28733 142.000
22.30728 155.000
22.32722 120.000
22.34717 116.000
22.36712 122.000
22.38706 119.000
22.40701 125.000
22.42696 110.000
22.44690 134.000
22.46685 126.000
22.48680 103.000
22.50675 121.000
22.52669 111.000
22.54664 128.000
22.56659 127.000
22.58653 120.000
22.60648 93.000
22.62643 130.000
22.64637 135.000
22.66632 129.000
22.68627 113.000
22.70621 132.000
22.72616 118.000
22.74611 124.000
22.76606 115.000
22.78600 134.000
22.80595 113.000
22.82590 115.000
22.84584 112.000
22.86579 137.000
22.88574 116.000
22.90568 122.000
22.92563 140.000
22.94558 111.000
22.96553 120.000
22.98547 119.000
23.00542 118.000
23.02537 116.000
23.04531 130.000
23.06526 115.000
23.08521 125.000
23.10515 114.000
23.12510 124.000
23.14505 132.000
23.16499 144.000
23.18494 129.000
23.20489 121.000
23.22484 121.000
23.24478 109.000
23.26473 128.000
23.28468 125.000
23.30462 100.000
23.32457 90.000
23.34452 118.000
23.36446 127.000
23.38441 130.000
23.40436 113.000
23.42431 103.000
23.44425 117.000
23.46420 120.000
23.48415 115.000
23.50409 119.000
23.52404 101.000
23.54399 113.000
23.56393 136.000
23.58388 135.000
23.60383 120.000
23.62377 125.000
23.64372 123.000
23.66367 140.000
23.68362 108.000
23.70356 119.000
23.72351 141.000
23.74346 124.000
23.76340 153.000
23.78335 116.000
23.80330 121.000
23.82324 127.000
23.84319 114.000
23.86314 122.000
23.88309 119.000
23.90303 140.000
23.92298 117.000
23.94293 131.000
23.96287 132.000
23.98282 128.000
24.00277 125.000
24.02271 111.000
24.04266 135.000
24.06261 112.000
24.08256 138.000
24.10250 135.000
24.12245 117.000
24.14240 143.000
24.16234 124.000
24.18229 149.000
24.20224 124.000
24.22218 151.000
24.24213 142.000
24.26208 109.000
24.28202 128.000
24.30197 140.000
24.32192 111.000
24.34187 129.000
24.36181 135.000
24.38176 125.000
24.40171 160.000
24.42165 137.000
24.44160 137.000
24.46155 134.000
24.48149 112.000
24.50144 152.000
24.52139 142.000
24.54134 117.000
24.56128 147.000
24.58123 121.000
24.60118 133.000
24.62112 136.000
24.64107 115.000
24.66102 138.000
24.68096 110.000
24.70091 136.000
24.72086 123.000
24.74080 132.000
24.76075 138.000
24.78070 130.000
24.80065 123.000
24.82059 136.000
24.84054 139.000
24.86049 115.000
24.88043 133.000
24.90038 119.000
24.92033 129.000
24.94027 136.000
24.96022 123.000
24.98017 140.000
25.00012 127.000
25.02006 143.000
25.04001 142.000
25.05996 143.000
25.07990 137.000
25.09985 139.000
25.11980 133.000
25.13974 126.000
25.15969 132.000
25.17964 138.000
25.19958 134.000
25.21953 132.000
25.23948 133.000
25.25943 133.000
25.27937 131.000
25.29932 126.000
25.31927 148.000
25.33921 126.000
25.35916 141.000
25.37911 132.000
25.39905 141.000
25.41900 145.000
25.43895 131.000
25.45890 158.000
25.47884 146.000
25.49879 149.000
25.51874 124.000
25.53868 139.000
25.55863 111.000
25.57858 125.000
25.59852 126.000
25.61847 144.000
25.63842 156.000
25.65837 131.000
25.67831 170.000
25.69826 134.000
25.71821 164.000
25.73815 141.000
25.75810 141.000
25.77805 127.000
25.79799 141.000
25.81794 148.000
25.83789 141.000
25.85783 123.000
25.87778 140.000
25.89773 142.000
25.91768 144.000
25.93762 138.000
25.95757 145.000
25.97752 140.000
25.99746 158.000
26.01741 186.000
26.03736 162.000
26.05730 159.000
26.07725 185.000
26.09720 168.000
26.11715 176.000
26.13709 159.000
26.15704 159.000
26.17699 149.000
26.19693 148.000
26.21688 180.000
26.23683 170.000
26.25677 128.000
26.27672 147.000
26.29667 145.000
26.31661 149.000
26.33656 138.000
26.35651 162.000
26.37646 143.000
26.39640 160.000
26.41635 138.000
26.43630 130.000
26.45624 128.000
26.47619 153.000
26.49614 131.000
26.51608 151.000
26.53603 148.000
26.55598 149.000
26.57593 144.000
26.59587 146.000
26.61582 158.000
26.63577 142.000
26.65571 145.000
26.67566 132.000
26.69561 154.000
26.71555 139.000
26.73550 147.000
26.75545 161.000
26.77539 130.000
26.79534 123.000
26.81529 164.000
26.83524 164.000
26.85518 132.000
26.87513 144.000
26.89508 150.000
26.91502 146.000
26.93497 155.000
26.95492 158.000
26.97486 146.000
26.99481 175.000
27.01476 125.000
27.03471 161.000
27.05465 132.000
27.07460 155.000
27.09455 156.000
27.11449 153.000
27.13444 147.000
27.15439 157.000
27.17433 155.000
27.19428 128.000
27.21423 142.000
27.23417 152.000
27.25412 151.000
27.27407 164.000
27.29402 136.000
27.31396 151.000
27.33391 131.000
27.35386 170.000
27.37380 139.000
27.39375 150.000
27.41370 143.000
27.43364 153.000
27.45359 173.000
27.47354 191.000
27.49349 152.000
27.51343 138.000
27.53338 138.000
27.55333 178.000
27.57327 154.000
27.59322 152.000
27.61317 148.000
27.63311 170.000
27.65306 156.000
27.67301 165.000
27.69296 155.000
27.71290 157.000
27.73285 177.000
27.75280 161.000
27.77274 143.000
27.79269 153.000
27.81264 163.000
27.83258 178.000
27.85253 165.000
27.87248 167.000
27.89242 156.000
27.91237 163.000
27.93232 158.000
27.95227 160.000
27.97221 144.000
27.99216 180.000
28.01211 165.000
28.03205 165.000
28.05200 155.000
28.07195 145.000
28.09189 163.000
28.11184 179.000
28.13179 184.000
28.15174 166.000
28.17168 171.000
28.19163 140.000
28.21158 149.000
28.23152 165.000
28.25147 169.000
28.27142 175.000
28.29136 159.000
28.31131 146.000
28.33126 153.000
28.35120 153.000
28.37115 167.000
28.39110 156.000
28.41105 169.000
28.43099 179.000
28.45094 166.000
28.47089 140.000
28.49083 173.000
28.51078 170.000
28.53073 163.000
28.55067 172.000
28.57062 180.000
28.59057 192.000
28.61052 174.000
28.63046 170.000
28.65041 157.000
28.67036 175.000
28.69030 170.000
28.71025 148.000
28.73020 194.000
28.75014 200.000
28.77009 165.000
28.79004 158.000
28.80998 191.000
28.82993 165.000
28.84988 148.000
28.86983 174.000
28.88977 168.000
28.90972 195.000
28.92967 152.000
28.94961 186.000
28.96956 166.000
28.98951 152.000
29.00945 177.000
29.02940 185.000
29.04935 195.000
29.06930 157.000
29.08924 181.000
29.10919 170.000
29.12914 177.000
29.14908 197.000
29.16903 171.000
29.18898 182.000
29.20892 159.000
29.22887 174.000
29.24882 196.000
29.26877 183.000
29.28871 203.000
29.30866 216.000
29.32861 207.000
29.34855 222.000
29.36850 212.000
29.38845 223.000
29.40839 228.000
29.42834 224.000
29.44829 209.000
29.46823 221.000
29.48818 260.000
29.50813 250.000
29.52808 284.000
29.54802 276.000
29.56797 291.000
29.58792 254.000
29.60786 296.000
29.62781 264.000
29.64776 293.000
29.66770 330.000
29.68765 346.000
29.70760 311.000
29.72755 289.000
29.74749 281.000
29.76744 322.000
29.78739 294.000
29.80733 287.000
29.82728 292.000
29.84723 255.000
29.86717 264.000
29.88712 245.000
29.90707 245.000
29.92701 239.000
29.94696 208.000
29.96691 194.000
29.98686 245.000
30.00680 214.000
30.02675 225.000
30.04670 200.000
30.06664 237.000
30.08659 230.000
30.10654 229.000
30.12648 216.000
30.14643 241.000
30.16638 263.000
30.18633 273.000
30.20627 270.000
30.22622 305.000
30.24617 311.000
30.26611 380.000
30.28606 468.000
30.30601 496.000
30.32595 578.000
30.34590 530.000
30.36585 529.000
30.38579 447.000
30.40574 492.000
30.42569 393.000
30.44564 347.000
30.46558 275.000
30.48553 258.000
30.50548 221.000
30.52542 200.000
30.54537 204.000
30.56532 224.000
30.58526 171.000
30.60521 171.000
30.62516 187.000
30.64511 191.000
30.66505 181.000
30.68500 192.000
30.70495 147.000
30.72489 181.000
30.74484 194.000
30.76479 178.000
30.78473 196.000
30.80468 173.000
30.82463 184.000
30.84458 169.000
30.86452 200.000
30.88447 176.000
30.90442 183.000
30.92436 185.000
30.94431 175.000
30.96426 164.000
30.98420 191.000
31.00415 170.000
31.02410 157.000
31.04404 171.000
31.06399 173.000
31.08394 167.000
31.10389 147.000
31.12383 186.000
31.14378 170.000
31.16373 179.000
31.18367 152.000
31.20362 176.000
31.22357 176.000
31.24351 160.000
31.26346 187.000
31.28341 165.000
31.30336 167.000
31.32330 161.000
31.34325 178.000
31.36320 177.000
31.38314 176.000
31.40309 177.000
31.42304 168.000
31.44298 179.000
31.46293 178.000
31.48288 186.000
31.50282 183.000
31.52277 188.000
31.54272 202.000
31.56267 192.000
31.58261 196.000
31.60256 183.000
31.62251 196.000
31.64245 188.000
31.66240 189.000
31.68235 219.000
31.70229 195.000
31.72224 187.000
31.74219 167.000
31.76214 188.000
31.78208 166.000
31.80203 189.000
31.82198 203.000
31.84192 174.000
31.86187 176.000
31.88182 169.000
31.90176 182.000
31.92171 203.000
31.94166 196.000
31.96160 173.000
31.98155 161.000
32.00150 157.000
32.02145 175.000
32.04139 169.000
32.06134 167.000
32.08129 177.000
32.10123 169.000
32.12118 152.000
32.14113 191.000
32.16107 169.000
32.18102 198.000
32.20097 188.000
32.22092 164.000
32.24086 158.000
32.26081 165.000
32.28076 145.000
32.30070 151.000
32.32065 156.000
32.34060 191.000
32.36054 170.000
32.38049 175.000
32.40044 164.000
32.42039 163.000
32.44033 177.000
32.46028 156.000
32.48023 162.000
32.50017 187.000
32.52012 176.000
32.54007 184.000
32.56001 189.000
32.57996 158.000
32.59991 165.000
32.61985 177.000
32.63980 155.000
32.65975 156.000
32.67970 166.000
32.69964 169.000
32.71959 175.000
32.73954 167.000
32.75948 152.000
32.77943 158.000
32.79938 151.000
32.81932 151.000
32.83927 168.000
32.85922 166.000
32.87917 181.000
32.89911 174.000
32.91906 166.000
32.93901 170.000
32.95895 184.000
32.97890 158.000
32.99885 183.000
33.01879 183.000
33.03874 186.000
33.05869 171.000
33.07863 179.000
33.09858 166.000
33.11853 179.000
33.13848 182.000
33.15842 205.000
33.17837 206.000
33.19832 202.000
33.21826 200.000
33.23821 216.000
33.25816 238.000
33.27810 218.000
33.29805 234.000
33.31800 228.000
33.33795 225.000
33.35789 217.000
33.37784 211.000
33.39779 200.000
33.41773 190.000
33.43768 180.000
33.45763 201.000
33.47757 198.000
33.49752 182.000
33.51747 189.000
33.53741 178.000
33.55736 168.000
33.57731 185.000
33.59726 161.000
33.61720 156.000
33.63715 168.000
33.65710 163.000
33.67704 201.000
33.69699 200.000
33.71694 183.000
33.73688 188.000
33.75683 216.000
33.77678 206.000
33.79673 218.000
33.81667 224.000
33.83662 198.000
33.85657 229.000
33.87651 229.000
33.89646 232.000
33.91641 277.000
33.93635 239.000
33.95630 270.000
33.97625 274.000
33.99620 291.000
34.01614 306.000
34.03609 291.000
34.05604 317.000
34.07598 309.000
34.09593 305.000
34.11588 296.000
34.13582 284.000
34.15577 269.000
34.17572 267.000
34.19566 266.000
34.21561 254.000
34.23556 290.000
34.25551 286.000
34.27545 289.000
34.29540 276.000
34.31535 302.000
34.33529 248.000
34.35524 295.000
34.37519 280.000
34.39513 282.000
34.41508 260.000
34.43503 263.000
34.45498 289.000
34.47492 273.000
34.49487 283.000
34.51482 268.000
34.53476 274.000
34.55471 297.000
34.57466 271.000
34.59460 300.000
34.61455 261.000
34.63450 268.000
34.65444 258.000
34.67439 294.000
34.69434 252.000
34.71429 255.000
34.73423 232.000
34.75418 244.000
34.77413 271.000
34.79407 234.000
34.81402 228.000
34.83397 278.000
34.85391 241.000
34.87386 269.000
34.89381 287.000
34.91376 266.000
34.93370 315.000
34.95365 308.000
34.97360 376.000
34.99354 389.000
35.01349 418.000
35.03344 439.000
35.05338 436.000
35.07333 462.000
35.09328 454.000
35.11322 470.000
35.13317 472.000
35.15312 477.000
35.17307 508.000
35.19301 481.000
35.21296 516.000
35.23291 508.000
35.25285 538.000
35.27280 519.000
35.29275 491.000
35.31269 505.000
35.33264 458.000
35.35259 468.000
35.37254 472.000
35.39248 408.000
35.41243 404.000
35.43238 346.000
35.45232 339.000
35.47227 306.000
35.49222 316.000
35.51216 354.000
35.53211 366.000
35.55206 378.000
35.57201 371.000
35.59195 445.000
35.61190 505.000
35.63185 671.000
35.65179 760.000
35.67174 982.000
35.69169 1209.000
35.71163 1385.000
35.73158 1370.000
35.75153 1269.000
35.77147 1149.000
35.79142 1059.000
35.81137 943.000
35.83132 897.000
35.85126 756.000
35.87121 577.000
35.89116 504.000
35.91110 415.000
35.93105 384.000
35.95100 319.000
35.97094 296.000
35.99089 254.000
36.01084 237.000
36.03079 255.000
36.05073 215.000
36.07068 228.000
36.09063 221.000
36.11057 251.000
36.13052 215.000
36.15047 240.000
36.17041 217.000
36.19036 209.000
36.21031 239.000
36.23025 244.000
36.25020 212.000
36.27015 237.000
36.29010 228.000
36.31004 260.000
36.32999 287.000
36.34994 313.000
36.36988 359.000
36.38983 358.000
36.40978 420.000
36.42972 495.000
36.44967 581.000
36.46962 564.000
36.48957 677.000
36.50951 680.000
36.52946 568.000
36.54941 530.000
36.56935 502.000
36.58930 431.000
36.60925 467.000
36.62919 364.000
36.64914 339.000
36.66909 253.000
36.68903 274.000
36.70898 230.000
36.72893 237.000
36.74888 224.000
36.76882 235.000
36.78877 209.000
36.80872 242.000
36.82866 221.000
36.84861 236.000
36.86856 201.000
36.88850 227.000
36.90845 207.000
36.92840 234.000
36.94835 199.000
36.96829 234.000
36.98824 204.000
37.00819 209.000
37.02813 216.000
37.04808 252.000
37.06803 255.000
37.08797 282.000
37.10792 290.000
37.12787 311.000
37.14781 344.000
37.16776 388.000
37.18771 463.000
37.20766 570.000
37.22760 667.000
37.24755 695.000
37.26750 653.000
37.28744 700.000
37.30739 735.000
37.32734 644.000
37.34728 634.000
37.36723 589.000
37.38718 544.000
37.40713 493.000
37.42707 416.000
37.44702 422.000
37.46697 340.000
37.48691 367.000
37.50686 322.000
37.52681 370.000
37.54675 354.000
37.56670 340.000
37.58665 341.000
37.60660 349.000
37.62654 329.000
37.64649 329.000
37.66644 308.000
37.68638 319.000
37.70633 310.000
37.72628 292.000
37.74622 287.000
37.76617 247.000
37.78612 281.000
37.80606 251.000
37.82601 246.000
37.84596 227.000
37.86591 199.000
37.88585 229.000
37.90580 217.000
37.92575 213.000
37.94569 225.000
37.96564 200.000
37.98559 190.000
38.00553 203.000
38.02548 194.000
38.04543 183.000
38.06538 181.000
38.08532 227.000
38.10527 187.000
38.12522 173.000
38.14516 215.000
38.16511 172.000
38.18506 202.000
38.20500 184.000
38.22495 158.000
38.24490 199.000
38.26484 168.000
38.28479 187.000
38.30474 160.000
38.32469 152.000
38.34463 155.000
38.36458 177.000
38.38453 143.000
38.40447 179.000
38.42442 154.000
38.44437 172.000
38.46431 149.000
38.48426 160.000
38.50421 167.000
38.52416 139.000
38.54410 158.000
38.56405 126.000
38.58400 155.000
38.60394 172.000
38.62389 167.000
38.64384 148.000
38.66378 162.000
38.68373 161.000
38.70368 151.000
38.72362 177.000
38.74357 151.000
38.76352 169.000
38.78347 175.000
38.80341 159.000
38.82336 160.000
38.84331 163.000
38.86325 148.000
38.88320 135.000
38.90315 154.000
38.92309 169.000
38.94304 155.000
38.96299 149.000
38.98294 182.000
39.00288 164.000
39.02283 129.000
39.04278 158.000
39.06272 151.000
39.08267 149.000
39.10262 144.000
39.12256 150.000
39.14251 135.000
39.16246 161.000
39.18241 145.000
39.20235 155.000
39.22230 164.000
39.24225 159.000
39.26219 154.000
39.28214 167.000
39.30209 163.000
39.32203 170.000
39.34198 140.000
39.36193 153.000
39.38187 179.000
39.40182 141.000
39.42177 136.000
39.44172 147.000
39.46166 164.000
39.48161 147.000
39.50156 140.000
39.52150 155.000
39.54145 151.000
39.56140 164.000
39.58134 156.000
39.60129 137.000
39.62124 172.000
39.64119 138.000
39.66113 175.000
39.68108 141.000
39.70103 167.000
39.72097 142.000
39.74092 161.000
39.76087 169.000
39.78081 156.000
39.80076 158.000
39.82071 150.000
39.84065 187.000
39.86060 154.000
39.88055 165.000
39.90050 171.000
39.92044 172.000
39.94039 186.000
39.96034 169.000
39.98028 158.000
40.00023 157.000
40.02018 210.000
40.04012 168.000
40.06007 168.000
40.08002 189.000
40.09997 192.000
40.11991 157.000
40.13986 150.000
40.15981 163.000
40.17975 168.000
40.19970 149.000
40.21965 171.000
40.23959 188.000
40.25954 168.000
40.27949 166.000
40.29943 163.000
40.31938 171.000
40.33933 159.000
40.35928 172.000
40.37922 176.000
40.39917 169.000
40.41912 185.000
40.43906 178.000
40.45901 168.000
40.47896 178.000
40.49890 159.000
40.51885 161.000
40.53880 169.000
40.55875 191.000
40.57869 181.000
40.59864 175.000
40.61859 150.000
40.63853 170.000
40.65848 187.000
40.67843 159.000
40.69837 180.000
40.71832 195.000
40.73827 180.000
40.75822 183.000
40.77816 194.000
40.79811 179.000
40.81806 213.000
40.83800 203.000
40.85795 225.000
40.87790 209.000
40.89784 219.000
40.91779 213.000
40.93774 213.000
40.95768 215.000
40.97763 221.000
40.99758 244.000
41.01753 261.000
41.03747 308.000
41.05742 317.000
41.07737 324.000
41.09731 325.000
41.11726 360.000
41.13721 361.000
41.15715 410.000
41.17710 419.000
41.19705 460.000
41.21700 439.000
41.23694 448.000
41.25689 470.000
41.27684 500.000
41.29678 539.000
41.31673 588.000
41.33668 593.000
41.35662 637.000
41.37657 614.000
41.39652 603.000
41.41646 606.000
41.43641 588.000
41.45636 557.000
41.47631 596.000
41.49625 559.000
41.51620 536.000
41.53615 535.000
41.55609 499.000
41.57604 521.000
41.59599 500.000
41.61593 456.000
41.63588 486.000
41.65583 485.000
41.67578 483.000
41.69572 513.000
41.71567 512.000
41.73562 511.000
41.75556 528.000
41.77551 558.000
41.79546 636.000
41.81540 658.000
41.83535 819.000
41.85530 846.000
41.87524 1015.000
41.89519 1137.000
41.91514 1244.000
41.93509 1297.000
41.95503 1384.000
41.97498 1347.000
41.99493 1147.000
42.01487 1162.000
42.03482 1049.000
42.05477 882.000
42.07471 743.000
42.09466 647.000
42.11461 548.000
42.13456 496.000
42.15450 386.000
42.17445 347.000
42.19440 303.000
42.21434 251.000
42.23429 284.000
42.25424 264.000
42.27418 206.000
42.29413 233.000
42.31408 202.000
42.33403 200.000
42.35397 192.000
42.37392 188.000
42.39387 204.000
42.41381 204.000
42.43376 184.000
42.45371 202.000
42.47365 202.000
42.49360 194.000
42.51355 196.000
42.53349 177.000
42.55344 189.000
42.57339 204.000
42.59334 184.000
42.61328 172.000
42.63323 187.000
42.65318 181.000
42.67312 177.000
42.69307 185.000
42.71302 188.000
42.73296 179.000
42.75291 179.000
42.77286 204.000
42.79281 207.000
42.81275 174.000
42.83270 179.000
42.85265 161.000
42.87259 204.000
42.89254 183.000
42.91249 198.000
42.93243 177.000
42.95238 204.000
42.97233 235.000
42.99227 195.000
43.01222 213.000
43.03217 203.000
43.05212 210.000
43.07206 236.000
43.09201 258.000
43.11196 265.000
43.13190 306.000
43.15185 340.000
43.17180 386.000
43.19174 550.000
43.21169 653.000
43.23164 706.000
43.25159 824.000
43.27153 919.000
43.29148 947.000
43.31143 1026.000
43.33137 999.000
43.35132 935.000
43.37127 856.000
43.39121 834.000
43.41116 800.000
43.43111 762.000
43.45105 665.000
43.47100 558.000
43.49095 395.000
43.51090 403.000
43.53084 397.000
43.55079 298.000
43.57074 321.000
43.59068 298.000
43.61063 230.000
43.63058 238.000
43.65052 197.000
43.67047 187.000
43.69042 223.000
43.71037 172.000
43.73031 182.000
43.75026 155.000
43.77021 171.000
43.79015 164.000
43.81010 179.000
43.83005 145.000
43.84999 193.000
43.86994 172.000
43.88989 139.000
43.90984 147.000
43.92978 150.000
43.94973 146.000
43.96968 153.000
43.98962 159.000
44.00957 144.000
44.02952 146.000
44.04946 162.000
44.06941 173.000
44.08936 170.000
44.10930 158.000
44.12925 155.000
44.14920 137.000
44.16915 178.000
44.18909 169.000
44.20904 158.000
44.22899 154.000
44.24893 153.000
44.26888 117.000
44.28883 141.000
44.30877 158.000
44.32872 142.000
44.34867 132.000
44.36862 157.000
44.38856 151.000
44.40851 141.000
44.42846 159.000
44.44840 185.000
44.46835 145.000
44.48830 151.000
44.50824 170.000
44.52819 174.000
44.54814 153.000
44.56808 166.000
44.58803 144.000
44.60798 152.000
44.62793 148.000
44.64787 166.000
44.66782 144.000
44.68777 145.000
44.70771 175.000
44.72766 156.000
44.74761 152.000
44.76755 155.000
44.78750 158.000
44.80745 160.000
44.82740 145.000
44.84734 156.000
44.86729 136.000
44.88724 137.000
44.90718 158.000
44.92713 140.000
44.94708 175.000
44.96702 159.000
44.98697 198.000
45.00692 153.000
45.02686 151.000
45.04681 155.000
45.06676 174.000
45.08671 175.000
45.10665 174.000
45.12660 155.000
45.14655 144.000
45.16649 175.000
45.18644 189.000
45.20639 160.000
45.22633 178.000
45.24628 155.000
45.26623 186.000
45.28618 149.000
45.30612 151.000
45.32607 167.000
45.34602 144.000
45.36596 157.000
45.38591 165.000
45.40586 167.000
45.42580 156.000
45.44575 147.000
45.46570 184.000
45.48565 193.000
45.50559 160.000
45.52554 173.000
45.54549 163.000
45.56543 159.000
45.58538 178.000
45.60533 186.000
45.62527 171.000
45.64522 160.000
45.66517 186.000
45.68511 181.000
45.70506 176.000
45.72501 161.000
45.74496 161.000
45.76490 200.000
45.78485 192.000
45.80480 223.000
45.82474 196.000
45.84469 204.000
45.86464 211.000
45.88458 210.000
45.90453 238.000
45.92448 225.000
45.94443 248.000
45.96437 236.000
45.98432 259.000
46.00427 225.000
46.02421 240.000
46.04416 274.000
46.06411 246.000
46.08405 247.000
46.10400 254.000
46.12395 265.000
46.14389 272.000
46.16384 283.000
46.18379 274.000
46.20374 256.000
46.22368 285.000
46.24363 247.000
46.26358 279.000
46.28352 274.000
46.30347 223.000
46.32342 250.000
46.34336 241.000
46.36331 254.000
46.38326 225.000
46.40321 248.000
46.42315 203.000
46.44310 210.000
46.46305 213.000
46.48299 217.000
46.50294 213.000
46.52289 195.000
46.54283 179.000
46.56278 195.000
46.58273 176.000
46.60267 188.000
46.62262 174.000
46.64257 179.000
46.66252 172.000
46.68246 174.000
46.70241 167.000
46.72236 161.000
46.74230 165.000
46.76225 160.000
46.78220 152.000
46.80214 176.000
46.82209 131.000
46.84204 173.000
46.86199 161.000
46.88193 158.000
46.90188 151.000
46.92183 148.000
46.94177 142.000
46.96172 128.000
46.98167 138.000
47.00161 141.000
47.02156 144.000
47.04151 155.000
47.06146 148.000
47.08140 155.000
47.10135 130.000
47.12130 158.000
47.14124 143.000
47.16119 151.000
47.18114 143.000
47.20108 137.000
47.22103 117.000
47.24098 151.000
47.26092 164.000
47.28087 143.000
47.30082 150.000
47.32077 162.000
47.34071 145.000
47.36066 140.000
47.38061 142.000
47.40055 143.000
47.42050 148.000
47.44045 135.000
47.46039 134.000
47.48034 158.000
47.50029 162.000
47.52024 154.000
47.54018 151.000
47.56013 184.000
47.58008 157.000
47.60002 165.000
47.61997 169.000
47.63992 132.000
47.65986 138.000
47.67981 176.000
47.69976 186.000
47.71970 161.000
47.73965 177.000
47.75960 185.000
47.77955 176.000
47.79949 182.000
47.81944 186.000
47.83939 178.000
47.85933 174.000
47.87928 150.000
47.89923 169.000
47.91917 168.000
47.93912 130.000
47.95907 156.000
47.97902 166.000
47.99896 134.000
48.01891 152.000
48.03886 161.000
48.05880 165.000
48.07875 178.000
48.09870 145.000
48.11864 132.000
48.13859 140.000
48.15854 148.000
48.17848 138.000
48.19843 141.000
48.21838 143.000
48.23833 170.000
48.25827 128.000
48.27822 143.000
48.29817 140.000
48.31811 150.000
48.33806 132.000
48.35801 152.000
48.37795 156.000
48.39790 136.000
48.41785 145.000
48.43780 117.000
48.45774 126.000
48.47769 138.000
48.49764 137.000
48.51758 129.000
48.53753 154.000
48.55748 122.000
48.57742 153.000
48.59737 114.000
48.61732 143.000
48.63726 160.000
48.65721 139.000
48.67716 124.000
48.69711 134.000
48.71705 142.000
48.73700 142.000
48.75695 136.000
48.77689 153.000
48.79684 159.000
48.81679 144.000
48.83673 143.000
48.85668 159.000
48.87663 111.000
48.89658 127.000
48.91652 122.000
48.93647 121.000
48.95642 122.000
48.97636 125.000
48.99631 151.000
49.01626 147.000
49.03620 106.000
49.05615 139.000
49.07610 128.000
49.09605 137.000
49.11599 122.000
49.13594 140.000
49.15589 119.000
49.17583 147.000
49.19578 155.000
49.21573 146.000
49.23567 131.000
49.25562 153.000
49.27557 127.000
49.29551 136.000
49.31546 137.000
49.33541 147.000
49.35536 118.000
49.37530 138.000
49.39525 145.000
49.41520 126.000
49.43514 134.000
49.45509 133.000
49.47504 116.000
49.49498 140.000
49.51493 129.000
49.53488 129.000
49.55483 141.000
49.57477 146.000
49.59472 150.000
49.61467 137.000
49.63461 109.000
49.65456 122.000
49.67451 151.000
49.69445 135.000
49.71440 133.000
49.73435 132.000
49.75429 117.000
49.77424 119.000
49.79419 143.000
49.81414 138.000
49.83408 119.000
49.85403 118.000
49.87398 113.000
49.89392 122.000
49.91387 126.000
49.93382 134.000
49.95376 120.000
49.97371 136.000
49.99366 118.000
50.01361 132.000
50.03355 137.000
50.05350 137.000
50.07345 125.000
50.09339 124.000
50.11334 146.000
50.13329 123.000
50.15323 132.000
50.17318 136.000
50.19313 135.000
50.21307 125.000
50.23302 104.000
50.25297 140.000
50.27292 102.000
50.29286 135.000
50.31281 115.000
50.33276 132.000
50.35270 97.000
50.37265 124.000
50.39260 124.000
50.41254 135.000
50.43249 146.000
50.45244 123.000
50.47239 115.000
50.49233 146.000
50.51228 131.000
50.53223 124.000
50.55217 129.000
50.57212 126.000
50.59207 130.000
50.61201 128.000
50.63196 134.000
50.65191 118.000
50.67186 129.000
50.69180 126.000
50.71175 112.000
50.73170 117.000
50.75164 147.000
50.77159 130.000
50.79154 125.000
50.81148 140.000
50.83143 152.000
50.85138 127.000
50.87132 147.000
50.89127 126.000
50.91122 134.000
50.93117 142.000
50.95111 129.000
50.97106 131.000
50.99101 139.000
51.01095 129.000
51.03090 134.000
51.05085 109.000
51.07079 160.000
51.09074 129.000
51.11069 129.000
51.13064 133.000
51.15058 121.000
51.17053 158.000
51.19048 132.000
51.21042 127.000
51.23037 119.000
51.25032 139.000
51.27026 120.000
51.29021 150.000
51.31016 134.000
51.33010 144.000
51.35005 142.000
51.37000 139.000
51.38995 148.000
51.40989 132.000
51.42984 141.000
51.44979 95.000
51.46973 123.000
51.48968 141.000
51.50963 127.000
51.52957 115.000
51.54952 116.000
51.56947 132.000
51.58942 110.000
51.60936 135.000
51.62931 126.000
51.64926 129.000
51.66920 136.000
51.68915 153.000
51.70910 136.000
51.72904 123.000
51.74899 95.000
51.76894 134.000
51.78888 114.000
51.80883 121.000
51.82878 153.000
51.84873 143.000
51.86867 130.000
51.88862 119.000
51.90857 136.000
51.92851 133.000
51.94846 130.000
51.96841 113.000
51.98835 146.000
52.00830 129.000
52.02825 121.000
52.04820 134.000
52.06814 105.000
52.08809 124.000
52.10804 139.000
52.12798 130.000
52.14793 136.000
52.16788 123.000
52.18782 129.000
52.20777 139.000
52.22772 114.000
52.24767 119.000
52.26761 119.000
52.28756 131.000
52.30751 131.000
52.32745 130.000
52.34740 131.000
52.36735 124.000
52.38729 126.000
52.40724 130.000
52.42719 120.000
52.44713 137.000
52.46708 119.000
52.48703 116.000
52.50698 137.000
52.52692 133.000
52.54687 139.000
52.56682 118.000
52.58676 116.000
52.60671 153.000
52.62666 133.000
52.64660 121.000
52.66655 137.000
52.68650 121.000
52.70645 134.000
52.72639 120.000
52.74634 120.000
52.76629 108.000
52.78623 106.000
52.80618 127.000
52.82613 116.000
52.84607 129.000
52.86602 110.000
52.88597 125.000
52.90591 134.000
52.92586 115.000
52.94581 131.000
52.96576 134.000
52.98570 114.000
53.00565 142.000
53.02560 129.000
53.04554 146.000
53.06549 132.000
53.08544 132.000
53.10538 138.000
53.12533 136.000
53.14528 111.000
53.16523 109.000
53.18517 140.000
53.20512 126.000
53.22507 148.000
53.24501 135.000
53.26496 109.000
53.28491 140.000
53.30485 120.000
53.32480 119.000
53.34475 131.000
53.36469 133.000
53.38464 143.000
53.40459 133.000
53.42454 152.000
53.44448 144.000
53.46443 143.000
53.48438 133.000
53.50432 147.000
53.52427 159.000
53.54422 131.000
53.56416 146.000
53.58411 171.000
53.60406 168.000
53.62401 141.000
53.64395 170.000
53.66390 137.000
53.68385 142.000
53.70379 166.000
53.72374 159.000
53.74369 164.000
53.76363 166.000
53.78358 168.000
53.80353 185.000
53.82348 198.000
53.84342 217.000
53.86337 211.000
53.88332 207.000
53.90326 187.000
53.92321 169.000
53.94316 207.000
53.96310 190.000
53.98305 203.000
54.00300 158.000
54.02294 173.000
54.04289 150.000
54.06284 176.000
54.08279 152.000
54.10273 131.000
54.12268 142.000
54.14263 157.000
54.16257 154.000
54.18252 146.000
54.20247 148.000
54.22241 137.000
54.24236 121.000
54.26231 109.000
54.28226 126.000
54.30220 123.000
54.32215 160.000
54.34210 136.000
54.36204 130.000
54.38199 130.000
54.40194 143.000
54.42188 118.000
54.44183 134.000
54.46178 134.000
54.48172 135.000
54.50167 130.000
54.52162 150.000
54.54157 138.000
54.56151 131.000
54.58146 134.000
54.60141 149.000
54.62135 142.000
54.64130 133.000
54.66125 134.000
54.68119 157.000
54.70114 167.000
54.72109 153.000
54.74104 162.000
54.76098 125.000
54.78093 141.000
54.80088 140.000
54.82082 137.000
54.84077 147.000
54.86072 131.000
54.88066 138.000
54.90061 152.000
54.92056 141.000
54.94050 145.000
54.96045 137.000
54.98040 134.000
55.00035 147.000
55.02029 150.000
55.04024 133.000
55.06019 141.000
55.08013 145.000
55.10008 114.000
55.12003 142.000
55.13997 169.000
55.15992 124.000
55.17987 151.000
55.19982 129.000
55.21976 123.000
55.23971 145.000
55.25966 128.000
55.27960 114.000
55.29955 146.000
55.31950 126.000
55.33944 132.000
55.35939 141.000
55.37934 135.000
55.39929 123.000
55.41923 140.000
55.43918 129.000
55.45913 128.000
55.47907 134.000
55.49902 119.000
55.51897 122.000
55.53891 139.000
55.55886 131.000
55.57881 135.000
55.59875 121.000
55.61870 144.000
55.63865 136.000
55.65860 148.000
55.67854 124.000
55.69849 111.000
55.71844 136.000
55.73838 123.000
55.75833 119.000
55.77828 137.000
55.79822 139.000
55.81817 109.000
55.83812 129.000
55.85807 118.000
55.87801 126.000
55.89796 121.000
55.91791 133.000
55.93785 113.000
55.95780 118.000
55.97775 137.000
55.99769 122.000
56.01764 145.000
56.03759 115.000
56.05753 134.000
56.07748 122.000
56.09743 124.000
56.11738 134.000
56.13732 118.000
56.15727 120.000
56.17722 134.000
56.19716 124.000
56.21711 132.000
56.23706 109.000
56.25700 137.000
56.27695 119.000
56.29690 134.000
56.31685 155.000
56.33679 132.000
56.35674 143.000
56.37669 123.000
56.39663 143.000
56.41658 121.000
56.43653 124.000
56.45647 123.000
56.47642 149.000
56.49637 133.000
56.51631 135.000
56.53626 112.000
56.55621 135.000
56.57616 127.000
56.59610 127.000
56.61605 150.000
56.63600 142.000
56.65594 121.000
56.67589 124.000
56.69584 132.000
56.71578 129.000
56.73573 135.000
56.75568 124.000
56.77563 133.000
56.79557 146.000
56.81552 130.000
56.83547 115.000
56.85541 124.000
56.87536 140.000
56.89531 122.000
56.91525 150.000
56.93520 144.000
56.95515 159.000
56.97510 141.000
56.99504 148.000
57.01499 145.000
57.03494 160.000
57.05488 152.000
57.07483 146.000
57.09478 139.000
57.11472 163.000
57.13467 149.000
57.15462 150.000
57.17456 168.000
57.19451 186.000
57.21446 190.000
57.23441 213.000
57.25435 195.000
57.27430 219.000
57.29425 241.000
57.31419 252.000
57.33414 319.000
57.35409 278.000
57.37403 283.000
57.39398 372.000
57.41393 370.000
57.43388 363.000
57.45382 343.000
57.47377 367.000
57.49372 361.000
57.51366 304.000
57.53361 336.000
57.55356 326.000
57.57350 281.000
57.59345 292.000
57.61340 270.000
57.63334 239.000
57.65329 234.000
57.67324 234.000
57.69319 208.000
57.71313 201.000
57.73308 183.000
57.75303 171.000
57.77297 195.000
57.79292 171.000
57.81287 177.000
57.83281 173.000
57.85276 169.000
57.87271 144.000
57.89266 151.000
57.91260 169.000
57.93255 179.000
57.95250 155.000
57.97244 173.000
57.99239 171.000
58.01234 154.000
58.03228 186.000
58.05223 204.000
58.07218 192.000
58.09212 181.000
58.11207 177.000
58.13202 199.000
58.15197 180.000
58.17191 207.000
58.19186 187.000
58.21181 189.000
58.23175 175.000
58.25170 151.000
58.27165 188.000
58.29159 152.000
58.31154 153.000
58.33149 172.000
58.35144 178.000
58.37138 202.000
58.39133 167.000
58.41128 182.000
58.43122 171.000
58.45117 152.000
58.47112 161.000
58.49106 146.000
58.51101 138.000
58.53096 143.000
58.55090 171.000
58.57085 175.000
58.59080 139.000
58.61075 172.000
58.63069 154.000
58.65064 145.000
58.67059 143.000
58.69053 154.000
58.71048 156.000
58.73043 142.000
58.75037 146.000
58.77032 158.000
58.79027 150.000
58.81022 125.000
58.83016 152.000
58.85011 167.000
58.87006 136.000
58.89000 129.000
58.90995 150.000
58.92990 151.000
58.94984 140.000
58.96979 156.000
58.98974 130.000
59.00969 135.000
59.02963 143.000
59.04958 140.000
59.06953 145.000
59.08947 142.000
59.10942 143.000
59.12937 152.000
59.14931 133.000
59.16926 134.000
59.18921 138.000
59.20915 152.000
59.22910 168.000
59.24905 164.000
59.26900 162.000
59.28894 137.000
59.30889 164.000
59.32884 147.000
59.34878 171.000
59.36873 139.000
59.38868 166.000
59.40862 164.000
59.42857 160.000
59.44852 160.000
59.46847 165.000
59.48841 179.000
59.50836 168.000
59.52831 182.000
59.54825 233.000
59.56820 168.000
59.58815 173.000
59.60809 184.000
59.62804 196.000
59.64799 192.000
59.66793 198.000
59.68788 236.000
59.70783 222.000
59.72778 243.000
59.74772 272.000
59.76767 251.000
59.78762 305.000
59.80756 318.000
59.82751 297.000
59.84746 297.000
59.86740 311.000
59.88735 284.000
59.90730 290.000
59.92725 271.000
59.94719 296.000
59.96714 291.000
59.98709 252.000
60.00703 226.000
60.02698 251.000
60.04693 237.000
60.06687 253.000
60.08682 233.000
60.10677 204.000
60.12671 176.000
60.14666 160.000
60.16661 158.000
60.18656 177.000
60.20650 154.000
60.22645 156.000
60.24640 145.000
60.26634 134.000
60.28629 165.000
60.30624 141.000
60.32618 147.000
60.34613 140.000
60.36608 160.000
60.38603 144.000
60.40597 125.000
60.42592 143.000
60.44587 144.000
60.46581 148.000
60.48576 139.000
60.50571 128.000
60.52565 135.000
60.54560 176.000
60.56555 143.000
60.58550 127.000
60.60544 143.000
60.62539 162.000
60.64534 122.000
60.66528 159.000
60.68523 123.000
60.70518 149.000
60.72512 121.000
60.74507 139.000
60.76502 131.000
60.78496 134.000
60.80491 145.000
60.82486 138.000
60.84481 136.000
60.86475 157.000
60.88470 143.000
60.90465 131.000
60.92459 134.000
60.94454 125.000
60.96449 163.000
60.98443 144.000
61.00438 169.000
61.02433 177.000
61.04428 152.000
61.06422 164.000
61.08417 173.000
61.10412 162.000
61.12406 164.000
61.14401 155.000
61.16396 161.000
61.18390 167.000
61.20385 186.000
61.22380 170.000
61.24374 172.000
61.26369 179.000
61.28364 149.000
61.30359 201.000
61.32353 182.000
61.34348 171.000
61.36343 188.000
61.38337 212.000
61.40332 180.000
61.42327 213.000
61.44321 214.000
61.46316 224.000
61.48311 257.000
61.50306 252.000
61.52300 304.000
61.54295 311.000
61.56290 300.000
61.58284 321.000
61.60279 352.000
61.62274 421.000
61.64268 426.000
61.66263 456.000
61.68258 499.000
61.70252 491.000
61.72247 536.000
61.74242 559.000
61.76237 579.000
61.78231 506.000
61.80226 532.000
61.82221 472.000
61.84215 426.000
61.86210 423.000
61.88205 414.000
61.90199 405.000
61.92194 389.000
61.94189 333.000
61.96184 335.000
61.98178 327.000
62.00173 292.000
62.02168 261.000
62.04162 254.000
62.06157 251.000
62.08152 250.000
62.10146 224.000
62.12141 230.000
62.14136 213.000
62.16131 240.000
62.18125 198.000
62.20120 193.000
62.22115 208.000
62.24109 211.000
62.26104 193.000
62.28099 190.000
62.30093 211.000
62.32088 192.000
62.34083 177.000
62.36077 166.000
62.38072 213.000
62.40067 181.000
62.42062 186.000
62.44056 191.000
62.46051 205.000
62.48046 170.000
62.50040 203.000
62.52035 198.000
62.54030 196.000
62.56024 205.000
62.58019 205.000
62.60014 222.000
62.62009 240.000
62.64003 256.000
62.65998 238.000
62.67993 255.000
62.69987 266.000
62.71982 267.000
62.73977 309.000
62.75971 345.000
62.77966 353.000
62.79961 414.000
62.81955 435.000
62.83950 439.000
62.85945 463.000
62.87940 481.000
62.89934 496.000
62.91929 510.000
62.93924 528.000
62.95918 529.000
62.97913 551.000
62.99908 584.000
63.01902 561.000
63.03897 572.000
63.05892 623.000
63.07887 530.000
63.09881 518.000
63.11876 497.000
63.13871 455.000
63.15865 398.000
63.17860 419.000
63.19855 439.000
63.21849 372.000
63.23844 320.000
63.25839 322.000
63.27833 294.000
63.29828 314.000
63.31823 239.000
63.33818 233.000
63.35812 219.000
63.37807 193.000
63.39802 177.000
63.41796 164.000
63.43791 187.000
63.45786 187.000
63.47780 148.000
63.49775 151.000
63.51770 143.000
63.53765 156.000
63.55759 182.000
63.57754 176.000
63.59749 153.000
63.61743 142.000
63.63738 140.000
63.65733 138.000
63.67727 135.000
63.69722 143.000
63.71717 132.000
63.73712 117.000
63.75706 157.000
63.77701 141.000
63.79696 148.000
63.81690 133.000
63.83685 151.000
63.85680 147.000
63.87674 164.000
63.89669 127.000
63.91664 165.000
63.93658 124.000
63.95653 154.000
63.97648 153.000
63.99643 163.000
64.01637 143.000
64.03632 132.000
64.05627 141.000
64.07621 154.000
64.09616 135.000
64.11611 149.000
64.13605 130.000
64.15600 148.000
64.17595 128.000
64.19590 120.000
64.21584 130.000
64.23579 121.000
64.25574 139.000
64.27568 173.000
64.29563 152.000
64.31558 128.000
64.33552 149.000
64.35547 154.000
64.37542 145.000
64.39536 136.000
64.41531 153.000
64.43526 149.000
64.45521 135.000
64.47515 150.000
64.49510 156.000
64.51505 151.000
64.53499 151.000
64.55494 136.000
64.57489 163.000
64.59483 156.000
64.61478 160.000
64.63473 150.000
64.65468 162.000
64.67462 167.000
64.69457 136.000
64.71452 163.000
64.73446 169.000
64.75441 179.000
64.77436 165.000
64.79430 168.000
64.81425 146.000
64.83420 183.000
64.85414 165.000
64.87409 168.000
64.89404 162.000
64.91399 165.000
64.93393 180.000
64.95388 157.000
64.97383 154.000
64.99377 155.000
65.01372 161.000
65.03367 158.000
65.05361 173.000
65.07356 165.000
65.09351 155.000
65.11346 158.000
65.13340 166.000
65.15335 170.000
65.17330 165.000
65.19324 155.000
65.21319 156.000
65.23314 143.000
65.25308 184.000
65.27303 169.000
65.29298 144.000
65.31293 162.000
65.33287 146.000
65.35282 138.000
65.37277 162.000
65.39271 156.000
65.41266 146.000
65.43261 154.000
65.45255 158.000
65.47250 159.000
65.49245 128.000
65.51239 126.000
65.53234 147.000
65.55229 147.000
65.57224 128.000
65.59218 160.000
65.61213 137.000
65.63208 152.000
65.65202 165.000
65.67197 132.000
65.69192 121.000
65.71186 140.000
65.73181 117.000
65.75176 138.000
65.77171 143.000
65.79165 126.000
65.81160 113.000
65.83155 133.000
65.85149 157.000
65.87144 144.000
65.89139 146.000
65.91133 144.000
65.93128 122.000
65.95123 141.000
65.97117 124.000
65.99112 140.000
66.01107 140.000
66.03102 136.000
66.05096 141.000
66.07091 132.000
66.09086 150.000
66.11080 125.000
66.13075 127.000
66.15070 100.000
66.17064 120.000
66.19059 144.000
66.21054 129.000
66.23049 141.000
66.25043 132.000
66.27038 129.000
66.29033 126.000
66.31027 121.000
66.33022 127.000
66.35017 126.000
66.37011 154.000
66.39006 116.000
66.41001 144.000
66.42995 131.000
66.44990 139.000
66.46985 111.000
66.48980 120.000
66.50974 122.000
66.52969 133.000
66.54964 120.000
66.56958 130.000
66.58953 125.000
66.60948 124.000
66.62942 118.000
66.64937 120.000
66.66932 100.000
66.68927 114.000
66.70921 118.000
66.72916 107.000
66.74911 127.000
66.76905 107.000
66.78900 118.000
66.80895 123.000
66.82889 104.000
66.84884 132.000
66.86879 133.000
66.88874 141.000
66.90868 123.000
66.92863 116.000
66.94858 127.000
66.96852 118.000
66.98847 121.000
67.00842 113.000
67.02836 120.000
67.04831 114.000
67.06826 113.000
67.08820 117.000
67.10815 102.000
67.12810 114.000
67.14805 121.000
67.16799 136.000
67.18794 125.000
67.20789 106.000
67.22783 122.000
67.24778 99.000
67.26773 137.000
67.28767 128.000
67.30762 113.000
67.32757 112.000
67.34752 133.000
67.36746 115.000
67.38741 126.000
67.40736 145.000
67.42730 150.000
67.44725 120.000
67.46720 132.000
67.48714 109.000
67.50709 111.000
67.52704 129.000
67.54698 116.000
67.56693 119.000
67.58688 107.000
67.60683 139.000
67.62677 139.000
67.64672 109.000
67.66667 115.000
67.68661 135.000
67.70656 108.000
67.72651 126.000
67.74645 124.000
67.76640 135.000
67.78635 130.000
67.80630 120.000
67.82624 125.000
67.84619 107.000
67.86614 130.000
67.88608 125.000
67.90603 119.000
67.92598 131.000
67.94592 119.000
67.96587 126.000
67.98582 135.000
68.00576 117.000
68.02571 104.000
68.04566 119.000
68.06561 128.000
68.08555 141.000
68.10550 107.000
68.12545 108.000
68.14539 133.000
68.16534 118.000
68.18529 136.000
68.20523 149.000
68.22518 115.000
68.24513 115.000
68.26508 136.000
68.28502 120.000
68.30497 135.000
68.32492 176.000
68.34486 122.000
68.36481 126.000
68.38476 136.000
68.40470 136.000
68.42465 132.000
68.44460 120.000
68.46455 127.000
68.48449 136.000
68.50444 145.000
68.52439 124.000
68.54433 154.000
68.56428 125.000
68.58423 107.000
68.60417 118.000
68.62412 113.000
68.64407 121.000
68.66401 127.000
68.68396 110.000
68.70391 126.000
68.72386 132.000
68.74380 114.000
68.76375 107.000
68.78370 140.000
68.80364 129.000
68.82359 118.000
68.84354 116.000
68.86348 119.000
68.88343 135.000
68.90338 133.000
68.92333 112.000
68.94327 132.000
68.96322 132.000
68.98317 134.000
69.00311 118.000
69.02306 113.000
69.04301 123.000
69.06295 113.000
69.08290 108.000
69.10285 115.000
69.12279 106.000
69.14274 97.000
69.16269 112.000
69.18264 127.000
69.20258 126.000
69.22253 120.000
69.24248 120.000
69.26242 111.000
69.28237 132.000
69.30232 114.000
69.32226 122.000
69.34221 125.000
69.36216 128.000
69.38211 133.000
69.40205 91.000
69.42200 141.000
69.44195 108.000
69.46189 119.000
69.48184 143.000
69.50179 115.000
69.52173 127.000
69.54168 126.000
69.56163 113.000
69.58157 136.000
69.60152 121.000
69.62147 131.000
69.64142 109.000
69.66136 141.000
69.68131 106.000
69.70126 122.000
69.72120 122.000
69.74115 136.000
69.76110 125.000
69.78104 131.000
69.80099 109.000
69.82094 114.000
69.84089 136.000
69.86083 127.000
69.88078 134.000
69.90073 138.000
69.92067 136.000
69.94062 134.000
69.96057 106.000
69.98051 137.000
70.00046 136.000
70.02041 130.000
70.04035 154.000
70.06030 120.000
70.08025 128.000
70.10020 115.000
70.12014 126.000
70.14009 125.000
70.16004 140.000
70.17998 141.000
70.19993 131.000
70.21988 122.000
70.23982 123.000
70.25977 149.000
70.27972 140.000
70.29967 133.000
70.31961 124.000
70.33956 122.000
70.35951 133.000
70.37945 110.000
70.39940 134.000
70.41935 151.000
70.43929 143.000
70.45924 112.000
70.47919 131.000
70.49914 121.000
70.51908 136.000
70.53903 114.000
70.55898 115.000
70.57892 115.000
70.59887 129.000
70.61882 125.000
70.63876 125.000
70.65871 126.000
70.67866 126.000
70.69860 110.000
70.71855 133.000
70.73850 136.000
70.75845 135.000
70.77839 126.000
70.79834 117.000
70.81829 108.000
70.83823 114.000
70.85818 121.000
70.87813 134.000
70.89807 123.000
70.91802 115.000
70.93797 122.000
70.95792 118.000
70.97786 124.000
70.99781 121.000
71.01776 137.000
71.03770 128.000
71.05765 142.000
71.07760 143.000
71.09754 116.000
71.11749 141.000
71.13744 124.000
71.15738 161.000
71.17733 134.000
71.19728 171.000
71.21723 151.000
71.23717 148.000
71.25712 129.000
71.27707 163.000
71.29701 163.000
71.31696 151.000
71.33691 169.000
71.35685 158.000
71.37680 170.000
71.39675 176.000
71.41670 173.000
71.43664 170.000
71.45659 169.000
71.47654 155.000
71.49648 161.000
71.51643 169.000
71.53638 155.000
71.55632 191.000
71.57627 171.000
71.59622 157.000
71.61616 135.000
71.63611 140.000
71.65606 169.000
71.67601 148.000
71.69595 117.000
71.71590 163.000
71.73585 174.000
71.75579 132.000
71.77574 140.000
71.79569 148.000
71.81563 137.000
71.83558 138.000
71.85553 133.000
71.87548 129.000
71.89542 135.000
71.91537 128.000
71.93532 134.000
71.95526 160.000
71.97521 141.000
71.99516 126.000
72.01510 119.000
72.03505 139.000
72.05500 139.000
72.07495 151.000
72.09489 143.000
72.11484 132.000
72.13479 122.000
72.15473 140.000
72.17468 130.000
72.19463 134.000
72.21457 132.000
72.23452 156.000
72.25447 108.000
72.27441 131.000
72.29436 132.000
72.31431 126.000
72.33426 141.000
72.35420 146.000
72.37415 139.000
72.39410 142.000
72.41404 136.000
72.43399 129.000
72.45394 112.000
72.47388 153.000
72.49383 151.000
72.51378 132.000
72.53373 148.000
72.55367 133.000
72.57362 130.000
72.59357 145.000
72.61351 138.000
72.63346 154.000
72.65341 122.000
72.67335 143.000
72.69330 161.000
72.71325 139.000
72.73319 166.000
72.75314 155.000
72.77309 161.000
72.79304 150.000
72.81298 187.000
72.83293 173.000
72.85288 141.000
72.87282 171.000
72.89277 195.000
72.91272 188.000
72.93266 180.000
72.95261 196.000
72.97256 220.000
72.99251 211.000
73.01245 183.000
73.03240 209.000
73.05235 205.000
73.07229 211.000
73.09224 212.000
73.11219 218.000
73.13213 187.000
73.15208 185.000
73.17203 203.000
73.19197 188.000
73.21192 190.000
73.23187 186.000
73.25182 162.000
73.27176 175.000
73.29171 147.000
73.31166 167.000
73.33160 156.000
73.35155 135.000
73.37150 142.000
73.39144 134.000
73.41139 159.000
73.43134 146.000
73.45129 157.000
73.47123 137.000
73.49118 142.000
73.51113 137.000
73.53107 128.000
73.55102 128.000
73.57097 121.000
73.59091 144.000
73.61086 140.000
73.63081 128.000
73.65076 152.000
73.67070 152.000
73.69065 153.000
73.71060 147.000
73.73054 140.000
73.75049 137.000
73.77044 190.000
73.79038 143.000
73.81033 165.000
73.83028 169.000
73.85022 150.000
73.87017 193.000
73.89012 175.000
73.91007 180.000
73.93001 163.000
73.94996 173.000
73.96991 175.000
73.98985 165.000
74.00980 161.000
74.02975 171.000
74.04969 218.000
74.06964 191.000
74.08959 161.000
74.10954 142.000
74.12948 173.000
74.14943 139.000
74.16938 140.000
74.18932 171.000
74.20927 169.000
74.22922 154.000
74.24916 165.000
74.26911 153.000
74.28906 153.000
74.30900 141.000
74.32895 163.000
74.34890 141.000
74.36885 160.000
74.38879 180.000
74.40874 149.000
74.42869 169.000
74.44863 162.000
74.46858 159.000
74.48853 203.000
74.50847 170.000
74.52842 200.000
74.54837 197.000
74.56832 214.000
74.58826 186.000
74.60821 197.000
74.62816 210.000
74.64810 185.000
74.66805 192.000
74.68800 193.000
74.70794 179.000
74.72789 181.000
74.74784 148.000
74.76778 177.000
74.78773 157.000
74.80768 169.000
74.82763 194.000
74.84757 162.000
74.86752 147.000
74.88747 176.000
74.90741 145.000
74.92736 126.000
74.94731 185.000
74.96725 149.000
74.98720 135.000
75.00715 142.000
75.02710 124.000
75.04704 142.000
75.06699 149.000
75.08694 148.000
75.10688 148.000
75.12683 161.000
75.14678 157.000
75.16672 163.000
75.18667 164.000
75.20662 179.000
75.22657 166.000
75.24651 187.000
75.26646 175.000
75.28641 167.000
75.30635 194.000
75.32630 185.000
75.34625 194.000
75.36619 185.000
75.38614 199.000
75.40609 195.000
75.42603 177.000
75.44598 214.000
75.46593 172.000
75.48588 191.000
75.50582 203.000
75.52577 193.000
75.54572 188.000
75.56566 164.000
75.58561 173.000
75.60556 169.000
75.62550 175.000
75.64545 177.000
75.66540 177.000
75.68535 170.000
75.70529 153.000
75.72524 161.000
75.74519 164.000
75.76513 155.000
75.78508 135.000
75.80503 145.000
75.82497 160.000
75.84492 146.000
75.86487 126.000
75.88481 131.000
75.90476 144.000
75.92471 153.000
75.94466 120.000
75.96460 120.000
75.98455 134.000
76.00450 119.000
76.02444 133.000
76.04439 126.000
76.06434 133.000
76.08428 120.000
76.10423 107.000
76.12418 136.000
76.14413 127.000
76.16407 129.000
76.18402 129.000
76.20397 140.000
76.22391 126.000
76.24386 117.000
76.26381 121.000
76.28375 125.000
76.30370 121.000
76.32365 107.000
76.34359 124.000
76.36354 121.000
76.38349 118.000
76.40344 111.000
76.42338 107.000
76.44333 121.000
76.46328 116.000
76.48322 122.000
76.50317 131.000
76.52312 143.000
76.54306 146.000
76.56301 122.000
76.58296 145.000
76.60291 135.000
76.62285 127.000
76.64280 125.000
76.66275 124.000
76.68269 121.000
76.70264 159.000
76.72259 142.000
76.74253 141.000
76.76248 136.000
76.78243 138.000
76.80238 143.000
76.82232 135.000
76.84227 156.000
76.86222 170.000
76.88216 127.000
76.90211 149.000
76.92206 161.000
76.94200 164.000
76.96195 140.000
76.98190 143.000
77.00184 154.000
77.02179 157.000
77.04174 161.000
77.06169 165.000
77.08163 159.000
77.10158 147.000
77.12153 151.000
77.14147 130.000
77.16142 162.000
77.18137 141.000
77.20131 172.000
77.22126 170.000
77.24121 166.000
77.26116 163.000
77.28110 176.000
77.30105 167.000
77.32100 187.000
77.34094 195.000
77.36089 185.000
77.38084 170.000
77.40078 206.000
77.42073 206.000
77.44068 209.000
77.46062 198.000
77.48057 182.000
77.50052 197.000
77.52047 198.000
77.54041 213.000
77.56036 185.000
77.58031 177.000
77.60025 179.000
77.62020 182.000
77.64015 206.000
77.66009 165.000
77.68004 177.000
77.69999 169.000
77.71994 145.000
77.73988 165.000
77.75983 160.000
77.77978 162.000
77.79972 137.000
77.81967 131.000
77.83962 140.000
77.85956 122.000
77.87951 136.000
77.89946 121.000
77.91940 109.000
77.93935 144.000
77.95930 132.000
77.97925 145.000
77.99919 103.000
78.01914 114.000
78.03909 134.000
78.05903 105.000
78.07898 133.000
78.09893 100.000
78.11887 128.000
78.13882 124.000
78.15877 105.000
78.17872 88.000
78.19866 118.000
78.21861 125.000
78.23856 130.000
78.25850 93.000
78.27845 134.000
78.29840 110.000
78.31834 133.000
78.33829 103.000
78.35824 106.000
78.37819 123.000
78.39813 120.000
78.41808 116.000
78.43803 110.000
78.45797 109.000
78.47792 102.000
78.49787 114.000
78.51781 110.000
78.53776 109.000
78.55771 107.000
78.57765 110.000
78.59760 128.000
78.61755 103.000
78.63750 111.000
78.65744 132.000
78.67739 117.000
78.69734 108.000
78.71728 122.000
78.73723 115.000
78.75718 125.000
78.77712 119.000
78.79707 116.000
78.81702 116.000
78.83697 124.000
78.85691 105.000
78.87686 105.000
78.89681 125.000
78.91675 138.000
78.93670 131.000
78.95665 117.000
78.97659 99.000
78.99654 114.000
79.01649 127.000
79.03643 123.000
79.05638 111.000
79.07633 132.000
79.09628 139.000
79.11622 150.000
79.13617 159.000
79.15612 142.000
79.17606 153.000
79.19601 167.000
79.21596 150.000
79.23590 183.000
79.25585 151.000
79.27580 174.000
79.29575 167.000
79.31569 167.000
79.33564 195.000
79.35559 188.000
79.37553 185.000
79.39548 175.000
79.41543 173.000
79.43537 189.000
79.45532 170.000
79.47527 176.000
79.49521 156.000
79.51516 176.000
79.53511 206.000
79.55506 188.000
79.57500 181.000
79.59495 169.000
79.61490 203.000
79.63484 174.000
79.65479 161.000
79.67474 171.000
79.69468 162.000
79.71463 154.000
79.73458 165.000
79.75453 138.000
79.77447 166.000
79.79442 130.000
79.81437 152.000
79.83431 156.000
79.85426 137.000
79.87421 145.000
79.89415 137.000
79.91410 131.000
79.93405 142.000
79.95399 137.000
79.97394 138.000
79.99389 140.000
80.01384 113.000
80.03378 125.000
80.05373 138.000
80.07368 129.000
80.09362 118.000
80.11357 134.000
80.13352 132.000
80.15346 114.000
80.17341 148.000
80.19336 146.000
80.21331 129.000
80.23325 126.000
80.25320 136.000
80.27315 132.000
80.29309 120.000
80.31304 141.000
80.33299 97.000
80.35293 119.000
80.37288 145.000
80.39283 131.000
80.41278 118.000
80.43272 127.000
80.45267 123.000
80.47262 130.000
80.49256 121.000
80.51251 134.000
80.53246 124.000
80.55240 142.000
80.57235 114.000
80.59230 126.000
80.61224 123.000
80.63219 121.000
80.65214 131.000
80.67209 123.000
80.69203 117.000
80.71198 119.000
80.73193 127.000
80.75187 128.000
80.77182 141.000
80.79177 146.000
80.81171 98.000
80.83166 92.000
80.85161 136.000
80.87156 124.000
80.89150 123.000
80.91145 104.000
80.93140 112.000
80.95134 119.000
80.97129 138.000
80.99124 126.000
81.01118 106.000
81.03113 126.000
81.05108 111.000
81.07102 125.000
81.09097 106.000
81.11092 132.000
81.13087 115.000
81.15081 119.000
81.17076 137.000
81.19071 110.000
81.21065 116.000
81.23060 124.000
81.25055 116.000
81.27049 113.000
81.29044 114.000
81.31039 117.000
81.33034 107.000
81.35028 109.000
81.37023 116.000
81.39018 129.000
81.41012 131.000
81.43007 105.000
81.45002 121.000
81.46996 108.000
81.48991 111.000
81.50986 100.000
81.52980 125.000
81.54975 119.000
81.56970 113.000
81.58965 120.000
81.60959 123.000
81.62954 122.000
81.64949 116.000
81.66943 113.000
81.68938 127.000
81.70933 100.000
81.72927 114.000
81.74922 118.000
81.76917 102.000
81.78912 121.000
81.80906 118.000
81.82901 106.000
81.84896 101.000
81.86890 109.000
81.88885 111.000
81.90880 120.000
81.92874 101.000
81.94869 110.000
81.96864 117.000
81.98859 117.000
82.00853 111.000
82.02848 110.000
82.04843 109.000
82.06837 119.000
82.08832 123.000
82.10827 90.000
82.12821 110.000
82.14816 113.000
82.16811 100.000
82.18805 105.000
82.20800 95.000
82.22795 117.000
82.24790 124.000
82.26784 118.000
82.28779 100.000
82.30774 106.000
82.32768 122.000
82.34763 110.000
82.36758 105.000
82.38752 122.000
82.40747 129.000
82.42742 95.000
82.44737 124.000
82.46731 104.000
82.48726 97.000
82.50721 105.000
82.52715 121.000
82.54710 108.000
82.56705 131.000
82.58699 124.000
82.60694 109.000
82.62689 106.000
82.64683 113.000
82.66678 126.000
82.68673 100.000
82.70668 116.000
82.72662 115.000
82.74657 106.000
82.76652 126.000
82.78646 103.000
82.80641 115.000
82.82636 123.000
82.84630 121.000
82.86625 117.000
82.88620 90.000
82.90615 118.000
82.92609 105.000
82.94604 136.000
82.96599 112.000
82.98593 108.000
83.00588 118.000
83.02583 122.000
83.04577 95.000
83.06572 105.000
83.08567 125.000
83.10561 116.000
83.12556 117.000
83.14551 91.000
83.16546 130.000
83.18540 117.000
83.20535 110.000
83.22530 107.000
83.24524 113.000
83.26519 115.000
83.28514 99.000
83.30508 113.000
83.32503 105.000
83.34498 121.000
83.36493 120.000
83.38487 114.000
83.40482 124.000
83.42477 118.000
83.44471 96.000
83.46466 125.000
83.48461 105.000
83.50455 107.000
83.52450 115.000
83.54445 109.000
83.56440 116.000
83.58434 129.000
83.60429 87.000
83.62424 106.000
83.64418 114.000
83.66413 100.000
83.68408 123.000
83.70402 105.000
83.72397 111.000
83.74392 114.000
83.76386 105.000
83.78381 109.000
83.80376 108.000
83.82371 97.000
83.84365 121.000
83.86360 108.000
83.88355 125.000
83.90349 125.000
83.92344 107.000
83.94339 125.000
83.96333 86.000
83.98328 104.000
84.00323 102.000
84.02318 106.000
84.04312 101.000
84.06307 104.000
84.08302 101.000
84.10296 120.000
84.12291 95.000
84.14286 93.000
84.16280 102.000
84.18275 95.000
84.20270 90.000
84.22264 110.000
84.24259 90.000
84.26254 115.000
84.28249 97.000
84.30243 109.000
84.32238 109.000
84.34233 103.000
84.36227 92.000
84.38222 116.000
84.40217 121.000
84.42211 96.000
84.44206 125.000
84.46201 117.000
84.48196 115.000
84.50190 104.000
84.52185 116.000
84.54180 112.000
84.56174 84.000
84.58169 126.000
84.60164 89.000
84.62158 121.000
84.64153 116.000
84.66148 113.000
84.68142 100.000
84.70137 95.000
84.72132 107.000
84.74127 112.000
84.76121 121.000
84.78116 108.000
84.80111 126.000
84.82105 119.000
84.84100 130.000
84.86095 101.000
84.88089 104.000
84.90084 104.000
84.92079 100.000
84.94074 119.000
84.96068 99.000
84.98063 104.000
85.00058 110.000
85.02052 126.000
85.04047 107.000
85.06042 115.000
85.08036 117.000
85.10031 121.000
85.12026 117.000
85.14021 100.000
85.16015 125.000
85.18010 101.000
85.20005 103.000
85.21999 124.000
85.23994 103.000
85.25989 117.000
85.27983 149.000
85.29978 129.000
85.31973 118.000
85.33967 107.000
85.35962 117.000
85.37957 126.000
85.39952 109.000
85.41946 110.000
85.43941 103.000
85.45936 103.000
85.47930 116.000
85.49925 126.000
85.51920 113.000
85.53914 115.000
85.55909 94.000
85.57904 109.000
85.59899 95.000
85.61893 97.000
85.63888 116.000
85.65883 119.000
85.67877 128.000
85.69872 103.000
85.71867 116.000
85.73861 110.000
85.75856 118.000
85.77851 103.000
85.79845 128.000
85.81840 109.000
85.83835 106.000
85.85830 118.000
85.87824 117.000
85.89819 91.000
85.91814 109.000
85.93808 104.000
85.95803 106.000
85.97798 96.000
85.99792 115.000
86.01787 139.000
86.03782 137.000
86.05777 101.000
86.07771 118.000
86.09766 101.000
86.11761 103.000
86.13755 100.000
86.15750 108.000
86.17745 116.000
86.19739 99.000
86.21734 120.000
86.23729 101.000
86.25723 96.000
86.27718 137.000
86.29713 99.000
86.31708 108.000
86.33702 123.000
86.35697 108.000
86.37692 117.000
86.39686 105.000
86.41681 122.000
86.43676 126.000
86.45670 114.000
86.47665 117.000
86.49660 97.000
86.51655 106.000
86.53649 103.000
86.55644 94.000
86.57639 105.000
86.59633 117.000
86.61628 109.000
86.63623 118.000
86.65617 99.000
86.67612 107.000
86.69607 108.000
86.71602 104.000
86.73596 111.000
86.75591 120.000
86.77586 127.000
86.79580 112.000
86.81575 96.000
86.83570 110.000
86.85564 122.000
86.87559 114.000
86.89554 107.000
86.91548 123.000
86.93543 107.000
86.95538 110.000
86.97533 135.000
86.99527 108.000
87.01522 116.000
87.03517 115.000
87.05511 121.000
87.07506 119.000
87.09501 121.000
87.11495 125.000
87.13490 118.000
87.15485 115.000
87.17480 96.000
87.19474 125.000
87.21469 122.000
87.23464 90.000
87.25458 101.000
87.27453 116.000
87.29448 136.000
87.31442 113.000
87.33437 106.000
87.35432 131.000
87.37426 117.000
87.39421 130.000
87.41416 114.000
87.43411 128.000
87.45405 125.000
87.47400 147.000
87.49395 115.000
87.51389 136.000
87.53384 120.000
87.55379 124.000
87.57373 121.000
87.59368 132.000
87.61363 141.000
87.63358 138.000
87.65352 144.000
87.67347 120.000
87.69342 134.000
87.71336 153.000
87.73331 120.000
87.75326 111.000
87.77320 118.000
87.79315 130.000
87.81310 143.000
87.83304 103.000
87.85299 118.000
87.87294 120.000
87.89289 125.000
87.91283 113.000
87.93278 139.000
87.95273 147.000
87.97267 120.000
87.99262 123.000
88.01257 102.000
88.03251 111.000
88.05246 123.000
88.07241 86.000
88.09236 110.000
88.11230 137.000
88.13225 104.000
88.15220 105.000
88.17214 114.000
88.19209 107.000
88.21204 129.000
88.23198 96.000
88.25193 117.000
88.27188 111.000
88.29183 111.000
88.31177 114.000
88.33172 110.000
88.35167 105.000
88.37161 104.000
88.39156 89.000
88.41151 89.000
88.43145 95.000
88.45140 115.000
88.47135 117.000
88.49129 106.000
88.51124 99.000
88.53119 105.000
88.55114 104.000
88.57108 97.000
88.59103 117.000
88.61098 109.000
88.63092 94.000
88.65087 108.000
88.67082 95.000
88.69076 113.000
88.71071 110.000
88.73066 98.000
88.75061 114.000
88.77055 97.000
88.79050 111.000
88.81045 107.000
88.83039 98.000
88.85034 106.000
88.87029 119.000
88.89023 118.000
88.91018 96.000
88.93013 98.000
88.95007 127.000
88.97002 101.000
88.98997 115.000
89.00992 114.000
89.02986 105.000
89.04981 117.000
89.06976 117.000
89.08970 125.000
89.10965 118.000
89.12960 118.000
89.14954 124.000
89.16949 122.000
89.18944 132.000
89.20939 101.000
89.22933 109.000
89.24928 90.000
89.26923 102.000
89.28917 125.000
89.30912 112.000
89.32907 107.000
89.34901 119.000
89.36896 101.000
89.38891 106.000
89.40885 127.000
89.42880 119.000
89.44875 92.000
89.46870 115.000
89.48864 108.000
89.50859 104.000
89.52854 98.000
89.54848 117.000
89.56843 122.000
89.58838 107.000
89.60832 120.000
89.62827 110.000
89.64822 109.000
89.66817 128.000
89.68811 111.000
89.70806 121.000
89.72801 121.000
89.74795 121.000
89.76790 120.000
89.78785 134.000
89.80779 112.000
89.82774 126.000
89.84769 132.000
89.86764 116.000
89.88758 112.000
89.90753 116.000
89.92748 117.000
89.94742 103.000
89.96737 122.000
89.98732 133.000
90.00726 138.000
