10.00000 108.000
10.01995 101.000
10.03989 108.000
10.05984 100.000
10.07979 97.000
10.09973 99.000
10.11968 109.000
10.13963 101.000
10.15958 85.000
10.17952 113.000
10.19947 106.000
10.21942 88.000
10.23936 101.000
10.25931 108.000
10.27926 89.000
10.29920 93.000
10.31915 84.000
10.33910 102.000
10.35905 101.000
10.37899 90.000
10.39894 88.000
10.41889 107.000
10.43883 100.000
10.45878 96.000
10.47873 102.000
10.49867 90.000
10.51862 84.000
10.53857 87.000
10.55851 95.000
10.57846 104.000
10.59841 108.000
10.61836 79.000
10.63830 112.000
10.65825 111.000
10.67820 110.000
10.69814 98.000
10.71809 91.000
10.73804 107.000
10.75798 101.000
10.77793 91.000
10.79788 92.000
10.81783 89.000
10.83777 111.000
10.85772 100.000
10.87767 111.000
10.89761 98.000
10.91756 108.000
10.93751 101.000
10.95745 93.000
10.97740 99.000
10.99735 99.000
11.01730 118.000
11.03724 100.000
11.05719 104.000
11.07714 93.000
11.09708 89.000
11.11703 105.000
11.13698 117.000
11.15692 92.000
11.17687 116.000
11.19682 128.000
11.21676 115.000
11.23671 95.000
11.25666 111.000
11.27661 101.000
11.29655 99.000
11.31650 100.000
11.33645 92.000
11.35639 90.000
11.37634 101.000
11.39629 96.000
11.41623 88.000
11.43618 103.000
11.45613 117.000
11.47608 118.000
11.49602 96.000
11.51597 117.000
11.53592 108.000
11.55586 82.000
11.57581 115.000
11.59576 95.000
11.61570 99.000
11.63565 115.000
11.65560 105.000
11.67554 112.000
11.69549 112.000
11.71544 120.000
11.73539 106.000
11.75533 118.000
11.77528 119.000
11.79523 94.000
11.81517 123.000
11.83512 97.000
11.85507 134.000
11.87501 96.000
11.89496 109.000
11.91491 105.000
11.93486 87.000
11.95480 108.000
11.97475 101.000
11.99470 103.000
12.01464 120.000
12.03459 108.000
12.05454 123.000
12.07448 123.000
12.09443 117.000
12.11438 97.000
12.13432 103.000
12.15427 105.000
12.17422 117.000
12.19417 144.000
12.21411 119.000
12.23406 110.000
12.25401 123.000
12.27395 111.000
12.29390 97.000
12.31385 101.000
12.33379 120.000
12.35374 111.000
12.37369 138.000
12.39364 117.000
12.41358 136.000
12.43353 134.000
12.45348 115.000
12.47342 122.000
12.49337 112.000
12.51332 130.000
12.53326 119.000
12.55321 130.000
12.57316 106.000
12.59311 115.000
12.61305 132.000
12.63300 115.000
12.65295 122.000
12.67289 135.000
12.69284 128.000
12.71279 130.000
12.73273 133.000
12.75268 108.000
12.77263 122.000
12.79257 103.000
12.81252 125.000
12.83247 108.000
12.85242 133.000
12.87236 110.000
12.89231 127.000
12.91226 131.000
12.93220 103.000
12.95215 125.000
12.97210 134.000
12.99204 119.000
13.01199 125.000
13.03194 112.000
13.05189 105.000
13.07183 118.000
13.09178 111.000
13.11173 131.000
13.13167 105.000
13.15162 118.000
13.17157 122.000
13.19151 136.000
13.21146 115.000
13.23141 132.000
13.25135 141.000
13.27130 136.000
13.29125 123.000
13.31120 111.000
13.33114 125.000
13.35109 132.000
13.37104 114.000
13.39098 127.000
13.41093 128.000
13.43088 116.000
13.45082 137.000
13.47077 146.000
13.49072 123.000
13.51067 115.000
13.53061 112.000
13.55056 122.000
13.57051 131.000
13.59045 128.000
13.61040 126.000
13.63035 127.000
13.65029 133.000
13.67024 122.000
13.69019 145.000
13.71013 113.000
13.73008 135.000
13.75003 145.000
13.76998 122.000
13.78992 151.000
13.80987 118.000
13.82982 133.000
13.84976 122.000
13.86971 146.000
13.88966 112.000
13.90960 141.000
13.92955 124.000
13.94950 132.000
13.96945 113.000
13.98939 135.000
14.00934 133.000
14.02929 142.000
14.04923 145.000
14.06918 123.000
14.08913 149.000
14.10907 122.000
14.12902 150.000
14.14897 127.000
14.16892 144.000
14.18886 124.000
14.20881 141.000
14.22876 136.000
14.24870 132.000
14.26865 137.000
14.28860 130.000
14.30854 146.000
14.32849 140.000
14.34844 155.000
14.36838 154.000
14.38833 119.000
14.40828 131.000
14.42823 137.000
14.44817 118.000
14.46812 133.000
14.48807 144.000
14.50801 113.000
14.52796 137.000
14.54791 144.000
14.56785 123.000
14.58780 132.000
14.60775 145.000
14.62770 146.000
14.64764 129.000
14.66759 146.000
14.68754 168.000
14.70748 149.000
14.72743 150.000
14.74738 153.000
14.76732 136.000
14.78727 172.000
14.80722 138.000
14.82716 128.000
14.84711 147.000
14.86706 160.000
14.88701 151.000
14.90695 150.000
14.92690 166.000
14.94685 141.000
14.96679 152.000
14.98674 155.000
15.00669 151.000
15.02663 154.000
15.04658 160.000
15.06653 177.000
15.08648 153.000
15.10642 142.000
15.12637 193.000
15.14632 136.000
15.16626 143.000
15.18621 157.000
15.20616 171.000
15.22610 147.000
15.24605 159.000
15.26600 163.000
15.28594 152.000
15.30589 139.000
15.32584 183.000
15.34579 144.000
15.36573 168.000
15.38568 166.000
15.40563 168.000
15.42557 161.000
15.44552 161.000
15.46547 175.000
15.48541 173.000
15.50536 160.000
15.52531 189.000
15.54526 159.000
15.56520 171.000
15.58515 181.000
15.60510 159.000
15.62504 181.000
15.64499 186.000
15.66494 163.000
15.68488 173.000
15.70483 169.000
15.72478 164.000
15.74472 193.000
15.76467 190.000
15.78462 156.000
15.80457 176.000
15.82451 188.000
15.84446 199.000
15.86441 178.000
15.88435 182.000
15.90430 185.000
15.92425 198.000
15.94419 182.000
15.96414 188.000
15.98409 164.000
16.00404 218.000
16.02398 188.000
16.04393 196.000
16.06388 173.000
16.08382 203.000
16.10377 195.000
16.12372 176.000
16.14366 180.000
16.16361 173.000
16.18356 152.000
16.20351 174.000
16.22345 199.000
16.24340 202.000
16.26335 196.000
16.28329 186.000
16.30324 211.000
16.32319 209.000
16.34313 205.000
16.36308 178.000
16.38303 239.000
16.40297 229.000
16.42292 194.000
16.44287 204.000
16.46282 172.000
16.48276 206.000
16.50271 218.000
16.52266 200.000
16.54260 217.000
16.56255 236.000
16.58250 224.000
16.60244 189.000
16.62239 196.000
16.64234 226.000
16.66229 221.000
16.68223 215.000
16.70218 208.000
16.72213 245.000
16.74207 226.000
16.76202 235.000
16.78197 234.000
16.80191 232.000
16.82186 213.000
16.84181 215.000
16.86175 245.000
16.88170 249.000
16.90165 228.000
16.92160 249.000
16.94154 247.000
16.96149 236.000
16.98144 265.000
17.00138 246.000
17.02133 259.000
17.04128 256.000
17.06122 211.000
17.08117 248.000
17.10112 234.000
17.12107 256.000
17.14101 255.000
17.16096 254.000
17.18091 265.000
17.20085 227.000
17.22080 249.000
17.24075 246.000
17.26069 280.000
17.28064 267.000
17.30059 269.000
17.32053 264.000
17.34048 256.000
17.36043 313.000
17.38038 260.000
17.40032 270.000
17.42027 272.000
17.44022 269.000
17.46016 265.000
17.48011 285.000
17.50006 281.000
17.52000 283.000
17.53995 292.000
17.55990 284.000
17.57985 283.000
17.59979 294.000
17.61974 275.000
17.63969 294.000
17.65963 333.000
17.67958 295.000
17.69953 294.000
17.71947 278.000
17.73942 290.000
17.75937 295.000
17.77932 304.000
17.79926 290.000
17.81921 337.000
17.83916 330.000
17.85910 311.000
17.87905 346.000
17.89900 298.000
17.91894 316.000
17.93889 314.000
17.95884 300.000
17.97878 353.000
17.99873 321.000
18.01868 317.000
18.03863 319.000
18.05857 345.000
18.07852 346.000
18.09847 287.000
18.11841 299.000
18.13836 334.000
18.15831 335.000
18.17825 385.000
18.19820 327.000
18.21815 355.000
18.23810 352.000
18.25804 367.000
18.27799 321.000
18.29794 353.000
18.31788 339.000
18.33783 345.000
18.35778 348.000
18.37772 366.000
18.39767 393.000
18.41762 356.000
18.43756 347.000
18.45751 352.000
18.47746 365.000
18.49741 378.000
18.51735 376.000
18.53730 363.000
18.55725 344.000
18.57719 374.000
18.59714 385.000
18.61709 368.000
18.63703 351.000
18.65698 363.000
18.67693 381.000
18.69688 378.000
18.71682 359.000
18.73677 383.000
18.75672 374.000
18.77666 436.000
18.79661 387.000
18.81656 387.000
18.83650 411.000
18.85645 382.000
18.87640 396.000
18.89634 397.000
18.91629 381.000
18.93624 429.000
18.95619 409.000
18.97613 410.000
18.99608 428.000
19.01603 408.000
19.03597 399.000
19.05592 431.000
19.07587 395.000
19.09581 395.000
19.11576 414.000
19.13571 395.000
19.15566 405.000
19.17560 442.000
19.19555 416.000
19.21550 436.000
19.23544 459.000
19.25539 414.000
19.27534 417.000
19.29528 435.000
19.31523 375.000
19.33518 396.000
19.35513 497.000
19.37507 398.000
19.39502 497.000
19.41497 450.000
19.43491 421.000
19.45486 441.000
19.47481 408.000
19.49475 462.000
19.51470 427.000
19.53465 462.000
19.55459 417.000
19.57454 471.000
19.59449 410.000
19.61444 470.000
19.63438 467.000
19.65433 421.000
19.67428 456.000
19.69422 468.000
19.71417 455.000
19.73412 502.000
19.75406 492.000
19.77401 423.000
19.79396 449.000
19.81391 497.000
19.83385 468.000
19.85380 428.000
19.87375 484.000
19.89369 481.000
19.91364 509.000
19.93359 461.000
19.95353 470.000
19.97348 449.000
19.99343 492.000
20.01337 480.000
20.03332 473.000
20.05327 480.000
20.07322 450.000
20.09316 460.000
20.11311 496.000
20.13306 486.000
20.15300 496.000
20.17295 511.000
20.19290 484.000
20.21284 494.000
20.23279 477.000
20.25274 472.000
20.27269 481.000
20.29263 481.000
20.31258 522.000
20.33253 504.000
20.35247 539.000
20.37242 507.000
20.39237 493.000
20.41231 517.000
20.43226 492.000
20.45221 491.000
20.47215 494.000
20.49210 494.000
20.51205 495.000
20.53200 509.000
20.55194 528.000
20.57189 499.000
20.59184 523.000
20.61178 522.000
20.63173 535.000
20.65168 533.000
20.67162 525.000
20.69157 528.000
20.71152 506.000
20.73147 522.000
20.75141 481.000
20.77136 527.000
20.79131 483.000
20.81125 511.000
20.83120 532.000
20.85115 499.000
20.87109 517.000
20.89104 503.000
20.91099 518.000
20.93094 544.000
20.95088 502.000
20.97083 553.000
20.99078 498.000
21.01072 527.000
21.03067 528.000
21.05062 497.000
21.07056 555.000
21.09051 555.000
21.11046 500.000
21.13040 536.000
21.15035 563.000
21.17030 516.000
21.19025 563.000
21.21019 547.000
21.23014 511.000
21.25009 505.000
21.27003 573.000
21.28998 522.000
21.30993 565.000
21.32987 538.000
21.34982 539.000
21.36977 535.000
21.38972 568.000
21.40966 563.000
21.42961 540.000
21.44956 581.000
21.46950 592.000
21.48945 570.000
21.50940 580.000
21.52934 552.000
21.54929 568.000
21.56924 590.000
21.58918 567.000
21.60913 561.000
21.62908 545.000
21.64903 578.000
21.66897 541.000
21.68892 517.000
21.70887 559.000
21.72881 531.000
21.74876 576.000
21.76871 562.000
21.78865 615.000
21.80860 558.000
21.82855 559.000
21.84850 588.000
21.86844 577.000
21.88839 617.000
21.90834 546.000
21.92828 536.000
21.94823 555.000
21.96818 611.000
21.98812 589.000
22.00807 567.000
22.02802 604.000
22.04796 575.000
22.06791 578.000
22.08786 617.000
22.10781 570.000
22.12775 598.000
22.14770 563.000
22.16765 599.000
22.18759 522.000
22.20754 582.000
22.22749 589.000
22.24743 578.000
22.26738 587.000
22.28733 611.000
22.30728 637.000
22.32722 573.000
22.34717 607.000
22.36712 610.000
22.38706 578.000
22.40701 650.000
22.42696 553.000
22.44690 576.000
22.46685 580.000
22.48680 591.000
22.50675 628.000
22.52669 597.000
22.54664 620.000
22.56659 643.000
22.58653 608.000
22.60648 597.000
22.62643 589.000
22.64637 571.000
22.66632 616.000
22.68627 659.000
22.70621 634.000
22.72616 635.000
22.74611 630.000
22.76606 618.000
22.78600 610.000
22.80595 579.000
22.82590 674.000
22.84584 649.000
22.86579 643.000
22.88574 651.000
22.90568 636.000
22.92563 612.000
22.94558 583.000
22.96553 644.000
22.98547 618.000
23.00542 623.000
23.02537 676.000
23.04531 671.000
23.06526 599.000
23.08521 626.000
23.10515 693.000
23.12510 646.000
23.14505 665.000
23.16499 627.000
23.18494 655.000
23.20489 652.000
23.22484 638.000
23.24478 668.000
23.26473 643.000
23.28468 674.000
23.30462 680.000
23.32457 680.000
23.34452 650.000
23.36446 639.000
23.38441 635.000
23.40436 655.000
23.42431 626.000
23.44425 689.000
23.46420 665.000
23.48415 617.000
23.50409 684.000
23.52404 665.000
23.54399 704.000
23.56393 695.000
23.58388 638.000
23.60383 691.000
23.62377 741.000
23.64372 661.000
23.66367 665.000
23.68362 659.000
23.70356 666.000
23.72351 712.000
23.74346 646.000
23.76340 666.000
23.78335 722.000
23.80330 726.000
23.82324 686.000
23.84319 694.000
23.86314 699.000
23.88309 682.000
23.90303 695.000
23.92298 732.000
23.94293 691.000
23.96287 721.000
23.98282 685.000
24.00277 729.000
24.02271 710.000
24.04266 762.000
24.06261 751.000
24.08256 708.000
24.10250 737.000
24.12245 728.000
24.14240 754.000
24.16234 675.000
24.18229 687.000
24.20224 718.000
24.22218 791.000
24.24213 706.000
24.26208 767.000
24.28202 722.000
24.30197 758.000
24.32192 722.000
24.34187 714.000
24.36181 737.000
24.38176 762.000
24.40171 768.000
24.42165 749.000
24.44160 729.000
24.46155 718.000
24.48149 735.000
24.50144 776.000
24.52139 757.000
24.54134 773.000
24.56128 765.000
24.58123 784.000
24.60118 823.000
24.62112 838.000
24.64107 765.000
24.66102 742.000
24.68096 790.000
24.70091 771.000
24.72086 722.000
24.74080 690.000
24.76075 802.000
24.78070 807.000
24.80065 794.000
24.82059 803.000
24.84054 807.000
24.86049 846.000
24.88043 802.000
24.90038 773.000
24.92033 811.000
24.94027 804.000
24.96022 820.000
24.98017 865.000
25.00012 809.000
25.02006 758.000
25.04001 869.000
25.05996 814.000
25.07990 819.000
25.09985 808.000
25.11980 869.000
25.13974 784.000
25.15969 788.000
25.17964 813.000
25.19958 784.000
25.21953 837.000
25.23948 814.000
25.25943 815.000
25.27937 899.000
25.29932 827.000
25.31927 817.000
25.33921 840.000
25.35916 798.000
25.37911 831.000
25.39905 829.000
25.41900 811.000
25.43895 875.000
25.45890 899.000
25.47884 869.000
25.49879 804.000
25.51874 887.000
25.53868 897.000
25.55863 901.000
25.57858 901.000
25.59852 854.000
25.61847 930.000
25.63842 893.000
25.65837 863.000
25.67831 838.000
25.69826 866.000
25.71821 909.000
25.73815 902.000
25.75810 936.000
25.77805 922.000
25.79799 936.000
25.81794 925.000
25.83789 912.000
25.85783 947.000
25.87778 921.000
25.89773 968.000
25.91768 951.000
25.93762 961.000
25.95757 868.000
25.97752 908.000
25.99746 980.000
26.01741 919.000
26.03736 919.000
26.05730 918.000
26.07725 915.000
26.09720 939.000
26.11715 923.000
26.13709 972.000
26.15704 981.000
26.17699 940.000
26.19693 935.000
26.21688 967.000
26.23683 971.000
26.25677 1013.000
26.27672 993.000
26.29667 944.000
26.31661 960.000
26.33656 970.000
26.35651 1057.000
26.37646 1009.000
26.39640 961.000
26.41635 996.000
26.43630 1031.000
26.45624 956.000
26.47619 1006.000
26.49614 1007.000
26.51608 1013.000
26.53603 989.000
26.55598 1032.000
26.57593 1031.000
26.59587 1024.000
26.61582 1028.000
26.63577 1036.000
26.65571 1011.000
26.67566 1032.000
26.69561 1049.000
26.71555 1005.000
26.73550 1039.000
26.75545 1023.000
26.77539 1121.000
26.79534 1013.000
26.81529 1052.000
26.83524 1096.000
26.85518 1040.000
26.87513 1049.000
26.89508 1029.000
26.91502 996.000
26.93497 1017.000
26.95492 1072.000
26.97486 1029.000
26.99481 1115.000
27.01476 1128.000
27.03471 1077.000
27.05465 1111.000
27.07460 1097.000
27.09455 1072.000
27.11449 1086.000
27.13444 1075.000
27.15439 1056.000
27.17433 1046.000
27.19428 1078.000
27.21423 1103.000
27.23417 1089.000
27.25412 1108.000
27.27407 1134.000
27.29402 1107.000
27.31396 1067.000
27.33391 1132.000
27.35386 1149.000
27.37380 1149.000
27.39375 1120.000
27.41370 1138.000
27.43364 1135.000
27.45359 1134.000
27.47354 1109.000
27.49349 1144.000
27.51343 1173.000
27.53338 1196.000
27.55333 1107.000
27.57327 1170.000
27.59322 1153.000
27.61317 1168.000
27.63311 1218.000
27.65306 1134.000
27.67301 1130.000
27.69296 1186.000
27.71290 1231.000
27.73285 1120.000
27.75280 1201.000
27.77274 1086.000
27.79269 1110.000
27.81264 1135.000
27.83258 1167.000
27.85253 1178.000
27.87248 1168.000
27.89242 1205.000
27.91237 1163.000
27.93232 1157.000
27.95227 1199.000
27.97221 1184.000
27.99216 1256.000
28.01211 1138.000
28.03205 1252.000
28.05200 1207.000
28.07195 1199.000
28.09189 1178.000
28.11184 1159.000
28.13179 1181.000
28.15174 1223.000
28.17168 1181.000
28.19163 1199.000
28.21158 1222.000
28.23152 1168.000
28.25147 1226.000
28.27142 1292.000
28.29136 1195.000
28.31131 1190.000
28.33126 1258.000
28.35120 1275.000
28.37115 1222.000
28.39110 1247.000
28.41105 1228.000
28.43099 1230.000
28.45094 1217.000
28.47089 1215.000
28.49083 1243.000
28.51078 1179.000
28.53073 1270.000
28.55067 1215.000
28.57062 1216.000
28.59057 1243.000
28.61052 1303.000
28.63046 1261.000
28.65041 1247.000
28.67036 1257.000
28.69030 1260.000
28.71025 1189.000
28.73020 1297.000
28.75014 1251.000
28.77009 1289.000
28.79004 1215.000
28.80998 1299.000
28.82993 1222.000
28.84988 1305.000
28.86983 1220.000
28.88977 1271.000
28.90972 1289.000
28.92967 1244.000
28.94961 1310.000
28.96956 1297.000
28.98951 1241.000
29.00945 1246.000
29.02940 1319.000
29.04935 1208.000
29.06930 1299.000
29.08924 1239.000
29.10919 1280.000
29.12914 1303.000
29.14908 1210.000
29.16903 1249.000
29.18898 1235.000
29.20892 1314.000
29.22887 1257.000
29.24882 1275.000
29.26877 1287.000
29.28871 1263.000
29.30866 1330.000
29.32861 1269.000
29.34855 1295.000
29.36850 1273.000
29.38845 1243.000
29.40839 1323.000
29.42834 1220.000
29.44829 1288.000
29.46823 1298.000
29.48818 1270.000
29.50813 1252.000
29.52808 1298.000
29.54802 1240.000
29.56797 1297.000
29.58792 1281.000
29.60786 1284.000
29.62781 1254.000
29.64776 1276.000
29.66770 1259.000
29.68765 1268.000
29.70760 1227.000
29.72755 1294.000
29.74749 1237.000
29.76744 1273.000
29.78739 1252.000
29.80733 1316.000
29.82728 1187.000
29.84723 1265.000
29.86717 1283.000
29.88712 1224.000
29.90707 1320.000
29.92701 1263.000
29.94696 1218.000
29.96691 1223.000
29.98686 1327.000
30.00680 1286.000
30.02675 1257.000
30.04670 1286.000
30.06664 1296.000
30.08659 1267.000
30.10654 1273.000
30.12648 1262.000
30.14643 1280.000
30.16638 1319.000
30.18633 1224.000
30.20627 1322.000
30.22622 1291.000
30.24617 1264.000
30.26611 1319.000
30.28606 1270.000
30.30601 1299.000
30.32595 1292.000
30.34590 1266.000
30.36585 1232.000
30.38579 1263.000
30.40574 1267.000
30.42569 1257.000
30.44564 1255.000
30.46558 1317.000
30.48553 1245.000
30.50548 1243.000
30.52542 1217.000
30.54537 1265.000
30.56532 1258.000
30.58526 1285.000
30.60521 1247.000
30.62516 1225.000
30.64511 1189.000
30.66505 1250.000
30.68500 1283.000
30.70495 1237.000
30.72489 1180.000
30.74484 1286.000
30.76479 1197.000
30.78473 1223.000
30.80468 1187.000
30.82463 1267.000
30.84458 1265.000
30.86452 1185.000
30.88447 1307.000
30.90442 1200.000
30.92436 1245.000
30.94431 1229.000
30.96426 1226.000
30.98420 1222.000
31.00415 1217.000
31.02410 1247.000
31.04404 1180.000
31.06399 1229.000
31.08394 1229.000
31.10389 1212.000
31.12383 1227.000
31.14378 1234.000
31.16373 1159.000
31.18367 1173.000
31.20362 1219.000
31.22357 1286.000
31.24351 1172.000
31.26346 1156.000
31.28341 1233.000
31.30336 1136.000
31.32330 1180.000
31.34325 1246.000
31.36320 1306.000
31.38314 1215.000
31.40309 1198.000
31.42304 1197.000
31.44298 1208.000
31.46293 1156.000
31.48288 1243.000
31.50282 1190.000
31.52277 1148.000
31.54272 1200.000
31.56267 1254.000
31.58261 1169.000
31.60256 1171.000
31.62251 1173.000
31.64245 1247.000
31.66240 1122.000
31.68235 1196.000
31.70229 1211.000
31.72224 1166.000
31.74219 1219.000
31.76214 1191.000
31.78208 1194.000
31.80203 1256.000
31.82198 1197.000
31.84192 1312.000
31.86187 1205.000
31.88182 1193.000
31.90176 1237.000
31.92171 1229.000
31.94166 1253.000
31.96160 1235.000
31.98155 1234.000
32.00150 1173.000
32.02145 1263.000
32.04139 1281.000
32.06134 1233.000
32.08129 1199.000
32.10123 1124.000
32.12118 1205.000
32.14113 1265.000
32.16107 1186.000
32.18102 1128.000
32.20097 1158.000
32.22092 1164.000
32.24086 1135.000
32.26081 1133.000
32.28076 1214.000
32.30070 1111.000
32.32065 1163.000
32.34060 1096.000
32.36054 1094.000
32.38049 1125.000
32.40044 1115.000
32.42039 1095.000
32.44033 1136.000
32.46028 1119.000
32.48023 1132.000
32.50017 1129.000
32.52012 1094.000
32.54007 1084.000
32.56001 1150.000
32.57996 1040.000
32.59991 1083.000
32.61985 1094.000
32.63980 1103.000
32.65975 1099.000
32.67970 1067.000
32.69964 1087.000
32.71959 1103.000
32.73954 1106.000
32.75948 1120.000
32.77943 1071.000
32.79938 1042.000
32.81932 1125.000
32.83927 1037.000
32.85922 1068.000
32.87917 1137.000
32.89911 1076.000
32.91906 1038.000
32.93901 1029.000
32.95895 1022.000
32.97890 1090.000
32.99885 1060.000
33.01879 1032.000
33.03874 1022.000
33.05869 1060.000
33.07863 1080.000
33.09858 973.000
33.11853 1084.000
33.13848 1034.000
33.15842 1032.000
33.17837 1107.000
33.19832 1029.000
33.21826 1115.000
33.23821 1046.000
33.25816 1007.000
33.27810 1050.000
33.29805 1021.000
33.31800 1061.000
33.33795 1045.000
33.35789 1006.000
33.37784 1053.000
33.39779 979.000
33.41773 1058.000
33.43768 1055.000
33.45763 1093.000
33.47757 998.000
33.49752 1032.000
33.51747 1056.000
33.53741 998.000
33.55736 965.000
33.57731 1012.000
33.59726 900.000
33.61720 1024.000
33.63715 1039.000
33.65710 1035.000
33.67704 956.000
33.69699 983.000
33.71694 1004.000
33.73688 1029.000
33.75683 967.000
33.77678 1015.000
33.79673 960.000
33.81667 1002.000
33.83662 974.000
33.85657 1040.000
33.87651 1049.000
33.89646 939.000
33.91641 1041.000
33.93635 1010.000
33.95630 986.000
33.97625 1015.000
33.99620 1006.000
34.01614 972.000
34.03609 997.000
34.05604 955.000
34.07598 958.000
34.09593 984.000
34.11588 935.000
34.13582 993.000
34.15577 957.000
34.17572 988.000
34.19566 1001.000
34.21561 991.000
34.23556 988.000
34.25551 1008.000
34.27545 958.000
34.29540 958.000
34.31535 992.000
34.33529 1018.000
34.35524 951.000
34.37519 954.000
34.39513 1059.000
34.41508 1055.000
34.43503 965.000
34.45498 976.000
34.47492 1039.000
34.49487 992.000
34.51482 1054.000
34.53476 1019.000
34.55471 1061.000
34.57466 1070.000
34.59460 1065.000
34.61455 1108.000
34.63450 1123.000
34.65444 1167.000
34.67439 1191.000
34.69434 1264.000
34.71429 1219.000
34.73423 1277.000
34.75418 1305.000
34.77413 1262.000
34.79407 1445.000
34.81402 1453.000
34.83397 1559.000
34.85391 1679.000
34.87386 1726.000
34.89381 1810.000
34.91376 1928.000
34.93370 2008.000
34.95365 2002.000
34.97360 2122.000
34.99354 2213.000
35.01349 2148.000
35.03344 2127.000
35.05338 2070.000
35.07333 1991.000
35.09328 1871.000
35.11322 1839.000
35.13317 1731.000
35.15312 1655.000
35.17307 1465.000
35.19301 1366.000
35.21296 1300.000
35.23291 1268.000
35.25285 1147.000
35.27280 1123.000
35.29275 1018.000
35.31269 1134.000
35.33264 959.000
35.35259 1018.000
35.37254 1054.000
35.39248 975.000
35.41243 940.000
35.43238 946.000
35.45232 930.000
35.47227 890.000
35.49222 944.000
35.51216 935.000
35.53211 933.000
35.55206 933.000
35.57201 884.000
35.59195 856.000
35.61190 934.000
35.63185 864.000
35.65179 891.000
35.67174 875.000
35.69169 862.000
35.71163 879.000
35.73158 880.000
35.75153 950.000
35.77147 920.000
35.79142 850.000
35.81137 854.000
35.83132 872.000
35.85126 923.000
35.87121 896.000
35.89116 848.000
35.91110 873.000
35.93105 834.000
35.95100 915.000
35.97094 815.000
35.99089 853.000
36.01084 872.000
36.03079 834.000
36.05073 827.000
36.07068 814.000
36.09063 872.000
36.11057 858.000
36.13052 874.000
36.15047 839.000
36.17041 862.000
36.19036 872.000
36.21031 879.000
36.23025 849.000
36.25020 817.000
36.27015 905.000
36.29010 882.000
36.31004 871.000
36.32999 883.000
36.34994 846.000
36.36988 830.000
36.38983 873.000
36.40978 857.000
36.42972 818.000
36.44967 879.000
36.46962 885.000
36.48957 823.000
36.50951 896.000
36.52946 849.000
36.54941 834.000
36.56935 851.000
36.58930 868.000
36.60925 815.000
36.62919 888.000
36.64914 812.000
36.66909 855.000
36.68903 814.000
36.70898 856.000
36.72893 852.000
36.74888 821.000
36.76882 846.000
36.78877 861.000
36.80872 901.000
36.82866 859.000
36.84861 846.000
36.86856 856.000
36.88850 793.000
36.90845 857.000
36.92840 884.000
36.94835 872.000
36.96829 890.000
36.98824 885.000
37.00819 874.000
37.02813 868.000
37.04808 831.000
37.06803 823.000
37.08797 837.000
37.10792 782.000
37.12787 881.000
37.14781 871.000
37.16776 840.000
37.18771 812.000
37.20766 878.000
37.22760 844.000
37.24755 821.000
37.26750 841.000
37.28744 818.000
37.30739 882.000
37.32734 897.000
37.34728 871.000
37.36723 857.000
37.38718 848.000
37.40713 825.000
37.42707 778.000
37.44702 876.000
37.46697 859.000
37.48691 847.000
37.50686 864.000
37.52681 850.000
37.54675 935.000
37.56670 919.000
37.58665 861.000
37.60660 899.000
37.62654 893.000
37.64649 962.000
37.66644 997.000
37.68638 901.000
37.70633 1019.000
37.72628 903.000
37.74622 1025.000
37.76617 1038.000
37.78612 1018.000
37.80606 1074.000
37.82601 1065.000
37.84596 1022.000
37.86591 1117.000
37.88585 1139.000
37.90580 1161.000
37.92575 1177.000
37.94569 1249.000
37.96564 1308.000
37.98559 1338.000
38.00553 1455.000
38.02548 1490.000
38.04543 1571.000
38.06538 1631.000
38.08532 1748.000
38.10527 1838.000
38.12522 2001.000
38.14516 2127.000
38.16511 2245.000
38.18506 2402.000
38.20500 2360.000
38.22495 2470.000
38.24490 2335.000
38.26484 2300.000
38.28479 2190.000
38.30474 2131.000
38.32469 2049.000
38.34463 1940.000
38.36458 1809.000
38.38453 1759.000
38.40447 1610.000
38.42442 1563.000
38.44437 1566.000
38.46431 1452.000
38.48426 1363.000
38.50421 1276.000
38.52416 1345.000
38.54410 1180.000
38.56405 1191.000
38.58400 1127.000
38.60394 1103.000
38.62389 1019.000
38.64384 983.000
38.66378 1013.000
38.68373 994.000
38.70368 943.000
38.72362 926.000
38.74357 917.000
38.76352 884.000
38.78347 970.000
38.80341 952.000
38.82336 893.000
38.84331 913.000
38.86325 886.000
38.88320 888.000
38.90315 883.000
38.92309 880.000
38.94304 871.000
38.96299 902.000
38.98294 839.000
39.00288 864.000
39.02283 860.000
39.04278 856.000
39.06272 890.000
39.08267 872.000
39.10262 805.000
39.12256 859.000
39.14251 880.000
39.16246 839.000
39.18241 846.000
39.20235 813.000
39.22230 840.000
39.24225 799.000
39.26219 873.000
39.28214 852.000
39.30209 798.000
39.32203 779.000
39.34198 819.000
39.36193 804.000
39.38187 817.000
39.40182 846.000
39.42177 814.000
39.44172 876.000
39.46166 810.000
39.48161 809.000
39.50156 849.000
39.52150 809.000
39.54145 816.000
39.56140 829.000
39.58134 865.000
39.60129 801.000
39.62124 845.000
39.64119 851.000
39.66113 830.000
39.68108 806.000
39.70103 789.000
39.72097 813.000
39.74092 849.000
39.76087 825.000
39.78081 830.000
39.80076 893.000
39.82071 864.000
39.84065 816.000
39.86060 821.000
39.88055 849.000
39.90050 836.000
39.92044 816.000
39.94039 836.000
39.96034 836.000
39.98028 799.000
40.00023 847.000
40.02018 799.000
40.04012 822.000
40.06007 813.000
40.08002 783.000
40.09997 811.000
40.11991 843.000
40.13986 830.000
40.15981 795.000
40.17975 757.000
40.19970 828.000
40.21965 811.000
40.23959 810.000
40.25954 828.000
40.27949 820.000
40.29943 835.000
40.31938 788.000
40.33933 839.000
40.35928 860.000
40.37922 809.000
40.39917 823.000
40.41912 800.000
40.43906 780.000
40.45901 799.000
40.47896 779.000
40.49890 833.000
40.51885 823.000
40.53880 852.000
40.55875 819.000
40.57869 785.000
40.59864 822.000
40.61859 791.000
40.63853 795.000
40.65848 863.000
40.67843 772.000
40.69837 820.000
40.71832 842.000
40.73827 798.000
40.75822 787.000
40.77816 886.000
40.79811 815.000
40.81806 786.000
40.83800 819.000
40.85795 846.000
40.87790 815.000
40.89784 842.000
40.91779 807.000
40.93774 830.000
40.95768 828.000
40.97763 877.000
40.99758 831.000
41.01753 808.000
41.03747 797.000
41.05742 810.000
41.07737 807.000
41.09731 866.000
41.11726 800.000
41.13721 786.000
41.15715 814.000
41.17710 785.000
41.19705 822.000
41.21700 779.000
41.23694 798.000
41.25689 755.000
41.27684 852.000
41.29678 806.000
41.31673 809.000
41.33668 838.000
41.35662 801.000
41.37657 805.000
41.39652 795.000
41.41646 811.000
41.43641 878.000
41.45636 815.000
41.47631 799.000
41.49625 839.000
41.51620 784.000
41.53615 793.000
41.55609 849.000
41.57604 811.000
41.59599 816.000
41.61593 802.000
41.63588 848.000
41.65583 826.000
41.67578 812.000
41.69572 818.000
41.71567 855.000
41.73562 790.000
41.75556 856.000
41.77551 807.000
41.79546 807.000
41.81540 810.000
41.83535 791.000
41.85530 790.000
41.87524 779.000
41.89519 824.000
41.91514 798.000
41.93509 788.000
41.95503 751.000
41.97498 797.000
41.99493 781.000
42.01487 767.000
42.03482 805.000
42.05477 840.000
42.07471 809.000
42.09466 803.000
42.11461 853.000
42.13456 801.000
42.15450 786.000
42.17445 827.000
42.19440 776.000
42.21434 791.000
42.23429 825.000
42.25424 797.000
42.27418 776.000
42.29413 795.000
42.31408 832.000
42.33403 800.000
42.35397 811.000
42.37392 835.000
42.39387 803.000
42.41381 806.000
42.43376 769.000
42.45371 798.000
42.47365 813.000
42.49360 782.000
42.51355 775.000
42.53349 795.000
42.55344 739.000
42.57339 791.000
42.59334 725.000
42.61328 822.000
42.63323 825.000
42.65318 789.000
42.67312 774.000
42.69307 823.000
42.71302 777.000
42.73296 781.000
42.75291 828.000
42.77286 857.000
42.79281 827.000
42.81275 791.000
42.83270 817.000
42.85265 870.000
42.87259 803.000
42.89254 788.000
42.91249 830.000
42.93243 776.000
42.95238 783.000
42.97233 829.000
42.99227 764.000
43.01222 777.000
43.03217 775.000
43.05212 786.000
43.07206 808.000
43.09201 808.000
43.11196 808.000
43.13190 848.000
43.15185 751.000
43.17180 849.000
43.19174 770.000
43.21169 799.000
43.23164 779.000
43.25159 774.000
43.27153 787.000
43.29148 799.000
43.31143 727.000
43.33137 744.000
43.35132 786.000
43.37127 755.000
43.39121 783.000
43.41116 738.000
43.43111 742.000
43.45105 730.000
43.47100 742.000
43.49095 813.000
43.51090 745.000
43.53084 769.000
43.55079 768.000
43.57074 718.000
43.59068 791.000
43.61063 760.000
43.63058 770.000
43.65052 807.000
43.67047 757.000
43.69042 708.000
43.71037 713.000
43.73031 732.000
43.75026 763.000
43.77021 744.000
43.79015 748.000
43.81010 731.000
43.83005 761.000
43.84999 774.000
43.86994 731.000
43.88989 770.000
43.90984 719.000
43.92978 732.000
43.94973 723.000
43.96968 731.000
43.98962 766.000
44.00957 738.000
44.02952 775.000
44.04946 736.000
44.06941 748.000
44.08936 726.000
44.10930 733.000
44.12925 701.000
44.14920 726.000
44.16915 723.000
44.18909 757.000
44.20904 758.000
44.22899 700.000
44.24893 714.000
44.26888 748.000
44.28883 710.000
44.30877 654.000
44.32872 745.000
44.34867 701.000
44.36862 693.000
44.38856 712.000
44.40851 734.000
44.42846 718.000
44.44840 713.000
44.46835 715.000
44.48830 764.000
44.50824 767.000
44.52819 731.000
44.54814 723.000
44.56808 690.000
44.58803 715.000
44.60798 674.000
44.62793 719.000
44.64787 745.000
44.66782 713.000
44.68777 713.000
44.70771 699.000
44.72766 729.000
44.74761 739.000
44.76755 696.000
44.78750 760.000
44.80745 750.000
44.82740 731.000
44.84734 718.000
44.86729 697.000
44.88724 739.000
44.90718 743.000
44.92713 690.000
44.94708 688.000
44.96702 751.000
44.98697 690.000
45.00692 707.000
45.02686 745.000
45.04681 702.000
45.06676 689.000
45.08671 714.000
45.10665 675.000
45.12660 667.000
45.14655 738.000
45.16649 720.000
45.18644 717.000
45.20639 718.000
45.22633 705.000
45.24628 678.000
45.26623 718.000
45.28618 727.000
45.30612 672.000
45.32607 718.000
45.34602 703.000
45.36596 734.000
45.38591 675.000
45.40586 712.000
45.42580 687.000
45.44575 670.000
45.46570 720.000
45.48565 680.000
45.50559 703.000
45.52554 732.000
45.54549 720.000
45.56543 719.000
45.58538 730.000
45.60533 703.000
45.62527 752.000
45.64522 690.000
45.66517 713.000
45.68511 732.000
45.70506 729.000
45.72501 717.000
45.74496 675.000
45.76490 750.000
45.78485 737.000
45.80480 707.000
45.82474 685.000
45.84469 681.000
45.86464 755.000
45.88458 697.000
45.90453 648.000
45.92448 689.000
45.94443 683.000
45.96437 662.000
45.98432 687.000
46.00427 670.000
46.02421 661.000
46.04416 662.000
46.06411 666.000
46.08405 639.000
46.10400 683.000
46.12395 685.000
46.14389 642.000
46.16384 645.000
46.18379 693.000
46.20374 672.000
46.22368 675.000
46.24363 694.000
46.26358 681.000
46.28352 678.000
46.30347 651.000
46.32342 687.000
46.34336 676.000
46.36331 656.000
46.38326 647.000
46.40321 677.000
46.42315 712.000
46.44310 660.000
46.46305 662.000
46.48299 691.000
46.50294 691.000
46.52289 695.000
46.54283 649.000
46.56278 637.000
46.58273 619.000
46.60267 654.000
46.62262 662.000
46.64257 678.000
46.66252 685.000
46.68246 646.000
46.70241 628.000
46.72236 634.000
46.74230 660.000
46.76225 595.000
46.78220 684.000
46.80214 615.000
46.82209 633.000
46.84204 630.000
46.86199 668.000
46.88193 657.000
46.90188 647.000
46.92183 665.000
46.94177 637.000
46.96172 699.000
46.98167 642.000
47.00161 666.000
47.02156 631.000
47.04151 651.000
47.06146 658.000
47.08140 636.000
47.10135 639.000
47.12130 664.000
47.14124 673.000
47.16119 686.000
47.18114 669.000
47.20108 635.000
47.22103 650.000
47.24098 646.000
47.26092 652.000
47.28087 659.000
47.30082 657.000
47.32077 643.000
47.34071 657.000
47.36066 605.000
47.38061 618.000
47.40055 636.000
47.42050 653.000
47.44045 654.000
47.46039 637.000
47.48034 680.000
47.50029 612.000
47.52024 648.000
47.54018 656.000
47.56013 649.000
47.58008 648.000
47.60002 596.000
47.61997 614.000
47.63992 686.000
47.65986 658.000
47.67981 649.000
47.69976 705.000
47.71970 651.000
47.73965 647.000
47.75960 673.000
47.77955 645.000
47.79949 674.000
47.81944 719.000
47.83939 738.000
47.85933 716.000
47.87928 764.000
47.89923 745.000
47.91917 778.000
47.93912 774.000
47.95907 773.000
47.97902 768.000
47.99896 798.000
48.01891 854.000
48.03886 879.000
48.05880 923.000
48.07875 918.000
48.09870 987.000
48.11864 1011.000
48.13859 1043.000
48.15854 1071.000
48.17848 1105.000
48.19843 1130.000
48.21838 1210.000
48.23833 1188.000
48.25827 1203.000
48.27822 1242.000
48.29817 1176.000
48.31811 1192.000
48.33806 1103.000
48.35801 1074.000
48.37795 998.000
48.39790 1030.000
48.41785 920.000
48.43780 920.000
48.45774 904.000
48.47769 888.000
48.49764 776.000
48.51758 766.000
48.53753 762.000
48.55748 743.000
48.57742 749.000
48.59737 692.000
48.61732 698.000
48.63726 685.000
48.65721 693.000
48.67716 699.000
48.69711 675.000
48.71705 673.000
48.73700 668.000
48.75695 680.000
48.77689 705.000
48.79684 642.000
48.81679 690.000
48.83673 657.000
48.85668 627.000
48.87663 676.000
48.89658 652.000
48.91652 621.000
48.93647 650.000
48.95642 632.000
48.97636 651.000
48.99631 613.000
49.01626 617.000
49.03620 657.000
49.05615 601.000
49.07610 604.000
49.09605 643.000
49.11599 655.000
49.13594 622.000
49.15589 644.000
49.17583 628.000
49.19578 582.000
49.21573 608.000
49.23567 655.000
49.25562 584.000
49.27557 599.000
49.29551 629.000
49.31546 609.000
49.33541 590.000
49.35536 629.000
49.37530 641.000
49.39525 661.000
49.41520 651.000
49.43514 640.000
49.45509 592.000
49.47504 607.000
49.49498 616.000
49.51493 617.000
49.53488 649.000
49.55483 623.000
49.57477 643.000
49.59472 605.000
49.61467 655.000
49.63461 590.000
49.65456 613.000
49.67451 624.000
49.69445 631.000
49.71440 653.000
49.73435 625.000
49.75429 588.000
49.77424 644.000
49.79419 593.000
49.81414 615.000
49.83408 606.000
49.85403 593.000
49.87398 607.000
49.89392 585.000
49.91387 626.000
49.93382 602.000
49.95376 670.000
49.97371 621.000
49.99366 631.000
50.01361 611.000
50.03355 599.000
50.05350 637.000
50.07345 612.000
50.09339 578.000
50.11334 574.000
50.13329 572.000
50.15323 615.000
50.17318 608.000
50.19313 601.000
50.21307 636.000
50.23302 644.000
50.25297 591.000
50.27292 651.000
50.29286 570.000
50.31281 614.000
50.33276 618.000
50.35270 614.000
50.37265 621.000
50.39260 611.000
50.41254 596.000
50.43249 605.000
50.45244 650.000
50.47239 599.000
50.49233 581.000
50.51228 607.000
50.53223 628.000
50.55217 588.000
50.57212 659.000
50.59207 639.000
50.61201 630.000
50.63196 643.000
50.65191 613.000
50.67186 610.000
50.69180 643.000
50.71175 663.000
50.73170 595.000
50.75164 617.000
50.77159 668.000
50.79154 652.000
50.81148 608.000
50.83143 614.000
50.85138 619.000
50.87132 579.000
50.89127 643.000
50.91122 646.000
50.93117 633.000
50.95111 618.000
50.97106 617.000
50.99101 646.000
51.01095 609.000
51.03090 593.000
51.05085 625.000
51.07079 652.000
51.09074 602.000
51.11069 622.000
51.13064 608.000
51.15058 601.000
51.17053 542.000
51.19048 606.000
51.21042 609.000
51.23037 625.000
51.25032 623.000
51.27026 596.000
51.29021 600.000
51.31016 581.000
51.33010 556.000
51.35005 608.000
51.37000 609.000
51.38995 598.000
51.40989 540.000
51.42984 603.000
51.44979 593.000
51.46973 586.000
51.48968 603.000
51.50963 598.000
51.52957 608.000
51.54952 573.000
51.56947 561.000
51.58942 585.000
51.60936 577.000
51.62931 573.000
51.64926 550.000
51.66920 645.000
51.68915 587.000
51.70910 584.000
51.72904 572.000
51.74899 615.000
51.76894 642.000
51.78888 609.000
51.80883 535.000
51.82878 614.000
51.84873 621.000
51.86867 652.000
51.88862 596.000
51.90857 573.000
51.92851 669.000
51.94846 566.000
51.96841 587.000
51.98835 603.000
52.00830 566.000
52.02825 567.000
52.04820 557.000
52.06814 603.000
52.08809 572.000
52.10804 581.000
52.12798 613.000
52.14793 633.000
52.16788 578.000
52.18782 647.000
52.20777 654.000
52.22772 606.000
52.24767 607.000
52.26761 628.000
52.28756 591.000
52.30751 630.000
52.32745 591.000
52.34740 603.000
52.36735 638.000
52.38729 587.000
52.40724 586.000
52.42719 663.000
52.44713 610.000
52.46708 622.000
52.48703 656.000
52.50698 632.000
52.52692 617.000
52.54687 604.000
52.56682 616.000
52.58676 656.000
52.60671 612.000
52.62666 621.000
52.64660 658.000
52.66655 649.000
52.68650 650.000
52.70645 657.000
52.72639 618.000
52.74634 678.000
52.76629 675.000
52.78623 663.000
52.80618 699.000
52.82613 686.000
52.84607 716.000
52.86602 719.000
52.88597 719.000
52.90591 734.000
52.92586 724.000
52.94581 776.000
52.96576 725.000
52.98570 756.000
53.00565 745.000
53.02560 720.000
53.04554 747.000
53.06549 703.000
53.08544 683.000
53.10538 697.000
53.12533 714.000
53.14528 645.000
53.16523 697.000
53.18517 686.000
53.20512 683.000
53.22507 682.000
53.24501 664.000
53.26496 616.000
53.28491 594.000
53.30485 637.000
53.32480 620.000
53.34475 633.000
53.36469 625.000
53.38464 631.000
53.40459 654.000
53.42454 621.000
53.44448 593.000
53.46443 624.000
53.48438 607.000
53.50432 636.000
53.52427 558.000
53.54422 627.000
53.56416 595.000
53.58411 631.000
53.60406 635.000
53.62401 581.000
53.64395 573.000
53.66390 573.000
53.68385 595.000
53.70379 623.000
53.72374 629.000
53.74369 586.000
53.76363 609.000
53.78358 616.000
53.80353 601.000
53.82348 568.000
53.84342 597.000
53.86337 601.000
53.88332 587.000
53.90326 563.000
53.92321 578.000
53.94316 619.000
53.96310 602.000
53.98305 550.000
54.00300 606.000
54.02294 577.000
54.04289 612.000
54.06284 564.000
54.08279 560.000
54.10273 566.000
54.12268 585.000
54.14263 563.000
54.16257 594.000
54.18252 541.000
54.20247 587.000
54.22241 549.000
54.24236 640.000
54.26231 527.000
54.28226 596.000
54.30220 597.000
54.32215 562.000
54.34210 630.000
54.36204 583.000
54.38199 585.000
54.40194 609.000
54.42188 559.000
54.44183 580.000
54.46178 594.000
54.48172 599.000
54.50167 549.000
54.52162 579.000
54.54157 568.000
54.56151 563.000
54.58146 605.000
54.60141 592.000
54.62135 586.000
54.64130 633.000
54.66125 567.000
54.68119 572.000
54.70114 568.000
54.72109 560.000
54.74104 567.000
54.76098 549.000
54.78093 595.000
54.80088 580.000
54.82082 541.000
54.84077 584.000
54.86072 559.000
54.88066 582.000
54.90061 570.000
54.92056 584.000
54.94050 557.000
54.96045 569.000
54.98040 568.000
55.00035 519.000
55.02029 571.000
55.04024 593.000
55.06019 610.000
55.08013 593.000
55.10008 604.000
55.12003 554.000
55.13997 614.000
55.15992 512.000
55.17987 607.000
55.19982 574.000
55.21976 580.000
55.23971 622.000
55.25966 636.000
55.27960 532.000
55.29955 572.000
55.31950 562.000
55.33944 577.000
55.35939 573.000
55.37934 629.000
55.39929 551.000
55.41923 593.000
55.43918 565.000
55.45913 557.000
55.47907 557.000
55.49902 541.000
55.51897 557.000
55.53891 534.000
55.55886 543.000
55.57881 597.000
55.59875 588.000
55.61870 613.000
55.63865 572.000
55.65860 569.000
55.67854 576.000
55.69849 579.000
55.71844 549.000
55.73838 593.000
55.75833 610.000
55.77828 533.000
55.79822 539.000
55.81817 577.000
55.83812 570.000
55.85807 645.000
55.87801 564.000
55.89796 607.000
55.91791 568.000
55.93785 551.000
55.95780 583.000
55.97775 576.000
55.99769 585.000
56.01764 583.000
56.03759 546.000
56.05753 616.000
56.07748 574.000
56.09743 590.000
56.11738 583.000
56.13732 577.000
56.15727 599.000
56.17722 587.000
56.19716 607.000
56.21711 576.000
56.23706 640.000
56.25700 554.000
56.27695 580.000
56.29690 584.000
56.31685 579.000
56.33679 600.000
56.35674 607.000
56.37669 556.000
56.39663 559.000
56.41658 608.000
56.43653 527.000
56.45647 593.000
56.47642 562.000
56.49637 590.000
56.51631 578.000
56.53626 570.000
56.55621 549.000
56.57616 613.000
56.59610 590.000
56.61605 569.000
56.63600 611.000
56.65594 562.000
56.67589 562.000
56.69584 579.000
56.71578 586.000
56.73573 605.000
56.75568 557.000
56.77563 617.000
56.79557 591.000
56.81552 569.000
56.83547 532.000
56.85541 558.000
56.87536 600.000
56.89531 616.000
56.91525 630.000
56.93520 582.000
56.95515 610.000
56.97510 585.000
56.99504 585.000
57.01499 573.000
57.03494 597.000
57.05488 589.000
57.07483 624.000
57.09478 563.000
57.11472 576.000
57.13467 623.000
57.15462 606.000
57.17456 601.000
57.19451 580.000
57.21446 534.000
57.23441 603.000
57.25435 603.000
57.27430 568.000
57.29425 632.000
57.31419 599.000
57.33414 618.000
57.35409 595.000
57.37403 640.000
57.39398 672.000
57.41393 629.000
57.43388 611.000
57.45382 631.000
57.47377 687.000
57.49372 645.000
57.51366 665.000
57.53361 681.000
57.55356 636.000
57.57350 735.000
57.59345 702.000
57.61340 725.000
57.63334 732.000
57.65329 801.000
57.67324 802.000
57.69319 780.000
57.71313 873.000
57.73308 822.000
57.75303 847.000
57.77297 861.000
57.79292 857.000
57.81287 853.000
57.83281 852.000
57.85276 821.000
57.87271 803.000
57.89266 787.000
57.91260 798.000
57.93255 825.000
57.95250 785.000
57.97244 733.000
57.99239 767.000
58.01234 727.000
58.03228 652.000
58.05223 668.000
58.07218 703.000
58.09212 652.000
58.11207 659.000
58.13202 630.000
58.15197 596.000
58.17191 591.000
58.19186 648.000
58.21181 660.000
58.23175 552.000
58.25170 598.000
58.27165 595.000
58.29159 601.000
58.31154 568.000
58.33149 582.000
58.35144 623.000
58.37138 549.000
58.39133 585.000
58.41128 585.000
58.43122 595.000
58.45117 550.000
58.47112 578.000
58.49106 594.000
58.51101 579.000
58.53096 572.000
58.55090 596.000
58.57085 598.000
58.59080 564.000
58.61075 585.000
58.63069 597.000
58.65064 622.000
58.67059 588.000
58.69053 612.000
58.71048 555.000
58.73043 559.000
58.75037 586.000
58.77032 547.000
58.79027 558.000
58.81022 562.000
58.83016 536.000
58.85011 588.000
58.87006 540.000
58.89000 582.000
58.90995 546.000
58.92990 543.000
58.94984 503.000
58.96979 592.000
58.98974 558.000
59.00969 598.000
59.02963 564.000
59.04958 598.000
59.06953 543.000
59.08947 596.000
59.10942 523.000
59.12937 552.000
59.14931 590.000
59.16926 566.000
59.18921 589.000
59.20915 526.000
59.22910 542.000
59.24905 568.000
59.26900 532.000
59.28894 575.000
59.30889 572.000
59.32884 590.000
59.34878 630.000
59.36873 538.000
59.38868 578.000
59.40862 602.000
59.42857 559.000
59.44852 531.000
59.46847 590.000
59.48841 525.000
59.50836 545.000
59.52831 564.000
59.54825 567.000
59.56820 562.000
59.58815 585.000
59.60809 567.000
59.62804 550.000
59.64799 555.000
59.66793 528.000
59.68788 538.000
59.70783 547.000
59.72778 567.000
59.74772 592.000
59.76767 545.000
59.78762 544.000
59.80756 576.000
59.82751 569.000
59.84746 552.000
59.86740 602.000
59.88735 560.000
59.90730 548.000
59.92725 546.000
59.94719 563.000
59.96714 565.000
59.98709 594.000
60.00703 544.000
60.02698 537.000
60.04693 585.000
60.06687 564.000
60.08682 545.000
60.10677 568.000
60.12671 567.000
60.14666 558.000
60.16661 555.000
60.18656 597.000
60.20650 589.000
60.22645 564.000
60.24640 602.000
60.26634 548.000
60.28629 588.000
60.30624 571.000
60.32618 550.000
60.34613 609.000
60.36608 543.000
60.38603 557.000
60.40597 555.000
60.42592 591.000
60.44587 575.000
60.46581 598.000
60.48576 603.000
60.50571 568.000
60.52565 575.000
60.54560 571.000
60.56555 624.000
60.58550 659.000
60.60544 639.000
60.62539 587.000
60.64534 621.000
60.66528 649.000
60.68523 639.000
60.70518 656.000
60.72512 682.000
60.74507 669.000
60.76502 686.000
60.78496 701.000
60.80491 769.000
60.82486 712.000
60.84481 772.000
60.86475 821.000
60.88470 821.000
60.90465 844.000
60.92459 849.000
60.94454 881.000
60.96449 1002.000
60.98443 935.000
61.00438 963.000
61.02433 1021.000
61.04428 984.000
61.06422 1012.000
61.08417 1037.000
61.10412 1016.000
61.12406 963.000
61.14401 924.000
61.16396 908.000
61.18390 891.000
61.20385 836.000
61.22380 844.000
61.24374 811.000
61.26369 838.000
61.28364 802.000
61.30359 738.000
61.32353 679.000
61.34348 671.000
61.36343 675.000
61.38337 696.000
61.40332 669.000
61.42327 661.000
61.44321 649.000
61.46316 612.000
61.48311 584.000
61.50306 609.000
61.52300 623.000
61.54295 600.000
61.56290 602.000
61.58284 573.000
61.60279 597.000
61.62274 573.000
61.64268 600.000
61.66263 603.000
61.68258 593.000
61.70252 574.000
61.72247 563.000
61.74242 573.000
61.76237 575.000
61.78231 546.000
61.80226 601.000
61.82221 581.000
61.84215 587.000
61.86210 510.000
61.88205 639.000
61.90199 554.000
61.92194 565.000
61.94189 539.000
61.96184 581.000
61.98178 550.000
62.00173 613.000
62.02168 530.000
62.04162 619.000
62.06157 605.000
62.08152 557.000
62.10146 553.000
62.12141 577.000
62.14136 559.000
62.16131 578.000
62.18125 564.000
62.20120 582.000
62.22115 548.000
62.24109 600.000
62.26104 546.000
62.28099 603.000
62.30093 579.000
62.32088 570.000
62.34083 567.000
62.36077 583.000
62.38072 556.000
62.40067 581.000
62.42062 569.000
62.44056 563.000
62.46051 536.000
62.48046 551.000
62.50040 569.000
62.52035 586.000
62.54030 568.000
62.56024 585.000
62.58019 586.000
62.60014 557.000
62.62009 595.000
62.64003 566.000
62.65998 526.000
62.67993 568.000
62.69987 572.000
62.71982 599.000
62.73977 550.000
62.75971 569.000
62.77966 530.000
62.79961 564.000
62.81955 552.000
62.83950 603.000
62.85945 566.000
62.87940 561.000
62.89934 588.000
62.91929 556.000
62.93924 574.000
62.95918 571.000
62.97913 531.000
62.99908 548.000
63.01902 526.000
63.03897 572.000
63.05892 560.000
63.07887 579.000
63.09881 573.000
63.11876 554.000
63.13871 581.000
63.15865 559.000
63.17860 602.000
63.19855 526.000
63.21849 527.000
63.23844 571.000
63.25839 575.000
63.27833 588.000
63.29828 565.000
63.31823 532.000
63.33818 523.000
63.35812 589.000
63.37807 602.000
63.39802 538.000
63.41796 554.000
63.43791 505.000
63.45786 579.000
63.47780 585.000
63.49775 529.000
63.51770 566.000
63.53765 542.000
63.55759 551.000
63.57754 583.000
63.59749 537.000
63.61743 557.000
63.63738 527.000
63.65733 525.000
63.67727 564.000
63.69722 545.000
63.71717 575.000
63.73712 561.000
63.75706 617.000
63.77701 567.000
63.79696 524.000
63.81690 554.000
63.83685 586.000
63.85680 568.000
63.87674 561.000
63.89669 569.000
63.91664 574.000
63.93658 576.000
63.95653 602.000
63.97648 609.000
63.99643 573.000
64.01637 603.000
64.03632 558.000
64.05627 565.000
64.07621 604.000
64.09616 587.000
64.11611 634.000
64.13605 535.000
64.15600 542.000
64.17595 516.000
64.19590 593.000
64.21584 551.000
64.23579 592.000
64.25574 579.000
64.27568 558.000
64.29563 535.000
64.31558 556.000
64.33552 601.000
64.35547 560.000
64.37542 576.000
64.39536 575.000
64.41531 557.000
64.43526 578.000
64.45521 614.000
64.47515 579.000
64.49510 589.000
64.51505 573.000
64.53499 585.000
64.55494 562.000
64.57489 546.000
64.59483 594.000
64.61478 627.000
64.63473 525.000
64.65468 609.000
64.67462 621.000
64.69457 577.000
64.71452 618.000
64.73446 583.000
64.75441 578.000
64.77436 580.000
64.79430 570.000
64.81425 571.000
64.83420 644.000
64.85414 596.000
64.87409 617.000
64.89404 617.000
64.91399 644.000
64.93393 645.000
64.95388 607.000
64.97383 676.000
64.99377 594.000
65.01372 692.000
65.03367 644.000
65.05361 679.000
65.07356 727.000
65.09351 731.000
65.11346 721.000
65.13340 713.000
65.15335 751.000
65.17330 796.000
65.19324 766.000
65.21319 812.000
65.23314 783.000
65.25308 885.000
65.27303 852.000
65.29298 853.000
65.31293 876.000
65.33287 934.000
65.35282 900.000
65.37277 821.000
65.39271 894.000
65.41266 887.000
65.43261 872.000
65.45255 930.000
65.47250 814.000
65.49245 905.000
65.51239 871.000
65.53234 844.000
65.55229 826.000
65.57224 792.000
65.59218 845.000
65.61213 896.000
65.63208 865.000
65.65202 878.000
65.67197 910.000
65.69192 913.000
65.71186 961.000
65.73181 959.000
65.75176 962.000
65.77171 989.000
65.79165 1026.000
65.81160 965.000
65.83155 925.000
65.85149 942.000
65.87144 897.000
65.89139 851.000
65.91133 877.000
65.93128 857.000
65.95123 862.000
65.97117 810.000
65.99112 771.000
66.01107 858.000
66.03102 755.000
66.05096 667.000
66.07091 740.000
66.09086 717.000
66.11080 668.000
66.13075 689.000
66.15070 648.000
66.17064 654.000
66.19059 643.000
66.21054 614.000
66.23049 611.000
66.25043 636.000
66.27038 623.000
66.29033 632.000
66.31027 610.000
66.33022 601.000
66.35017 612.000
66.37011 566.000
66.39006 593.000
66.41001 554.000
66.42995 610.000
66.44990 634.000
66.46985 596.000
66.48980 646.000
66.50974 571.000
66.52969 626.000
66.54964 612.000
66.56958 625.000
66.58953 603.000
66.60948 619.000
66.62942 584.000
66.64937 562.000
66.66932 582.000
66.68927 551.000
66.70921 641.000
66.72916 626.000
66.74911 566.000
66.76905 621.000
66.78900 585.000
66.80895 617.000
66.82889 600.000
66.84884 580.000
66.86879 613.000
66.88874 595.000
66.90868 642.000
66.92863 604.000
66.94858 609.000
66.96852 607.000
66.98847 680.000
67.00842 628.000
67.02836 634.000
67.04831 656.000
67.06826 643.000
67.08820 597.000
67.10815 627.000
67.12810 676.000
67.14805 685.000
67.16799 677.000
67.18794 662.000
67.20789 742.000
67.22783 749.000
67.24778 764.000
67.26773 713.000
67.28767 727.000
67.30762 787.000
67.32757 798.000
67.34752 809.000
67.36746 882.000
67.38741 772.000
67.40736 853.000
67.42730 843.000
67.44725 904.000
67.46720 892.000
67.48714 889.000
67.50709 926.000
67.52704 935.000
67.54698 925.000
67.56693 978.000
67.58688 1007.000
67.60683 987.000
67.62677 1021.000
67.64672 945.000
67.66667 940.000
67.68661 905.000
67.70656 903.000
67.72651 893.000
67.74645 915.000
67.76640 849.000
67.78635 888.000
67.80630 823.000
67.82624 788.000
67.84619 771.000
67.86614 742.000
67.88608 696.000
67.90603 691.000
67.92598 638.000
67.94592 686.000
67.96587 650.000
67.98582 645.000
68.00576 625.000
68.02571 603.000
68.04566 600.000
68.06561 583.000
68.08555 601.000
68.10550 589.000
68.12545 574.000
68.14539 596.000
68.16534 583.000
68.18529 578.000
68.20523 606.000
68.22518 577.000
68.24513 593.000
68.26508 573.000
68.28502 569.000
68.30497 523.000
68.32492 551.000
68.34486 577.000
68.36481 572.000
68.38476 596.000
68.40470 580.000
68.42465 537.000
68.44460 573.000
68.46455 546.000
68.48449 534.000
68.50444 539.000
68.52439 555.000
68.54433 614.000
68.56428 536.000
68.58423 577.000
68.60417 545.000
68.62412 560.000
68.64407 577.000
68.66401 555.000
68.68396 558.000
68.70391 552.000
68.72386 576.000
68.74380 575.000
68.76375 566.000
68.78370 592.000
68.80364 532.000
68.82359 600.000
68.84354 579.000
68.86348 523.000
68.88343 550.000
68.90338 525.000
68.92333 546.000
68.94327 555.000
68.96322 546.000
68.98317 594.000
69.00311 590.000
69.02306 541.000
69.04301 578.000
69.06295 577.000
69.08290 515.000
69.10285 544.000
69.12279 583.000
69.14274 528.000
69.16269 525.000
69.18264 534.000
69.20258 561.000
69.22253 568.000
69.24248 570.000
69.26242 562.000
69.28237 536.000
69.30232 543.000
69.32226 533.000
69.34221 563.000
69.36216 539.000
69.38211 516.000
69.40205 556.000
69.42200 535.000
69.44195 555.000
69.46189 569.000
69.48184 546.000
69.50179 508.000
69.52173 536.000
69.54168 512.000
69.56163 536.000
69.58157 542.000
69.60152 539.000
69.62147 553.000
69.64142 530.000
69.66136 570.000
69.68131 578.000
69.70126 487.000
69.72120 543.000
69.74115 574.000
69.76110 563.000
69.78104 503.000
69.80099 532.000
69.82094 481.000
69.84089 545.000
69.86083 514.000
69.88078 531.000
69.90073 517.000
69.92067 553.000
69.94062 520.000
69.96057 556.000
69.98051 544.000
70.00046 549.000
70.02041 554.000
70.04035 519.000
70.06030 554.000
70.08025 568.000
70.10020 527.000
70.12014 543.000
70.14009 542.000
70.16004 580.000
70.17998 518.000
70.19993 522.000
70.21988 551.000
70.23982 555.000
70.25977 586.000
70.27972 523.000
70.29967 574.000
70.31961 533.000
70.33956 536.000
70.35951 540.000
70.37945 543.000
70.39940 530.000
70.41935 537.000
70.43929 566.000
70.45924 571.000
70.47919 507.000
70.49914 562.000
70.51908 533.000
70.53903 503.000
70.55898 557.000
70.57892 540.000
70.59887 549.000
70.61882 498.000
70.63876 530.000
70.65871 611.000
70.67866 555.000
70.69860 539.000
70.71855 505.000
70.73850 534.000
70.75845 575.000
70.77839 542.000
70.79834 583.000
70.81829 535.000
70.83823 527.000
70.85818 541.000
70.87813 547.000
70.89807 554.000
70.91802 499.000
70.93797 571.000
70.95792 568.000
70.97786 534.000
70.99781 551.000
71.01776 583.000
71.03770 559.000
71.05765 524.000
71.07760 553.000
71.09754 534.000
71.11749 548.000
71.13744 539.000
71.15738 570.000
71.17733 511.000
71.19728 590.000
71.21723 558.000
71.23717 540.000
71.25712 543.000
71.27707 555.000
71.29701 518.000
71.31696 517.000
71.33691 544.000
71.35685 582.000
71.37680 532.000
71.39675 529.000
71.41670 555.000
71.43664 549.000
71.45659 561.000
71.47654 584.000
71.49648 551.000
71.51643 572.000
71.53638 577.000
71.55632 582.000
71.57627 568.000
71.59622 547.000
71.61616 577.000
71.63611 566.000
71.65606 580.000
71.67601 612.000
71.69595 587.000
71.71590 597.000
71.73585 608.000
71.75579 632.000
71.77574 623.000
71.79569 640.000
71.81563 635.000
71.83558 692.000
71.85553 647.000
71.87548 628.000
71.89542 686.000
71.91537 657.000
71.93532 720.000
71.95526 688.000
71.97521 703.000
71.99516 660.000
72.01510 654.000
72.03505 654.000
72.05500 647.000
72.07495 683.000
72.09489 666.000
72.11484 652.000
72.13479 612.000
72.15473 647.000
72.17468 615.000
72.19463 586.000
72.21457 596.000
72.23452 626.000
72.25447 618.000
72.27441 587.000
72.29436 594.000
72.31431 575.000
72.33426 576.000
72.35420 596.000
72.37415 549.000
72.39410 572.000
72.41404 533.000
72.43399 569.000
72.45394 552.000
72.47388 619.000
72.49383 577.000
72.51378 567.000
72.53373 550.000
72.55367 508.000
72.57362 589.000
72.59357 560.000
72.61351 578.000
72.63346 543.000
72.65341 531.000
72.67335 537.000
72.69330 546.000
72.71325 588.000
72.73319 549.000
72.75314 540.000
72.77309 539.000
72.79304 521.000
72.81298 539.000
72.83293 546.000
72.85288 529.000
72.87282 559.000
72.89277 520.000
72.91272 587.000
72.93266 573.000
72.95261 561.000
72.97256 533.000
72.99251 550.000
73.01245 550.000
73.03240 548.000
73.05235 510.000
73.07229 541.000
73.09224 576.000
73.11219 571.000
73.13213 518.000
73.15208 563.000
73.17203 598.000
73.19197 514.000
73.21192 551.000
73.23187 514.000
73.25182 565.000
73.27176 546.000
73.29171 530.000
73.31166 525.000
73.33160 540.000
73.35155 532.000
73.37150 582.000
73.39144 534.000
73.41139 525.000
73.43134 508.000
73.45129 533.000
73.47123 533.000
73.49118 539.000
73.51113 599.000
73.53107 538.000
73.55102 547.000
73.57097 552.000
73.59091 520.000
73.61086 469.000
73.63081 519.000
73.65076 528.000
73.67070 519.000
73.69065 537.000
73.71060 541.000
73.73054 580.000
73.75049 572.000
73.77044 535.000
73.79038 584.000
73.81033 546.000
73.83028 528.000
73.85022 563.000
73.87017 535.000
73.89012 545.000
73.91007 557.000
73.93001 618.000
73.94996 590.000
73.96991 588.000
73.98985 596.000
74.00980 547.000
74.02975 582.000
74.04969 563.000
74.06964 578.000
74.08959 575.000
74.10954 582.000
74.12948 550.000
74.14943 607.000
74.16938 539.000
74.18932 561.000
74.20927 557.000
74.22922 592.000
74.24916 592.000
74.26911 638.000
74.28906 617.000
74.30900 638.000
74.32895 595.000
74.34890 594.000
74.36885 635.000
74.38879 644.000
74.40874 627.000
74.42869 666.000
74.44863 687.000
74.46858 722.000
74.48853 742.000
74.50847 729.000
74.52842 727.000
74.54837 785.000
74.56832 720.000
74.58826 789.000
74.60821 724.000
74.62816 744.000
74.64810 708.000
74.66805 692.000
74.68800 774.000
74.70794 720.000
74.72789 786.000
74.74784 763.000
74.76778 708.000
74.78773 763.000
74.80768 710.000
74.82763 768.000
74.84757 734.000
74.86752 676.000
74.88747 703.000
74.90741 705.000
74.92736 653.000
74.94731 671.000
74.96725 655.000
74.98720 623.000
75.00715 585.000
75.02710 634.000
75.04704 642.000
75.06699 624.000
75.08694 578.000
75.10688 579.000
75.12683 616.000
75.14678 593.000
75.16672 550.000
75.18667 612.000
75.20662 561.000
75.22657 568.000
75.24651 587.000
75.26646 553.000
75.28641 559.000
75.30635 573.000
75.32630 526.000
75.34625 530.000
75.36619 523.000
75.38614 540.000
75.40609 564.000
75.42603 519.000
75.44598 563.000
75.46593 517.000
75.48588 540.000
75.50582 532.000
75.52577 527.000
75.54572 521.000
75.56566 507.000
75.58561 541.000
75.60556 551.000
75.62550 546.000
75.64545 563.000
75.66540 500.000
75.68535 528.000
75.70529 597.000
75.72524 542.000
75.74519 542.000
75.76513 528.000
75.78508 494.000
75.80503 566.000
75.82497 524.000
75.84492 540.000
75.86487 590.000
75.88481 524.000
75.90476 529.000
75.92471 543.000
75.94466 542.000
75.96460 526.000
75.98455 531.000
76.00450 565.000
76.02444 536.000
76.04439 533.000
76.06434 515.000
76.08428 541.000
76.10423 559.000
76.12418 525.000
76.14413 546.000
76.16407 536.000
76.18402 542.000
76.20397 516.000
76.22391 546.000
76.24386 525.000
76.26381 503.000
76.28375 551.000
76.30370 518.000
76.32365 494.000
76.34359 526.000
76.36354 501.000
76.38349 551.000
76.40344 520.000
76.42338 499.000
76.44333 527.000
76.46328 518.000
76.48322 562.000
76.50317 559.000
76.52312 534.000
76.54306 568.000
76.56301 532.000
76.58296 534.000
76.60291 566.000
76.62285 512.000
76.64280 533.000
76.66275 576.000
76.68269 550.000
76.70264 548.000
76.72259 478.000
76.74253 534.000
76.76248 508.000
76.78243 512.000
76.80238 526.000
76.82232 589.000
76.84227 570.000
76.86222 550.000
76.88216 515.000
76.90211 469.000
76.92206 556.000
76.94200 555.000
76.96195 529.000
76.98190 554.000
77.00184 508.000
77.02179 539.000
77.04174 538.000
77.06169 555.000
77.08163 500.000
77.10158 522.000
77.12153 549.000
77.14147 521.000
77.16142 535.000
77.18137 542.000
77.20131 505.000
77.22126 533.000
77.24121 541.000
77.26116 518.000
77.28110 475.000
77.30105 458.000
77.32100 488.000
77.34094 504.000
77.36089 549.000
77.38084 519.000
77.40078 550.000
77.42073 523.000
77.44068 550.000
77.46062 558.000
77.48057 542.000
77.50052 530.000
77.52047 552.000
77.54041 556.000
77.56036 552.000
77.58031 521.000
77.60025 495.000
77.62020 468.000
77.64015 523.000
77.66009 563.000
77.68004 553.000
77.69999 517.000
77.71994 546.000
77.73988 507.000
77.75983 544.000
77.77978 602.000
77.79972 565.000
77.81967 549.000
77.83962 542.000
77.85956 516.000
77.87951 526.000
77.89946 522.000
77.91940 521.000
77.93935 525.000
77.95930 537.000
77.97925 512.000
77.99919 571.000
78.01914 509.000
78.03909 518.000
78.05903 543.000
78.07898 535.000
78.09893 552.000
78.11887 519.000
78.13882 555.000
78.15877 520.000
78.17872 494.000
78.19866 496.000
78.21861 515.000
78.23856 549.000
78.25850 518.000
78.27845 550.000
78.29840 480.000
78.31834 562.000
78.33829 487.000
78.35824 548.000
78.37819 568.000
78.39813 547.000
78.41808 554.000
78.43803 460.000
78.45797 501.000
78.47792 547.000
78.49787 508.000
78.51781 525.000
78.53776 571.000
78.55771 503.000
78.57765 534.000
78.59760 531.000
78.61755 526.000
78.63750 531.000
78.65744 531.000
78.67739 556.000
78.69734 546.000
78.71728 540.000
78.73723 525.000
78.75718 500.000
78.77712 552.000
78.79707 491.000
78.81702 501.000
78.83697 503.000
78.85691 477.000
78.87686 513.000
78.89681 511.000
78.91675 529.000
78.93670 567.000
78.95665 527.000
78.97659 460.000
78.99654 511.000
79.01649 521.000
79.03643 522.000
79.05638 529.000
79.07633 533.000
79.09628 535.000
79.11622 527.000
79.13617 522.000
79.15612 566.000
79.17606 526.000
79.19601 519.000
79.21596 554.000
79.23590 515.000
79.25585 579.000
79.27580 574.000
79.29575 520.000
79.31569 543.000
79.33564 534.000
79.35559 545.000
79.37553 497.000
79.39548 548.000
79.41543 593.000
79.43537 537.000
79.45532 544.000
79.47527 572.000
79.49521 562.000
79.51516 528.000
79.53511 543.000
79.55506 590.000
79.57500 575.000
79.59495 564.000
79.61490 584.000
79.63484 594.000
79.65479 509.000
79.67474 618.000
79.69468 567.000
79.71463 578.000
79.73458 574.000
79.75453 541.000
79.77447 605.000
79.79442 610.000
79.81437 570.000
79.83431 588.000
79.85426 604.000
79.87421 568.000
79.89415 622.000
79.91410 554.000
79.93405 561.000
79.95399 562.000
79.97394 554.000
79.99389 560.000
80.01384 544.000
80.03378 558.000
80.05373 547.000
80.07368 536.000
80.09362 559.000
80.11357 548.000
80.13352 528.000
80.15346 518.000
80.17341 519.000
80.19336 523.000
80.21331 569.000
80.23325 524.000
80.25320 511.000
80.27315 544.000
80.29309 523.000
80.31304 480.000
80.33299 543.000
80.35293 524.000
80.37288 563.000
80.39283 550.000
80.41278 532.000
80.43272 529.000
80.45267 542.000
80.47262 539.000
80.49256 538.000
80.51251 527.000
80.53246 546.000
80.55240 581.000
80.57235 532.000
80.59230 527.000
80.61224 501.000
80.63219 550.000
80.65214 507.000
80.67209 472.000
80.69203 505.000
80.71198 539.000
80.73193 559.000
80.75187 553.000
80.77182 546.000
80.79177 580.000
80.81171 550.000
80.83166 555.000
80.85161 493.000
80.87156 591.000
80.89150 557.000
80.91145 566.000
80.93140 537.000
80.95134 513.000
80.97129 507.000
80.99124 509.000
81.01118 507.000
81.03113 517.000
81.05108 512.000
81.07102 534.000
81.09097 576.000
81.11092 518.000
81.13087 558.000
81.15081 515.000
81.17076 531.000
81.19071 525.000
81.21065 552.000
81.23060 530.000
81.25055 560.000
81.27049 543.000
81.29044 520.000
81.31039 545.000
81.33034 522.000
81.35028 515.000
81.37023 548.000
81.39018 526.000
81.41012 583.000
81.43007 568.000
81.45002 546.000
81.46996 529.000
81.48991 554.000
81.50986 527.000
81.52980 542.000
81.54975 568.000
81.56970 537.000
81.58965 590.000
81.60959 543.000
81.62954 543.000
81.64949 586.000
81.66943 539.000
81.68938 578.000
81.70933 587.000
81.72927 535.000
81.74922 595.000
81.76917 593.000
81.78912 654.000
81.80906 592.000
81.82901 601.000
81.84896 572.000
81.86890 632.000
81.88885 615.000
81.90880 632.000
81.92874 598.000
81.94869 609.000
81.96864 620.000
81.98859 636.000
82.00853 602.000
82.02848 609.000
82.04843 633.000
82.06837 631.000
82.08832 599.000
82.10827 555.000
82.12821 576.000
82.14816 642.000
82.16811 602.000
82.18805 629.000
82.20800 615.000
82.22795 580.000
82.24790 566.000
82.26784 586.000
82.28779 592.000
82.30774 573.000
82.32768 596.000
82.34763 571.000
82.36758 591.000
82.38752 615.000
82.40747 581.000
82.42742 563.000
82.44737 593.000
82.46731 625.000
82.48726 594.000
82.50721 597.000
82.52715 613.000
82.54710 626.000
82.56705 677.000
82.58699 591.000
82.60694 595.000
82.62689 628.000
82.64683 599.000
82.66678 625.000
82.68673 598.000
82.70668 654.000
82.72662 634.000
82.74657 628.000
82.76652 593.000
82.78646 575.000
82.80641 633.000
82.82636 557.000
82.84630 641.000
82.86625 603.000
82.88620 606.000
82.90615 584.000
82.92609 569.000
82.94604 640.000
82.96599 626.000
82.98593 608.000
83.00588 659.000
83.02583 606.000
83.04577 594.000
83.06572 597.000
83.08567 581.000
83.10561 644.000
83.12556 681.000
83.14551 601.000
83.16546 579.000
83.18540 582.000
83.20535 631.000
83.22530 617.000
83.24524 633.000
83.26519 597.000
83.28514 625.000
83.30508 650.000
83.32503 607.000
83.34498 592.000
83.36493 587.000
83.38487 555.000
83.40482 578.000
83.42477 611.000
83.44471 585.000
83.46466 599.000
83.48461 594.000
83.50455 548.000
83.52450 611.000
83.54445 567.000
83.56440 570.000
83.58434 572.000
83.60429 539.000
83.62424 530.000
83.64418 576.000
83.66413 545.000
83.68408 549.000
83.70402 515.000
83.72397 548.000
83.74392 506.000
83.76386 556.000
83.78381 535.000
83.80376 541.000
83.82371 581.000
83.84365 577.000
83.86360 499.000
83.88355 524.000
83.90349 531.000
83.92344 519.000
83.94339 517.000
83.96333 545.000
83.98328 535.000
84.00323 554.000
84.02318 579.000
84.04312 529.000
84.06307 556.000
84.08302 516.000
84.10296 551.000
84.12291 535.000
84.14286 564.000
84.16280 509.000
84.18275 558.000
84.20270 525.000
84.22264 527.000
84.24259 531.000
84.26254 518.000
84.28249 543.000
84.30243 502.000
84.32238 574.000
84.34233 542.000
84.36227 515.000
84.38222 526.000
84.40217 532.000
84.42211 540.000
84.44206 520.000
84.46201 556.000
84.48196 536.000
84.50190 530.000
84.52185 536.000
84.54180 508.000
84.56174 497.000
84.58169 511.000
84.60164 545.000
84.62158 501.000
84.64153 535.000
84.66148 504.000
84.68142 515.000
84.70137 512.000
84.72132 528.000
84.74127 504.000
84.76121 515.000
84.78116 522.000
84.80111 504.000
84.82105 534.000
84.84100 531.000
84.86095 561.000
84.88089 575.000
84.90084 520.000
84.92079 504.000
84.94074 519.000
84.96068 537.000
84.98063 558.000
85.00058 544.000
85.02052 552.000
85.04047 544.000
85.06042 545.000
85.08036 507.000
85.10031 516.000
85.12026 533.000
85.14021 519.000
85.16015 535.000
85.18010 552.000
85.20005 546.000
85.21999 557.000
85.23994 531.000
85.25989 516.000
85.27983 511.000
85.29978 530.000
85.31973 492.000
85.33967 487.000
85.35962 538.000
85.37957 559.000
85.39952 540.000
85.41946 511.000
85.43941 508.000
85.45936 516.000
85.47930 521.000
85.49925 514.000
85.51920 529.000
85.53914 514.000
85.55909 578.000
85.57904 554.000
85.59899 535.000
85.61893 571.000
85.63888 519.000
85.65883 514.000
85.67877 546.000
85.69872 501.000
85.71867 538.000
85.73861 518.000
85.75856 495.000
85.77851 527.000
85.79845 519.000
85.81840 525.000
85.83835 502.000
85.85830 564.000
85.87824 534.000
85.89819 538.000
85.91814 544.000
85.93808 542.000
85.95803 533.000
85.97798 549.000
85.99792 530.000
86.01787 552.000
86.03782 542.000
86.05777 566.000
86.07771 535.000
86.09766 500.000
86.11761 540.000
86.13755 549.000
86.15750 558.000
86.17745 554.000
86.19739 554.000
86.21734 557.000
86.23729 537.000
86.25723 539.000
86.27718 560.000
86.29713 565.000
86.31708 555.000
86.33702 540.000
86.35697 519.000
86.37692 538.000
86.39686 537.000
86.41681 561.000
86.43676 528.000
86.45670 588.000
86.47665 533.000
86.49660 541.000
86.51655 603.000
86.53649 550.000
86.55644 581.000
86.57639 525.000
86.59633 477.000
86.61628 533.000
86.63623 530.000
86.65617 539.000
86.67612 518.000
86.69607 502.000
86.71602 558.000
86.73596 506.000
86.75591 536.000
86.77586 560.000
86.79580 521.000
86.81575 541.000
86.83570 522.000
86.85564 559.000
86.87559 548.000
86.89554 543.000
86.91548 519.000
86.93543 561.000
86.95538 528.000
86.97533 581.000
86.99527 545.000
87.01522 557.000
87.03517 507.000
87.05511 527.000
87.07506 527.000
87.09501 545.000
87.11495 531.000
87.13490 578.000
87.15485 513.000
87.17480 534.000
87.19474 494.000
87.21469 533.000
87.23464 502.000
87.25458 551.000
87.27453 521.000
87.29448 560.000
87.31442 522.000
87.33437 494.000
87.35432 530.000
87.37426 499.000
87.39421 496.000
87.41416 533.000
87.43411 509.000
87.45405 538.000
87.47400 542.000
87.49395 508.000
87.51389 527.000
87.53384 558.000
87.55379 513.000
87.57373 549.000
87.59368 538.000
87.61363 536.000
87.63358 520.000
87.65352 533.000
87.67347 532.000
87.69342 530.000
87.71336 543.000
87.73331 476.000
87.75326 508.000
87.77320 529.000
87.79315 490.000
87.81310 511.000
87.83304 551.000
87.85299 500.000
87.87294 525.000
87.89289 540.000
87.91283 510.000
87.93278 513.000
87.95273 546.000
87.97267 517.000
87.99262 543.000
88.01257 520.000
88.03251 569.000
88.05246 518.000
88.07241 537.000
88.09236 507.000
88.11230 545.000
88.13225 522.000
88.15220 531.000
88.17214 523.000
88.19209 531.000
88.21204 506.000
88.23198 509.000
88.25193 542.000
88.27188 511.000
88.29183 494.000
88.31177 528.000
88.33172 511.000
88.35167 528.000
88.37161 517.000
88.39156 500.000
88.41151 545.000
88.43145 512.000
88.45140 554.000
88.47135 572.000
88.49129 513.000
88.51124 553.000
88.53119 534.000
88.55114 561.000
88.57108 554.000
88.59103 539.000
88.61098 563.000
88.63092 517.000
88.65087 581.000
88.67082 496.000
88.69076 528.000
88.71071 548.000
88.73066 542.000
88.75061 543.000
88.77055 533.000
88.79050 526.000
88.81045 536.000
88.83039 564.000
88.85034 542.000
88.87029 554.000
88.89023 504.000
88.91018 575.000
88.93013 534.000
88.95007 544.000
88.97002 541.000
88.98997 551.000
89.00992 587.000
89.02986 577.000
89.04981 563.000
89.06976 575.000
89.08970 572.000
89.10965 586.000
89.12960 645.000
89.14954 589.000
89.16949 606.000
89.18944 624.000
89.20939 577.000
89.22933 616.000
89.24928 584.000
89.26923 647.000
89.28917 574.000
89.30912 643.000
89.32907 673.000
89.34901 605.000
89.36896 556.000
89.38891 641.000
89.40885 612.000
89.42880 632.000
89.44875 616.000
89.46870 597.000
89.48864 655.000
89.50859 611.000
89.52854 626.000
89.54848 606.000
89.56843 617.000
89.58838 553.000
89.60832 586.000
89.62827 596.000
89.64822 629.000
89.66817 565.000
89.68811 605.000
89.70806 578.000
89.72801 547.000
89.74795 533.000
89.76790 553.000
89.78785 511.000
89.80779 535.000
89.82774 534.000
89.84769 537.000
89.86764 520.000
89.88758 525.000
89.90753 543.000
89.92748 539.000
89.94742 522.000
89.96737 515.000
89.98732 520.000
90.00726 511.000
