10.00000 107.000
10.01995 89.000
10.03989 85.000
10.05984 107.000
10.07979 89.000
10.09973 86.000
10.11968 100.000
10.13963 110.000
10.15958 100.000
10.17952 77.000
10.19947 95.000
10.21942 96.000
10.23936 91.000
10.25931 93.000
10.27926 93.000
10.29920 108.000
10.31915 85.000
10.33910 102.000
10.35905 96.000
10.37899 81.000
10.39894 109.000
10.41889 116.000
10.43883 117.000
10.45878 88.000
10.47873 88.000
10.49867 78.000
10.51862 100.000
10.53857 98.000
10.55851 92.000
10.57846 103.000
10.59841 98.000
10.61836 90.000
10.63830 83.000
10.65825 88.000
10.67820 96.000
10.69814 97.000
10.71809 114.000
10.73804 91.000
10.75798 75.000
10.77793 88.000
10.79788 100.000
10.81783 107.000
10.83777 83.000
10.85772 98.000
10.87767 94.000
10.89761 83.000
10.91756 118.000
10.93751 92.000
10.95745 87.000
10.97740 104.000
10.99735 88.000
11.01730 97.000
11.03724 99.000
11.05719 97.000
11.07714 90.000
11.09708 92.000
11.11703 90.000
11.13698 88.000
11.15692 98.000
11.17687 91.000
11.19682 97.000
11.21676 96.000
11.23671 90.000
11.25666 96.000
11.27661 100.000
11.29655 103.000
11.31650 94.000
11.33645 95.000
11.35639 116.000
11.37634 93.000
11.39629 103.000
11.41623 103.000
11.43618 99.000
11.45613 117.000
11.47608 98.000
11.49602 103.000
11.51597 105.000
11.53592 104.000
11.55586 113.000
11.57581 99.000
11.59576 81.000
11.61570 116.000
11.63565 70.000
11.65560 127.000
11.67554 99.000
11.69549 103.000
11.71544 87.000
11.73539 105.000
11.75533 92.000
11.77528 103.000
11.79523 104.000
11.81517 79.000
11.83512 87.000
11.85507 101.000
11.87501 101.000
11.89496 96.000
11.91491 100.000
11.93486 87.000
11.95480 101.000
11.97475 86.000
11.99470 98.000
12.01464 89.000
12.03459 102.000
12.05454 91.000
12.07448 88.000
12.09443 89.000
12.11438 95.000
12.13432 86.000
12.15427 109.000
12.17422 95.000
12.19417 95.000
12.21411 98.000
12.23406 100.000
12.25401 111.000
12.27395 115.000
12.29390 93.000
12.31385 104.000
12.33379 112.000
12.35374 108.000
12.37369 95.000
12.39364 100.000
12.41358 93.000
12.43353 103.000
12.45348 93.000
12.47342 90.000
12.49337 91.000
12.51332 96.000
12.53326 98.000
12.55321 100.000
12.57316 69.000
12.59311 89.000
12.61305 77.000
12.63300 87.000
12.65295 105.000
12.67289 95.000
12.69284 88.000
12.71279 97.000
12.73273 101.000
12.75268 105.000
12.77263 81.000
12.79257 80.000
12.81252 88.000
12.83247 90.000
12.85242 85.000
12.87236 89.000
12.89231 76.000
12.91226 101.000
12.93220 104.000
12.95215 104.000
12.97210 92.000
12.99204 100.000
13.01199 83.000
13.03194 114.000
13.05189 89.000
13.07183 107.000
13.09178 121.000
13.11173 99.000
13.13167 107.000
13.15162 88.000
13.17157 95.000
13.19151 100.000
13.21146 107.000
13.23141 83.000
13.25135 101.000
13.27130 81.000
13.29125 93.000
13.31120 89.000
13.33114 94.000
13.35109 108.000
13.37104 102.000
13.39098 114.000
13.41093 94.000
13.43088 85.000
13.45082 79.000
13.47077 91.000
13.49072 110.000
13.51067 86.000
13.53061 93.000
13.55056 98.000
13.57051 92.000
13.59045 87.000
13.61040 95.000
13.63035 106.000
13.65029 95.000
13.67024 114.000
13.69019 89.000
13.71013 80.000
13.73008 85.000
13.75003 100.000
13.76998 90.000
13.78992 114.000
13.80987 99.000
13.82982 100.000
13.84976 102.000
13.86971 112.000
13.88966 104.000
13.90960 95.000
13.92955 103.000
13.94950 93.000
13.96945 100.000
13.98939 105.000
14.00934 110.000
14.02929 111.000
14.04923 113.000
14.06918 97.000
14.08913 105.000
14.10907 86.000
14.12902 105.000
14.14897 105.000
14.16892 113.000
14.18886 99.000
14.20881 91.000
14.22876 111.000
14.24870 105.000
14.26865 128.000
14.28860 93.000
14.30854 89.000
14.32849 104.000
14.34844 90.000
14.36838 101.000
14.38833 113.000
14.40828 98.000
14.42823 90.000
14.44817 103.000
14.46812 98.000
14.48807 100.000
14.50801 100.000
14.52796 111.000
14.54791 121.000
14.56785 105.000
14.58780 101.000
14.60775 110.000
14.62770 113.000
14.64764 116.000
14.66759 111.000
14.68754 115.000
14.70748 101.000
14.72743 118.000
14.74738 96.000
14.76732 98.000
14.78727 113.000
14.80722 105.000
14.82716 125.000
14.84711 106.000
14.86706 115.000
14.88701 132.000
14.90695 131.000
14.92690 132.000
14.94685 144.000
14.96679 140.000
14.98674 137.000
15.00669 149.000
15.02663 167.000
15.04658 169.000
15.06653 176.000
15.08648 170.000
15.10642 178.000
15.12637 190.000
15.14632 214.000
15.16626 284.000
15.18621 278.000
15.20616 366.000
15.22610 441.000
15.24605 481.000
15.26600 552.000
15.28594 696.000
15.30589 742.000
15.32584 801.000
15.34579 924.000
15.36573 965.000
15.38568 1098.000
15.40563 1237.000
15.42557 1304.000
15.44552 1496.000
15.46547 1685.000
15.48541 1901.000
15.50536 2039.000
15.52531 1926.000
15.54526 1771.000
15.56520 1376.000
15.58515 1090.000
15.60510 732.000
15.62504 522.000
15.64499 353.000
15.66494 273.000
15.68488 222.000
15.70483 177.000
15.72478 162.000
15.74472 152.000
15.76467 139.000
15.78462 150.000
15.80457 136.000
15.82451 135.000
15.84446 133.000
15.86441 134.000
15.88435 118.000
15.90430 145.000
15.92425 138.000
15.94419 143.000
15.96414 127.000
15.98409 136.000
16.00404 120.000
16.02398 126.000
16.04393 133.000
16.06388 119.000
16.08382 123.000
16.10377 113.000
16.12372 114.000
16.14366 129.000
16.16361 130.000
16.18356 137.000
16.20351 130.000
16.22345 123.000
16.24340 99.000
16.26335 108.000
16.28329 117.000
16.30324 85.000
16.32319 112.000
16.34313 127.000
16.36308 106.000
16.38303 102.000
16.40297 110.000
16.42292 135.000
16.44287 109.000
16.46282 127.000
16.48276 116.000
16.50271 119.000
16.52266 128.000
16.54260 120.000
16.56255 102.000
16.58250 90.000
16.60244 106.000
16.62239 126.000
16.64234 118.000
16.66229 134.000
16.68223 127.000
16.70218 113.000
16.72213 110.000
16.74207 106.000
16.76202 127.000
16.78197 128.000
16.80191 135.000
16.82186 100.000
16.84181 112.000
16.86175 107.000
16.88170 110.000
16.90165 135.000
16.92160 110.000
16.94154 113.000
16.96149 114.000
16.98144 130.000
17.00138 121.000
17.02133 99.000
17.04128 134.000
17.06122 110.000
17.08117 122.000
17.10112 103.000
17.12107 102.000
17.14101 107.000
17.16096 114.000
17.18091 126.000
17.20085 108.000
17.22080 123.000
17.24075 118.000
17.26069 112.000
17.28064 126.000
17.30059 106.000
17.32053 125.000
17.34048 116.000
17.36043 122.000
17.38038 109.000
17.40032 115.000
17.42027 122.000
17.44022 113.000
17.46016 117.000
17.48011 132.000
17.50006 110.000
17.52000 116.000
17.53995 122.000
17.55990 111.000
17.57985 126.000
17.59979 144.000
17.61974 117.000
17.63969 125.000
17.65963 117.000
17.67958 128.000
17.69953 119.000
17.71947 136.000
17.73942 141.000
17.75937 149.000
17.77932 153.000
17.79926 147.000
17.81921 161.000
17.83916 200.000
17.85910 179.000
17.87905 190.000
17.89900 203.000
17.91894 207.000
17.93889 198.000
17.95884 207.000
17.97878 196.000
17.99873 218.000
18.01868 214.000
18.03863 237.000
18.05857 251.000
18.07852 242.000
18.09847 216.000
18.11841 207.000
18.13836 201.000
18.15831 173.000
18.17825 189.000
18.19820 179.000
18.21815 150.000
18.23810 150.000
18.25804 146.000
18.27799 124.000
18.29794 136.000
18.31788 128.000
18.33783 136.000
18.35778 128.000
18.37772 136.000
18.39767 131.000
18.41762 118.000
18.43756 126.000
18.45751 110.000
18.47746 147.000
18.49741 116.000
18.51735 114.000
18.53730 104.000
18.55725 124.000
18.57719 121.000
18.59714 133.000
18.61709 122.000
18.63703 124.000
18.65698 125.000
18.67693 118.000
18.69688 125.000
18.71682 118.000
18.73677 131.000
18.75672 114.000
18.77666 145.000
18.79661 110.000
18.81656 110.000
18.83650 120.000
18.85645 115.000
18.87640 106.000
18.89634 120.000
18.91629 111.000
18.93624 133.000
18.95619 112.000
18.97613 134.000
18.99608 120.000
19.01603 124.000
19.03597 126.000
19.05592 137.000
19.07587 127.000
19.09581 132.000
19.11576 120.000
19.13571 123.000
19.15566 129.000
19.17560 125.000
19.19555 127.000
19.21550 127.000
19.23544 111.000
19.25539 140.000
19.27534 125.000
19.29528 127.000
19.31523 136.000
19.33518 141.000
19.35513 95.000
19.37507 113.000
19.39502 119.000
19.41497 122.000
19.43491 114.000
19.45486 123.000
19.47481 133.000
19.49475 119.000
19.51470 147.000
19.53465 133.000
19.55459 124.000
19.57454 104.000
19.59449 122.000
19.61444 128.000
19.63438 132.000
19.65433 133.000
19.67428 120.000
19.69422 148.000
19.71417 132.000
19.73412 130.000
19.75406 154.000
19.77401 114.000
19.79396 146.000
19.81391 136.000
19.83385 134.000
19.85380 136.000
19.87375 151.000
19.89369 131.000
19.91364 133.000
19.93359 142.000
19.95353 141.000
19.97348 133.000
19.99343 120.000
20.01337 131.000
20.03332 112.000
20.05327 120.000
20.07322 125.000
20.09316 136.000
20.11311 131.000
20.13306 134.000
20.15300 121.000
20.17295 147.000
20.19290 152.000
20.21284 146.000
20.23279 138.000
20.25274 124.000
20.27269 137.000
20.29263 136.000
20.31258 127.000
20.33253 156.000
20.35247 132.000
20.37242 119.000
20.39237 129.000
20.41231 115.000
20.43226 131.000
20.45221 128.000
20.47215 127.000
20.49210 149.000
20.51205 121.000
20.53200 100.000
20.55194 123.000
20.57189 135.000
20.59184 148.000
20.61178 135.000
20.63173 131.000
20.65168 144.000
20.67162 151.000
20.69157 121.000
20.71152 141.000
20.73147 150.000
20.75141 135.000
20.77136 138.000
20.79131 128.000
20.81125 140.000
20.83120 135.000
20.85115 135.000
20.87109 115.000
20.89104 120.000
20.91099 141.000
20.93094 148.000
20.95088 143.000
20.97083 136.000
20.99078 136.000
21.01072 142.000
21.03067 132.000
21.05062 123.000
21.07056 126.000
21.09051 132.000
21.11046 127.000
21.13040 128.000
21.15035 120.000
21.17030 144.000
21.19025 137.000
21.21019 134.000
21.23014 134.000
21.25009 132.000
21.27003 128.000
21.28998 123.000
21.30993 105.000
21.32987 126.000
21.34982 132.000
21.36977 135.000
21.38972 138.000
21.40966 133.000
21.42961 116.000
21.44956 96.000
21.46950 144.000
21.48945 128.000
21.50940 137.000
21.52934 142.000
21.54929 130.000
21.56924 139.000
21.58918 139.000
21.60913 158.000
21.62908 154.000
21.64903 127.000
21.66897 151.000
21.68892 139.000
21.70887 146.000
21.72881 144.000
21.74876 126.000
21.76871 129.000
21.78865 147.000
21.80860 131.000
21.82855 146.000
21.84850 143.000
21.86844 132.000
21.88839 152.000
21.90834 140.000
21.92828 142.000
21.94823 136.000
21.96818 126.000
21.98812 137.000
22.00807 109.000
22.02802 135.000
22.04796 120.000
22.06791 145.000
22.08786 144.000
22.10781 124.000
22.12775 128.000
22.14770 141.000
22.16765 129.000
22.18759 118.000
22.20754 135.000
22.22749 137.000
22.24743 131.000
22.26738 150.000
22.28733 145.000
22.30728 140.000
22.32722 144.000
22.34717 132.000
22.36712 138.000
22.38706 143.000
22.40701 137.000
22.42696 111.000
22.44690 138.000
22.46685 125.000
22.48680 142.000
22.50675 120.000
22.52669 130.000
22.54664 134.000
22.56659 142.000
22.58653 149.000
22.60648 127.000
22.62643 126.000
22.64637 146.000
22.66632 145.000
22.68627 121.000
22.70621 141.000
22.72616 135.000
22.74611 118.000
22.76606 144.000
22.78600 111.000
22.80595 141.000
22.82590 164.000
22.84584 135.000
22.86579 147.000
22.88574 132.000
22.90568 154.000
22.92563 139.000
22.94558 126.000
22.96553 134.000
22.98547 159.000
23.00542 144.000
23.02537 121.000
23.04531 128.000
23.06526 154.000
23.08521 132.000
23.10515 136.000
23.12510 170.000
23.14505 137.000
23.16499 136.000
23.18494 143.000
23.20489 123.000
23.22484 142.000
23.24478 144.000
23.26473 151.000
23.28468 142.000
23.30462 155.000
23.32457 139.000
23.34452 126.000
23.36446 138.000
23.38441 138.000
23.40436 122.000
23.42431 127.000
23.44425 155.000
23.46420 138.000
23.48415 145.000
23.50409 146.000
23.52404 137.000
23.54399 130.000
23.56393 137.000
23.58388 156.000
23.60383 143.000
23.62377 135.000
23.64372 129.000
23.66367 130.000
23.68362 138.000
23.70356 132.000
23.72351 117.000
23.74346 121.000
23.76340 135.000
23.78335 140.000
23.80330 153.000
23.82324 132.000
23.84319 157.000
23.86314 156.000
23.88309 138.000
23.90303 152.000
23.92298 152.000
23.94293 134.000
23.96287 153.000
23.98282 165.000
24.00277 118.000
24.02271 168.000
24.04266 161.000
24.06261 133.000
24.08256 132.000
24.10250 135.000
24.12245 160.000
24.14240 155.000
24.16234 152.000
24.18229 139.000
24.20224 148.000
24.22218 161.000
24.24213 132.000
24.26208 141.000
24.28202 163.000
24.30197 132.000
24.32192 136.000
24.34187 146.000
24.36181 126.000
24.38176 139.000
24.40171 144.000
24.42165 134.000
24.44160 146.000
24.46155 160.000
24.48149 149.000
24.50144 146.000
24.52139 137.000
24.54134 151.000
24.56128 150.000
24.58123 133.000
24.60118 129.000
24.62112 139.000
24.64107 145.000
24.66102 163.000
24.68096 159.000
24.70091 149.000
24.72086 148.000
24.74080 182.000
24.76075 132.000
24.78070 144.000
24.80065 129.000
24.82059 133.000
24.84054 159.000
24.86049 138.000
24.88043 150.000
24.90038 139.000
24.92033 140.000
24.94027 151.000
24.96022 148.000
24.98017 153.000
25.00012 159.000
25.02006 154.000
25.04001 158.000
25.05996 143.000
25.07990 152.000
25.09985 171.000
25.11980 165.000
25.13974 163.000
25.15969 162.000
25.17964 125.000
25.19958 132.000
25.21953 146.000
25.23948 146.000
25.25943 139.000
25.27937 134.000
25.29932 152.000
25.31927 153.000
25.33921 155.000
25.35916 157.000
25.37911 141.000
25.39905 128.000
25.41900 145.000
25.43895 133.000
25.45890 151.000
25.47884 157.000
25.49879 154.000
25.51874 154.000
25.53868 177.000
25.55863 169.000
25.57858 159.000
25.59852 164.000
25.61847 154.000
25.63842 144.000
25.65837 162.000
25.67831 141.000
25.69826 160.000
25.71821 146.000
25.73815 150.000
25.75810 154.000
25.77805 156.000
25.79799 131.000
25.81794 134.000
25.83789 161.000
25.85783 117.000
25.87778 158.000
25.89773 159.000
25.91768 147.000
25.93762 129.000
25.95757 147.000
25.97752 163.000
25.99746 151.000
26.01741 155.000
26.03736 162.000
26.05730 154.000
26.07725 122.000
26.09720 150.000
26.11715 160.000
26.13709 147.000
26.15704 159.000
26.17699 152.000
26.19693 167.000
26.21688 160.000
26.23683 165.000
26.25677 160.000
26.27672 138.000
26.29667 152.000
26.31661 165.000
26.33656 159.000
26.35651 174.000
26.37646 151.000
26.39640 155.000
26.41635 153.000
26.43630 148.000
26.45624 156.000
26.47619 165.000
26.49614 141.000
26.51608 151.000
26.53603 166.000
26.55598 174.000
26.57593 134.000
26.59587 165.000
26.61582 148.000
26.63577 169.000
26.65571 149.000
26.67566 144.000
26.69561 170.000
26.71555 155.000
26.73550 146.000
26.75545 169.000
26.77539 162.000
26.79534 147.000
26.81529 163.000
26.83524 160.000
26.85518 171.000
26.87513 166.000
26.89508 156.000
26.91502 166.000
26.93497 155.000
26.95492 161.000
26.97486 152.000
26.99481 142.000
27.01476 157.000
27.03471 151.000
27.05465 148.000
27.07460 153.000
27.09455 153.000
27.11449 165.000
27.13444 171.000
27.15439 149.000
27.17433 175.000
27.19428 175.000
27.21423 172.000
27.23417 154.000
27.25412 164.000
27.27407 170.000
27.29402 143.000
27.31396 145.000
27.33391 154.000
27.35386 161.000
27.37380 147.000
27.39375 173.000
27.41370 174.000
27.43364 154.000
27.45359 162.000
27.47354 161.000
27.49349 177.000
27.51343 147.000
27.53338 152.000
27.55333 162.000
27.57327 177.000
27.59322 164.000
27.61317 127.000
27.63311 153.000
27.65306 197.000
27.67301 151.000
27.69296 163.000
27.71290 150.000
27.73285 158.000
27.75280 152.000
27.77274 166.000
27.79269 155.000
27.81264 152.000
27.83258 145.000
27.85253 189.000
27.87248 149.000
27.89242 152.000
27.91237 159.000
27.93232 165.000
27.95227 161.000
27.97221 182.000
27.99216 179.000
28.01211 154.000
28.03205 174.000
28.05200 181.000
28.07195 189.000
28.09189 128.000
28.11184 156.000
28.13179 145.000
28.15174 168.000
28.17168 148.000
28.19163 172.000
28.21158 176.000
28.23152 161.000
28.25147 156.000
28.27142 148.000
28.29136 149.000
28.31131 149.000
28.33126 168.000
28.35120 146.000
28.37115 166.000
28.39110 178.000
28.41105 160.000
28.43099 175.000
28.45094 184.000
28.47089 161.000
28.49083 152.000
28.51078 153.000
28.53073 155.000
28.55067 157.000
28.57062 190.000
28.59057 163.000
28.61052 158.000
28.63046 176.000
28.65041 171.000
28.67036 144.000
28.69030 183.000
28.71025 161.000
28.73020 167.000
28.75014 161.000
28.77009 151.000
28.79004 143.000
28.80998 154.000
28.82993 178.000
28.84988 158.000
28.86983 160.000
28.88977 160.000
28.90972 192.000
28.92967 154.000
28.94961 153.000
28.96956 143.000
28.98951 157.000
29.00945 157.000
29.02940 169.000
29.04935 159.000
29.06930 142.000
29.08924 155.000
29.10919 150.000
29.12914 170.000
29.14908 156.000
29.16903 177.000
29.18898 172.000
29.20892 176.000
29.22887 159.000
29.24882 148.000
29.26877 177.000
29.28871 200.000
29.30866 193.000
29.32861 140.000
29.34855 173.000
29.36850 153.000
29.38845 165.000
29.40839 178.000
29.42834 189.000
29.44829 163.000
29.46823 182.000
29.48818 177.000
29.50813 168.000
29.52808 162.000
29.54802 200.000
29.56797 211.000
29.58792 227.000
29.60786 226.000
29.62781 236.000
29.64776 285.000
29.66770 252.000
29.68765 283.000
29.70760 242.000
29.72755 305.000
29.74749 292.000
29.76744 328.000
29.78739 337.000
29.80733 339.000
29.82728 350.000
29.84723 343.000
29.86717 323.000
29.88712 290.000
29.90707 330.000
29.92701 300.000
29.94696 226.000
29.96691 248.000
29.98686 224.000
30.00680 235.000
30.02675 208.000
30.04670 202.000
30.06664 206.000
30.08659 173.000
30.10654 197.000
30.12648 191.000
30.14643 192.000
30.16638 166.000
30.18633 167.000
30.20627 180.000
30.22622 166.000
30.24617 193.000
30.26611 182.000
30.28606 160.000
30.30601 152.000
30.32595 163.000
30.34590 163.000
30.36585 176.000
30.38579 190.000
30.40574 153.000
30.42569 174.000
30.44564 165.000
30.46558 186.000
30.48553 141.000
30.50548 166.000
30.52542 169.000
30.54537 165.000
30.56532 169.000
30.58526 170.000
30.60521 190.000
30.62516 185.000
30.64511 173.000
30.66505 167.000
30.68500 161.000
30.70495 175.000
30.72489 177.000
30.74484 200.000
30.76479 183.000
30.78473 174.000
30.80468 166.000
30.82463 180.000
30.84458 178.000
30.86452 212.000
30.88447 178.000
30.90442 157.000
30.92436 168.000
30.94431 157.000
30.96426 182.000
30.98420 155.000
31.00415 151.000
31.02410 165.000
31.04404 193.000
31.06399 164.000
31.08394 152.000
31.10389 169.000
31.12383 175.000
31.14378 166.000
31.16373 174.000
31.18367 170.000
31.20362 168.000
31.22357 174.000
31.24351 200.000
31.26346 197.000
31.28341 210.000
31.30336 230.000
31.32330 219.000
31.34325 266.000
31.36320 300.000
31.38314 328.000
31.40309 356.000
31.42304 396.000
31.44298 401.000
31.46293 400.000
31.48288 440.000
31.50282 482.000
31.52277 521.000
31.54272 490.000
31.56267 501.000
31.58261 475.000
31.60256 473.000
31.62251 474.000
31.64245 399.000
31.66240 362.000
31.68235 326.000
31.70229 314.000
31.72224 260.000
31.74219 224.000
31.76214 218.000
31.78208 196.000
31.80203 216.000
31.82198 185.000
31.84192 175.000
31.86187 166.000
31.88182 170.000
31.90176 188.000
31.92171 154.000
31.94166 154.000
31.96160 177.000
31.98155 143.000
32.00150 176.000
32.02145 173.000
32.04139 144.000
32.06134 167.000
32.08129 162.000
32.10123 165.000
32.12118 156.000
32.14113 155.000
32.16107 156.000
32.18102 150.000
32.20097 173.000
32.22092 157.000
32.24086 140.000
32.26081 177.000
32.28076 154.000
32.30070 153.000
32.32065 175.000
32.34060 135.000
32.36054 160.000
32.38049 185.000
32.40044 167.000
32.42039 158.000
32.44033 149.000
32.46028 153.000
32.48023 144.000
32.50017 148.000
32.52012 169.000
32.54007 169.000
32.56001 163.000
32.57996 175.000
32.59991 166.000
32.61985 169.000
32.63980 161.000
32.65975 143.000
32.67970 161.000
32.69964 159.000
32.71959 131.000
32.73954 155.000
32.75948 153.000
32.77943 153.000
32.79938 152.000
32.81932 164.000
32.83927 166.000
32.85922 144.000
32.87917 134.000
32.89911 154.000
32.91906 128.000
32.93901 131.000
32.95895 150.000
32.97890 166.000
32.99885 151.000
33.01879 160.000
33.03874 161.000
33.05869 153.000
33.07863 162.000
33.09858 156.000
33.11853 150.000
33.13848 140.000
33.15842 139.000
33.17837 159.000
33.19832 157.000
33.21826 171.000
33.23821 174.000
33.25816 158.000
33.27810 167.000
33.29805 141.000
33.31800 146.000
33.33795 162.000
33.35789 171.000
33.37784 156.000
33.39779 151.000
33.41773 153.000
33.43768 147.000
33.45763 165.000
33.47757 157.000
33.49752 152.000
33.51747 173.000
33.53741 178.000
33.55736 152.000
33.57731 132.000
33.59726 147.000
33.61720 165.000
33.63715 164.000
33.65710 163.000
33.67704 147.000
33.69699 171.000
33.71694 165.000
33.73688 166.000
33.75683 129.000
33.77678 146.000
33.79673 139.000
33.81667 143.000
33.83662 141.000
33.85657 159.000
33.87651 170.000
33.89646 139.000
33.91641 169.000
33.93635 179.000
33.95630 134.000
33.97625 163.000
33.99620 143.000
34.01614 146.000
34.03609 139.000
34.05604 139.000
34.07598 145.000
34.09593 145.000
34.11588 146.000
34.13582 164.000
34.15577 159.000
34.17572 158.000
34.19566 170.000
34.21561 173.000
34.23556 153.000
34.25551 156.000
34.27545 160.000
34.29540 147.000
34.31535 181.000
34.33529 159.000
34.35524 172.000
34.37519 159.000
34.39513 144.000
34.41508 163.000
34.43503 154.000
34.45498 171.000
34.47492 176.000
34.49487 150.000
34.51482 161.000
34.53476 158.000
34.55471 149.000
34.57466 158.000
34.59460 152.000
34.61455 165.000
34.63450 159.000
34.65444 139.000
34.67439 167.000
34.69434 151.000
34.71429 159.000
34.73423 174.000
34.75418 151.000
34.77413 153.000
34.79407 164.000
34.81402 211.000
34.83397 177.000
34.85391 190.000
34.87386 196.000
34.89381 227.000
34.91376 236.000
34.93370 276.000
34.95365 298.000
34.97360 319.000
34.99354 402.000
35.01349 454.000
35.03344 487.000
35.05338 544.000
35.07333 654.000
35.09328 667.000
35.11322 700.000
35.13317 767.000
35.15312 774.000
35.17307 800.000
35.19301 814.000
35.21296 715.000
35.23291 736.000
35.25285 705.000
35.27280 674.000
35.29275 557.000
35.31269 509.000
35.33264 532.000
35.35259 472.000
35.37254 406.000
35.39248 402.000
35.41243 410.000
35.43238 353.000
35.45232 373.000
35.47227 372.000
35.49222 385.000
35.51216 403.000
35.53211 430.000
35.55206 490.000
35.57201 524.000
35.59195 562.000
35.61190 579.000
35.63185 630.000
35.65179 591.000
35.67174 640.000
35.69169 665.000
35.71163 604.000
35.73158 616.000
35.75153 568.000
35.77147 502.000
35.79142 411.000
35.81137 365.000
35.83132 339.000
35.85126 307.000
35.87121 265.000
35.89116 234.000
35.91110 194.000
35.93105 190.000
35.95100 171.000
35.97094 198.000
35.99089 166.000
36.01084 178.000
36.03079 179.000
36.05073 181.000
36.07068 154.000
36.09063 187.000
36.11057 172.000
36.13052 167.000
36.15047 169.000
36.17041 187.000
36.19036 171.000
36.21031 156.000
36.23025 181.000
36.25020 175.000
36.27015 168.000
36.29010 180.000
36.31004 144.000
36.32999 160.000
36.34994 172.000
36.36988 176.000
36.38983 156.000
36.40978 175.000
36.42972 199.000
36.44967 204.000
36.46962 220.000
36.48957 248.000
36.50951 211.000
36.52946 238.000
36.54941 223.000
36.56935 229.000
36.58930 260.000
36.60925 294.000
36.62919 303.000
36.64914 320.000
36.66909 315.000
36.68903 331.000
36.70898 394.000
36.72893 431.000
36.74888 469.000
36.76882 528.000
36.78877 609.000
36.80872 725.000
36.82866 803.000
36.84861 867.000
36.86856 996.000
36.88850 1023.000
36.90845 1059.000
36.92840 1204.000
36.94835 1200.000
36.96829 1115.000
36.98824 982.000
37.00819 942.000
37.02813 819.000
37.04808 758.000
37.06803 630.000
37.08797 535.000
37.10792 438.000
37.12787 370.000
37.14781 371.000
37.16776 308.000
37.18771 273.000
37.20766 255.000
37.22760 227.000
37.24755 214.000
37.26750 212.000
37.28744 209.000
37.30739 197.000
37.32734 205.000
37.34728 172.000
37.36723 176.000
37.38718 165.000
37.40713 203.000
37.42707 164.000
37.44702 194.000
37.46697 175.000
37.48691 143.000
37.50686 170.000
37.52681 155.000
37.54675 183.000
37.56670 166.000
37.58665 141.000
37.60660 168.000
37.62654 143.000
37.64649 138.000
37.66644 142.000
37.68638 156.000
37.70633 172.000
37.72628 142.000
37.74622 147.000
37.76617 156.000
37.78612 152.000
37.80606 135.000
37.82601 152.000
37.84596 139.000
37.86591 148.000
37.88585 136.000
37.90580 162.000
37.92575 152.000
37.94569 168.000
37.96564 154.000
37.98559 154.000
38.00553 157.000
38.02548 156.000
38.04543 146.000
38.06538 149.000
38.08532 162.000
38.10527 163.000
38.12522 137.000
38.14516 155.000
38.16511 135.000
38.18506 154.000
38.20500 143.000
38.22495 175.000
38.24490 156.000
38.26484 143.000
38.28479 152.000
38.30474 130.000
38.32469 153.000
38.34463 146.000
38.36458 161.000
38.38453 153.000
38.40447 127.000
38.42442 146.000
38.44437 153.000
38.46431 150.000
38.48426 143.000
38.50421 162.000
38.52416 132.000
38.54410 156.000
38.56405 155.000
38.58400 155.000
38.60394 163.000
38.62389 151.000
38.64384 158.000
38.66378 171.000
38.68373 210.000
38.70368 178.000
38.72362 152.000
38.74357 166.000
38.76352 173.000
38.78347 162.000
38.80341 178.000
38.82336 182.000
38.84331 188.000
38.86325 201.000
38.88320 224.000
38.90315 210.000
38.92309 244.000
38.94304 244.000
38.96299 306.000
38.98294 332.000
39.00288 412.000
39.02283 449.000
39.04278 506.000
39.06272 563.000
39.08267 701.000
39.10262 774.000
39.12256 834.000
39.14251 975.000
39.16246 1082.000
39.18241 1072.000
39.20235 1204.000
39.22230 1135.000
39.24225 1146.000
39.26219 1068.000
39.28214 987.000
39.30209 864.000
39.32203 744.000
39.34198 622.000
39.36193 550.000
39.38187 456.000
39.40182 336.000
39.42177 308.000
39.44172 236.000
39.46166 222.000
39.48161 222.000
39.50156 208.000
39.52150 204.000
39.54145 156.000
39.56140 172.000
39.58134 147.000
39.60129 168.000
39.62124 148.000
39.64119 162.000
39.66113 157.000
39.68108 132.000
39.70103 164.000
39.72097 160.000
39.74092 156.000
39.76087 144.000
39.78081 181.000
39.80076 149.000
39.82071 143.000
39.84065 173.000
39.86060 158.000
39.88055 153.000
39.90050 137.000
39.92044 163.000
39.94039 155.000
39.96034 163.000
39.98028 137.000
40.00023 138.000
40.02018 136.000
40.04012 145.000
40.06007 144.000
40.08002 134.000
40.09997 153.000
40.11991 164.000
40.13986 151.000
40.15981 144.000
40.17975 141.000
40.19970 128.000
40.21965 133.000
40.23959 149.000
40.25954 146.000
40.27949 154.000
40.29943 148.000
40.31938 143.000
40.33933 146.000
40.35928 156.000
40.37922 126.000
40.39917 161.000
40.41912 140.000
40.43906 119.000
40.45901 153.000
40.47896 140.000
40.49890 131.000
40.51885 145.000
40.53880 141.000
40.55875 146.000
40.57869 147.000
40.59864 142.000
40.61859 145.000
40.63853 137.000
40.65848 143.000
40.67843 177.000
40.69837 126.000
40.71832 150.000
40.73827 129.000
40.75822 133.000
40.77816 133.000
40.79811 134.000
40.81806 118.000
40.83800 121.000
40.85795 149.000
40.87790 140.000
40.89784 124.000
40.91779 135.000
40.93774 144.000
40.95768 138.000
40.97763 158.000
40.99758 122.000
41.01753 165.000
41.03747 137.000
41.05742 126.000
41.07737 146.000
41.09731 145.000
41.11726 150.000
41.13721 130.000
41.15715 144.000
41.17710 138.000
41.19705 141.000
41.21700 135.000
41.23694 151.000
41.25689 144.000
41.27684 131.000
41.29678 146.000
41.31673 163.000
41.33668 139.000
41.35662 131.000
41.37657 154.000
41.39652 145.000
41.41646 124.000
41.43641 133.000
41.45636 143.000
41.47631 126.000
41.49625 128.000
41.51620 144.000
41.53615 129.000
41.55609 140.000
41.57604 146.000
41.59599 132.000
41.61593 147.000
41.63588 157.000
41.65583 165.000
41.67578 164.000
41.69572 148.000
41.71567 167.000
41.73562 130.000
41.75556 134.000
41.77551 155.000
41.79546 168.000
41.81540 154.000
41.83535 146.000
41.85530 146.000
41.87524 142.000
41.89519 143.000
41.91514 149.000
41.93509 158.000
41.95503 153.000
41.97498 157.000
41.99493 144.000
42.01487 137.000
42.03482 140.000
42.05477 135.000
42.07471 146.000
42.09466 171.000
42.11461 144.000
42.13456 181.000
42.15450 126.000
42.17445 150.000
42.19440 160.000
42.21434 150.000
42.23429 157.000
42.25424 163.000
42.27418 155.000
42.29413 177.000
42.31408 152.000
42.33403 170.000
42.35397 171.000
42.37392 161.000
42.39387 159.000
42.41381 155.000
42.43376 160.000
42.45371 175.000
42.47365 188.000
42.49360 189.000
42.51355 183.000
42.53349 205.000
42.55344 229.000
42.57339 234.000
42.59334 248.000
42.61328 263.000
42.63323 297.000
42.65318 326.000
42.67312 378.000
42.69307 452.000
42.71302 433.000
42.73296 502.000
42.75291 539.000
42.77286 653.000
42.79281 716.000
42.81275 828.000
42.83270 989.000
42.85265 1091.000
42.87259 1298.000
42.89254 1426.000
42.91249 1623.000
42.93243 1797.000
42.95238 1981.000
42.97233 1904.000
42.99227 2042.000
43.01222 1843.000
43.03217 1679.000
43.05212 1572.000
43.07206 1439.000
43.09201 1324.000
43.11196 1174.000
43.13190 1028.000
43.15185 884.000
43.17180 763.000
43.19174 741.000
43.21169 651.000
43.23164 646.000
43.25159 662.000
43.27153 680.000
43.29148 658.000
43.31143 638.000
43.33137 583.000
43.35132 571.000
43.37127 518.000
43.39121 417.000
43.41116 420.000
43.43111 354.000
43.45105 291.000
43.47100 280.000
43.49095 255.000
43.51090 229.000
43.53084 198.000
43.55079 191.000
43.57074 209.000
43.59068 162.000
43.61063 162.000
43.63058 154.000
43.65052 190.000
43.67047 178.000
43.69042 159.000
43.71037 155.000
43.73031 134.000
43.75026 148.000
43.77021 150.000
43.79015 163.000
43.81010 156.000
43.83005 171.000
43.84999 147.000
43.86994 165.000
43.88989 149.000
43.90984 142.000
43.92978 164.000
43.94973 148.000
43.96968 150.000
43.98962 173.000
44.00957 162.000
44.02952 141.000
44.04946 161.000
44.06941 156.000
44.08936 159.000
44.10930 145.000
44.12925 158.000
44.14920 146.000
44.16915 142.000
44.18909 150.000
44.20904 144.000
44.22899 140.000
44.24893 128.000
44.26888 144.000
44.28883 157.000
44.30877 149.000
44.32872 156.000
44.34867 149.000
44.36862 136.000
44.38856 132.000
44.40851 149.000
44.42846 152.000
44.44840 167.000
44.46835 143.000
44.48830 141.000
44.50824 155.000
44.52819 155.000
44.54814 147.000
44.56808 140.000
44.58803 150.000
44.60798 158.000
44.62793 154.000
44.64787 121.000
44.66782 150.000
44.68777 159.000
44.70771 150.000
44.72766 164.000
44.74761 155.000
44.76755 185.000
44.78750 154.000
44.80745 151.000
44.82740 161.000
44.84734 194.000
44.86729 160.000
44.88724 195.000
44.90718 167.000
44.92713 159.000
44.94708 176.000
44.96702 135.000
44.98697 168.000
45.00692 174.000
45.02686 160.000
45.04681 169.000
45.06676 148.000
45.08671 169.000
45.10665 175.000
45.12660 155.000
45.14655 147.000
45.16649 166.000
45.18644 144.000
45.20639 135.000
45.22633 153.000
45.24628 131.000
45.26623 138.000
45.28618 166.000
45.30612 158.000
45.32607 134.000
45.34602 138.000
45.36596 121.000
45.38591 156.000
45.40586 133.000
45.42580 151.000
45.44575 135.000
45.46570 137.000
45.48565 140.000
45.50559 142.000
45.52554 128.000
45.54549 172.000
45.56543 104.000
45.58538 144.000
45.60533 138.000
45.62527 146.000
45.64522 152.000
45.66517 168.000
45.68511 135.000
45.70506 144.000
45.72501 138.000
45.74496 138.000
45.76490 127.000
45.78485 135.000
45.80480 132.000
45.82474 132.000
45.84469 123.000
45.86464 111.000
45.88458 147.000
45.90453 132.000
45.92448 156.000
45.94443 150.000
45.96437 149.000
45.98432 121.000
46.00427 150.000
46.02421 123.000
46.04416 132.000
46.06411 144.000
46.08405 119.000
46.10400 143.000
46.12395 146.000
46.14389 147.000
46.16384 142.000
46.18379 126.000
46.20374 134.000
46.22368 121.000
46.24363 131.000
46.26358 135.000
46.28352 122.000
46.30347 116.000
46.32342 132.000
46.34336 132.000
46.36331 120.000
46.38326 142.000
46.40321 126.000
46.42315 148.000
46.44310 122.000
46.46305 112.000
46.48299 145.000
46.50294 131.000
46.52289 148.000
46.54283 132.000
46.56278 115.000
46.58273 128.000
46.60267 123.000
46.62262 135.000
46.64257 136.000
46.66252 143.000
46.68246 124.000
46.70241 131.000
46.72236 107.000
46.74230 131.000
46.76225 128.000
46.78220 122.000
46.80214 137.000
46.82209 130.000
46.84204 130.000
46.86199 127.000
46.88193 136.000
46.90188 146.000
46.92183 116.000
46.94177 151.000
46.96172 136.000
46.98167 130.000
47.00161 133.000
47.02156 107.000
47.04151 132.000
47.06146 133.000
47.08140 130.000
47.10135 129.000
47.12130 118.000
47.14124 144.000
47.16119 142.000
47.18114 129.000
47.20108 138.000
47.22103 138.000
47.24098 130.000
47.26092 118.000
47.28087 128.000
47.30082 119.000
47.32077 137.000
47.34071 124.000
47.36066 132.000
47.38061 117.000
47.40055 122.000
47.42050 135.000
47.44045 131.000
47.46039 141.000
47.48034 137.000
47.50029 136.000
47.52024 151.000
47.54018 134.000
47.56013 142.000
47.58008 133.000
47.60002 145.000
47.61997 150.000
47.63992 129.000
47.65986 146.000
47.67981 116.000
47.69976 144.000
47.71970 135.000
47.73965 138.000
47.75960 140.000
47.77955 130.000
47.79949 136.000
47.81944 146.000
47.83939 139.000
47.85933 130.000
47.87928 157.000
47.89923 121.000
47.91917 140.000
47.93912 151.000
47.95907 140.000
47.97902 146.000
47.99896 142.000
48.01891 151.000
48.03886 170.000
48.05880 174.000
48.07875 185.000
48.09870 176.000
48.11864 157.000
48.13859 156.000
48.15854 215.000
48.17848 240.000
48.19843 238.000
48.21838 251.000
48.23833 237.000
48.25827 275.000
48.27822 290.000
48.29817 304.000
48.31811 355.000
48.33806 411.000
48.35801 424.000
48.37795 507.000
48.39790 615.000
48.41785 679.000
48.43780 754.000
48.45774 859.000
48.47769 976.000
48.49764 1076.000
48.51758 1089.000
48.53753 1106.000
48.55748 1164.000
48.57742 993.000
48.59737 886.000
48.61732 857.000
48.63726 819.000
48.65721 661.000
48.67716 677.000
48.69711 562.000
48.71705 499.000
48.73700 409.000
48.75695 384.000
48.77689 305.000
48.79684 253.000
48.81679 207.000
48.83673 190.000
48.85668 163.000
48.87663 179.000
48.89658 176.000
48.91652 173.000
48.93647 146.000
48.95642 148.000
48.97636 159.000
48.99631 128.000
49.01626 160.000
49.03620 136.000
49.05615 175.000
49.07610 138.000
49.09605 140.000
49.11599 128.000
49.13594 143.000
49.15589 132.000
49.17583 140.000
49.19578 141.000
49.21573 123.000
49.23567 126.000
49.25562 137.000
49.27557 149.000
49.29551 119.000
49.31546 138.000
49.33541 139.000
49.35536 125.000
49.37530 134.000
49.39525 130.000
49.41520 133.000
49.43514 143.000
49.45509 151.000
49.47504 139.000
49.49498 117.000
49.51493 123.000
49.53488 133.000
49.55483 131.000
49.57477 138.000
49.59472 146.000
49.61467 138.000
49.63461 129.000
49.65456 146.000
49.67451 121.000
49.69445 139.000
49.71440 126.000
49.73435 135.000
49.75429 137.000
49.77424 124.000
49.79419 120.000
49.81414 121.000
49.83408 130.000
49.85403 115.000
49.87398 124.000
49.89392 130.000
49.91387 135.000
49.93382 126.000
49.95376 142.000
49.97371 99.000
49.99366 130.000
50.01361 126.000
50.03355 125.000
50.05350 132.000
50.07345 112.000
50.09339 115.000
50.11334 140.000
50.13329 121.000
50.15323 105.000
50.17318 138.000
50.19313 121.000
50.21307 121.000
50.23302 118.000
50.25297 108.000
50.27292 130.000
50.29286 145.000
50.31281 103.000
50.33276 121.000
50.35270 147.000
50.37265 112.000
50.39260 113.000
50.41254 120.000
50.43249 115.000
50.45244 106.000
50.47239 110.000
50.49233 122.000
50.51228 128.000
50.53223 133.000
50.55217 128.000
50.57212 118.000
50.59207 124.000
50.61201 113.000
50.63196 121.000
50.65191 130.000
50.67186 120.000
50.69180 127.000
50.71175 132.000
50.73170 129.000
50.75164 117.000
50.77159 126.000
50.79154 104.000
50.81148 128.000
50.83143 146.000
50.85138 118.000
50.87132 122.000
50.89127 113.000
50.91122 104.000
50.93117 108.000
50.95111 105.000
50.97106 132.000
50.99101 135.000
51.01095 128.000
51.03090 105.000
51.05085 122.000
51.07079 135.000
51.09074 114.000
51.11069 115.000
51.13064 137.000
51.15058 142.000
51.17053 115.000
51.19048 129.000
51.21042 120.000
51.23037 116.000
51.25032 135.000
51.27026 123.000
51.29021 142.000
51.31016 140.000
51.33010 139.000
51.35005 106.000
51.37000 136.000
51.38995 110.000
51.40989 104.000
51.42984 122.000
51.44979 126.000
51.46973 110.000
51.48968 117.000
51.50963 126.000
51.52957 111.000
51.54952 110.000
51.56947 130.000
51.58942 115.000
51.60936 115.000
51.62931 107.000
51.64926 110.000
51.66920 135.000
51.68915 127.000
51.70910 97.000
51.72904 138.000
51.74899 130.000
51.76894 123.000
51.78888 152.000
51.80883 106.000
51.82878 125.000
51.84873 116.000
51.86867 123.000
51.88862 113.000
51.90857 133.000
51.92851 110.000
51.94846 145.000
51.96841 112.000
51.98835 132.000
52.00830 135.000
52.02825 104.000
52.04820 111.000
52.06814 104.000
52.08809 123.000
52.10804 133.000
52.12798 134.000
52.14793 131.000
52.16788 131.000
52.18782 122.000
52.20777 124.000
52.22772 128.000
52.24767 118.000
52.26761 121.000
52.28756 129.000
52.30751 135.000
52.32745 130.000
52.34740 147.000
52.36735 127.000
52.38729 106.000
52.40724 148.000
52.42719 143.000
52.44713 117.000
52.46708 121.000
52.48703 140.000
52.50698 125.000
52.52692 123.000
52.54687 140.000
52.56682 139.000
52.58676 131.000
52.60671 145.000
52.62666 121.000
52.64660 126.000
52.66655 133.000
52.68650 138.000
52.70645 157.000
52.72639 130.000
52.74634 128.000
52.76629 113.000
52.78623 124.000
52.80618 113.000
52.82613 136.000
52.84607 134.000
52.86602 143.000
52.88597 127.000
52.90591 134.000
52.92586 154.000
52.94581 124.000
52.96576 157.000
52.98570 146.000
53.00565 120.000
53.02560 129.000
53.04554 151.000
53.06549 144.000
53.08544 158.000
53.10538 177.000
53.12533 168.000
53.14528 172.000
53.16523 180.000
53.18517 154.000
53.20512 175.000
53.22507 167.000
53.24501 165.000
53.26496 177.000
53.28491 155.000
53.30485 174.000
53.32480 170.000
53.34475 136.000
53.36469 125.000
53.38464 144.000
53.40459 157.000
53.42454 136.000
53.44448 109.000
53.46443 148.000
53.48438 144.000
53.50432 128.000
53.52427 139.000
53.54422 132.000
53.56416 141.000
53.58411 155.000
53.60406 126.000
53.62401 162.000
53.64395 138.000
53.66390 115.000
53.68385 158.000
53.70379 141.000
53.72374 122.000
53.74369 116.000
53.76363 109.000
53.78358 132.000
53.80353 129.000
53.82348 126.000
53.84342 129.000
53.86337 117.000
53.88332 113.000
53.90326 125.000
53.92321 115.000
53.94316 131.000
53.96310 108.000
53.98305 119.000
54.00300 113.000
54.02294 104.000
54.04289 116.000
54.06284 134.000
54.08279 142.000
54.10273 135.000
54.12268 129.000
54.14263 139.000
54.16257 128.000
54.18252 143.000
54.20247 118.000
54.22241 121.000
54.24236 116.000
54.26231 135.000
54.28226 121.000
54.30220 124.000
54.32215 127.000
54.34210 126.000
54.36204 151.000
54.38199 139.000
54.40194 123.000
54.42188 122.000
54.44183 95.000
54.46178 120.000
54.48172 119.000
54.50167 129.000
54.52162 116.000
54.54157 133.000
54.56151 118.000
54.58146 114.000
54.60141 137.000
54.62135 129.000
54.64130 102.000
54.66125 139.000
54.68119 108.000
54.70114 112.000
54.72109 127.000
54.74104 125.000
54.76098 111.000
54.78093 130.000
54.80088 122.000
54.82082 100.000
54.84077 110.000
54.86072 119.000
54.88066 119.000
54.90061 111.000
54.92056 112.000
54.94050 116.000
54.96045 114.000
54.98040 133.000
55.00035 124.000
55.02029 130.000
55.04024 128.000
55.06019 138.000
55.08013 113.000
55.10008 136.000
55.12003 127.000
55.13997 113.000
55.15992 119.000
55.17987 126.000
55.19982 138.000
55.21976 102.000
55.23971 142.000
55.25966 111.000
55.27960 128.000
55.29955 106.000
55.31950 123.000
55.33944 112.000
55.35939 132.000
55.37934 115.000
55.39929 124.000
55.41923 127.000
55.43918 122.000
55.45913 105.000
55.47907 108.000
55.49902 135.000
55.51897 114.000
55.53891 123.000
55.55886 120.000
55.57881 103.000
55.59875 127.000
55.61870 129.000
55.63865 114.000
55.65860 125.000
55.67854 106.000
55.69849 117.000
55.71844 122.000
55.73838 141.000
55.75833 133.000
55.77828 113.000
55.79822 124.000
55.81817 125.000
55.83812 109.000
55.85807 128.000
55.87801 122.000
55.89796 127.000
55.91791 116.000
55.93785 115.000
55.95780 136.000
55.97775 129.000
55.99769 116.000
56.01764 113.000
56.03759 111.000
56.05753 162.000
56.07748 117.000
56.09743 116.000
56.11738 129.000
56.13732 139.000
56.15727 113.000
56.17722 113.000
56.19716 127.000
56.21711 117.000
56.23706 129.000
56.25700 99.000
56.27695 134.000
56.29690 138.000
56.31685 122.000
56.33679 150.000
56.35674 131.000
56.37669 139.000
56.39663 148.000
56.41658 134.000
56.43653 128.000
56.45647 143.000
56.47642 153.000
56.49637 192.000
56.51631 176.000
56.53626 204.000
56.55621 206.000
56.57616 208.000
56.59610 211.000
56.61605 219.000
56.63600 272.000
56.65594 291.000
56.67589 284.000
56.69584 314.000
56.71578 283.000
56.73573 296.000
56.75568 313.000
56.77563 323.000
56.79557 307.000
56.81552 277.000
56.83547 263.000
56.85541 282.000
56.87536 251.000
56.89531 279.000
56.91525 260.000
56.93520 244.000
56.95515 223.000
56.97510 237.000
56.99504 209.000
57.01499 206.000
57.03494 199.000
57.05488 206.000
57.07483 188.000
57.09478 207.000
57.11472 164.000
57.13467 160.000
57.15462 155.000
57.17456 164.000
57.19451 144.000
57.21446 157.000
57.23441 143.000
57.25435 172.000
57.27430 135.000
57.29425 135.000
57.31419 136.000
57.33414 161.000
57.35409 135.000
57.37403 144.000
57.39398 124.000
57.41393 141.000
57.43388 121.000
57.45382 125.000
57.47377 120.000
57.49372 115.000
57.51366 123.000
57.53361 155.000
57.55356 136.000
57.57350 125.000
57.59345 122.000
57.61340 133.000
57.63334 98.000
57.65329 106.000
57.67324 124.000
57.69319 129.000
57.71313 114.000
57.73308 116.000
57.75303 119.000
57.77297 122.000
57.79292 104.000
57.81287 130.000
57.83281 107.000
57.85276 122.000
57.87271 125.000
57.89266 129.000
57.91260 117.000
57.93255 119.000
57.95250 115.000
57.97244 108.000
57.99239 128.000
58.01234 131.000
58.03228 130.000
58.05223 121.000
58.07218 98.000
58.09212 107.000
58.11207 127.000
58.13202 106.000
58.15197 129.000
58.17191 106.000
58.19186 134.000
58.21181 127.000
58.23175 122.000
58.25170 121.000
58.27165 113.000
58.29159 126.000
58.31154 114.000
58.33149 123.000
58.35144 134.000
58.37138 138.000
58.39133 118.000
58.41128 139.000
58.43122 125.000
58.45117 113.000
58.47112 113.000
58.49106 139.000
58.51101 137.000
58.53096 98.000
58.55090 121.000
58.57085 124.000
58.59080 112.000
58.61075 122.000
58.63069 126.000
58.65064 123.000
58.67059 133.000
58.69053 126.000
58.71048 125.000
58.73043 121.000
58.75037 140.000
58.77032 127.000
58.79027 128.000
58.81022 135.000
58.83016 130.000
58.85011 128.000
58.87006 124.000
58.89000 127.000
58.90995 136.000
58.92990 120.000
58.94984 117.000
58.96979 119.000
58.98974 124.000
59.00969 139.000
59.02963 130.000
59.04958 153.000
59.06953 116.000
59.08947 103.000
59.10942 123.000
59.12937 124.000
59.14931 139.000
59.16926 127.000
59.18921 125.000
59.20915 136.000
59.22910 112.000
59.24905 113.000
59.26900 120.000
59.28894 139.000
59.30889 125.000
59.32884 138.000
59.34878 99.000
59.36873 132.000
59.38868 139.000
59.40862 115.000
59.42857 141.000
59.44852 118.000
59.46847 143.000
59.48841 127.000
59.50836 145.000
59.52831 135.000
59.54825 131.000
59.56820 118.000
59.58815 143.000
59.60809 120.000
59.62804 141.000
59.64799 123.000
59.66793 125.000
59.68788 135.000
59.70783 138.000
59.72778 125.000
59.74772 129.000
59.76767 136.000
59.78762 123.000
59.80756 133.000
59.82751 115.000
59.84746 146.000
59.86740 129.000
59.88735 119.000
59.90730 105.000
59.92725 115.000
59.94719 129.000
59.96714 125.000
59.98709 142.000
60.00703 105.000
60.02698 128.000
60.04693 126.000
60.06687 118.000
60.08682 147.000
60.10677 122.000
60.12671 142.000
60.14666 127.000
60.16661 127.000
60.18656 95.000
60.20650 119.000
60.22645 137.000
60.24640 122.000
60.26634 137.000
60.28629 134.000
60.30624 133.000
60.32618 124.000
60.34613 137.000
60.36608 134.000
60.38603 136.000
60.40597 122.000
60.42592 108.000
60.44587 131.000
60.46581 148.000
60.48576 112.000
60.50571 127.000
60.52565 161.000
60.54560 125.000
60.56555 127.000
60.58550 135.000
60.60544 144.000
60.62539 148.000
60.64534 130.000
60.66528 114.000
60.68523 125.000
60.70518 124.000
60.72512 120.000
60.74507 135.000
60.76502 126.000
60.78496 122.000
60.80491 116.000
60.82486 121.000
60.84481 138.000
60.86475 127.000
60.88470 116.000
60.90465 156.000
60.92459 119.000
60.94454 115.000
60.96449 115.000
60.98443 128.000
61.00438 125.000
61.02433 123.000
61.04428 124.000
61.06422 120.000
61.08417 162.000
61.10412 138.000
61.12406 134.000
61.14401 122.000
61.16396 138.000
61.18390 154.000
61.20385 153.000
61.22380 162.000
61.24374 137.000
61.26369 126.000
61.28364 143.000
61.30359 160.000
61.32353 139.000
61.34348 183.000
61.36343 182.000
61.38337 188.000
61.40332 182.000
61.42327 179.000
61.44321 212.000
61.46316 241.000
61.48311 237.000
61.50306 271.000
61.52300 254.000
61.54295 274.000
61.56290 341.000
61.58284 391.000
61.60279 396.000
61.62274 472.000
61.64268 467.000
61.66263 480.000
61.68258 464.000
61.70252 482.000
61.72247 445.000
61.74242 482.000
61.76237 463.000
61.78231 434.000
61.80226 392.000
61.82221 424.000
61.84215 391.000
61.86210 376.000
61.88205 344.000
61.90199 326.000
61.92194 273.000
61.94189 274.000
61.96184 257.000
61.98178 226.000
62.00173 216.000
62.02168 218.000
62.04162 244.000
62.06157 202.000
62.08152 210.000
62.10146 212.000
62.12141 202.000
62.14136 253.000
62.16131 290.000
62.18125 266.000
62.20120 306.000
62.22115 332.000
62.24109 355.000
62.26104 350.000
62.28099 375.000
62.30093 374.000
62.32088 429.000
62.34083 418.000
62.36077 413.000
62.38072 439.000
62.40067 463.000
62.42062 605.000
62.44056 622.000
62.46051 704.000
62.48046 775.000
62.50040 811.000
62.52035 894.000
62.54030 969.000
62.56024 985.000
62.58019 961.000
62.60014 931.000
62.62009 905.000
62.64003 815.000
62.65998 742.000
62.67993 782.000
62.69987 698.000
62.71982 701.000
62.73977 628.000
62.75971 608.000
62.77966 586.000
62.79961 495.000
62.81955 465.000
62.83950 366.000
62.85945 331.000
62.87940 292.000
62.89934 272.000
62.91929 247.000
62.93924 233.000
62.95918 210.000
62.97913 198.000
62.99908 184.000
63.01902 201.000
63.03897 180.000
63.05892 184.000
63.07887 163.000
63.09881 177.000
63.11876 150.000
63.13871 149.000
63.15865 174.000
63.17860 130.000
63.19855 164.000
63.21849 140.000
63.23844 166.000
63.25839 151.000
63.27833 127.000
63.29828 171.000
63.31823 141.000
63.33818 136.000
63.35812 128.000
63.37807 134.000
63.39802 128.000
63.41796 142.000
63.43791 123.000
63.45786 126.000
63.47780 129.000
63.49775 139.000
63.51770 143.000
63.53765 143.000
63.55759 118.000
63.57754 146.000
63.59749 128.000
63.61743 141.000
63.63738 111.000
63.65733 131.000
63.67727 141.000
63.69722 148.000
63.71717 120.000
63.73712 140.000
63.75706 137.000
63.77701 137.000
63.79696 134.000
63.81690 128.000
63.83685 137.000
63.85680 143.000
63.87674 147.000
63.89669 142.000
63.91664 135.000
63.93658 137.000
63.95653 138.000
63.97648 157.000
63.99643 146.000
64.01637 124.000
64.03632 152.000
64.05627 152.000
64.07621 150.000
64.09616 162.000
64.11611 150.000
64.13605 167.000
64.15600 178.000
64.17595 193.000
64.19590 190.000
64.21584 204.000
64.23579 206.000
64.25574 233.000
64.27568 288.000
64.29563 281.000
64.31558 335.000
64.33552 344.000
64.35547 419.000
64.37542 409.000
64.39536 447.000
64.41531 427.000
64.43526 424.000
64.45521 452.000
64.47515 401.000
64.49510 382.000
64.51505 383.000
64.53499 373.000
64.55494 321.000
64.57489 324.000
64.59483 352.000
64.61478 291.000
64.63473 293.000
64.65468 266.000
64.67462 220.000
64.69457 222.000
64.71452 186.000
64.73446 175.000
64.75441 173.000
64.77436 162.000
64.79430 154.000
64.81425 138.000
64.83420 147.000
64.85414 142.000
64.87409 164.000
64.89404 145.000
64.91399 109.000
64.93393 142.000
64.95388 157.000
64.97383 136.000
64.99377 136.000
65.01372 139.000
65.03367 108.000
65.05361 141.000
65.07356 138.000
65.09351 141.000
65.11346 114.000
65.13340 119.000
65.15335 144.000
65.17330 159.000
65.19324 138.000
65.21319 134.000
65.23314 130.000
65.25308 117.000
65.27303 120.000
65.29298 145.000
65.31293 138.000
65.33287 144.000
65.35282 144.000
65.37277 118.000
65.39271 143.000
65.41266 144.000
65.43261 140.000
65.45255 154.000
65.47250 148.000
65.49245 141.000
65.51239 149.000
65.53234 138.000
65.55229 148.000
65.57224 125.000
65.59218 132.000
65.61213 153.000
65.63208 121.000
65.65202 131.000
65.67197 127.000
65.69192 142.000
65.71186 127.000
65.73181 144.000
65.75176 130.000
65.77171 140.000
65.79165 137.000
65.81160 132.000
65.83155 136.000
65.85149 139.000
65.87144 143.000
65.89139 130.000
65.91133 138.000
65.93128 138.000
65.95123 131.000
65.97117 113.000
65.99112 134.000
66.01107 123.000
66.03102 132.000
66.05096 141.000
66.07091 140.000
66.09086 156.000
66.11080 135.000
66.13075 141.000
66.15070 150.000
66.17064 168.000
66.19059 145.000
66.21054 163.000
66.23049 193.000
66.25043 152.000
66.27038 181.000
66.29033 206.000
66.31027 151.000
66.33022 164.000
66.35017 165.000
66.37011 182.000
66.39006 175.000
66.41001 192.000
66.42995 166.000
66.44990 184.000
66.46985 194.000
66.48980 180.000
66.50974 180.000
66.52969 184.000
66.54964 210.000
66.56958 211.000
66.58953 193.000
66.60948 201.000
66.62942 228.000
66.64937 224.000
66.66932 260.000
66.68927 296.000
66.70921 326.000
66.72916 327.000
66.74911 370.000
66.76905 328.000
66.78900 367.000
66.80895 379.000
66.82889 378.000
66.84884 338.000
66.86879 259.000
66.88874 310.000
66.90868 258.000
66.92863 266.000
66.94858 256.000
66.96852 227.000
66.98847 226.000
67.00842 233.000
67.02836 230.000
67.04831 219.000
67.06826 203.000
67.08820 167.000
67.10815 144.000
67.12810 124.000
67.14805 131.000
67.16799 161.000
67.18794 133.000
67.20789 139.000
67.22783 146.000
67.24778 132.000
67.26773 157.000
67.28767 135.000
67.30762 147.000
67.32757 126.000
67.34752 124.000
67.36746 137.000
67.38741 133.000
67.40736 120.000
67.42730 128.000
67.44725 139.000
67.46720 123.000
67.48714 122.000
67.50709 160.000
67.52704 119.000
67.54698 130.000
67.56693 105.000
67.58688 143.000
67.60683 116.000
67.62677 130.000
67.64672 133.000
67.66667 116.000
67.68661 130.000
67.70656 131.000
67.72651 105.000
67.74645 127.000
67.76640 136.000
67.78635 120.000
67.80630 127.000
67.82624 128.000
67.84619 133.000
67.86614 102.000
67.88608 138.000
67.90603 103.000
67.92598 118.000
67.94592 115.000
67.96587 134.000
67.98582 112.000
68.00576 126.000
68.02571 136.000
68.04566 103.000
68.06561 132.000
68.08555 93.000
68.10550 124.000
68.12545 104.000
68.14539 132.000
68.16534 123.000
68.18529 118.000
68.20523 115.000
68.22518 136.000
68.24513 115.000
68.26508 107.000
68.28502 103.000
68.30497 114.000
68.32492 131.000
68.34486 107.000
68.36481 120.000
68.38476 127.000
68.40470 104.000
68.42465 109.000
68.44460 145.000
68.46455 131.000
68.48449 125.000
68.50444 131.000
68.52439 101.000
68.54433 105.000
68.56428 104.000
68.58423 111.000
68.60417 118.000
68.62412 125.000
68.64407 117.000
68.66401 111.000
68.68396 136.000
68.70391 117.000
68.72386 126.000
68.74380 112.000
68.76375 94.000
68.78370 107.000
68.80364 108.000
68.82359 107.000
68.84354 122.000
68.86348 106.000
68.88343 119.000
68.90338 116.000
68.92333 125.000
68.94327 110.000
68.96322 116.000
68.98317 121.000
69.00311 113.000
69.02306 122.000
69.04301 134.000
69.06295 121.000
69.08290 119.000
69.10285 115.000
69.12279 122.000
69.14274 94.000
69.16269 117.000
69.18264 107.000
69.20258 129.000
69.22253 127.000
69.24248 100.000
69.26242 110.000
69.28237 130.000
69.30232 135.000
69.32226 118.000
69.34221 136.000
69.36216 151.000
69.38211 129.000
69.40205 150.000
69.42200 131.000
69.44195 131.000
69.46189 135.000
69.48184 101.000
69.50179 131.000
69.52173 139.000
69.54168 130.000
69.56163 109.000
69.58157 102.000
69.60152 125.000
69.62147 110.000
69.64142 122.000
69.66136 111.000
69.68131 117.000
69.70126 115.000
69.72120 119.000
69.74115 135.000
69.76110 120.000
69.78104 103.000
69.80099 120.000
69.82094 107.000
69.84089 110.000
69.86083 144.000
69.88078 115.000
69.90073 107.000
69.92067 124.000
69.94062 114.000
69.96057 113.000
69.98051 119.000
70.00046 104.000
70.02041 129.000
70.04035 120.000
70.06030 99.000
70.08025 108.000
70.10020 105.000
70.12014 98.000
70.14009 128.000
70.16004 125.000
70.17998 108.000
70.19993 107.000
70.21988 139.000
70.23982 108.000
70.25977 135.000
70.27972 129.000
70.29967 101.000
70.31961 136.000
70.33956 112.000
70.35951 114.000
70.37945 112.000
70.39940 122.000
70.41935 114.000
70.43929 140.000
70.45924 111.000
70.47919 145.000
70.49914 127.000
70.51908 108.000
70.53903 106.000
70.55898 132.000
70.57892 132.000
70.59887 120.000
70.61882 97.000
70.63876 116.000
70.65871 133.000
70.67866 123.000
70.69860 104.000
70.71855 119.000
70.73850 140.000
70.75845 110.000
70.77839 131.000
70.79834 115.000
70.81829 125.000
70.83823 103.000
70.85818 115.000
70.87813 111.000
70.89807 105.000
70.91802 121.000
70.93797 122.000
70.95792 136.000
70.97786 121.000
70.99781 114.000
71.01776 121.000
71.03770 118.000
71.05765 146.000
71.07760 108.000
71.09754 102.000
71.11749 119.000
71.13744 119.000
71.15738 101.000
71.17733 112.000
71.19728 110.000
71.21723 117.000
71.23717 121.000
71.25712 125.000
71.27707 136.000
71.29701 113.000
71.31696 120.000
71.33691 115.000
71.35685 131.000
71.37680 132.000
71.39675 118.000
71.41670 110.000
71.43664 122.000
71.45659 110.000
71.47654 108.000
71.49648 101.000
71.51643 108.000
71.53638 118.000
71.55632 116.000
71.57627 121.000
71.59622 120.000
71.61616 120.000
71.63611 130.000
71.65606 123.000
71.67601 113.000
71.69595 108.000
71.71590 114.000
71.73585 125.000
71.75579 106.000
71.77574 124.000
71.79569 142.000
71.81563 116.000
71.83558 114.000
71.85553 101.000
71.87548 115.000
71.89542 114.000
71.91537 117.000
71.93532 109.000
71.95526 122.000
71.97521 109.000
71.99516 124.000
72.01510 119.000
72.03505 107.000
72.05500 121.000
72.07495 127.000
72.09489 109.000
72.11484 134.000
72.13479 111.000
72.15473 124.000
72.17468 98.000
72.19463 113.000
72.21457 118.000
72.23452 120.000
72.25447 135.000
72.27441 112.000
72.29436 130.000
72.31431 111.000
72.33426 124.000
72.35420 143.000
72.37415 112.000
72.39410 116.000
72.41404 116.000
72.43399 91.000
72.45394 107.000
72.47388 113.000
72.49383 104.000
72.51378 124.000
72.53373 120.000
72.55367 136.000
72.57362 110.000
72.59357 152.000
72.61351 106.000
72.63346 135.000
72.65341 112.000
72.67335 110.000
72.69330 122.000
72.71325 110.000
72.73319 98.000
72.75314 125.000
72.77309 116.000
72.79304 124.000
72.81298 100.000
72.83293 110.000
72.85288 108.000
72.87282 128.000
72.89277 113.000
72.91272 108.000
72.93266 111.000
72.95261 118.000
72.97256 122.000
72.99251 107.000
73.01245 122.000
73.03240 142.000
73.05235 155.000
73.07229 127.000
73.09224 139.000
73.11219 127.000
73.13213 119.000
73.15208 121.000
73.17203 122.000
73.19197 121.000
73.21192 123.000
73.23187 106.000
73.25182 131.000
73.27176 109.000
73.29171 131.000
73.31166 129.000
73.33160 108.000
73.35155 143.000
73.37150 167.000
73.39144 133.000
73.41139 141.000
73.43134 140.000
73.45129 144.000
73.47123 150.000
73.49118 156.000
73.51113 148.000
73.53107 144.000
73.55102 173.000
73.57097 195.000
73.59091 209.000
73.61086 197.000
73.63081 215.000
73.65076 204.000
73.67070 261.000
73.69065 260.000
73.71060 260.000
73.73054 210.000
73.75049 205.000
73.77044 203.000
73.79038 206.000
73.81033 219.000
73.83028 206.000
73.85022 195.000
73.87017 216.000
73.89012 219.000
73.91007 220.000
73.93001 191.000
73.94996 186.000
73.96991 154.000
73.98985 167.000
74.00980 169.000
74.02975 159.000
74.04969 147.000
74.06964 147.000
74.08959 150.000
74.10954 135.000
74.12948 145.000
74.14943 137.000
74.16938 148.000
74.18932 141.000
74.20927 133.000
74.22922 124.000
74.24916 156.000
74.26911 122.000
74.28906 144.000
74.30900 119.000
74.32895 115.000
74.34890 118.000
74.36885 124.000
74.38879 125.000
74.40874 148.000
74.42869 111.000
74.44863 101.000
74.46858 131.000
74.48853 125.000
74.50847 118.000
74.52842 139.000
74.54837 131.000
74.56832 137.000
74.58826 138.000
74.60821 150.000
74.62816 151.000
74.64810 145.000
74.66805 128.000
74.68800 136.000
74.70794 132.000
74.72789 135.000
74.74784 141.000
74.76778 157.000
74.78773 184.000
74.80768 159.000
74.82763 159.000
74.84757 174.000
74.86752 177.000
74.88747 182.000
74.90741 174.000
74.92736 178.000
74.94731 216.000
74.96725 215.000
74.98720 239.000
75.00715 245.000
75.02710 281.000
75.04704 318.000
75.06699 352.000
75.08694 336.000
75.10688 376.000
75.12683 355.000
75.14678 338.000
75.16672 322.000
75.18667 321.000
75.20662 295.000
75.22657 325.000
75.24651 273.000
75.26646 259.000
75.28641 264.000
75.30635 294.000
75.32630 305.000
75.34625 262.000
75.36619 248.000
75.38614 265.000
75.40609 235.000
75.42603 235.000
75.44598 169.000
75.46593 154.000
75.48588 145.000
75.50582 151.000
75.52577 159.000
75.54572 141.000
75.56566 143.000
75.58561 138.000
75.60556 139.000
75.62550 132.000
75.64545 124.000
75.66540 133.000
75.68535 150.000
75.70529 133.000
75.72524 116.000
75.74519 136.000
75.76513 122.000
75.78508 120.000
75.80503 136.000
75.82497 139.000
75.84492 132.000
75.86487 124.000
75.88481 121.000
75.90476 144.000
75.92471 137.000
75.94466 134.000
75.96460 141.000
75.98455 142.000
76.00450 146.000
76.02444 142.000
76.04439 166.000
76.06434 158.000
76.08428 148.000
76.10423 135.000
76.12418 133.000
76.14413 143.000
76.16407 141.000
76.18402 136.000
76.20397 153.000
76.22391 125.000
76.24386 134.000
76.26381 139.000
76.28375 126.000
76.30370 134.000
76.32365 142.000
76.34359 129.000
76.36354 124.000
76.38349 138.000
76.40344 120.000
76.42338 114.000
76.44333 134.000
76.46328 138.000
76.48322 127.000
76.50317 120.000
76.52312 119.000
76.54306 117.000
76.56301 115.000
76.58296 138.000
76.60291 113.000
76.62285 133.000
76.64280 130.000
76.66275 116.000
76.68269 130.000
76.70264 124.000
76.72259 113.000
76.74253 105.000
76.76248 118.000
76.78243 135.000
76.80238 135.000
76.82232 106.000
76.84227 126.000
76.86222 129.000
76.88216 133.000
76.90211 123.000
76.92206 124.000
76.94200 136.000
76.96195 118.000
76.98190 118.000
77.00184 117.000
77.02179 113.000
77.04174 131.000
77.06169 123.000
77.08163 106.000
77.10158 122.000
77.12153 108.000
77.14147 121.000
77.16142 120.000
77.18137 105.000
77.20131 119.000
77.22126 120.000
77.24121 105.000
77.26116 113.000
77.28110 104.000
77.30105 124.000
77.32100 112.000
77.34094 127.000
77.36089 113.000
77.38084 123.000
77.40078 138.000
77.42073 127.000
77.44068 111.000
77.46062 126.000
77.48057 124.000
77.50052 113.000
77.52047 127.000
77.54041 126.000
77.56036 148.000
77.58031 145.000
77.60025 143.000
77.62020 137.000
77.64015 180.000
77.66009 164.000
77.68004 158.000
77.69999 172.000
77.71994 192.000
77.73988 195.000
77.75983 174.000
77.77978 212.000
77.79972 215.000
77.81967 212.000
77.83962 207.000
77.85956 215.000
77.87951 226.000
77.89946 200.000
77.91940 214.000
77.93935 192.000
77.95930 221.000
77.97925 198.000
77.99919 188.000
78.01914 218.000
78.03909 220.000
78.05903 197.000
78.07898 179.000
78.09893 206.000
78.11887 237.000
78.13882 214.000
78.15877 218.000
78.17872 230.000
78.19866 228.000
78.21861 216.000
78.23856 228.000
78.25850 198.000
78.27845 213.000
78.29840 222.000
78.31834 211.000
78.33829 196.000
78.35824 216.000
78.37819 176.000
78.39813 182.000
78.41808 189.000
78.43803 175.000
78.45797 179.000
78.47792 147.000
78.49787 185.000
78.51781 165.000
78.53776 154.000
78.55771 173.000
78.57765 157.000
78.59760 156.000
78.61755 147.000
78.63750 145.000
78.65744 120.000
78.67739 124.000
78.69734 140.000
78.71728 134.000
78.73723 163.000
78.75718 136.000
78.77712 161.000
78.79707 152.000
78.81702 156.000
78.83697 125.000
78.85691 134.000
78.87686 157.000
78.89681 140.000
78.91675 187.000
78.93670 166.000
78.95665 172.000
78.97659 195.000
78.99654 239.000
79.01649 253.000
79.03643 278.000
79.05638 278.000
79.07633 303.000
79.09628 324.000
79.11622 314.000
79.13617 276.000
79.15612 300.000
79.17606 275.000
79.19601 249.000
79.21596 275.000
79.23590 247.000
79.25585 225.000
79.27580 217.000
79.29575 227.000
79.31569 240.000
79.33564 234.000
79.35559 207.000
79.37553 194.000
79.39548 200.000
79.41543 198.000
79.43537 178.000
79.45532 161.000
79.47527 185.000
79.49521 178.000
79.51516 152.000
79.53511 166.000
79.55506 142.000
79.57500 130.000
79.59495 131.000
79.61490 127.000
79.63484 110.000
79.65479 137.000
79.67474 112.000
79.69468 117.000
79.71463 105.000
79.73458 112.000
79.75453 120.000
79.77447 115.000
79.79442 126.000
79.81437 127.000
79.83431 120.000
79.85426 139.000
79.87421 132.000
79.89415 119.000
79.91410 113.000
79.93405 111.000
79.95399 120.000
79.97394 134.000
79.99389 124.000
80.01384 114.000
80.03378 109.000
80.05373 114.000
80.07368 109.000
80.09362 93.000
80.11357 120.000
80.13352 121.000
80.15346 133.000
80.17341 118.000
80.19336 107.000
80.21331 122.000
80.23325 108.000
80.25320 106.000
80.27315 117.000
80.29309 125.000
80.31304 110.000
80.33299 96.000
80.35293 134.000
80.37288 94.000
80.39283 109.000
80.41278 111.000
80.43272 124.000
80.45267 100.000
80.47262 92.000
80.49256 107.000
80.51251 95.000
80.53246 112.000
80.55240 119.000
80.57235 102.000
80.59230 114.000
80.61224 119.000
80.63219 120.000
80.65214 102.000
80.67209 117.000
80.69203 126.000
80.71198 114.000
80.73193 115.000
80.75187 109.000
80.77182 101.000
80.79177 123.000
80.81171 112.000
80.83166 110.000
80.85161 132.000
80.87156 109.000
80.89150 110.000
80.91145 95.000
80.93140 127.000
80.95134 130.000
80.97129 127.000
80.99124 121.000
81.01118 130.000
81.03113 128.000
81.05108 138.000
81.07102 124.000
81.09097 119.000
81.11092 121.000
81.13087 106.000
81.15081 110.000
81.17076 111.000
81.19071 134.000
81.21065 119.000
81.23060 140.000
81.25055 126.000
81.27049 119.000
81.29044 118.000
81.31039 129.000
81.33034 126.000
81.35028 99.000
81.37023 113.000
81.39018 118.000
81.41012 121.000
81.43007 99.000
81.45002 130.000
81.46996 106.000
81.48991 105.000
81.50986 106.000
81.52980 119.000
81.54975 106.000
81.56970 136.000
81.58965 116.000
81.60959 110.000
81.62954 122.000
81.64949 117.000
81.66943 125.000
81.68938 104.000
81.70933 111.000
81.72927 124.000
81.74922 114.000
81.76917 120.000
81.78912 106.000
81.80906 123.000
81.82901 112.000
81.84896 108.000
81.86890 119.000
81.88885 107.000
81.90880 128.000
81.92874 103.000
81.94869 117.000
81.96864 113.000
81.98859 115.000
82.00853 114.000
82.02848 126.000
82.04843 129.000
82.06837 114.000
82.08832 123.000
82.10827 109.000
82.12821 107.000
82.14816 125.000
82.16811 104.000
82.18805 125.000
82.20800 136.000
82.22795 109.000
82.24790 132.000
82.26784 119.000
82.28779 139.000
82.30774 130.000
82.32768 125.000
82.34763 101.000
82.36758 141.000
82.38752 127.000
82.40747 118.000
82.42742 115.000
82.44737 95.000
82.46731 121.000
82.48726 99.000
82.50721 105.000
82.52715 111.000
82.54710 122.000
82.56705 102.000
82.58699 125.000
82.60694 111.000
82.62689 115.000
82.64683 130.000
82.66678 132.000
82.68673 102.000
82.70668 118.000
82.72662 121.000
82.74657 105.000
82.76652 110.000
82.78646 102.000
82.80641 121.000
82.82636 116.000
82.84630 99.000
82.86625 114.000
82.88620 109.000
82.90615 136.000
82.92609 116.000
82.94604 117.000
82.96599 114.000
82.98593 128.000
83.00588 105.000
83.02583 121.000
83.04577 113.000
83.06572 88.000
83.08567 120.000
83.10561 116.000
83.12556 120.000
83.14551 93.000
83.16546 123.000
83.18540 109.000
83.20535 102.000
83.22530 101.000
83.24524 104.000
83.26519 104.000
83.28514 110.000
83.30508 116.000
83.32503 112.000
83.34498 107.000
83.36493 100.000
83.38487 115.000
83.40482 109.000
83.42477 113.000
83.44471 104.000
83.46466 108.000
83.48461 124.000
83.50455 119.000
83.52450 98.000
83.54445 121.000
83.56440 129.000
83.58434 119.000
83.60429 122.000
83.62424 100.000
83.64418 109.000
83.66413 117.000
83.68408 110.000
83.70402 114.000
83.72397 98.000
83.74392 154.000
83.76386 123.000
83.78381 90.000
83.80376 107.000
83.82371 110.000
83.84365 121.000
83.86360 121.000
83.88355 109.000
83.90349 121.000
83.92344 111.000
83.94339 143.000
83.96333 117.000
83.98328 97.000
84.00323 90.000
84.02318 143.000
84.04312 132.000
84.06307 102.000
84.08302 113.000
84.10296 105.000
84.12291 131.000
84.14286 117.000
84.16280 139.000
84.18275 116.000
84.20270 130.000
84.22264 91.000
84.24259 118.000
84.26254 107.000
84.28249 111.000
84.30243 118.000
84.32238 106.000
84.34233 119.000
84.36227 110.000
84.38222 107.000
84.40217 135.000
84.42211 123.000
84.44206 119.000
84.46201 120.000
84.48196 125.000
84.50190 122.000
84.52185 134.000
84.54180 148.000
84.56174 117.000
84.58169 134.000
84.60164 131.000
84.62158 145.000
84.64153 147.000
84.66148 141.000
84.68142 177.000
84.70137 161.000
84.72132 183.000
84.74127 191.000
84.76121 210.000
84.78116 195.000
84.80111 227.000
84.82105 240.000
84.84100 230.000
84.86095 221.000
84.88089 216.000
84.90084 193.000
84.92079 214.000
84.94074 174.000
84.96068 175.000
84.98063 175.000
85.00058 175.000
85.02052 172.000
85.04047 174.000
85.06042 187.000
85.08036 168.000
85.10031 149.000
85.12026 182.000
85.14021 175.000
85.16015 167.000
85.18010 139.000
85.20005 125.000
85.21999 126.000
85.23994 146.000
85.25989 122.000
85.27983 121.000
85.29978 117.000
85.31973 139.000
85.33967 113.000
85.35962 117.000
85.37957 121.000
85.39952 114.000
85.41946 112.000
85.43941 111.000
85.45936 100.000
85.47930 111.000
85.49925 126.000
85.51920 131.000
85.53914 131.000
85.55909 110.000
85.57904 122.000
85.59899 116.000
85.61893 119.000
85.63888 120.000
85.65883 110.000
85.67877 122.000
85.69872 121.000
85.71867 113.000
85.73861 104.000
85.75856 108.000
85.77851 102.000
85.79845 105.000
85.81840 116.000
85.83835 117.000
85.85830 122.000
85.87824 121.000
85.89819 90.000
85.91814 112.000
85.93808 120.000
85.95803 113.000
85.97798 125.000
85.99792 100.000
86.01787 98.000
86.03782 126.000
86.05777 118.000
86.07771 96.000
86.09766 129.000
86.11761 119.000
86.13755 98.000
86.15750 129.000
86.17745 112.000
86.19739 127.000
86.21734 121.000
86.23729 126.000
86.25723 145.000
86.27718 138.000
86.29713 116.000
86.31708 105.000
86.33702 130.000
86.35697 127.000
86.37692 139.000
86.39686 149.000
86.41681 123.000
86.43676 123.000
86.45670 132.000
86.47665 136.000
86.49660 122.000
86.51655 156.000
86.53649 118.000
86.55644 130.000
86.57639 137.000
86.59633 144.000
86.61628 131.000
86.63623 115.000
86.65617 129.000
86.67612 158.000
86.69607 140.000
86.71602 137.000
86.73596 128.000
86.75591 136.000
86.77586 117.000
86.79580 129.000
86.81575 122.000
86.83570 116.000
86.85564 120.000
86.87559 134.000
86.89554 139.000
86.91548 136.000
86.93543 120.000
86.95538 145.000
86.97533 121.000
86.99527 136.000
87.01522 137.000
87.03517 117.000
87.05511 134.000
87.07506 105.000
87.09501 132.000
87.11495 127.000
87.13490 121.000
87.15485 138.000
87.17480 121.000
87.19474 133.000
87.21469 125.000
87.23464 130.000
87.25458 138.000
87.27453 127.000
87.29448 123.000
87.31442 120.000
87.33437 99.000
87.35432 129.000
87.37426 112.000
87.39421 128.000
87.41416 116.000
87.43411 133.000
87.45405 107.000
87.47400 96.000
87.49395 126.000
87.51389 121.000
87.53384 105.000
87.55379 108.000
87.57373 110.000
87.59368 109.000
87.61363 133.000
87.63358 108.000
87.65352 125.000
87.67347 100.000
87.69342 112.000
87.71336 119.000
87.73331 113.000
87.75326 121.000
87.77320 107.000
87.79315 121.000
87.81310 111.000
87.83304 121.000
87.85299 120.000
87.87294 100.000
87.89289 121.000
87.91283 130.000
87.93278 122.000
87.95273 113.000
87.97267 124.000
87.99262 116.000
88.01257 115.000
88.03251 124.000
88.05246 105.000
88.07241 92.000
88.09236 116.000
88.11230 99.000
88.13225 97.000
88.15220 116.000
88.17214 119.000
88.19209 107.000
88.21204 127.000
88.23198 103.000
88.25193 133.000
88.27188 112.000
88.29183 107.000
88.31177 121.000
88.33172 107.000
88.35167 98.000
88.37161 116.000
88.39156 117.000
88.41151 115.000
88.43145 104.000
88.45140 113.000
88.47135 97.000
88.49129 109.000
88.51124 118.000
88.53119 92.000
88.55114 132.000
88.57108 111.000
88.59103 123.000
88.61098 122.000
88.63092 120.000
88.65087 135.000
88.67082 117.000
88.69076 103.000
88.71071 104.000
88.73066 112.000
88.75061 99.000
88.77055 106.000
88.79050 110.000
88.81045 113.000
88.83039 122.000
88.85034 117.000
88.87029 113.000
88.89023 129.000
88.91018 128.000
88.93013 129.000
88.95007 112.000
88.97002 114.000
88.98997 113.000
89.00992 102.000
89.02986 115.000
89.04981 116.000
89.06976 129.000
89.08970 89.000
89.10965 119.000
89.12960 111.000
89.14954 122.000
89.16949 117.000
89.18944 127.000
89.20939 127.000
89.22933 112.000
89.24928 117.000
89.26923 141.000
89.28917 119.000
89.30912 147.000
89.32907 134.000
89.34901 126.000
89.36896 150.000
89.38891 159.000
89.40885 161.000
89.42880 145.000
89.44875 156.000
89.46870 160.000
89.48864 142.000
89.50859 137.000
89.52854 150.000
89.54848 157.000
89.56843 158.000
89.58838 180.000
89.60832 130.000
89.62827 165.000
89.64822 156.000
89.66817 152.000
89.68811 153.000
89.70806 150.000
89.72801 159.000
89.74795 147.000
89.76790 125.000
89.78785 127.000
89.80779 142.000
89.82774 152.000
89.84769 142.000
89.86764 117.000
89.88758 116.000
89.90753 133.000
89.92748 110.000
89.94742 135.000
89.96737 149.000
89.98732 115.000
90.00726 140.000
