10.00000 93.000
10.01995 76.000
10.03989 91.000
10.05984 91.000
10.07979 108.000
10.09973 88.000
10.11968 115.000
10.13963 89.000
10.15958 87.000
10.17952 87.000
10.19947 102.000
10.21942 78.000
10.23936 94.000
10.25931 98.000
10.27926 97.000
10.29920 90.000
10.31915 103.000
10.33910 102.000
10.35905 85.000
10.37899 95.000
10.39894 110.000
10.41889 96.000
10.43883 103.000
10.45878 106.000
10.47873 79.000
10.49867 96.000
10.51862 92.000
10.53857 81.000
10.55851 87.000
10.57846 98.000
10.59841 98.000
10.61836 92.000
10.63830 90.000
10.65825 90.000
10.67820 116.000
10.69814 106.000
10.71809 108.000
10.73804 123.000
10.75798 96.000
10.77793 120.000
10.79788 98.000
10.81783 89.000
10.83777 100.000
10.85772 109.000
10.87767 78.000
10.89761 96.000
10.91756 98.000
10.93751 88.000
10.95745 94.000
10.97740 104.000
10.99735 108.000
11.01730 99.000
11.03724 101.000
11.05719 110.000
11.07714 113.000
11.09708 102.000
11.11703 115.000
11.13698 122.000
11.15692 108.000
11.17687 121.000
11.19682 97.000
11.21676 106.000
11.23671 126.000
11.25666 107.000
11.27661 106.000
11.29655 107.000
11.31650 110.000
11.33645 112.000
11.35639 103.000
11.37634 108.000
11.39629 99.000
11.41623 90.000
11.43618 104.000
11.45613 86.000
11.47608 102.000
11.49602 96.000
11.51597 114.000
11.53592 98.000
11.55586 117.000
11.57581 105.000
11.59576 109.000
11.61570 108.000
11.63565 121.000
11.65560 102.000
11.67554 91.000
11.69549 108.000
11.71544 107.000
11.73539 133.000
11.75533 97.000
11.77528 123.000
11.79523 111.000
11.81517 101.000
11.83512 112.000
11.85507 95.000
11.87501 131.000
11.89496 126.000
11.91491 102.000
11.93486 119.000
11.95480 103.000
11.97475 95.000
11.99470 112.000
12.01464 107.000
12.03459 120.000
12.05454 137.000
12.07448 124.000
12.09443 106.000
12.11438 113.000
12.13432 122.000
12.15427 123.000
12.17422 125.000
12.19417 110.000
12.21411 96.000
12.23406 129.000
12.25401 129.000
12.27395 108.000
12.29390 120.000
12.31385 122.000
12.33379 110.000
12.35374 123.000
12.37369 118.000
12.39364 118.000
12.41358 102.000
12.43353 124.000
12.45348 128.000
12.47342 118.000
12.49337 114.000
12.51332 138.000
12.53326 127.000
12.55321 113.000
12.57316 119.000
12.59311 132.000
12.61305 125.000
12.63300 123.000
12.65295 120.000
12.67289 118.000
12.69284 146.000
12.71279 121.000
12.73273 124.000
12.75268 110.000
12.77263 135.000
12.79257 126.000
12.81252 120.000
12.83247 113.000
12.85242 131.000
12.87236 152.000
12.89231 143.000
12.91226 112.000
12.93220 128.000
12.95215 114.000
12.97210 118.000
12.99204 133.000
13.01199 125.000
13.03194 122.000
13.05189 128.000
13.07183 132.000
13.09178 139.000
13.11173 147.000
13.13167 155.000
13.15162 144.000
13.17157 136.000
13.19151 130.000
13.21146 123.000
13.23141 148.000
13.25135 130.000
13.27130 118.000
13.29125 132.000
13.31120 126.000
13.33114 130.000
13.35109 136.000
13.37104 146.000
13.39098 123.000
13.41093 155.000
13.43088 142.000
13.45082 154.000
13.47077 119.000
13.49072 134.000
13.51067 126.000
13.53061 129.000
13.55056 147.000
13.57051 127.000
13.59045 151.000
13.61040 142.000
13.63035 127.000
13.65029 145.000
13.67024 129.000
13.69019 117.000
13.71013 134.000
13.73008 134.000
13.75003 136.000
13.76998 140.000
13.78992 131.000
13.80987 141.000
13.82982 138.000
13.84976 149.000
13.86971 140.000
13.88966 134.000
13.90960 139.000
13.92955 156.000
13.94950 141.000
13.96945 152.000
13.98939 135.000
14.00934 117.000
14.02929 140.000
14.04923 121.000
14.06918 128.000
14.08913 137.000
14.10907 135.000
14.12902 143.000
14.14897 137.000
14.16892 160.000
14.18886 157.000
14.20881 138.000
14.22876 141.000
14.24870 125.000
14.26865 132.000
14.28860 143.000
14.30854 145.000
14.32849 149.000
14.34844 147.000
14.36838 146.000
14.38833 171.000
14.40828 132.000
14.42823 165.000
14.44817 141.000
14.46812 156.000
14.48807 135.000
14.50801 156.000
14.52796 153.000
14.54791 144.000
14.56785 158.000
14.58780 154.000
14.60775 181.000
14.62770 151.000
14.64764 144.000
14.66759 157.000
14.68754 169.000
14.70748 134.000
14.72743 128.000
14.74738 146.000
14.76732 161.000
14.78727 137.000
14.80722 169.000
14.82716 140.000
14.84711 175.000
14.86706 176.000
14.88701 135.000
14.90695 136.000
14.92690 154.000
14.94685 152.000
14.96679 150.000
14.98674 173.000
15.00669 166.000
15.02663 147.000
15.04658 157.000
15.06653 168.000
15.08648 172.000
15.10642 132.000
15.12637 170.000
15.14632 164.000
15.16626 159.000
15.18621 140.000
15.20616 165.000
15.22610 157.000
15.24605 157.000
15.26600 145.000
15.28594 187.000
15.30589 168.000
15.32584 164.000
15.34579 152.000
15.36573 146.000
15.38568 177.000
15.40563 185.000
15.42557 163.000
15.44552 156.000
15.46547 184.000
15.48541 177.000
15.50536 160.000
15.52531 182.000
15.54526 174.000
15.56520 169.000
15.58515 180.000
15.60510 194.000
15.62504 152.000
15.64499 182.000
15.66494 165.000
15.68488 166.000
15.70483 190.000
15.72478 188.000
15.74472 180.000
15.76467 171.000
15.78462 166.000
15.80457 181.000
15.82451 173.000
15.84446 163.000
15.86441 172.000
15.88435 179.000
15.90430 157.000
15.92425 199.000
15.94419 193.000
15.96414 176.000
15.98409 186.000
16.00404 187.000
16.02398 192.000
16.04393 202.000
16.06388 199.000
16.08382 197.000
16.10377 181.000
16.12372 176.000
16.14366 195.000
16.16361 190.000
16.18356 203.000
16.20351 193.000
16.22345 207.000
16.24340 186.000
16.26335 185.000
16.28329 187.000
16.30324 221.000
16.32319 209.000
16.34313 203.000
16.36308 199.000
16.38303 211.000
16.40297 209.000
16.42292 207.000
16.44287 233.000
16.46282 200.000
16.48276 220.000
16.50271 207.000
16.52266 207.000
16.54260 220.000
16.56255 207.000
16.58250 216.000
16.60244 205.000
16.62239 217.000
16.64234 233.000
16.66229 230.000
16.68223 211.000
16.70218 240.000
16.72213 216.000
16.74207 234.000
16.76202 250.000
16.78197 234.000
16.80191 234.000
16.82186 210.000
16.84181 217.000
16.86175 212.000
16.88170 241.000
16.90165 251.000
16.92160 234.000
16.94154 260.000
16.96149 237.000
16.98144 254.000
17.00138 241.000
17.02133 257.000
17.04128 264.000
17.06122 264.000
17.08117 271.000
17.10112 300.000
17.12107 227.000
17.14101 258.000
17.16096 250.000
17.18091 251.000
17.20085 267.000
17.22080 227.000
17.24075 275.000
17.26069 272.000
17.28064 278.000
17.30059 248.000
17.32053 266.000
17.34048 293.000
17.36043 282.000
17.38038 242.000
17.40032 290.000
17.42027 281.000
17.44022 264.000
17.46016 272.000
17.48011 255.000
17.50006 279.000
17.52000 258.000
17.53995 313.000
17.55990 290.000
17.57985 280.000
17.59979 264.000
17.61974 307.000
17.63969 261.000
17.65963 299.000
17.67958 285.000
17.69953 272.000
17.71947 279.000
17.73942 284.000
17.75937 277.000
17.77932 292.000
17.79926 298.000
17.81921 286.000
17.83916 298.000
17.85910 306.000
17.87905 307.000
17.89900 303.000
17.91894 266.000
17.93889 323.000
17.95884 318.000
17.97878 347.000
17.99873 324.000
18.01868 299.000
18.03863 304.000
18.05857 305.000
18.07852 333.000
18.09847 309.000
18.11841 335.000
18.13836 380.000
18.15831 363.000
18.17825 326.000
18.19820 323.000
18.21815 317.000
18.23810 330.000
18.25804 336.000
18.27799 351.000
18.29794 318.000
18.31788 343.000
18.33783 343.000
18.35778 327.000
18.37772 333.000
18.39767 340.000
18.41762 374.000
18.43756 356.000
18.45751 334.000
18.47746 369.000
18.49741 378.000
18.51735 388.000
18.53730 392.000
18.55725 379.000
18.57719 357.000
18.59714 377.000
18.61709 376.000
18.63703 349.000
18.65698 368.000
18.67693 394.000
18.69688 349.000
18.71682 386.000
18.73677 382.000
18.75672 374.000
18.77666 378.000
18.79661 370.000
18.81656 373.000
18.83650 371.000
18.85645 376.000
18.87640 342.000
18.89634 394.000
18.91629 378.000
18.93624 384.000
18.95619 402.000
18.97613 384.000
18.99608 410.000
19.01603 365.000
19.03597 424.000
19.05592 400.000
19.07587 428.000
19.09581 387.000
19.11576 386.000
19.13571 415.000
19.15566 386.000
19.17560 393.000
19.19555 395.000
19.21550 409.000
19.23544 403.000
19.25539 400.000
19.27534 386.000
19.29528 425.000
19.31523 417.000
19.33518 405.000
19.35513 400.000
19.37507 401.000
19.39502 403.000
19.41497 412.000
19.43491 428.000
19.45486 446.000
19.47481 452.000
19.49475 437.000
19.51470 432.000
19.53465 480.000
19.55459 427.000
19.57454 413.000
19.59449 438.000
19.61444 447.000
19.63438 445.000
19.65433 468.000
19.67428 423.000
19.69422 449.000
19.71417 417.000
19.73412 445.000
19.75406 440.000
19.77401 476.000
19.79396 421.000
19.81391 452.000
19.83385 473.000
19.85380 480.000
19.87375 457.000
19.89369 471.000
19.91364 479.000
19.93359 434.000
19.95353 481.000
19.97348 442.000
19.99343 462.000
20.01337 488.000
20.03332 460.000
20.05327 422.000
20.07322 511.000
20.09316 506.000
20.11311 481.000
20.13306 451.000
20.15300 472.000
20.17295 474.000
20.19290 476.000
20.21284 460.000
20.23279 463.000
20.25274 484.000
20.27269 470.000
20.29263 506.000
20.31258 533.000
20.33253 465.000
20.35247 480.000
20.37242 507.000
20.39237 482.000
20.41231 441.000
20.43226 475.000
20.45221 492.000
20.47215 476.000
20.49210 500.000
20.51205 512.000
20.53200 455.000
20.55194 495.000
20.57189 465.000
20.59184 474.000
20.61178 548.000
20.63173 468.000
20.65168 504.000
20.67162 521.000
20.69157 483.000
20.71152 503.000
20.73147 505.000
20.75141 510.000
20.77136 495.000
20.79131 470.000
20.81125 480.000
20.83120 507.000
20.85115 492.000
20.87109 511.000
20.89104 490.000
20.91099 526.000
20.93094 496.000
20.95088 500.000
20.97083 481.000
20.99078 563.000
21.01072 508.000
21.03067 508.000
21.05062 520.000
21.07056 531.000
21.09051 534.000
21.11046 506.000
21.13040 518.000
21.15035 511.000
21.17030 518.000
21.19025 553.000
21.21019 489.000
21.23014 512.000
21.25009 549.000
21.27003 543.000
21.28998 559.000
21.30993 514.000
21.32987 553.000
21.34982 504.000
21.36977 541.000
21.38972 519.000
21.40966 513.000
21.42961 517.000
21.44956 537.000
21.46950 552.000
21.48945 560.000
21.50940 510.000
21.52934 575.000
21.54929 532.000
21.56924 568.000
21.58918 557.000
21.60913 516.000
21.62908 547.000
21.64903 570.000
21.66897 481.000
21.68892 560.000
21.70887 579.000
21.72881 571.000
21.74876 563.000
21.76871 577.000
21.78865 588.000
21.80860 601.000
21.82855 511.000
21.84850 552.000
21.86844 550.000
21.88839 573.000
21.90834 506.000
21.92828 544.000
21.94823 528.000
21.96818 553.000
21.98812 544.000
22.00807 539.000
22.02802 542.000
22.04796 608.000
22.06791 589.000
22.08786 574.000
22.10781 530.000
22.12775 556.000
22.14770 562.000
22.16765 594.000
22.18759 551.000
22.20754 578.000
22.22749 616.000
22.24743 569.000
22.26738 577.000
22.28733 604.000
22.30728 596.000
22.32722 558.000
22.34717 585.000
22.36712 630.000
22.38706 599.000
22.40701 557.000
22.42696 601.000
22.44690 621.000
22.46685 569.000
22.48680 605.000
22.50675 582.000
22.52669 619.000
22.54664 581.000
22.56659 587.000
22.58653 605.000
22.60648 640.000
22.62643 576.000
22.64637 574.000
22.66632 569.000
22.68627 600.000
22.70621 611.000
22.72616 511.000
22.74611 637.000
22.76606 586.000
22.78600 629.000
22.80595 596.000
22.82590 602.000
22.84584 600.000
22.86579 618.000
22.88574 662.000
22.90568 622.000
22.92563 654.000
22.94558 606.000
22.96553 615.000
22.98547 623.000
23.00542 606.000
23.02537 588.000
23.04531 596.000
23.06526 630.000
23.08521 680.000
23.10515 647.000
23.12510 651.000
23.14505 644.000
23.16499 603.000
23.18494 683.000
23.20489 647.000
23.22484 647.000
23.24478 650.000
23.26473 631.000
23.28468 648.000
23.30462 625.000
23.32457 676.000
23.34452 658.000
23.36446 658.000
23.38441 627.000
23.40436 669.000
23.42431 628.000
23.44425 697.000
23.46420 656.000
23.48415 668.000
23.50409 687.000
23.52404 633.000
23.54399 696.000
23.56393 642.000
23.58388 635.000
23.60383 680.000
23.62377 714.000
23.64372 681.000
23.66367 708.000
23.68362 705.000
23.70356 687.000
23.72351 647.000
23.74346 670.000
23.76340 679.000
23.78335 737.000
23.80330 702.000
23.82324 640.000
23.84319 608.000
23.86314 662.000
23.88309 677.000
23.90303 676.000
23.92298 688.000
23.94293 732.000
23.96287 740.000
23.98282 690.000
24.00277 631.000
24.02271 753.000
24.04266 663.000
24.06261 710.000
24.08256 717.000
24.10250 695.000
24.12245 652.000
24.14240 712.000
24.16234 697.000
24.18229 713.000
24.20224 707.000
24.22218 658.000
24.24213 745.000
24.26208 719.000
24.28202 695.000
24.30197 738.000
24.32192 743.000
24.34187 768.000
24.36181 783.000
24.38176 737.000
24.40171 720.000
24.42165 788.000
24.44160 768.000
24.46155 767.000
24.48149 798.000
24.50144 740.000
24.52139 729.000
24.54134 794.000
24.56128 696.000
24.58123 790.000
24.60118 748.000
24.62112 722.000
24.64107 769.000
24.66102 742.000
24.68096 762.000
24.70091 786.000
24.72086 750.000
24.74080 781.000
24.76075 698.000
24.78070 779.000
24.80065 770.000
24.82059 763.000
24.84054 752.000
24.86049 796.000
24.88043 815.000
24.90038 749.000
24.92033 817.000
24.94027 777.000
24.96022 780.000
24.98017 782.000
25.00012 811.000
25.02006 834.000
25.04001 816.000
25.05996 791.000
25.07990 815.000
25.09985 817.000
25.11980 801.000
25.13974 805.000
25.15969 783.000
25.17964 797.000
25.19958 820.000
25.21953 859.000
25.23948 797.000
25.25943 845.000
25.27937 826.000
25.29932 794.000
25.31927 811.000
25.33921 820.000
25.35916 816.000
25.37911 823.000
25.39905 898.000
25.41900 844.000
25.43895 845.000
25.45890 827.000
25.47884 850.000
25.49879 855.000
25.51874 845.000
25.53868 832.000
25.55863 898.000
25.57858 824.000
25.59852 861.000
25.61847 926.000
25.63842 913.000
25.65837 854.000
25.67831 895.000
25.69826 876.000
25.71821 912.000
25.73815 891.000
25.75810 887.000
25.77805 862.000
25.79799 877.000
25.81794 842.000
25.83789 852.000
25.85783 904.000
25.87778 905.000
25.89773 852.000
25.91768 857.000
25.93762 894.000
25.95757 916.000
25.97752 901.000
25.99746 940.000
26.01741 925.000
26.03736 915.000
26.05730 878.000
26.07725 899.000
26.09720 953.000
26.11715 971.000
26.13709 874.000
26.15704 964.000
26.17699 997.000
26.19693 946.000
26.21688 942.000
26.23683 919.000
26.25677 904.000
26.27672 978.000
26.29667 963.000
26.31661 1023.000
26.33656 931.000
26.35651 961.000
26.37646 1026.000
26.39640 983.000
26.41635 939.000
26.43630 937.000
26.45624 965.000
26.47619 989.000
26.49614 961.000
26.51608 923.000
26.53603 985.000
26.55598 1007.000
26.57593 1032.000
26.59587 988.000
26.61582 1030.000
26.63577 1033.000
26.65571 1001.000
26.67566 1015.000
26.69561 1000.000
26.71555 1028.000
26.73550 993.000
26.75545 1024.000
26.77539 992.000
26.79534 958.000
26.81529 982.000
26.83524 1041.000
26.85518 1126.000
26.87513 985.000
26.89508 995.000
26.91502 1040.000
26.93497 1051.000
26.95492 1060.000
26.97486 1046.000
26.99481 1030.000
27.01476 1035.000
27.03471 994.000
27.05465 1044.000
27.07460 1080.000
27.09455 1066.000
27.11449 1039.000
27.13444 1058.000
27.15439 1117.000
27.17433 1090.000
27.19428 1072.000
27.21423 1098.000
27.23417 1122.000
27.25412 1140.000
27.27407 1051.000
27.29402 1096.000
27.31396 1068.000
27.33391 1064.000
27.35386 1003.000
27.37380 1122.000
27.39375 1099.000
27.41370 1122.000
27.43364 1072.000
27.45359 1105.000
27.47354 1138.000
27.49349 1141.000
27.51343 1118.000
27.53338 1055.000
27.55333 1142.000
27.57327 1120.000
27.59322 1068.000
27.61317 1099.000
27.63311 1067.000
27.65306 1121.000
27.67301 1106.000
27.69296 1135.000
27.71290 1128.000
27.73285 1119.000
27.75280 1153.000
27.77274 1173.000
27.79269 1119.000
27.81264 1145.000
27.83258 1183.000
27.85253 1163.000
27.87248 1212.000
27.89242 1145.000
27.91237 1167.000
27.93232 1147.000
27.95227 1106.000
27.97221 1171.000
27.99216 1135.000
28.01211 1183.000
28.03205 1109.000
28.05200 1103.000
28.07195 1184.000
28.09189 1249.000
28.11184 1186.000
28.13179 1196.000
28.15174 1124.000
28.17168 1157.000
28.19163 1199.000
28.21158 1217.000
28.23152 1218.000
28.25147 1205.000
28.27142 1166.000
28.29136 1142.000
28.31131 1173.000
28.33126 1173.000
28.35120 1201.000
28.37115 1206.000
28.39110 1169.000
28.41105 1148.000
28.43099 1242.000
28.45094 1192.000
28.47089 1209.000
28.49083 1190.000
28.51078 1170.000
28.53073 1224.000
28.55067 1193.000
28.57062 1155.000
28.59057 1250.000
28.61052 1173.000
28.63046 1272.000
28.65041 1229.000
28.67036 1189.000
28.69030 1213.000
28.71025 1272.000
28.73020 1246.000
28.75014 1184.000
28.77009 1251.000
28.79004 1221.000
28.80998 1293.000
28.82993 1211.000
28.84988 1216.000
28.86983 1227.000
28.88977 1189.000
28.90972 1221.000
28.92967 1245.000
28.94961 1174.000
28.96956 1233.000
28.98951 1191.000
29.00945 1230.000
29.02940 1210.000
29.04935 1236.000
29.06930 1156.000
29.08924 1310.000
29.10919 1264.000
29.12914 1260.000
29.14908 1188.000
29.16903 1266.000
29.18898 1223.000
29.20892 1218.000
29.22887 1222.000
29.24882 1224.000
29.26877 1263.000
29.28871 1202.000
29.30866 1272.000
29.32861 1303.000
29.34855 1268.000
29.36850 1202.000
29.38845 1249.000
29.40839 1220.000
29.42834 1198.000
29.44829 1197.000
29.46823 1282.000
29.48818 1191.000
29.50813 1262.000
29.52808 1218.000
29.54802 1227.000
29.56797 1200.000
29.58792 1226.000
29.60786 1269.000
29.62781 1221.000
29.64776 1283.000
29.66770 1279.000
29.68765 1276.000
29.70760 1226.000
29.72755 1236.000
29.74749 1248.000
29.76744 1255.000
29.78739 1234.000
29.80733 1271.000
29.82728 1206.000
29.84723 1260.000
29.86717 1229.000
29.88712 1205.000
29.90707 1277.000
29.92701 1224.000
29.94696 1274.000
29.96691 1274.000
29.98686 1254.000
30.00680 1316.000
30.02675 1277.000
30.04670 1304.000
30.06664 1227.000
30.08659 1275.000
30.10654 1257.000
30.12648 1328.000
30.14643 1241.000
30.16638 1291.000
30.18633 1240.000
30.20627 1209.000
30.22622 1262.000
30.24617 1182.000
30.26611 1253.000
30.28606 1297.000
30.30601 1169.000
30.32595 1221.000
30.34590 1282.000
30.36585 1202.000
30.38579 1172.000
30.40574 1241.000
30.42569 1162.000
30.44564 1243.000
30.46558 1199.000
30.48553 1311.000
30.50548 1203.000
30.52542 1155.000
30.54537 1204.000
30.56532 1236.000
30.58526 1238.000
30.60521 1267.000
30.62516 1239.000
30.64511 1134.000
30.66505 1203.000
30.68500 1235.000
30.70495 1193.000
30.72489 1284.000
30.74484 1246.000
30.76479 1206.000
30.78473 1228.000
30.80468 1202.000
30.82463 1197.000
30.84458 1215.000
30.86452 1209.000
30.88447 1215.000
30.90442 1253.000
30.92436 1235.000
30.94431 1206.000
30.96426 1165.000
30.98420 1232.000
31.00415 1207.000
31.02410 1204.000
31.04404 1168.000
31.06399 1165.000
31.08394 1193.000
31.10389 1142.000
31.12383 1255.000
31.14378 1149.000
31.16373 1183.000
31.18367 1159.000
31.20362 1176.000
31.22357 1226.000
31.24351 1146.000
31.26346 1162.000
31.28341 1137.000
31.30336 1154.000
31.32330 1209.000
31.34325 1148.000
31.36320 1151.000
31.38314 1141.000
31.40309 1132.000
31.42304 1158.000
31.44298 1189.000
31.46293 1191.000
31.48288 1156.000
31.50282 1190.000
31.52277 1166.000
31.54272 1166.000
31.56267 1190.000
31.58261 1216.000
31.60256 1174.000
31.62251 1179.000
31.64245 1186.000
31.66240 1143.000
31.68235 1117.000
31.70229 1097.000
31.72224 1150.000
31.74219 1141.000
31.76214 1173.000
31.78208 1237.000
31.80203 1143.000
31.82198 1182.000
31.84192 1167.000
31.86187 1214.000
31.88182 1169.000
31.90176 1152.000
31.92171 1196.000
31.94166 1235.000
31.96160 1277.000
31.98155 1153.000
32.00150 1198.000
32.02145 1194.000
32.04139 1149.000
32.06134 1159.000
32.08129 1160.000
32.10123 1107.000
32.12118 1116.000
32.14113 1130.000
32.16107 1117.000
32.18102 1155.000
32.20097 1120.000
32.22092 1095.000
32.24086 1089.000
32.26081 1072.000
32.28076 1087.000
32.30070 1081.000
32.32065 1058.000
32.34060 1093.000
32.36054 1105.000
32.38049 1093.000
32.40044 1085.000
32.42039 1053.000
32.44033 1087.000
32.46028 1045.000
32.48023 1113.000
32.50017 1046.000
32.52012 1033.000
32.54007 1005.000
32.56001 999.000
32.57996 1039.000
32.59991 1017.000
32.61985 1011.000
32.63980 1081.000
32.65975 1030.000
32.67970 1032.000
32.69964 1107.000
32.71959 1056.000
32.73954 1044.000
32.75948 1063.000
32.77943 1070.000
32.79938 1046.000
32.81932 988.000
32.83927 1010.000
32.85922 1021.000
32.87917 1041.000
32.89911 989.000
32.91906 1032.000
32.93901 1069.000
32.95895 1031.000
32.97890 1012.000
32.99885 979.000
33.01879 1062.000
33.03874 1009.000
33.05869 951.000
33.07863 1065.000
33.09858 927.000
33.11853 1015.000
33.13848 972.000
33.15842 1016.000
33.17837 1063.000
33.19832 1049.000
33.21826 1003.000
33.23821 1017.000
33.25816 1028.000
33.27810 982.000
33.29805 989.000
33.31800 985.000
33.33795 948.000
33.35789 1067.000
33.37784 1036.000
33.39779 1026.000
33.41773 937.000
33.43768 996.000
33.45763 996.000
33.47757 958.000
33.49752 934.000
33.51747 987.000
33.53741 990.000
33.55736 949.000
33.57731 974.000
33.59726 1008.000
33.61720 947.000
33.63715 972.000
33.65710 964.000
33.67704 957.000
33.69699 937.000
33.71694 1043.000
33.73688 915.000
33.75683 975.000
33.77678 977.000
33.79673 977.000
33.81667 974.000
33.83662 933.000
33.85657 888.000
33.87651 938.000
33.89646 949.000
33.91641 953.000
33.93635 954.000
33.95630 980.000
33.97625 944.000
33.99620 973.000
34.01614 921.000
34.03609 956.000
34.05604 886.000
34.07598 917.000
34.09593 949.000
34.11588 936.000
34.13582 923.000
34.15577 904.000
34.17572 928.000
34.19566 959.000
34.21561 937.000
34.23556 898.000
34.25551 935.000
34.27545 932.000
34.29540 956.000
34.31535 911.000
34.33529 915.000
34.35524 964.000
34.37519 956.000
34.39513 943.000
34.41508 920.000
34.43503 935.000
34.45498 876.000
34.47492 966.000
34.49487 914.000
34.51482 914.000
34.53476 901.000
34.55471 967.000
34.57466 925.000
34.59460 1000.000
34.61455 1009.000
34.63450 996.000
34.65444 1005.000
34.67439 1002.000
34.69434 1003.000
34.71429 1012.000
34.73423 1111.000
34.75418 1084.000
34.77413 1124.000
34.79407 1097.000
34.81402 1148.000
34.83397 1161.000
34.85391 1349.000
34.87386 1347.000
34.89381 1497.000
34.91376 1484.000
34.93370 1597.000
34.95365 1649.000
34.97360 1658.000
34.99354 1817.000
35.01349 1729.000
35.03344 1760.000
35.05338 1613.000
35.07333 1518.000
35.09328 1476.000
35.11322 1391.000
35.13317 1275.000
35.15312 1223.000
35.17307 1094.000
35.19301 1048.000
35.21296 970.000
35.23291 956.000
35.25285 953.000
35.27280 901.000
35.29275 932.000
35.31269 894.000
35.33264 929.000
35.35259 895.000
35.37254 903.000
35.39248 915.000
35.41243 844.000
35.43238 847.000
35.45232 874.000
35.47227 797.000
35.49222 842.000
35.51216 839.000
35.53211 814.000
35.55206 830.000
35.57201 859.000
35.59195 843.000
35.61190 800.000
35.63185 863.000
35.65179 811.000
35.67174 815.000
35.69169 847.000
35.71163 861.000
35.73158 854.000
35.75153 847.000
35.77147 814.000
35.79142 798.000
35.81137 770.000
35.83132 802.000
35.85126 834.000
35.87121 788.000
35.89116 781.000
35.91110 757.000
35.93105 797.000
35.95100 814.000
35.97094 764.000
35.99089 866.000
36.01084 743.000
36.03079 803.000
36.05073 780.000
36.07068 798.000
36.09063 832.000
36.11057 807.000
36.13052 825.000
36.15047 783.000
36.17041 800.000
36.19036 807.000
36.21031 760.000
36.23025 760.000
36.25020 792.000
36.27015 750.000
36.29010 797.000
36.31004 747.000
36.32999 801.000
36.34994 805.000
36.36988 757.000
36.38983 768.000
36.40978 763.000
36.42972 767.000
36.44967 745.000
36.46962 768.000
36.48957 774.000
36.50951 754.000
36.52946 784.000
36.54941 774.000
36.56935 784.000
36.58930 797.000
36.60925 779.000
36.62919 701.000
36.64914 754.000
36.66909 819.000
36.68903 821.000
36.70898 805.000
36.72893 721.000
36.74888 752.000
36.76882 790.000
36.78877 760.000
36.80872 734.000
36.82866 798.000
36.84861 751.000
36.86856 813.000
36.88850 786.000
36.90845 750.000
36.92840 780.000
36.94835 795.000
36.96829 749.000
36.98824 749.000
37.00819 728.000
37.02813 742.000
37.04808 753.000
37.06803 763.000
37.08797 746.000
37.10792 763.000
37.12787 783.000
37.14781 792.000
37.16776 779.000
37.18771 793.000
37.20766 779.000
37.22760 725.000
37.24755 782.000
37.26750 734.000
37.28744 764.000
37.30739 761.000
37.32734 783.000
37.34728 766.000
37.36723 822.000
37.38718 803.000
37.40713 767.000
37.42707 806.000
37.44702 828.000
37.46697 827.000
37.48691 786.000
37.50686 799.000
37.52681 795.000
37.54675 799.000
37.56670 799.000
37.58665 750.000
37.60660 767.000
37.62654 784.000
37.64649 865.000
37.66644 776.000
37.68638 792.000
37.70633 876.000
37.72628 843.000
37.74622 851.000
37.76617 837.000
37.78612 830.000
37.80606 829.000
37.82601 876.000
37.84596 924.000
37.86591 911.000
37.88585 909.000
37.90580 894.000
37.92575 916.000
37.94569 956.000
37.96564 1024.000
37.98559 985.000
38.00553 1005.000
38.02548 1041.000
38.04543 1063.000
38.06538 1125.000
38.08532 1139.000
38.10527 1248.000
38.12522 1321.000
38.14516 1402.000
38.16511 1538.000
38.18506 1576.000
38.20500 1541.000
38.22495 1515.000
38.24490 1390.000
38.26484 1410.000
38.28479 1271.000
38.30474 1294.000
38.32469 1238.000
38.34463 1207.000
38.36458 1118.000
38.38453 1145.000
38.40447 1109.000
38.42442 1061.000
38.44437 1068.000
38.46431 1068.000
38.48426 988.000
38.50421 992.000
38.52416 986.000
38.54410 934.000
38.56405 861.000
38.58400 918.000
38.60394 860.000
38.62389 856.000
38.64384 791.000
38.66378 773.000
38.68373 829.000
38.70368 790.000
38.72362 814.000
38.74357 849.000
38.76352 799.000
38.78347 761.000
38.80341 775.000
38.82336 757.000
38.84331 824.000
38.86325 792.000
38.88320 772.000
38.90315 730.000
38.92309 818.000
38.94304 778.000
38.96299 770.000
38.98294 749.000
39.00288 718.000
39.02283 751.000
39.04278 786.000
39.06272 731.000
39.08267 808.000
39.10262 784.000
39.12256 725.000
39.14251 762.000
39.16246 737.000
39.18241 788.000
39.20235 771.000
39.22230 784.000
39.24225 747.000
39.26219 782.000
39.28214 738.000
39.30209 780.000
39.32203 717.000
39.34198 774.000
39.36193 741.000
39.38187 740.000
39.40182 737.000
39.42177 711.000
39.44172 784.000
39.46166 718.000
39.48161 727.000
39.50156 785.000
39.52150 767.000
39.54145 752.000
39.56140 802.000
39.58134 755.000
39.60129 753.000
39.62124 753.000
39.64119 723.000
39.66113 732.000
39.68108 758.000
39.70103 726.000
39.72097 769.000
39.74092 702.000
39.76087 733.000
39.78081 752.000
39.80076 767.000
39.82071 770.000
39.84065 750.000
39.86060 704.000
39.88055 787.000
39.90050 797.000
39.92044 801.000
39.94039 756.000
39.96034 745.000
39.98028 769.000
40.00023 763.000
40.02018 795.000
40.04012 753.000
40.06007 750.000
40.08002 732.000
40.09997 809.000
40.11991 775.000
40.13986 769.000
40.15981 783.000
40.17975 756.000
40.19970 706.000
40.21965 730.000
40.23959 716.000
40.25954 764.000
40.27949 785.000
40.29943 784.000
40.31938 688.000
40.33933 741.000
40.35928 774.000
40.37922 767.000
40.39917 770.000
40.41912 761.000
40.43906 741.000
40.45901 746.000
40.47896 768.000
40.49890 774.000
40.51885 751.000
40.53880 731.000
40.55875 765.000
40.57869 715.000
40.59864 694.000
40.61859 787.000
40.63853 771.000
40.65848 723.000
40.67843 741.000
40.69837 792.000
40.71832 754.000
40.73827 742.000
40.75822 788.000
40.77816 770.000
40.79811 759.000
40.81806 777.000
40.83800 761.000
40.85795 746.000
40.87790 765.000
40.89784 755.000
40.91779 701.000
40.93774 770.000
40.95768 692.000
40.97763 769.000
40.99758 780.000
41.01753 790.000
41.03747 800.000
41.05742 794.000
41.07737 752.000
41.09731 713.000
41.11726 747.000
41.13721 714.000
41.15715 745.000
41.17710 729.000
41.19705 774.000
41.21700 741.000
41.23694 789.000
41.25689 768.000
41.27684 767.000
41.29678 729.000
41.31673 762.000
41.33668 680.000
41.35662 767.000
41.37657 756.000
41.39652 771.000
41.41646 777.000
41.43641 698.000
41.45636 710.000
41.47631 760.000
41.49625 749.000
41.51620 764.000
41.53615 765.000
41.55609 716.000
41.57604 717.000
41.59599 702.000
41.61593 776.000
41.63588 761.000
41.65583 729.000
41.67578 711.000
41.69572 697.000
41.71567 725.000
41.73562 803.000
41.75556 750.000
41.77551 703.000
41.79546 702.000
41.81540 727.000
41.83535 723.000
41.85530 710.000
41.87524 717.000
41.89519 698.000
41.91514 732.000
41.93509 733.000
41.95503 701.000
41.97498 711.000
41.99493 745.000
42.01487 752.000
42.03482 703.000
42.05477 742.000
42.07471 731.000
42.09466 661.000
42.11461 746.000
42.13456 748.000
42.15450 718.000
42.17445 744.000
42.19440 754.000
42.21434 689.000
42.23429 731.000
42.25424 705.000
42.27418 713.000
42.29413 738.000
42.31408 735.000
42.33403 728.000
42.35397 766.000
42.37392 682.000
42.39387 734.000
42.41381 740.000
42.43376 719.000
42.45371 702.000
42.47365 709.000
42.49360 721.000
42.51355 740.000
42.53349 711.000
42.55344 726.000
42.57339 797.000
42.59334 762.000
42.61328 745.000
42.63323 686.000
42.65318 699.000
42.67312 750.000
42.69307 671.000
42.71302 691.000
42.73296 710.000
42.75291 690.000
42.77286 709.000
42.79281 691.000
42.81275 704.000
42.83270 691.000
42.85265 750.000
42.87259 740.000
42.89254 758.000
42.91249 696.000
42.93243 696.000
42.95238 715.000
42.97233 707.000
42.99227 719.000
43.01222 722.000
43.03217 742.000
43.05212 698.000
43.07206 722.000
43.09201 749.000
43.11196 703.000
43.13190 698.000
43.15185 751.000
43.17180 699.000
43.19174 717.000
43.21169 689.000
43.23164 729.000
43.25159 682.000
43.27153 704.000
43.29148 708.000
43.31143 656.000
43.33137 706.000
43.35132 670.000
43.37127 728.000
43.39121 690.000
43.41116 664.000
43.43111 707.000
43.45105 717.000
43.47100 649.000
43.49095 678.000
43.51090 673.000
43.53084 683.000
43.55079 668.000
43.57074 668.000
43.59068 667.000
43.61063 663.000
43.63058 647.000
43.65052 727.000
43.67047 700.000
43.69042 659.000
43.71037 715.000
43.73031 664.000
43.75026 621.000
43.77021 686.000
43.79015 679.000
43.81010 626.000
43.83005 651.000
43.84999 687.000
43.86994 636.000
43.88989 670.000
43.90984 696.000
43.92978 712.000
43.94973 670.000
43.96968 680.000
43.98962 688.000
44.00957 679.000
44.02952 670.000
44.04946 665.000
44.06941 619.000
44.08936 622.000
44.10930 596.000
44.12925 646.000
44.14920 657.000
44.16915 618.000
44.18909 629.000
44.20904 683.000
44.22899 627.000
44.24893 673.000
44.26888 651.000
44.28883 584.000
44.30877 648.000
44.32872 643.000
44.34867 616.000
44.36862 653.000
44.38856 628.000
44.40851 668.000
44.42846 653.000
44.44840 620.000
44.46835 671.000
44.48830 640.000
44.50824 611.000
44.52819 644.000
44.54814 626.000
44.56808 651.000
44.58803 641.000
44.60798 627.000
44.62793 701.000
44.64787 635.000
44.66782 649.000
44.68777 651.000
44.70771 625.000
44.72766 612.000
44.74761 588.000
44.76755 630.000
44.78750 595.000
44.80745 585.000
44.82740 665.000
44.84734 623.000
44.86729 608.000
44.88724 660.000
44.90718 605.000
44.92713 623.000
44.94708 591.000
44.96702 575.000
44.98697 604.000
45.00692 646.000
45.02686 582.000
45.04681 643.000
45.06676 606.000
45.08671 601.000
45.10665 631.000
45.12660 608.000
45.14655 591.000
45.16649 582.000
45.18644 618.000
45.20639 621.000
45.22633 603.000
45.24628 574.000
45.26623 602.000
45.28618 612.000
45.30612 613.000
45.32607 607.000
45.34602 603.000
45.36596 647.000
45.38591 614.000
45.40586 564.000
45.42580 607.000
45.44575 583.000
45.46570 576.000
45.48565 607.000
45.50559 567.000
45.52554 589.000
45.54549 572.000
45.56543 623.000
45.58538 622.000
45.60533 597.000
45.62527 567.000
45.64522 556.000
45.66517 576.000
45.68511 616.000
45.70506 580.000
45.72501 694.000
45.74496 584.000
45.76490 557.000
45.78485 585.000
45.80480 603.000
45.82474 598.000
45.84469 577.000
45.86464 594.000
45.88458 604.000
45.90453 574.000
45.92448 603.000
45.94443 567.000
45.96437 563.000
45.98432 546.000
46.00427 608.000
46.02421 587.000
46.04416 656.000
46.06411 563.000
46.08405 617.000
46.10400 558.000
46.12395 512.000
46.14389 561.000
46.16384 575.000
46.18379 584.000
46.20374 562.000
46.22368 520.000
46.24363 585.000
46.26358 578.000
46.28352 533.000
46.30347 601.000
46.32342 581.000
46.34336 549.000
46.36331 525.000
46.38326 572.000
46.40321 562.000
46.42315 567.000
46.44310 622.000
46.46305 545.000
46.48299 522.000
46.50294 538.000
46.52289 602.000
46.54283 526.000
46.56278 571.000
46.58273 552.000
46.60267 579.000
46.62262 543.000
46.64257 539.000
46.66252 521.000
46.68246 548.000
46.70241 538.000
46.72236 543.000
46.74230 599.000
46.76225 544.000
46.78220 550.000
46.80214 554.000
46.82209 513.000
46.84204 523.000
46.86199 538.000
46.88193 556.000
46.90188 510.000
46.92183 541.000
46.94177 523.000
46.96172 595.000
46.98167 580.000
47.00161 533.000
47.02156 533.000
47.04151 546.000
47.06146 539.000
47.08140 560.000
47.10135 512.000
47.12130 565.000
47.14124 514.000
47.16119 535.000
47.18114 526.000
47.20108 567.000
47.22103 530.000
47.24098 538.000
47.26092 540.000
47.28087 551.000
47.30082 590.000
47.32077 543.000
47.34071 547.000
47.36066 463.000
47.38061 537.000
47.40055 510.000
47.42050 573.000
47.44045 566.000
47.46039 518.000
47.48034 532.000
47.50029 583.000
47.52024 519.000
47.54018 527.000
47.56013 532.000
47.58008 568.000
47.60002 550.000
47.61997 518.000
47.63992 557.000
47.65986 563.000
47.67981 510.000
47.69976 526.000
47.71970 561.000
47.73965 511.000
47.75960 540.000
47.77955 543.000
47.79949 524.000
47.81944 556.000
47.83939 549.000
47.85933 547.000
47.87928 549.000
47.89923 568.000
47.91917 536.000
47.93912 593.000
47.95907 561.000
47.97902 574.000
47.99896 574.000
48.01891 578.000
48.03886 566.000
48.05880 618.000
48.07875 645.000
48.09870 629.000
48.11864 646.000
48.13859 643.000
48.15854 632.000
48.17848 688.000
48.19843 771.000
48.21838 703.000
48.23833 745.000
48.25827 734.000
48.27822 697.000
48.29817 741.000
48.31811 686.000
48.33806 687.000
48.35801 642.000
48.37795 596.000
48.39790 580.000
48.41785 616.000
48.43780 602.000
48.45774 580.000
48.47769 555.000
48.49764 530.000
48.51758 549.000
48.53753 564.000
48.55748 526.000
48.57742 577.000
48.59737 526.000
48.61732 531.000
48.63726 521.000
48.65721 513.000
48.67716 538.000
48.69711 564.000
48.71705 520.000
48.73700 496.000
48.75695 514.000
48.77689 536.000
48.79684 518.000
48.81679 506.000
48.83673 491.000
48.85668 504.000
48.87663 467.000
48.89658 462.000
48.91652 525.000
48.93647 514.000
48.95642 531.000
48.97636 525.000
48.99631 487.000
49.01626 492.000
49.03620 502.000
49.05615 505.000
49.07610 509.000
49.09605 474.000
49.11599 487.000
49.13594 524.000
49.15589 487.000
49.17583 521.000
49.19578 517.000
49.21573 503.000
49.23567 484.000
49.25562 487.000
49.27557 479.000
49.29551 491.000
49.31546 507.000
49.33541 551.000
49.35536 510.000
49.37530 465.000
49.39525 533.000
49.41520 494.000
49.43514 497.000
49.45509 491.000
49.47504 491.000
49.49498 467.000
49.51493 542.000
49.53488 491.000
49.55483 552.000
49.57477 498.000
49.59472 498.000
49.61467 515.000
49.63461 489.000
49.65456 440.000
49.67451 472.000
49.69445 466.000
49.71440 488.000
49.73435 507.000
49.75429 471.000
49.77424 520.000
49.79419 498.000
49.81414 522.000
49.83408 494.000
49.85403 521.000
49.87398 470.000
49.89392 441.000
49.91387 501.000
49.93382 513.000
49.95376 484.000
49.97371 498.000
49.99366 497.000
50.01361 496.000
50.03355 469.000
50.05350 463.000
50.07345 448.000
50.09339 479.000
50.11334 505.000
50.13329 479.000
50.15323 482.000
50.17318 489.000
50.19313 455.000
50.21307 491.000
50.23302 463.000
50.25297 462.000
50.27292 505.000
50.29286 504.000
50.31281 489.000
50.33276 440.000
50.35270 471.000
50.37265 520.000
50.39260 473.000
50.41254 473.000
50.43249 498.000
50.45244 452.000
50.47239 466.000
50.49233 486.000
50.51228 499.000
50.53223 452.000
50.55217 497.000
50.57212 501.000
50.59207 471.000
50.61201 487.000
50.63196 482.000
50.65191 490.000
50.67186 476.000
50.69180 508.000
50.71175 503.000
50.73170 484.000
50.75164 461.000
50.77159 465.000
50.79154 515.000
50.81148 479.000
50.83143 515.000
50.85138 473.000
50.87132 491.000
50.89127 484.000
50.91122 509.000
50.93117 514.000
50.95111 483.000
50.97106 444.000
50.99101 502.000
51.01095 446.000
51.03090 483.000
51.05085 493.000
51.07079 465.000
51.09074 491.000
51.11069 475.000
51.13064 432.000
51.15058 444.000
51.17053 522.000
51.19048 482.000
51.21042 459.000
51.23037 449.000
51.25032 485.000
51.27026 463.000
51.29021 470.000
51.31016 473.000
51.33010 462.000
51.35005 446.000
51.37000 508.000
51.38995 478.000
51.40989 475.000
51.42984 458.000
51.44979 495.000
51.46973 494.000
51.48968 485.000
51.50963 493.000
51.52957 461.000
51.54952 476.000
51.56947 477.000
51.58942 459.000
51.60936 475.000
51.62931 475.000
51.64926 434.000
51.66920 446.000
51.68915 454.000
51.70910 480.000
51.72904 445.000
51.74899 429.000
51.76894 507.000
51.78888 446.000
51.80883 474.000
51.82878 451.000
51.84873 449.000
51.86867 473.000
51.88862 508.000
51.90857 513.000
51.92851 473.000
51.94846 509.000
51.96841 426.000
51.98835 446.000
52.00830 484.000
52.02825 487.000
52.04820 448.000
52.06814 495.000
52.08809 488.000
52.10804 497.000
52.12798 432.000
52.14793 461.000
52.16788 465.000
52.18782 453.000
52.20777 442.000
52.22772 443.000
52.24767 441.000
52.26761 481.000
52.28756 452.000
52.30751 473.000
52.32745 436.000
52.34740 472.000
52.36735 488.000
52.38729 434.000
52.40724 468.000
52.42719 499.000
52.44713 459.000
52.46708 495.000
52.48703 497.000
52.50698 468.000
52.52692 436.000
52.54687 498.000
52.56682 487.000
52.58676 505.000
52.60671 501.000
52.62666 447.000
52.64660 476.000
52.66655 466.000
52.68650 439.000
52.70645 514.000
52.72639 481.000
52.74634 485.000
52.76629 544.000
52.78623 508.000
52.80618 524.000
52.82613 480.000
52.84607 504.000
52.86602 546.000
52.88597 469.000
52.90591 491.000
52.92586 527.000
52.94581 474.000
52.96576 509.000
52.98570 507.000
53.00565 488.000
53.02560 488.000
53.04554 499.000
53.06549 483.000
53.08544 565.000
53.10538 456.000
53.12533 525.000
53.14528 488.000
53.16523 472.000
53.18517 437.000
53.20512 479.000
53.22507 421.000
53.24501 445.000
53.26496 467.000
53.28491 432.000
53.30485 434.000
53.32480 470.000
53.34475 464.000
53.36469 493.000
53.38464 415.000
53.40459 478.000
53.42454 449.000
53.44448 458.000
53.46443 486.000
53.48438 412.000
53.50432 420.000
53.52427 481.000
53.54422 454.000
53.56416 460.000
53.58411 473.000
53.60406 458.000
53.62401 433.000
53.64395 468.000
53.66390 425.000
53.68385 445.000
53.70379 480.000
53.72374 404.000
53.74369 435.000
53.76363 467.000
53.78358 418.000
53.80353 446.000
53.82348 430.000
53.84342 458.000
53.86337 444.000
53.88332 414.000
53.90326 440.000
53.92321 438.000
53.94316 426.000
53.96310 438.000
53.98305 434.000
54.00300 410.000
54.02294 409.000
54.04289 457.000
54.06284 450.000
54.08279 429.000
54.10273 452.000
54.12268 448.000
54.14263 462.000
54.16257 415.000
54.18252 426.000
54.20247 460.000
54.22241 432.000
54.24236 442.000
54.26231 422.000
54.28226 431.000
54.30220 478.000
54.32215 462.000
54.34210 424.000
54.36204 474.000
54.38199 447.000
54.40194 427.000
54.42188 453.000
54.44183 438.000
54.46178 451.000
54.48172 408.000
54.50167 424.000
54.52162 447.000
54.54157 416.000
54.56151 424.000
54.58146 380.000
54.60141 444.000
54.62135 442.000
54.64130 469.000
54.66125 453.000
54.68119 449.000
54.70114 444.000
54.72109 446.000
54.74104 423.000
54.76098 468.000
54.78093 442.000
54.80088 440.000
54.82082 432.000
54.84077 488.000
54.86072 418.000
54.88066 430.000
54.90061 444.000
54.92056 462.000
54.94050 470.000
54.96045 387.000
54.98040 413.000
55.00035 430.000
55.02029 415.000
55.04024 461.000
55.06019 464.000
55.08013 415.000
55.10008 450.000
55.12003 398.000
55.13997 423.000
55.15992 416.000
55.17987 385.000
55.19982 425.000
55.21976 408.000
55.23971 454.000
55.25966 429.000
55.27960 379.000
55.29955 445.000
55.31950 466.000
55.33944 410.000
55.35939 449.000
55.37934 446.000
55.39929 428.000
55.41923 422.000
55.43918 445.000
55.45913 425.000
55.47907 455.000
55.49902 437.000
55.51897 447.000
55.53891 447.000
55.55886 425.000
55.57881 427.000
55.59875 456.000
55.61870 433.000
55.63865 425.000
55.65860 443.000
55.67854 422.000
55.69849 422.000
55.71844 456.000
55.73838 407.000
55.75833 392.000
55.77828 407.000
55.79822 414.000
55.81817 420.000
55.83812 420.000
55.85807 449.000
55.87801 430.000
55.89796 433.000
55.91791 394.000
55.93785 410.000
55.95780 432.000
55.97775 467.000
55.99769 420.000
56.01764 421.000
56.03759 405.000
56.05753 419.000
56.07748 421.000
56.09743 417.000
56.11738 381.000
56.13732 452.000
56.15727 432.000
56.17722 434.000
56.19716 439.000
56.21711 425.000
56.23706 437.000
56.25700 427.000
56.27695 480.000
56.29690 424.000
56.31685 423.000
56.33679 431.000
56.35674 436.000
56.37669 430.000
56.39663 415.000
56.41658 408.000
56.43653 402.000
56.45647 412.000
56.47642 441.000
56.49637 436.000
56.51631 404.000
56.53626 439.000
56.55621 429.000
56.57616 414.000
56.59610 482.000
56.61605 396.000
56.63600 418.000
56.65594 410.000
56.67589 442.000
56.69584 409.000
56.71578 447.000
56.73573 380.000
56.75568 425.000
56.77563 451.000
56.79557 420.000
56.81552 423.000
56.83547 412.000
56.85541 395.000
56.87536 390.000
56.89531 424.000
56.91525 428.000
56.93520 442.000
56.95515 422.000
56.97510 405.000
56.99504 400.000
57.01499 429.000
57.03494 449.000
57.05488 443.000
57.07483 437.000
57.09478 403.000
57.11472 394.000
57.13467 437.000
57.15462 398.000
57.17456 454.000
57.19451 463.000
57.21446 423.000
57.23441 415.000
57.25435 415.000
57.27430 406.000
57.29425 430.000
57.31419 467.000
57.33414 411.000
57.35409 432.000
57.37403 407.000
57.39398 428.000
57.41393 422.000
57.43388 455.000
57.45382 423.000
57.47377 441.000
57.49372 409.000
57.51366 428.000
57.53361 446.000
57.55356 457.000
57.57350 455.000
57.59345 450.000
57.61340 455.000
57.63334 458.000
57.65329 486.000
57.67324 458.000
57.69319 461.000
57.71313 517.000
57.73308 525.000
57.75303 491.000
57.77297 532.000
57.79292 501.000
57.81287 447.000
57.83281 524.000
57.85276 484.000
57.87271 477.000
57.89266 447.000
57.91260 479.000
57.93255 454.000
57.95250 467.000
57.97244 443.000
57.99239 428.000
58.01234 436.000
58.03228 473.000
58.05223 417.000
58.07218 459.000
58.09212 437.000
58.11207 449.000
58.13202 454.000
58.15197 436.000
58.17191 424.000
58.19186 451.000
58.21181 402.000
58.23175 403.000
58.25170 403.000
58.27165 397.000
58.29159 408.000
58.31154 399.000
58.33149 442.000
58.35144 387.000
58.37138 447.000
58.39133 391.000
58.41128 408.000
58.43122 418.000
58.45117 437.000
58.47112 405.000
58.49106 389.000
58.51101 415.000
58.53096 431.000
58.55090 441.000
58.57085 411.000
58.59080 420.000
58.61075 409.000
58.63069 407.000
58.65064 381.000
58.67059 419.000
58.69053 425.000
58.71048 402.000
58.73043 423.000
58.75037 404.000
58.77032 437.000
58.79027 423.000
58.81022 385.000
58.83016 416.000
58.85011 415.000
58.87006 388.000
58.89000 419.000
58.90995 398.000
58.92990 371.000
58.94984 397.000
58.96979 381.000
58.98974 421.000
59.00969 401.000
59.02963 415.000
59.04958 370.000
59.06953 379.000
59.08947 373.000
59.10942 409.000
59.12937 403.000
59.14931 394.000
59.16926 402.000
59.18921 405.000
59.20915 418.000
59.22910 398.000
59.24905 393.000
59.26900 370.000
59.28894 405.000
59.30889 393.000
59.32884 399.000
59.34878 378.000
59.36873 427.000
59.38868 404.000
59.40862 410.000
59.42857 381.000
59.44852 406.000
59.46847 387.000
59.48841 388.000
59.50836 399.000
59.52831 378.000
59.54825 396.000
59.56820 407.000
59.58815 373.000
59.60809 359.000
59.62804 392.000
59.64799 388.000
59.66793 423.000
59.68788 391.000
59.70783 379.000
59.72778 398.000
59.74772 411.000
59.76767 416.000
59.78762 417.000
59.80756 388.000
59.82751 428.000
59.84746 390.000
59.86740 385.000
59.88735 418.000
59.90730 425.000
59.92725 410.000
59.94719 396.000
59.96714 383.000
59.98709 432.000
60.00703 398.000
60.02698 385.000
60.04693 413.000
60.06687 390.000
60.08682 407.000
60.10677 378.000
60.12671 377.000
60.14666 378.000
60.16661 415.000
60.18656 415.000
60.20650 382.000
60.22645 418.000
60.24640 390.000
60.26634 408.000
60.28629 378.000
60.30624 406.000
60.32618 387.000
60.34613 403.000
60.36608 369.000
60.38603 395.000
60.40597 379.000
60.42592 406.000
60.44587 434.000
60.46581 423.000
60.48576 420.000
60.50571 406.000
60.52565 399.000
60.54560 445.000
60.56555 400.000
60.58550 418.000
60.60544 443.000
60.62539 383.000
60.64534 446.000
60.66528 444.000
60.68523 440.000
60.70518 434.000
60.72512 418.000
60.74507 461.000
60.76502 453.000
60.78496 444.000
60.80491 424.000
60.82486 460.000
60.84481 430.000
60.86475 488.000
60.88470 476.000
60.90465 471.000
60.92459 492.000
60.94454 467.000
60.96449 485.000
60.98443 545.000
61.00438 514.000
61.02433 532.000
61.04428 572.000
61.06422 566.000
61.08417 521.000
61.10412 509.000
61.12406 534.000
61.14401 489.000
61.16396 452.000
61.18390 497.000
61.20385 414.000
61.22380 468.000
61.24374 458.000
61.26369 463.000
61.28364 442.000
61.30359 454.000
61.32353 400.000
61.34348 381.000
61.36343 434.000
61.38337 405.000
61.40332 417.000
61.42327 394.000
61.44321 439.000
61.46316 413.000
61.48311 411.000
61.50306 416.000
61.52300 401.000
61.54295 401.000
61.56290 411.000
61.58284 398.000
61.60279 378.000
61.62274 402.000
61.64268 404.000
61.66263 387.000
61.68258 406.000
61.70252 364.000
61.72247 392.000
61.74242 393.000
61.76237 406.000
61.78231 406.000
61.80226 398.000
61.82221 399.000
61.84215 401.000
61.86210 394.000
61.88205 385.000
61.90199 388.000
61.92194 405.000
61.94189 411.000
61.96184 396.000
61.98178 388.000
62.00173 360.000
62.02168 413.000
62.04162 429.000
62.06157 388.000
62.08152 380.000
62.10146 379.000
62.12141 394.000
62.14136 393.000
62.16131 389.000
62.18125 369.000
62.20120 350.000
62.22115 395.000
62.24109 386.000
62.26104 414.000
62.28099 424.000
62.30093 377.000
62.32088 381.000
62.34083 388.000
62.36077 408.000
62.38072 406.000
62.40067 427.000
62.42062 371.000
62.44056 399.000
62.46051 403.000
62.48046 370.000
62.50040 410.000
62.52035 405.000
62.54030 370.000
62.56024 416.000
62.58019 359.000
62.60014 372.000
62.62009 388.000
62.64003 395.000
62.65998 388.000
62.67993 384.000
62.69987 384.000
62.71982 376.000
62.73977 401.000
62.75971 384.000
62.77966 401.000
62.79961 371.000
62.81955 385.000
62.83950 390.000
62.85945 375.000
62.87940 398.000
62.89934 357.000
62.91929 395.000
62.93924 361.000
62.95918 368.000
62.97913 383.000
62.99908 364.000
63.01902 385.000
63.03897 369.000
63.05892 425.000
63.07887 359.000
63.09881 376.000
63.11876 357.000
63.13871 358.000
63.15865 390.000
63.17860 351.000
63.19855 358.000
63.21849 358.000
63.23844 360.000
63.25839 393.000
63.27833 396.000
63.29828 313.000
63.31823 386.000
63.33818 427.000
63.35812 345.000
63.37807 373.000
63.39802 402.000
63.41796 391.000
63.43791 387.000
63.45786 379.000
63.47780 387.000
63.49775 409.000
63.51770 399.000
63.53765 379.000
63.55759 356.000
63.57754 352.000
63.59749 341.000
63.61743 373.000
63.63738 399.000
63.65733 400.000
63.67727 401.000
63.69722 380.000
63.71717 378.000
63.73712 392.000
63.75706 369.000
63.77701 361.000
63.79696 433.000
63.81690 366.000
63.83685 424.000
63.85680 386.000
63.87674 361.000
63.89669 397.000
63.91664 389.000
63.93658 359.000
63.95653 394.000
63.97648 330.000
63.99643 381.000
64.01637 351.000
64.03632 392.000
64.05627 416.000
64.07621 373.000
64.09616 352.000
64.11611 353.000
64.13605 373.000
64.15600 388.000
64.17595 391.000
64.19590 382.000
64.21584 399.000
64.23579 372.000
64.25574 369.000
64.27568 346.000
64.29563 385.000
64.31558 423.000
64.33552 390.000
64.35547 399.000
64.37542 394.000
64.39536 383.000
64.41531 378.000
64.43526 394.000
64.45521 374.000
64.47515 390.000
64.49510 384.000
64.51505 401.000
64.53499 377.000
64.55494 376.000
64.57489 403.000
64.59483 373.000
64.61478 409.000
64.63473 381.000
64.65468 395.000
64.67462 419.000
64.69457 388.000
64.71452 410.000
64.73446 367.000
64.75441 381.000
64.77436 400.000
64.79430 417.000
64.81425 395.000
64.83420 393.000
64.85414 397.000
64.87409 385.000
64.89404 402.000
64.91399 418.000
64.93393 391.000
64.95388 416.000
64.97383 444.000
64.99377 431.000
65.01372 403.000
65.03367 460.000
65.05361 426.000
65.07356 417.000
65.09351 444.000
65.11346 458.000
65.13340 416.000
65.15335 470.000
65.17330 427.000
65.19324 428.000
65.21319 477.000
65.23314 470.000
65.25308 446.000
65.27303 435.000
65.29298 475.000
65.31293 442.000
65.33287 474.000
65.35282 444.000
65.37277 463.000
65.39271 476.000
65.41266 470.000
65.43261 501.000
65.45255 502.000
65.47250 484.000
65.49245 463.000
65.51239 435.000
65.53234 428.000
65.55229 462.000
65.57224 489.000
65.59218 480.000
65.61213 446.000
65.63208 447.000
65.65202 427.000
65.67197 473.000
65.69192 455.000
65.71186 486.000
65.73181 477.000
65.75176 481.000
65.77171 502.000
65.79165 496.000
65.81160 474.000
65.83155 472.000
65.85149 489.000
65.87144 460.000
65.89139 453.000
65.91133 456.000
65.93128 451.000
65.95123 448.000
65.97117 437.000
65.99112 468.000
66.01107 398.000
66.03102 432.000
66.05096 442.000
66.07091 406.000
66.09086 404.000
66.11080 402.000
66.13075 392.000
66.15070 368.000
66.17064 431.000
66.19059 383.000
66.21054 389.000
66.23049 386.000
66.25043 370.000
66.27038 387.000
66.29033 419.000
66.31027 393.000
66.33022 392.000
66.35017 379.000
66.37011 403.000
66.39006 362.000
66.41001 418.000
66.42995 385.000
66.44990 368.000
66.46985 396.000
66.48980 351.000
66.50974 360.000
66.52969 346.000
66.54964 373.000
66.56958 386.000
66.58953 417.000
66.60948 388.000
66.62942 390.000
66.64937 417.000
66.66932 366.000
66.68927 361.000
66.70921 369.000
66.72916 343.000
66.74911 444.000
66.76905 386.000
66.78900 391.000
66.80895 377.000
66.82889 367.000
66.84884 376.000
66.86879 405.000
66.88874 372.000
66.90868 358.000
66.92863 409.000
66.94858 415.000
66.96852 404.000
66.98847 414.000
67.00842 392.000
67.02836 439.000
67.04831 422.000
67.06826 392.000
67.08820 422.000
67.10815 398.000
67.12810 428.000
67.14805 401.000
67.16799 432.000
67.18794 441.000
67.20789 445.000
67.22783 403.000
67.24778 455.000
67.26773 435.000
67.28767 446.000
67.30762 457.000
67.32757 481.000
67.34752 501.000
67.36746 449.000
67.38741 464.000
67.40736 467.000
67.42730 500.000
67.44725 496.000
67.46720 505.000
67.48714 495.000
67.50709 506.000
67.52704 495.000
67.54698 487.000
67.56693 495.000
67.58688 498.000
67.60683 472.000
67.62677 460.000
67.64672 448.000
67.66667 492.000
67.68661 446.000
67.70656 443.000
67.72651 462.000
67.74645 442.000
67.76640 420.000
67.78635 455.000
67.80630 405.000
67.82624 410.000
67.84619 392.000
67.86614 402.000
67.88608 386.000
67.90603 422.000
67.92598 387.000
67.94592 410.000
67.96587 397.000
67.98582 395.000
68.00576 387.000
68.02571 374.000
68.04566 370.000
68.06561 394.000
68.08555 407.000
68.10550 385.000
68.12545 428.000
68.14539 428.000
68.16534 370.000
68.18529 365.000
68.20523 360.000
68.22518 371.000
68.24513 345.000
68.26508 376.000
68.28502 368.000
68.30497 412.000
68.32492 395.000
68.34486 364.000
68.36481 376.000
68.38476 364.000
68.40470 366.000
68.42465 382.000
68.44460 366.000
68.46455 396.000
68.48449 378.000
68.50444 374.000
68.52439 369.000
68.54433 361.000
68.56428 350.000
68.58423 391.000
68.60417 352.000
68.62412 368.000
68.64407 351.000
68.66401 348.000
68.68396 359.000
68.70391 352.000
68.72386 360.000
68.74380 356.000
68.76375 327.000
68.78370 387.000
68.80364 387.000
68.82359 334.000
68.84354 358.000
68.86348 358.000
68.88343 352.000
68.90338 366.000
68.92333 361.000
68.94327 385.000
68.96322 360.000
68.98317 364.000
69.00311 367.000
69.02306 376.000
69.04301 367.000
69.06295 333.000
69.08290 340.000
69.10285 372.000
69.12279 397.000
69.14274 361.000
69.16269 354.000
69.18264 372.000
69.20258 373.000
69.22253 353.000
69.24248 349.000
69.26242 403.000
69.28237 381.000
69.30232 351.000
69.32226 373.000
69.34221 395.000
69.36216 352.000
69.38211 336.000
69.40205 360.000
69.42200 324.000
69.44195 365.000
69.46189 343.000
69.48184 373.000
69.50179 362.000
69.52173 369.000
69.54168 350.000
69.56163 330.000
69.58157 356.000
69.60152 354.000
69.62147 380.000
69.64142 364.000
69.66136 358.000
69.68131 367.000
69.70126 354.000
69.72120 394.000
69.74115 328.000
69.76110 361.000
69.78104 339.000
69.80099 340.000
69.82094 355.000
69.84089 371.000
69.86083 323.000
69.88078 344.000
69.90073 349.000
69.92067 365.000
69.94062 355.000
69.96057 357.000
69.98051 326.000
70.00046 385.000
70.02041 386.000
70.04035 335.000
70.06030 364.000
70.08025 349.000
70.10020 352.000
70.12014 342.000
70.14009 361.000
70.16004 315.000
70.17998 368.000
70.19993 329.000
70.21988 350.000
70.23982 396.000
70.25977 341.000
70.27972 358.000
70.29967 347.000
70.31961 351.000
70.33956 302.000
70.35951 355.000
70.37945 364.000
70.39940 363.000
70.41935 346.000
70.43929 320.000
70.45924 381.000
70.47919 380.000
70.49914 352.000
70.51908 362.000
70.53903 362.000
70.55898 353.000
70.57892 384.000
70.59887 316.000
70.61882 357.000
70.63876 363.000
70.65871 356.000
70.67866 374.000
70.69860 360.000
70.71855 351.000
70.73850 340.000
70.75845 381.000
70.77839 398.000
70.79834 352.000
70.81829 354.000
70.83823 337.000
70.85818 369.000
70.87813 373.000
70.89807 361.000
70.91802 363.000
70.93797 364.000
70.95792 330.000
70.97786 359.000
70.99781 378.000
71.01776 367.000
71.03770 349.000
71.05765 351.000
71.07760 356.000
71.09754 360.000
71.11749 358.000
71.13744 386.000
71.15738 388.000
71.17733 389.000
71.19728 359.000
71.21723 323.000
71.23717 387.000
71.25712 347.000
71.27707 333.000
71.29701 352.000
71.31696 410.000
71.33691 328.000
71.35685 362.000
71.37680 345.000
71.39675 371.000
71.41670 360.000
71.43664 388.000
71.45659 342.000
71.47654 387.000
71.49648 361.000
71.51643 360.000
71.53638 352.000
71.55632 378.000
71.57627 360.000
71.59622 361.000
71.61616 410.000
71.63611 385.000
71.65606 390.000
71.67601 389.000
71.69595 393.000
71.71590 367.000
71.73585 400.000
71.75579 397.000
71.77574 388.000
71.79569 431.000
71.81563 358.000
71.83558 403.000
71.85553 386.000
71.87548 404.000
71.89542 425.000
71.91537 420.000
71.93532 370.000
71.95526 421.000
71.97521 384.000
71.99516 373.000
72.01510 397.000
72.03505 362.000
72.05500 391.000
72.07495 363.000
72.09489 385.000
72.11484 378.000
72.13479 398.000
72.15473 373.000
72.17468 385.000
72.19463 361.000
72.21457 366.000
72.23452 357.000
72.25447 399.000
72.27441 376.000
72.29436 344.000
72.31431 358.000
72.33426 379.000
72.35420 383.000
72.37415 361.000
72.39410 352.000
72.41404 366.000
72.43399 342.000
72.45394 404.000
72.47388 332.000
72.49383 346.000
72.51378 375.000
72.53373 400.000
72.55367 386.000
72.57362 359.000
72.59357 326.000
72.61351 371.000
72.63346 402.000
72.65341 337.000
72.67335 337.000
72.69330 338.000
72.71325 354.000
72.73319 385.000
72.75314 344.000
72.77309 346.000
72.79304 364.000
72.81298 327.000
72.83293 359.000
72.85288 347.000
72.87282 393.000
72.89277 362.000
72.91272 350.000
72.93266 330.000
72.95261 371.000
72.97256 377.000
72.99251 337.000
73.01245 344.000
73.03240 356.000
73.05235 359.000
73.07229 347.000
73.09224 327.000
73.11219 358.000
73.13213 363.000
73.15208 367.000
73.17203 371.000
73.19197 346.000
73.21192 360.000
73.23187 335.000
73.25182 354.000
73.27176 358.000
73.29171 380.000
73.31166 350.000
73.33160 359.000
73.35155 376.000
73.37150 377.000
73.39144 321.000
73.41139 356.000
73.43134 378.000
73.45129 373.000
73.47123 342.000
73.49118 376.000
73.51113 385.000
73.53107 365.000
73.55102 377.000
73.57097 356.000
73.59091 348.000
73.61086 373.000
73.63081 365.000
73.65076 345.000
73.67070 319.000
73.69065 346.000
73.71060 382.000
73.73054 395.000
73.75049 348.000
73.77044 325.000
73.79038 363.000
73.81033 312.000
73.83028 376.000
73.85022 320.000
73.87017 354.000
73.89012 383.000
73.91007 345.000
73.93001 390.000
73.94996 338.000
73.96991 379.000
73.98985 387.000
74.00980 358.000
74.02975 363.000
74.04969 351.000
74.06964 386.000
74.08959 380.000
74.10954 366.000
74.12948 364.000
74.14943 372.000
74.16938 397.000
74.18932 382.000
74.20927 355.000
74.22922 389.000
74.24916 377.000
74.26911 375.000
74.28906 373.000
74.30900 393.000
74.32895 378.000
74.34890 407.000
74.36885 404.000
74.38879 347.000
74.40874 365.000
74.42869 389.000
74.44863 385.000
74.46858 420.000
74.48853 380.000
74.50847 394.000
74.52842 405.000
74.54837 411.000
74.56832 407.000
74.58826 413.000
74.60821 411.000
74.62816 425.000
74.64810 398.000
74.66805 384.000
74.68800 456.000
74.70794 404.000
74.72789 423.000
74.74784 366.000
74.76778 456.000
74.78773 403.000
74.80768 367.000
74.82763 407.000
74.84757 377.000
74.86752 365.000
74.88747 411.000
74.90741 378.000
74.92736 374.000
74.94731 356.000
74.96725 398.000
74.98720 368.000
75.00715 383.000
75.02710 365.000
75.04704 365.000
75.06699 356.000
75.08694 350.000
75.10688 353.000
75.12683 391.000
75.14678 328.000
75.16672 377.000
75.18667 323.000
75.20662 361.000
75.22657 314.000
75.24651 353.000
75.26646 350.000
75.28641 366.000
75.30635 342.000
75.32630 353.000
75.34625 339.000
75.36619 350.000
75.38614 348.000
75.40609 354.000
75.42603 361.000
75.44598 349.000
75.46593 340.000
75.48588 353.000
75.50582 368.000
75.52577 350.000
75.54572 306.000
75.56566 355.000
75.58561 365.000
75.60556 367.000
75.62550 343.000
75.64545 335.000
75.66540 320.000
75.68535 356.000
75.70529 313.000
75.72524 320.000
75.74519 336.000
75.76513 360.000
75.78508 366.000
75.80503 356.000
75.82497 347.000
75.84492 328.000
75.86487 355.000
75.88481 365.000
75.90476 337.000
75.92471 361.000
75.94466 354.000
75.96460 362.000
75.98455 385.000
76.00450 364.000
76.02444 326.000
76.04439 336.000
76.06434 314.000
76.08428 384.000
76.10423 342.000
76.12418 357.000
76.14413 381.000
76.16407 373.000
76.18402 368.000
76.20397 347.000
76.22391 340.000
76.24386 317.000
76.26381 346.000
76.28375 358.000
76.30370 335.000
76.32365 343.000
76.34359 368.000
76.36354 337.000
76.38349 346.000
76.40344 343.000
76.42338 349.000
76.44333 326.000
76.46328 320.000
76.48322 339.000
76.50317 328.000
76.52312 354.000
76.54306 327.000
76.56301 360.000
76.58296 388.000
76.60291 340.000
76.62285 344.000
76.64280 334.000
76.66275 324.000
76.68269 322.000
76.70264 325.000
76.72259 394.000
76.74253 358.000
76.76248 357.000
76.78243 332.000
76.80238 333.000
76.82232 342.000
76.84227 356.000
76.86222 344.000
76.88216 339.000
76.90211 358.000
76.92206 367.000
76.94200 338.000
76.96195 335.000
76.98190 350.000
77.00184 331.000
77.02179 358.000
77.04174 366.000
77.06169 325.000
77.08163 372.000
77.10158 361.000
77.12153 360.000
77.14147 359.000
77.16142 370.000
77.18137 381.000
77.20131 334.000
77.22126 314.000
77.24121 382.000
77.26116 293.000
77.28110 344.000
77.30105 364.000
77.32100 345.000
77.34094 340.000
77.36089 339.000
77.38084 322.000
77.40078 316.000
77.42073 358.000
77.44068 290.000
77.46062 332.000
77.48057 351.000
77.50052 326.000
77.52047 357.000
77.54041 327.000
77.56036 345.000
77.58031 383.000
77.60025 347.000
77.62020 368.000
77.64015 383.000
77.66009 325.000
77.68004 337.000
77.69999 341.000
77.71994 352.000
77.73988 388.000
77.75983 328.000
77.77978 387.000
77.79972 346.000
77.81967 331.000
77.83962 341.000
77.85956 345.000
77.87951 334.000
77.89946 353.000
77.91940 347.000
77.93935 346.000
77.95930 391.000
77.97925 313.000
77.99919 331.000
78.01914 356.000
78.03909 372.000
78.05903 308.000
78.07898 326.000
78.09893 351.000
78.11887 322.000
78.13882 378.000
78.15877 328.000
78.17872 370.000
78.19866 350.000
78.21861 353.000
78.23856 354.000
78.25850 337.000
78.27845 347.000
78.29840 345.000
78.31834 347.000
78.33829 319.000
78.35824 334.000
78.37819 382.000
78.39813 314.000
78.41808 358.000
78.43803 348.000
78.45797 326.000
78.47792 330.000
78.49787 341.000
78.51781 368.000
78.53776 349.000
78.55771 348.000
78.57765 323.000
78.59760 320.000
78.61755 340.000
78.63750 325.000
78.65744 343.000
78.67739 341.000
78.69734 336.000
78.71728 386.000
78.73723 334.000
78.75718 351.000
78.77712 345.000
78.79707 352.000
78.81702 350.000
78.83697 327.000
78.85691 360.000
78.87686 347.000
78.89681 310.000
78.91675 356.000
78.93670 333.000
78.95665 321.000
78.97659 346.000
78.99654 350.000
79.01649 339.000
79.03643 337.000
79.05638 322.000
79.07633 351.000
79.09628 315.000
79.11622 339.000
79.13617 346.000
79.15612 362.000
79.17606 335.000
79.19601 363.000
79.21596 349.000
79.23590 326.000
79.25585 305.000
79.27580 340.000
79.29575 356.000
79.31569 343.000
79.33564 364.000
79.35559 355.000
79.37553 316.000
79.39548 369.000
79.41543 350.000
79.43537 360.000
79.45532 356.000
79.47527 336.000
79.49521 403.000
79.51516 346.000
79.53511 356.000
79.55506 368.000
79.57500 361.000
79.59495 346.000
79.61490 342.000
79.63484 352.000
79.65479 346.000
79.67474 390.000
79.69468 370.000
79.71463 326.000
79.73458 352.000
79.75453 363.000
79.77447 320.000
79.79442 333.000
79.81437 330.000
79.83431 354.000
79.85426 339.000
79.87421 376.000
79.89415 341.000
79.91410 340.000
79.93405 341.000
79.95399 374.000
79.97394 332.000
79.99389 369.000
80.01384 361.000
80.03378 336.000
80.05373 336.000
80.07368 342.000
80.09362 389.000
80.11357 362.000
80.13352 342.000
80.15346 357.000
80.17341 358.000
80.19336 377.000
80.21331 348.000
80.23325 361.000
80.25320 348.000
80.27315 333.000
80.29309 336.000
80.31304 361.000
80.33299 342.000
80.35293 372.000
80.37288 294.000
80.39283 346.000
80.41278 368.000
80.43272 361.000
80.45267 349.000
80.47262 363.000
80.49256 334.000
80.51251 332.000
80.53246 351.000
80.55240 385.000
80.57235 358.000
80.59230 353.000
80.61224 349.000
80.63219 358.000
80.65214 339.000
80.67209 363.000
80.69203 334.000
80.71198 382.000
80.73193 299.000
80.75187 356.000
80.77182 341.000
80.79177 340.000
80.81171 346.000
80.83166 317.000
80.85161 345.000
80.87156 337.000
80.89150 356.000
80.91145 371.000
80.93140 348.000
80.95134 323.000
80.97129 318.000
80.99124 347.000
81.01118 356.000
81.03113 323.000
81.05108 325.000
81.07102 351.000
81.09097 347.000
81.11092 343.000
81.13087 359.000
81.15081 341.000
81.17076 359.000
81.19071 358.000
81.21065 366.000
81.23060 373.000
81.25055 389.000
81.27049 352.000
81.29044 336.000
81.31039 305.000
81.33034 334.000
81.35028 357.000
81.37023 343.000
81.39018 377.000
81.41012 331.000
81.43007 394.000
81.45002 347.000
81.46996 342.000
81.48991 352.000
81.50986 347.000
81.52980 350.000
81.54975 363.000
81.56970 358.000
81.58965 367.000
81.60959 331.000
81.62954 364.000
81.64949 320.000
81.66943 357.000
81.68938 357.000
81.70933 378.000
81.72927 355.000
81.74922 379.000
81.76917 392.000
81.78912 388.000
81.80906 346.000
81.82901 349.000
81.84896 336.000
81.86890 376.000
81.88885 395.000
81.90880 374.000
81.92874 343.000
81.94869 341.000
81.96864 369.000
81.98859 363.000
82.00853 390.000
82.02848 391.000
82.04843 359.000
82.06837 364.000
82.08832 404.000
82.10827 361.000
82.12821 351.000
82.14816 399.000
82.16811 354.000
82.18805 357.000
82.20800 371.000
82.22795 364.000
82.24790 385.000
82.26784 361.000
82.28779 355.000
82.30774 357.000
82.32768 330.000
82.34763 355.000
82.36758 381.000
82.38752 382.000
82.40747 345.000
82.42742 373.000
82.44737 366.000
82.46731 373.000
82.48726 377.000
82.50721 371.000
82.52715 374.000
82.54710 378.000
82.56705 358.000
82.58699 357.000
82.60694 386.000
82.62689 355.000
82.64683 388.000
82.66678 367.000
82.68673 335.000
82.70668 360.000
82.72662 382.000
82.74657 353.000
82.76652 354.000
82.78646 370.000
82.80641 360.000
82.82636 354.000
82.84630 336.000
82.86625 364.000
82.88620 356.000
82.90615 368.000
82.92609 351.000
82.94604 356.000
82.96599 369.000
82.98593 402.000
83.00588 380.000
83.02583 371.000
83.04577 394.000
83.06572 344.000
83.08567 365.000
83.10561 332.000
83.12556 338.000
83.14551 325.000
83.16546 370.000
83.18540 346.000
83.20535 391.000
83.22530 378.000
83.24524 363.000
83.26519 374.000
83.28514 356.000
83.30508 353.000
83.32503 344.000
83.34498 341.000
83.36493 368.000
83.38487 345.000
83.40482 340.000
83.42477 399.000
83.44471 365.000
83.46466 367.000
83.48461 346.000
83.50455 367.000
83.52450 367.000
83.54445 360.000
83.56440 343.000
83.58434 336.000
83.60429 368.000
83.62424 360.000
83.64418 337.000
83.66413 331.000
83.68408 352.000
83.70402 382.000
83.72397 358.000
83.74392 294.000
83.76386 364.000
83.78381 341.000
83.80376 312.000
83.82371 342.000
83.84365 321.000
83.86360 325.000
83.88355 337.000
83.90349 344.000
83.92344 356.000
83.94339 394.000
83.96333 324.000
83.98328 360.000
84.00323 331.000
84.02318 354.000
84.04312 356.000
84.06307 335.000
84.08302 300.000
84.10296 329.000
84.12291 389.000
84.14286 336.000
84.16280 389.000
84.18275 319.000
84.20270 353.000
84.22264 316.000
84.24259 350.000
84.26254 315.000
84.28249 355.000
84.30243 341.000
84.32238 353.000
84.34233 347.000
84.36227 369.000
84.38222 342.000
84.40217 352.000
84.42211 349.000
84.44206 355.000
84.46201 326.000
84.48196 346.000
84.50190 345.000
84.52185 334.000
84.54180 351.000
84.56174 346.000
84.58169 355.000
84.60164 356.000
84.62158 343.000
84.64153 342.000
84.66148 358.000
84.68142 358.000
84.70137 336.000
84.72132 348.000
84.74127 328.000
84.76121 350.000
84.78116 352.000
84.80111 358.000
84.82105 346.000
84.84100 375.000
84.86095 337.000
84.88089 337.000
84.90084 320.000
84.92079 346.000
84.94074 346.000
84.96068 329.000
84.98063 345.000
85.00058 306.000
85.02052 315.000
85.04047 352.000
85.06042 336.000
85.08036 337.000
85.10031 318.000
85.12026 306.000
85.14021 326.000
85.16015 328.000
85.18010 344.000
85.20005 372.000
85.21999 354.000
85.23994 330.000
85.25989 352.000
85.27983 378.000
85.29978 306.000
85.31973 320.000
85.33967 334.000
85.35962 370.000
85.37957 312.000
85.39952 330.000
85.41946 332.000
85.43941 341.000
85.45936 367.000
85.47930 368.000
85.49925 336.000
85.51920 358.000
85.53914 347.000
85.55909 362.000
85.57904 350.000
85.59899 321.000
85.61893 360.000
85.63888 361.000
85.65883 370.000
85.67877 305.000
85.69872 333.000
85.71867 340.000
85.73861 327.000
85.75856 345.000
85.77851 360.000
85.79845 288.000
85.81840 334.000
85.83835 352.000
85.85830 335.000
85.87824 368.000
85.89819 334.000
85.91814 333.000
85.93808 339.000
85.95803 375.000
85.97798 367.000
85.99792 320.000
86.01787 321.000
86.03782 303.000
86.05777 365.000
86.07771 295.000
86.09766 322.000
86.11761 355.000
86.13755 358.000
86.15750 327.000
86.17745 380.000
86.19739 344.000
86.21734 356.000
86.23729 346.000
86.25723 331.000
86.27718 312.000
86.29713 354.000
86.31708 364.000
86.33702 332.000
86.35697 371.000
86.37692 358.000
86.39686 350.000
86.41681 336.000
86.43676 341.000
86.45670 377.000
86.47665 341.000
86.49660 376.000
86.51655 326.000
86.53649 347.000
86.55644 359.000
86.57639 367.000
86.59633 349.000
86.61628 358.000
86.63623 341.000
86.65617 324.000
86.67612 359.000
86.69607 306.000
86.71602 358.000
86.73596 283.000
86.75591 309.000
86.77586 370.000
86.79580 323.000
86.81575 346.000
86.83570 356.000
86.85564 329.000
86.87559 317.000
86.89554 362.000
86.91548 342.000
86.93543 331.000
86.95538 326.000
86.97533 338.000
86.99527 336.000
87.01522 346.000
87.03517 320.000
87.05511 286.000
87.07506 331.000
87.09501 328.000
87.11495 321.000
87.13490 307.000
87.15485 378.000
87.17480 326.000
87.19474 348.000
87.21469 358.000
87.23464 338.000
87.25458 327.000
87.27453 306.000
87.29448 344.000
87.31442 302.000
87.33437 360.000
87.35432 354.000
87.37426 340.000
87.39421 347.000
87.41416 342.000
87.43411 351.000
87.45405 333.000
87.47400 311.000
87.49395 350.000
87.51389 354.000
87.53384 324.000
87.55379 350.000
87.57373 328.000
87.59368 344.000
87.61363 341.000
87.63358 347.000
87.65352 335.000
87.67347 361.000
87.69342 344.000
87.71336 308.000
87.73331 345.000
87.75326 367.000
87.77320 353.000
87.79315 299.000
87.81310 340.000
87.83304 368.000
87.85299 316.000
87.87294 348.000
87.89289 300.000
87.91283 364.000
87.93278 329.000
87.95273 334.000
87.97267 319.000
87.99262 314.000
88.01257 342.000
88.03251 344.000
88.05246 352.000
88.07241 327.000
88.09236 376.000
88.11230 325.000
88.13225 368.000
88.15220 323.000
88.17214 336.000
88.19209 319.000
88.21204 338.000
88.23198 349.000
88.25193 338.000
88.27188 336.000
88.29183 323.000
88.31177 348.000
88.33172 298.000
88.35167 310.000
88.37161 350.000
88.39156 307.000
88.41151 324.000
88.43145 343.000
88.45140 342.000
88.47135 316.000
88.49129 302.000
88.51124 310.000
88.53119 336.000
88.55114 295.000
88.57108 373.000
88.59103 345.000
88.61098 351.000
88.63092 335.000
88.65087 330.000
88.67082 351.000
88.69076 316.000
88.71071 344.000
88.73066 333.000
88.75061 364.000
88.77055 320.000
88.79050 325.000
88.81045 345.000
88.83039 340.000
88.85034 312.000
88.87029 345.000
88.89023 366.000
88.91018 318.000
88.93013 342.000
88.95007 351.000
88.97002 359.000
88.98997 307.000
89.00992 329.000
89.02986 335.000
89.04981 311.000
89.06976 354.000
89.08970 332.000
89.10965 354.000
89.12960 360.000
89.14954 359.000
89.16949 358.000
89.18944 379.000
89.20939 396.000
89.22933 388.000
89.24928 357.000
89.26923 348.000
89.28917 354.000
89.30912 340.000
89.32907 381.000
89.34901 338.000
89.36896 335.000
89.38891 349.000
89.40885 340.000
89.42880 349.000
89.44875 356.000
89.46870 359.000
89.48864 360.000
89.50859 333.000
89.52854 372.000
89.54848 378.000
89.56843 353.000
89.58838 335.000
89.60832 386.000
89.62827 306.000
89.64822 350.000
89.66817 358.000
89.68811 320.000
89.70806 373.000
89.72801 345.000
89.74795 381.000
89.76790 327.000
89.78785 311.000
89.80779 331.000
89.82774 338.000
89.84769 336.000
89.86764 330.000
89.88758 337.000
89.90753 373.000
89.92748 345.000
89.94742 294.000
89.96737 316.000
89.98732 336.000
90.00726 332.000
