10.00000 103.000
10.01995 83.000
10.03989 97.000
10.05984 100.000
10.07979 99.000
10.09973 106.000
10.11968 79.000
10.13963 103.000
10.15958 110.000
10.17952 97.000
10.19947 99.000
10.21942 105.000
10.23936 114.000
10.25931 128.000
10.27926 96.000
10.29920 111.000
10.31915 93.000
10.33910 128.000
10.35905 90.000
10.37899 111.000
10.39894 92.000
10.41889 107.000
10.43883 121.000
10.45878 108.000
10.47873 97.000
10.49867 77.000
10.51862 81.000
10.53857 104.000
10.55851 97.000
10.57846 114.000
10.59841 92.000
10.61836 83.000
10.63830 112.000
10.65825 94.000
10.67820 99.000
10.69814 96.000
10.71809 106.000
10.73804 97.000
10.75798 88.000
10.77793 89.000
10.79788 97.000
10.81783 95.000
10.83777 121.000
10.85772 79.000
10.87767 92.000
10.89761 88.000
10.91756 98.000
10.93751 95.000
10.95745 99.000
10.97740 94.000
10.99735 93.000
11.01730 112.000
11.03724 97.000
11.05719 86.000
11.07714 107.000
11.09708 83.000
11.11703 110.000
11.13698 106.000
11.15692 102.000
11.17687 95.000
11.19682 95.000
11.21676 97.000
11.23671 97.000
11.25666 110.000
11.27661 115.000
11.29655 119.000
11.31650 108.000
11.33645 90.000
11.35639 106.000
11.37634 104.000
11.39629 117.000
11.41623 102.000
11.43618 83.000
11.45613 99.000
11.47608 114.000
11.49602 108.000
11.51597 83.000
11.53592 95.000
11.55586 76.000
11.57581 94.000
11.59576 96.000
11.61570 95.000
11.63565 99.000
11.65560 96.000
11.67554 83.000
11.69549 95.000
11.71544 95.000
11.73539 86.000
11.75533 96.000
11.77528 77.000
11.79523 94.000
11.81517 82.000
11.83512 100.000
11.85507 103.000
11.87501 99.000
11.89496 103.000
11.91491 92.000
11.93486 91.000
11.95480 92.000
11.97475 97.000
11.99470 103.000
12.01464 105.000
12.03459 93.000
12.05454 102.000
12.07448 98.000
12.09443 85.000
12.11438 66.000
12.13432 95.000
12.15427 85.000
12.17422 97.000
12.19417 91.000
12.21411 103.000
12.23406 92.000
12.25401 94.000
12.27395 83.000
12.29390 91.000
12.31385 80.000
12.33379 93.000
12.35374 98.000
12.37369 82.000
12.39364 88.000
12.41358 101.000
12.43353 99.000
12.45348 90.000
12.47342 103.000
12.49337 98.000
12.51332 76.000
12.53326 88.000
12.55321 83.000
12.57316 96.000
12.59311 101.000
12.61305 79.000
12.63300 73.000
12.65295 105.000
12.67289 79.000
12.69284 80.000
12.71279 96.000
12.73273 69.000
12.75268 90.000
12.77263 106.000
12.79257 91.000
12.81252 85.000
12.83247 96.000
12.85242 103.000
12.87236 70.000
12.89231 102.000
12.91226 78.000
12.93220 98.000
12.95215 77.000
12.97210 90.000
12.99204 86.000
13.01199 82.000
13.03194 84.000
13.05189 80.000
13.07183 88.000
13.09178 89.000
13.11173 114.000
13.13167 88.000
13.15162 85.000
13.17157 88.000
13.19151 86.000
13.21146 82.000
13.23141 81.000
13.25135 90.000
13.27130 107.000
13.29125 97.000
13.31120 96.000
13.33114 89.000
13.35109 81.000
13.37104 88.000
13.39098 82.000
13.41093 100.000
13.43088 75.000
13.45082 89.000
13.47077 96.000
13.49072 84.000
13.51067 104.000
13.53061 87.000
13.55056 85.000
13.57051 93.000
13.59045 84.000
13.61040 88.000
13.63035 87.000
13.65029 81.000
13.67024 82.000
13.69019 97.000
13.71013 90.000
13.73008 88.000
13.75003 94.000
13.76998 97.000
13.78992 102.000
13.80987 86.000
13.82982 85.000
13.84976 98.000
13.86971 94.000
13.88966 89.000
13.90960 102.000
13.92955 91.000
13.94950 88.000
13.96945 103.000
13.98939 92.000
14.00934 115.000
14.02929 94.000
14.04923 84.000
14.06918 110.000
14.08913 85.000
14.10907 112.000
14.12902 85.000
14.14897 92.000
14.16892 100.000
14.18886 97.000
14.20881 98.000
14.22876 109.000
14.24870 94.000
14.26865 103.000
14.28860 112.000
14.30854 83.000
14.32849 113.000
14.34844 111.000
14.36838 84.000
14.38833 95.000
14.40828 90.000
14.42823 96.000
14.44817 94.000
14.46812 110.000
14.48807 122.000
14.50801 110.000
14.52796 88.000
14.54791 111.000
14.56785 96.000
14.58780 113.000
14.60775 118.000
14.62770 115.000
14.64764 105.000
14.66759 137.000
14.68754 124.000
14.70748 117.000
14.72743 127.000
14.74738 123.000
14.76732 123.000
14.78727 124.000
14.80722 133.000
14.82716 131.000
14.84711 128.000
14.86706 118.000
14.88701 109.000
14.90695 102.000
14.92690 110.000
14.94685 113.000
14.96679 83.000
14.98674 117.000
15.00669 101.000
15.02663 101.000
15.04658 102.000
15.06653 104.000
15.08648 91.000
15.10642 93.000
15.12637 95.000
15.14632 100.000
15.16626 98.000
15.18621 105.000
15.20616 106.000
15.22610 92.000
15.24605 93.000
15.26600 98.000
15.28594 99.000
15.30589 100.000
15.32584 106.000
15.34579 101.000
15.36573 90.000
15.38568 87.000
15.40563 88.000
15.42557 110.000
15.44552 98.000
15.46547 102.000
15.48541 113.000
15.50536 80.000
15.52531 100.000
15.54526 112.000
15.56520 112.000
15.58515 88.000
15.60510 86.000
15.62504 99.000
15.64499 99.000
15.66494 100.000
15.68488 85.000
15.70483 100.000
15.72478 86.000
15.74472 103.000
15.76467 104.000
15.78462 107.000
15.80457 105.000
15.82451 84.000
15.84446 91.000
15.86441 82.000
15.88435 76.000
15.90430 115.000
15.92425 80.000
15.94419 109.000
15.96414 106.000
15.98409 96.000
16.00404 98.000
16.02398 96.000
16.04393 104.000
16.06388 104.000
16.08382 107.000
16.10377 93.000
16.12372 91.000
16.14366 97.000
16.16361 104.000
16.18356 78.000
16.20351 89.000
16.22345 103.000
16.24340 98.000
16.26335 85.000
16.28329 118.000
16.30324 103.000
16.32319 85.000
16.34313 98.000
16.36308 98.000
16.38303 93.000
16.40297 88.000
16.42292 83.000
16.44287 113.000
16.46282 85.000
16.48276 90.000
16.50271 111.000
16.52266 97.000
16.54260 91.000
16.56255 105.000
16.58250 83.000
16.60244 130.000
16.62239 100.000
16.64234 95.000
16.66229 102.000
16.68223 99.000
16.70218 107.000
16.72213 87.000
16.74207 108.000
16.76202 112.000
16.78197 111.000
16.80191 125.000
16.82186 117.000
16.84181 115.000
16.86175 126.000
16.88170 124.000
16.90165 142.000
16.92160 121.000
16.94154 123.000
16.96149 138.000
16.98144 107.000
17.00138 95.000
17.02133 126.000
17.04128 106.000
17.06122 104.000
17.08117 127.000
17.10112 116.000
17.12107 126.000
17.14101 126.000
17.16096 98.000
17.18091 103.000
17.20085 136.000
17.22080 113.000
17.24075 120.000
17.26069 130.000
17.28064 125.000
17.30059 136.000
17.32053 159.000
17.34048 126.000
17.36043 135.000
17.38038 126.000
17.40032 134.000
17.42027 119.000
17.44022 128.000
17.46016 110.000
17.48011 96.000
17.50006 108.000
17.52000 88.000
17.53995 113.000
17.55990 105.000
17.57985 109.000
17.59979 111.000
17.61974 96.000
17.63969 108.000
17.65963 100.000
17.67958 94.000
17.69953 107.000
17.71947 102.000
17.73942 108.000
17.75937 88.000
17.77932 108.000
17.79926 107.000
17.81921 93.000
17.83916 93.000
17.85910 93.000
17.87905 112.000
17.89900 106.000
17.91894 95.000
17.93889 95.000
17.95884 88.000
17.97878 104.000
17.99873 111.000
18.01868 86.000
18.03863 114.000
18.05857 84.000
18.07852 106.000
18.09847 101.000
18.11841 98.000
18.13836 94.000
18.15831 92.000
18.17825 117.000
18.19820 111.000
18.21815 126.000
18.23810 104.000
18.25804 118.000
18.27799 149.000
18.29794 146.000
18.31788 164.000
18.33783 160.000
18.35778 192.000
18.37772 203.000
18.39767 203.000
18.41762 236.000
18.43756 352.000
18.45751 336.000
18.47746 348.000
18.49741 259.000
18.51735 185.000
18.53730 145.000
18.55725 115.000
18.57719 147.000
18.59714 122.000
18.61709 118.000
18.63703 100.000
18.65698 103.000
18.67693 101.000
18.69688 103.000
18.71682 93.000
18.73677 125.000
18.75672 108.000
18.77666 94.000
18.79661 97.000
18.81656 100.000
18.83650 86.000
18.85645 91.000
18.87640 99.000
18.89634 114.000
18.91629 105.000
18.93624 93.000
18.95619 109.000
18.97613 102.000
18.99608 92.000
19.01603 96.000
19.03597 103.000
19.05592 94.000
19.07587 91.000
19.09581 102.000
19.11576 99.000
19.13571 98.000
19.15566 105.000
19.17560 91.000
19.19555 97.000
19.21550 92.000
19.23544 105.000
19.25539 91.000
19.27534 114.000
19.29528 102.000
19.31523 87.000
19.33518 87.000
19.35513 92.000
19.37507 95.000
19.39502 99.000
19.41497 98.000
19.43491 99.000
19.45486 81.000
19.47481 92.000
19.49475 87.000
19.51470 106.000
19.53465 81.000
19.55459 87.000
19.57454 101.000
19.59449 94.000
19.61444 107.000
19.63438 101.000
19.65433 115.000
19.67428 109.000
19.69422 100.000
19.71417 108.000
19.73412 99.000
19.75406 100.000
19.77401 97.000
19.79396 116.000
19.81391 106.000
19.83385 105.000
19.85380 99.000
19.87375 97.000
19.89369 120.000
19.91364 115.000
19.93359 122.000
19.95353 110.000
19.97348 122.000
19.99343 127.000
20.01337 110.000
20.03332 115.000
20.05327 122.000
20.07322 115.000
20.09316 100.000
20.11311 112.000
20.13306 90.000
20.15300 111.000
20.17295 99.000
20.19290 90.000
20.21284 124.000
20.23279 112.000
20.25274 113.000
20.27269 112.000
20.29263 108.000
20.31258 112.000
20.33253 114.000
20.35247 94.000
20.37242 134.000
20.39237 133.000
20.41231 136.000
20.43226 138.000
20.45221 152.000
20.47215 166.000
20.49210 167.000
20.51205 145.000
20.53200 191.000
20.55194 188.000
20.57189 197.000
20.59184 183.000
20.61178 214.000
20.63173 216.000
20.65168 204.000
20.67162 206.000
20.69157 204.000
20.71152 203.000
20.73147 232.000
20.75141 183.000
20.77136 181.000
20.79131 196.000
20.81125 208.000
20.83120 210.000
20.85115 218.000
20.87109 218.000
20.89104 230.000
20.91099 231.000
20.93094 204.000
20.95088 197.000
20.97083 202.000
20.99078 203.000
21.01072 179.000
21.03067 191.000
21.05062 182.000
21.07056 166.000
21.09051 154.000
21.11046 141.000
21.13040 129.000
21.15035 136.000
21.17030 126.000
21.19025 124.000
21.21019 122.000
21.23014 106.000
21.25009 132.000
21.27003 88.000
21.28998 97.000
21.30993 102.000
21.32987 103.000
21.34982 121.000
21.36977 104.000
21.38972 107.000
21.40966 99.000
21.42961 98.000
21.44956 91.000
21.46950 105.000
21.48945 116.000
21.50940 115.000
21.52934 109.000
21.54929 94.000
21.56924 101.000
21.58918 97.000
21.60913 81.000
21.62908 135.000
21.64903 98.000
21.66897 119.000
21.68892 92.000
21.70887 100.000
21.72881 106.000
21.74876 104.000
21.76871 99.000
21.78865 101.000
21.80860 80.000
21.82855 98.000
21.84850 98.000
21.86844 96.000
21.88839 117.000
21.90834 114.000
21.92828 94.000
21.94823 97.000
21.96818 117.000
21.98812 116.000
22.00807 92.000
22.02802 115.000
22.04796 105.000
22.06791 135.000
22.08786 101.000
22.10781 121.000
22.12775 121.000
22.14770 132.000
22.16765 133.000
22.18759 112.000
22.20754 117.000
22.22749 126.000
22.24743 102.000
22.26738 119.000
22.28733 96.000
22.30728 100.000
22.32722 100.000
22.34717 101.000
22.36712 101.000
22.38706 98.000
22.40701 100.000
22.42696 107.000
22.44690 109.000
22.46685 112.000
22.48680 112.000
22.50675 116.000
22.52669 135.000
22.54664 106.000
22.56659 108.000
22.58653 95.000
22.60648 99.000
22.62643 104.000
22.64637 117.000
22.66632 97.000
22.68627 101.000
22.70621 111.000
22.72616 98.000
22.74611 104.000
22.76606 115.000
22.78600 120.000
22.80595 96.000
22.82590 133.000
22.84584 120.000
22.86579 112.000
22.88574 99.000
22.90568 114.000
22.92563 98.000
22.94558 88.000
22.96553 93.000
22.98547 104.000
23.00542 122.000
23.02537 102.000
23.04531 111.000
23.06526 102.000
23.08521 109.000
23.10515 110.000
23.12510 97.000
23.14505 111.000
23.16499 88.000
23.18494 117.000
23.20489 100.000
23.22484 115.000
23.24478 84.000
23.26473 112.000
23.28468 113.000
23.30462 106.000
23.32457 128.000
23.34452 112.000
23.36446 104.000
23.38441 118.000
23.40436 126.000
23.42431 127.000
23.44425 111.000
23.46420 106.000
23.48415 120.000
23.50409 110.000
23.52404 129.000
23.54399 114.000
23.56393 119.000
23.58388 113.000
23.60383 135.000
23.62377 84.000
23.64372 120.000
23.66367 116.000
23.68362 111.000
23.70356 108.000
23.72351 114.000
23.74346 114.000
23.76340 109.000
23.78335 130.000
23.80330 95.000
23.82324 110.000
23.84319 104.000
23.86314 110.000
23.88309 107.000
23.90303 118.000
23.92298 98.000
23.94293 114.000
23.96287 111.000
23.98282 116.000
24.00277 120.000
24.02271 120.000
24.04266 118.000
24.06261 112.000
24.08256 122.000
24.10250 122.000
24.12245 115.000
24.14240 122.000
24.16234 123.000
24.18229 112.000
24.20224 104.000
24.22218 111.000
24.24213 131.000
24.26208 108.000
24.28202 114.000
24.30197 115.000
24.32192 126.000
24.34187 117.000
24.36181 93.000
24.38176 118.000
24.40171 115.000
24.42165 121.000
24.44160 123.000
24.46155 124.000
24.48149 119.000
24.50144 120.000
24.52139 132.000
24.54134 120.000
24.56128 112.000
24.58123 109.000
24.60118 89.000
24.62112 115.000
24.64107 91.000
24.66102 122.000
24.68096 98.000
24.70091 119.000
24.72086 91.000
24.74080 102.000
24.76075 117.000
24.78070 121.000
24.80065 129.000
24.82059 127.000
24.84054 117.000
24.86049 112.000
24.88043 115.000
24.90038 100.000
24.92033 128.000
24.94027 120.000
24.96022 118.000
24.98017 126.000
25.00012 121.000
25.02006 125.000
25.04001 149.000
25.05996 126.000
25.07990 132.000
25.09985 129.000
25.11980 122.000
25.13974 120.000
25.15969 134.000
25.17964 108.000
25.19958 128.000
25.21953 114.000
25.23948 122.000
25.25943 113.000
25.27937 120.000
25.29932 114.000
25.31927 105.000
25.33921 112.000
25.35916 121.000
25.37911 113.000
25.39905 119.000
25.41900 130.000
25.43895 126.000
25.45890 115.000
25.47884 118.000
25.49879 125.000
25.51874 128.000
25.53868 116.000
25.55863 153.000
25.57858 153.000
25.59852 138.000
25.61847 92.000
25.63842 120.000
25.65837 107.000
25.67831 128.000
25.69826 124.000
25.71821 126.000
25.73815 121.000
25.75810 124.000
25.77805 133.000
25.79799 129.000
25.81794 108.000
25.83789 127.000
25.85783 136.000
25.87778 111.000
25.89773 117.000
25.91768 122.000
25.93762 138.000
25.95757 132.000
25.97752 112.000
25.99746 119.000
26.01741 126.000
26.03736 143.000
26.05730 137.000
26.07725 137.000
26.09720 119.000
26.11715 124.000
26.13709 109.000
26.15704 132.000
26.17699 115.000
26.19693 131.000
26.21688 118.000
26.23683 128.000
26.25677 128.000
26.27672 103.000
26.29667 143.000
26.31661 125.000
26.33656 117.000
26.35651 112.000
26.37646 127.000
26.39640 132.000
26.41635 121.000
26.43630 143.000
26.45624 131.000
26.47619 123.000
26.49614 121.000
26.51608 126.000
26.53603 138.000
26.55598 135.000
26.57593 124.000
26.59587 136.000
26.61582 123.000
26.63577 134.000
26.65571 122.000
26.67566 129.000
26.69561 156.000
26.71555 144.000
26.73550 127.000
26.75545 132.000
26.77539 121.000
26.79534 117.000
26.81529 114.000
26.83524 124.000
26.85518 115.000
26.87513 133.000
26.89508 128.000
26.91502 124.000
26.93497 122.000
26.95492 118.000
26.97486 140.000
26.99481 127.000
27.01476 147.000
27.03471 133.000
27.05465 147.000
27.07460 111.000
27.09455 130.000
27.11449 121.000
27.13444 124.000
27.15439 163.000
27.17433 120.000
27.19428 114.000
27.21423 156.000
27.23417 149.000
27.25412 130.000
27.27407 130.000
27.29402 127.000
27.31396 139.000
27.33391 152.000
27.35386 131.000
27.37380 143.000
27.39375 145.000
27.41370 156.000
27.43364 125.000
27.45359 149.000
27.47354 148.000
27.49349 152.000
27.51343 139.000
27.53338 126.000
27.55333 130.000
27.57327 151.000
27.59322 135.000
27.61317 150.000
27.63311 132.000
27.65306 141.000
27.67301 128.000
27.69296 141.000
27.71290 139.000
27.73285 138.000
27.75280 147.000
27.77274 139.000
27.79269 134.000
27.81264 125.000
27.83258 133.000
27.85253 149.000
27.87248 141.000
27.89242 132.000
27.91237 145.000
27.93232 121.000
27.95227 132.000
27.97221 128.000
27.99216 156.000
28.01211 138.000
28.03205 154.000
28.05200 128.000
28.07195 138.000
28.09189 154.000
28.11184 144.000
28.13179 164.000
28.15174 132.000
28.17168 140.000
28.19163 158.000
28.21158 127.000
28.23152 138.000
28.25147 136.000
28.27142 156.000
28.29136 141.000
28.31131 136.000
28.33126 155.000
28.35120 146.000
28.37115 160.000
28.39110 162.000
28.41105 135.000
28.43099 153.000
28.45094 163.000
28.47089 147.000
28.49083 149.000
28.51078 153.000
28.53073 132.000
28.55067 159.000
28.57062 136.000
28.59057 132.000
28.61052 131.000
28.63046 134.000
28.65041 152.000
28.67036 139.000
28.69030 132.000
28.71025 152.000
28.73020 141.000
28.75014 153.000
28.77009 138.000
28.79004 150.000
28.80998 165.000
28.82993 141.000
28.84988 141.000
28.86983 168.000
28.88977 138.000
28.90972 152.000
28.92967 145.000
28.94961 138.000
28.96956 154.000
28.98951 148.000
29.00945 140.000
29.02940 138.000
29.04935 172.000
29.06930 156.000
29.08924 172.000
29.10919 133.000
29.12914 162.000
29.14908 163.000
29.16903 174.000
29.18898 191.000
29.20892 185.000
29.22887 167.000
29.24882 178.000
29.26877 196.000
29.28871 183.000
29.30866 186.000
29.32861 177.000
29.34855 185.000
29.36850 202.000
29.38845 242.000
29.40839 210.000
29.42834 248.000
29.44829 246.000
29.46823 213.000
29.48818 225.000
29.50813 226.000
29.52808 231.000
29.54802 233.000
29.56797 230.000
29.58792 205.000
29.60786 201.000
29.62781 225.000
29.64776 244.000
29.66770 218.000
29.68765 194.000
29.70760 219.000
29.72755 197.000
29.74749 212.000
29.76744 212.000
29.78739 204.000
29.80733 183.000
29.82728 200.000
29.84723 179.000
29.86717 210.000
29.88712 211.000
29.90707 179.000
29.92701 185.000
29.94696 190.000
29.96691 186.000
29.98686 162.000
30.00680 171.000
30.02675 209.000
30.04670 203.000
30.06664 214.000
30.08659 235.000
30.10654 245.000
30.12648 271.000
30.14643 287.000
30.16638 269.000
30.18633 299.000
30.20627 395.000
30.22622 376.000
30.24617 416.000
30.26611 453.000
30.28606 592.000
30.30601 706.000
30.32595 798.000
30.34590 746.000
30.36585 614.000
30.38579 628.000
30.40574 565.000
30.42569 447.000
30.44564 332.000
30.46558 270.000
30.48553 197.000
30.50548 220.000
30.52542 201.000
30.54537 208.000
30.56532 185.000
30.58526 151.000
30.60521 162.000
30.62516 164.000
30.64511 156.000
30.66505 159.000
30.68500 158.000
30.70495 149.000
30.72489 156.000
30.74484 174.000
30.76479 163.000
30.78473 155.000
30.80468 163.000
30.82463 156.000
30.84458 170.000
30.86452 163.000
30.88447 130.000
30.90442 148.000
30.92436 160.000
30.94431 166.000
30.96426 153.000
30.98420 151.000
31.00415 175.000
31.02410 140.000
31.04404 158.000
31.06399 140.000
31.08394 145.000
31.10389 159.000
31.12383 143.000
31.14378 165.000
31.16373 150.000
31.18367 154.000
31.20362 135.000
31.22357 139.000
31.24351 132.000
31.26346 173.000
31.28341 134.000
31.30336 161.000
31.32330 160.000
31.34325 172.000
31.36320 155.000
31.38314 165.000
31.40309 158.000
31.42304 160.000
31.44298 152.000
31.46293 174.000
31.48288 177.000
31.50282 162.000
31.52277 150.000
31.54272 175.000
31.56267 170.000
31.58261 171.000
31.60256 168.000
31.62251 181.000
31.64245 146.000
31.66240 155.000
31.68235 164.000
31.70229 144.000
31.72224 159.000
31.74219 158.000
31.76214 144.000
31.78208 175.000
31.80203 168.000
31.82198 141.000
31.84192 147.000
31.86187 148.000
31.88182 133.000
31.90176 172.000
31.92171 141.000
31.94166 154.000
31.96160 144.000
31.98155 162.000
32.00150 160.000
32.02145 145.000
32.04139 150.000
32.06134 154.000
32.08129 137.000
32.10123 138.000
32.12118 167.000
32.14113 139.000
32.16107 164.000
32.18102 159.000
32.20097 148.000
32.22092 149.000
32.24086 136.000
32.26081 153.000
32.28076 174.000
32.30070 164.000
32.32065 162.000
32.34060 139.000
32.36054 168.000
32.38049 140.000
32.40044 160.000
32.42039 153.000
32.44033 160.000
32.46028 165.000
32.48023 159.000
32.50017 156.000
32.52012 153.000
32.54007 149.000
32.56001 161.000
32.57996 149.000
32.59991 144.000
32.61985 155.000
32.63980 135.000
32.65975 149.000
32.67970 138.000
32.69964 162.000
32.71959 158.000
32.73954 153.000
32.75948 146.000
32.77943 154.000
32.79938 151.000
32.81932 165.000
32.83927 164.000
32.85922 142.000
32.87917 164.000
32.89911 147.000
32.91906 153.000
32.93901 154.000
32.95895 156.000
32.97890 171.000
32.99885 168.000
33.01879 163.000
33.03874 137.000
33.05869 165.000
33.07863 160.000
33.09858 179.000
33.11853 190.000
33.13848 180.000
33.15842 159.000
33.17837 159.000
33.19832 153.000
33.21826 176.000
33.23821 188.000
33.25816 181.000
33.27810 215.000
33.29805 200.000
33.31800 202.000
33.33795 163.000
33.35789 196.000
33.37784 178.000
33.39779 150.000
33.41773 145.000
33.43768 163.000
33.45763 184.000
33.47757 144.000
33.49752 162.000
33.51747 176.000
33.53741 149.000
33.55736 172.000
33.57731 184.000
33.59726 150.000
33.61720 166.000
33.63715 152.000
33.65710 167.000
33.67704 176.000
33.69699 170.000
33.71694 168.000
33.73688 219.000
33.75683 210.000
33.77678 175.000
33.79673 198.000
33.81667 235.000
33.83662 216.000
33.85657 256.000
33.87651 237.000
33.89646 254.000
33.91641 238.000
33.93635 246.000
33.95630 249.000
33.97625 277.000
33.99620 270.000
34.01614 296.000
34.03609 233.000
34.05604 256.000
34.07598 242.000
34.09593 252.000
34.11588 236.000
34.13582 262.000
34.15577 229.000
34.17572 238.000
34.19566 249.000
34.21561 234.000
34.23556 267.000
34.25551 272.000
34.27545 254.000
34.29540 286.000
34.31535 286.000
34.33529 261.000
34.35524 293.000
34.37519 279.000
34.39513 298.000
34.41508 253.000
34.43503 307.000
34.45498 275.000
34.47492 303.000
34.49487 256.000
34.51482 289.000
34.53476 322.000
34.55471 282.000
34.57466 291.000
34.59460 289.000
34.61455 292.000
34.63450 245.000
34.65444 284.000
34.67439 253.000
34.69434 237.000
34.71429 239.000
34.73423 227.000
34.75418 243.000
34.77413 220.000
34.79407 224.000
34.81402 236.000
34.83397 222.000
34.85391 219.000
34.87386 251.000
34.89381 246.000
34.91376 252.000
34.93370 241.000
34.95365 251.000
34.97360 240.000
34.99354 289.000
35.01349 306.000
35.03344 267.000
35.05338 298.000
35.07333 281.000
35.09328 282.000
35.11322 309.000
35.13317 321.000
35.15312 317.000
35.17307 282.000
35.19301 309.000
35.21296 312.000
35.23291 343.000
35.25285 323.000
35.27280 331.000
35.29275 322.000
35.31269 312.000
35.33264 319.000
35.35259 285.000
35.37254 320.000
35.39248 318.000
35.41243 305.000
35.43238 326.000
35.45232 316.000
35.47227 376.000
35.49222 398.000
35.51216 466.000
35.53211 517.000
35.55206 592.000
35.57201 719.000
35.59195 781.000
35.61190 916.000
35.63185 1003.000
35.65179 1296.000
35.67174 1568.000
35.69169 1973.000
35.71163 2313.000
35.73158 2146.000
35.75153 1899.000
35.77147 1560.000
35.79142 1579.000
35.81137 1438.000
35.83132 1170.000
35.85126 928.000
35.87121 677.000
35.89116 484.000
35.91110 426.000
35.93105 330.000
35.95100 260.000
35.97094 274.000
35.99089 250.000
36.01084 218.000
36.03079 220.000
36.05073 191.000
36.07068 189.000
36.09063 193.000
36.11057 195.000
36.13052 186.000
36.15047 188.000
36.17041 193.000
36.19036 198.000
36.21031 203.000
36.23025 214.000
36.25020 205.000
36.27015 219.000
36.29010 204.000
36.31004 245.000
36.32999 269.000
36.34994 229.000
36.36988 252.000
36.38983 291.000
36.40978 257.000
36.42972 286.000
36.44967 319.000
36.46962 330.000
36.48957 342.000
36.50951 324.000
36.52946 364.000
36.54941 326.000
36.56935 269.000
36.58930 274.000
36.60925 248.000
36.62919 236.000
36.64914 230.000
36.66909 203.000
36.68903 213.000
36.70898 179.000
36.72893 222.000
36.74888 170.000
36.76882 186.000
36.78877 185.000
36.80872 158.000
36.82866 191.000
36.84861 175.000
36.86856 174.000
36.88850 196.000
36.90845 186.000
36.92840 158.000
36.94835 188.000
36.96829 174.000
36.98824 209.000
37.00819 217.000
37.02813 217.000
37.04808 240.000
37.06803 254.000
37.08797 297.000
37.10792 322.000
37.12787 327.000
37.14781 380.000
37.16776 421.000
37.18771 473.000
37.20766 578.000
37.22760 575.000
37.24755 681.000
37.26750 790.000
37.28744 768.000
37.30739 778.000
37.32734 769.000
37.34728 622.000
37.36723 640.000
37.38718 588.000
37.40713 554.000
37.42707 431.000
37.44702 397.000
37.46697 309.000
37.48691 300.000
37.50686 236.000
37.52681 214.000
37.54675 218.000
37.56670 218.000
37.58665 221.000
37.60660 223.000
37.62654 185.000
37.64649 222.000
37.66644 188.000
37.68638 188.000
37.70633 210.000
37.72628 201.000
37.74622 191.000
37.76617 165.000
37.78612 176.000
37.80606 175.000
37.82601 188.000
37.84596 173.000
37.86591 168.000
37.88585 177.000
37.90580 158.000
37.92575 154.000
37.94569 184.000
37.96564 137.000
37.98559 150.000
38.00553 127.000
38.02548 146.000
38.04543 148.000
38.06538 165.000
38.08532 142.000
38.10527 155.000
38.12522 144.000
38.14516 180.000
38.16511 147.000
38.18506 142.000
38.20500 144.000
38.22495 132.000
38.24490 123.000
38.26484 141.000
38.28479 134.000
38.30474 146.000
38.32469 124.000
38.34463 136.000
38.36458 121.000
38.38453 132.000
38.40447 128.000
38.42442 118.000
38.44437 129.000
38.46431 144.000
38.48426 140.000
38.50421 143.000
38.52416 128.000
38.54410 128.000
38.56405 134.000
38.58400 127.000
38.60394 133.000
38.62389 132.000
38.64384 143.000
38.66378 134.000
38.68373 112.000
38.70368 146.000
38.72362 142.000
38.74357 112.000
38.76352 129.000
38.78347 122.000
38.80341 123.000
38.82336 142.000
38.84331 147.000
38.86325 136.000
38.88320 135.000
38.90315 126.000
38.92309 125.000
38.94304 127.000
38.96299 138.000
38.98294 146.000
39.00288 129.000
39.02283 130.000
39.04278 145.000
39.06272 134.000
39.08267 116.000
39.10262 134.000
39.12256 130.000
39.14251 120.000
39.16246 141.000
39.18241 106.000
39.20235 128.000
39.22230 131.000
39.24225 129.000
39.26219 120.000
39.28214 120.000
39.30209 137.000
39.32203 116.000
39.34198 121.000
39.36193 142.000
39.38187 135.000
39.40182 136.000
39.42177 135.000
39.44172 153.000
39.46166 137.000
39.48161 140.000
39.50156 136.000
39.52150 120.000
39.54145 127.000
39.56140 120.000
39.58134 139.000
39.60129 119.000
39.62124 128.000
39.64119 142.000
39.66113 138.000
39.68108 142.000
39.70103 132.000
39.72097 137.000
39.74092 124.000
39.76087 142.000
39.78081 136.000
39.80076 113.000
39.82071 123.000
39.84065 139.000
39.86060 130.000
39.88055 138.000
39.90050 140.000
39.92044 157.000
39.94039 129.000
39.96034 135.000
39.98028 152.000
40.00023 147.000
40.02018 136.000
40.04012 129.000
40.06007 140.000
40.08002 143.000
40.09997 120.000
40.11991 120.000
40.13986 128.000
40.15981 115.000
40.17975 136.000
40.19970 147.000
40.21965 115.000
40.23959 139.000
40.25954 121.000
40.27949 123.000
40.29943 144.000
40.31938 124.000
40.33933 122.000
40.35928 128.000
40.37922 115.000
40.39917 135.000
40.41912 150.000
40.43906 147.000
40.45901 164.000
40.47896 137.000
40.49890 138.000
40.51885 150.000
40.53880 123.000
40.55875 136.000
40.57869 127.000
40.59864 150.000
40.61859 128.000
40.63853 142.000
40.65848 143.000
40.67843 123.000
40.69837 126.000
40.71832 133.000
40.73827 121.000
40.75822 167.000
40.77816 148.000
40.79811 156.000
40.81806 147.000
40.83800 149.000
40.85795 157.000
40.87790 171.000
40.89784 162.000
40.91779 163.000
40.93774 165.000
40.95768 201.000
40.97763 185.000
40.99758 222.000
41.01753 175.000
41.03747 197.000
41.05742 209.000
41.07737 236.000
41.09731 214.000
41.11726 241.000
41.13721 273.000
41.15715 274.000
41.17710 253.000
41.19705 274.000
41.21700 280.000
41.23694 270.000
41.25689 296.000
41.27684 315.000
41.29678 320.000
41.31673 305.000
41.33668 313.000
41.35662 303.000
41.37657 311.000
41.39652 299.000
41.41646 323.000
41.43641 307.000
41.45636 293.000
41.47631 331.000
41.49625 280.000
41.51620 292.000
41.53615 300.000
41.55609 322.000
41.57604 321.000
41.59599 297.000
41.61593 326.000
41.63588 296.000
41.65583 330.000
41.67578 323.000
41.69572 343.000
41.71567 355.000
41.73562 389.000
41.75556 438.000
41.77551 392.000
41.79546 391.000
41.81540 404.000
41.83535 457.000
41.85530 481.000
41.87524 512.000
41.89519 547.000
41.91514 558.000
41.93509 578.000
41.95503 590.000
41.97498 540.000
41.99493 566.000
42.01487 516.000
42.03482 549.000
42.05477 469.000
42.07471 415.000
42.09466 317.000
42.11461 325.000
42.13456 254.000
42.15450 264.000
42.17445 250.000
42.19440 214.000
42.21434 204.000
42.23429 170.000
42.25424 162.000
42.27418 171.000
42.29413 170.000
42.31408 155.000
42.33403 138.000
42.35397 147.000
42.37392 126.000
42.39387 146.000
42.41381 148.000
42.43376 167.000
42.45371 154.000
42.47365 163.000
42.49360 158.000
42.51355 150.000
42.53349 160.000
42.55344 156.000
42.57339 145.000
42.59334 161.000
42.61328 157.000
42.63323 172.000
42.65318 150.000
42.67312 123.000
42.69307 148.000
42.71302 139.000
42.73296 162.000
42.75291 151.000
42.77286 160.000
42.79281 186.000
42.81275 151.000
42.83270 162.000
42.85265 163.000
42.87259 173.000
42.89254 191.000
42.91249 163.000
42.93243 166.000
42.95238 190.000
42.97233 199.000
42.99227 230.000
43.01222 193.000
43.03217 242.000
43.05212 267.000
43.07206 302.000
43.09201 317.000
43.11196 336.000
43.13190 395.000
43.15185 462.000
43.17180 517.000
43.19174 588.000
43.21169 738.000
43.23164 768.000
43.25159 869.000
43.27153 1032.000
43.29148 1130.000
43.31143 1265.000
43.33137 1272.000
43.35132 1152.000
43.37127 1083.000
43.39121 1095.000
43.41116 1089.000
43.43111 950.000
43.45105 910.000
43.47100 674.000
43.49095 617.000
43.51090 495.000
43.53084 418.000
43.55079 375.000
43.57074 321.000
43.59068 257.000
43.61063 221.000
43.63058 206.000
43.65052 187.000
43.67047 177.000
43.69042 154.000
43.71037 146.000
43.73031 161.000
43.75026 144.000
43.77021 141.000
43.79015 151.000
43.81010 128.000
43.83005 131.000
43.84999 138.000
43.86994 121.000
43.88989 106.000
43.90984 136.000
43.92978 129.000
43.94973 141.000
43.96968 160.000
43.98962 137.000
44.00957 132.000
44.02952 132.000
44.04946 127.000
44.06941 112.000
44.08936 124.000
44.10930 117.000
44.12925 107.000
44.14920 123.000
44.16915 132.000
44.18909 125.000
44.20904 138.000
44.22899 122.000
44.24893 107.000
44.26888 120.000
44.28883 126.000
44.30877 121.000
44.32872 120.000
44.34867 112.000
44.36862 111.000
44.38856 136.000
44.40851 124.000
44.42846 136.000
44.44840 127.000
44.46835 118.000
44.48830 146.000
44.50824 131.000
44.52819 129.000
44.54814 107.000
44.56808 117.000
44.58803 128.000
44.60798 107.000
44.62793 113.000
44.64787 135.000
44.66782 114.000
44.68777 98.000
44.70771 115.000
44.72766 123.000
44.74761 122.000
44.76755 112.000
44.78750 106.000
44.80745 121.000
44.82740 132.000
44.84734 135.000
44.86729 134.000
44.88724 129.000
44.90718 151.000
44.92713 117.000
44.94708 117.000
44.96702 125.000
44.98697 125.000
45.00692 132.000
45.02686 116.000
45.04681 126.000
45.06676 132.000
45.08671 135.000
45.10665 148.000
45.12660 146.000
45.14655 121.000
45.16649 121.000
45.18644 126.000
45.20639 118.000
45.22633 120.000
45.24628 145.000
45.26623 129.000
45.28618 110.000
45.30612 128.000
45.32607 122.000
45.34602 118.000
45.36596 106.000
45.38591 108.000
45.40586 120.000
45.42580 110.000
45.44575 111.000
45.46570 119.000
45.48565 137.000
45.50559 128.000
45.52554 108.000
45.54549 137.000
45.56543 117.000
45.58538 130.000
45.60533 124.000
45.62527 140.000
45.64522 117.000
45.66517 116.000
45.68511 111.000
45.70506 128.000
45.72501 129.000
45.74496 140.000
45.76490 131.000
45.78485 132.000
45.80480 140.000
45.82474 159.000
45.84469 129.000
45.86464 127.000
45.88458 154.000
45.90453 153.000
45.92448 167.000
45.94443 149.000
45.96437 140.000
45.98432 153.000
46.00427 153.000
46.02421 148.000
46.04416 178.000
46.06411 177.000
46.08405 181.000
46.10400 163.000
46.12395 175.000
46.14389 169.000
46.16384 170.000
46.18379 169.000
46.20374 189.000
46.22368 139.000
46.24363 160.000
46.26358 140.000
46.28352 136.000
46.30347 155.000
46.32342 151.000
46.34336 181.000
46.36331 161.000
46.38326 105.000
46.40321 139.000
46.42315 129.000
46.44310 174.000
46.46305 141.000
46.48299 144.000
46.50294 140.000
46.52289 152.000
46.54283 129.000
46.56278 108.000
46.58273 112.000
46.60267 128.000
46.62262 119.000
46.64257 129.000
46.66252 135.000
46.68246 132.000
46.70241 125.000
46.72236 144.000
46.74230 123.000
46.76225 122.000
46.78220 121.000
46.80214 111.000
46.82209 123.000
46.84204 110.000
46.86199 112.000
46.88193 126.000
46.90188 126.000
46.92183 111.000
46.94177 107.000
46.96172 119.000
46.98167 115.000
47.00161 104.000
47.02156 110.000
47.04151 130.000
47.06146 102.000
47.08140 107.000
47.10135 112.000
47.12130 105.000
47.14124 126.000
47.16119 110.000
47.18114 115.000
47.20108 142.000
47.22103 116.000
47.24098 114.000
47.26092 104.000
47.28087 112.000
47.30082 125.000
47.32077 113.000
47.34071 116.000
47.36066 109.000
47.38061 127.000
47.40055 127.000
47.42050 115.000
47.44045 109.000
47.46039 104.000
47.48034 113.000
47.50029 133.000
47.52024 135.000
47.54018 122.000
47.56013 103.000
47.58008 118.000
47.60002 131.000
47.61997 118.000
47.63992 122.000
47.65986 117.000
47.67981 124.000
47.69976 110.000
47.71970 104.000
47.73965 133.000
47.75960 122.000
47.77955 129.000
47.79949 114.000
47.81944 125.000
47.83939 138.000
47.85933 119.000
47.87928 124.000
47.89923 121.000
47.91917 130.000
47.93912 119.000
47.95907 118.000
47.97902 121.000
47.99896 116.000
48.01891 127.000
48.03886 147.000
48.05880 116.000
48.07875 127.000
48.09870 116.000
48.11864 129.000
48.13859 118.000
48.15854 139.000
48.17848 111.000
48.19843 117.000
48.21838 124.000
48.23833 104.000
48.25827 134.000
48.27822 139.000
48.29817 125.000
48.31811 148.000
48.33806 119.000
48.35801 111.000
48.37795 122.000
48.39790 106.000
48.41785 117.000
48.43780 127.000
48.45774 106.000
48.47769 110.000
48.49764 113.000
48.51758 105.000
48.53753 132.000
48.55748 122.000
48.57742 90.000
48.59737 104.000
48.61732 94.000
48.63726 127.000
48.65721 123.000
48.67716 103.000
48.69711 111.000
48.71705 110.000
48.73700 107.000
48.75695 106.000
48.77689 137.000
48.79684 105.000
48.81679 145.000
48.83673 128.000
48.85668 99.000
48.87663 109.000
48.89658 118.000
48.91652 113.000
48.93647 107.000
48.95642 108.000
48.97636 119.000
48.99631 114.000
49.01626 127.000
49.03620 122.000
49.05615 128.000
49.07610 106.000
49.09605 137.000
49.11599 112.000
49.13594 109.000
49.15589 129.000
49.17583 110.000
49.19578 109.000
49.21573 129.000
49.23567 116.000
49.25562 107.000
49.27557 120.000
49.29551 127.000
49.31546 102.000
49.33541 138.000
49.35536 131.000
49.37530 125.000
49.39525 108.000
49.41520 124.000
49.43514 120.000
49.45509 115.000
49.47504 100.000
49.49498 117.000
49.51493 100.000
49.53488 117.000
49.55483 120.000
49.57477 129.000
49.59472 132.000
49.61467 107.000
49.63461 127.000
49.65456 113.000
49.67451 108.000
49.69445 124.000
49.71440 120.000
49.73435 130.000
49.75429 130.000
49.77424 116.000
49.79419 101.000
49.81414 126.000
49.83408 111.000
49.85403 79.000
49.87398 114.000
49.89392 108.000
49.91387 90.000
49.93382 114.000
49.95376 110.000
49.97371 103.000
49.99366 119.000
50.01361 104.000
50.03355 95.000
50.05350 125.000
50.07345 107.000
50.09339 118.000
50.11334 122.000
50.13329 105.000
50.15323 100.000
50.17318 120.000
50.19313 131.000
50.21307 104.000
50.23302 107.000
50.25297 110.000
50.27292 97.000
50.29286 111.000
50.31281 90.000
50.33276 104.000
50.35270 100.000
50.37265 97.000
50.39260 107.000
50.41254 107.000
50.43249 105.000
50.45244 99.000
50.47239 99.000
50.49233 109.000
50.51228 151.000
50.53223 99.000
50.55217 95.000
50.57212 121.000
50.59207 112.000
50.61201 113.000
50.63196 109.000
50.65191 105.000
50.67186 90.000
50.69180 99.000
50.71175 125.000
50.73170 95.000
50.75164 101.000
50.77159 85.000
50.79154 99.000
50.81148 122.000
50.83143 103.000
50.85138 108.000
50.87132 115.000
50.89127 120.000
50.91122 103.000
50.93117 116.000
50.95111 113.000
50.97106 132.000
50.99101 124.000
51.01095 123.000
51.03090 127.000
51.05085 122.000
51.07079 108.000
51.09074 120.000
51.11069 110.000
51.13064 87.000
51.15058 110.000
51.17053 106.000
51.19048 102.000
51.21042 102.000
51.23037 120.000
51.25032 136.000
51.27026 106.000
51.29021 104.000
51.31016 112.000
51.33010 105.000
51.35005 95.000
51.37000 104.000
51.38995 116.000
51.40989 116.000
51.42984 91.000
51.44979 119.000
51.46973 103.000
51.48968 97.000
51.50963 114.000
51.52957 120.000
51.54952 112.000
51.56947 131.000
51.58942 104.000
51.60936 107.000
51.62931 109.000
51.64926 98.000
51.66920 109.000
51.68915 107.000
51.70910 92.000
51.72904 126.000
51.74899 109.000
51.76894 100.000
51.78888 113.000
51.80883 112.000
51.82878 110.000
51.84873 101.000
51.86867 103.000
51.88862 119.000
51.90857 119.000
51.92851 113.000
51.94846 110.000
51.96841 112.000
51.98835 91.000
52.00830 111.000
52.02825 122.000
52.04820 121.000
52.06814 119.000
52.08809 104.000
52.10804 117.000
52.12798 105.000
52.14793 114.000
52.16788 125.000
52.18782 112.000
52.20777 122.000
52.22772 119.000
52.24767 112.000
52.26761 114.000
52.28756 98.000
52.30751 112.000
52.32745 117.000
52.34740 120.000
52.36735 108.000
52.38729 109.000
52.40724 104.000
52.42719 128.000
52.44713 111.000
52.46708 111.000
52.48703 100.000
52.50698 103.000
52.52692 97.000
52.54687 122.000
52.56682 98.000
52.58676 91.000
52.60671 113.000
52.62666 96.000
52.64660 85.000
52.66655 106.000
52.68650 110.000
52.70645 111.000
52.72639 110.000
52.74634 92.000
52.76629 115.000
52.78623 100.000
52.80618 105.000
52.82613 102.000
52.84607 89.000
52.86602 109.000
52.88597 108.000
52.90591 122.000
52.92586 117.000
52.94581 111.000
52.96576 111.000
52.98570 112.000
53.00565 109.000
53.02560 137.000
53.04554 113.000
53.06549 100.000
53.08544 117.000
53.10538 108.000
53.12533 97.000
53.14528 117.000
53.16523 101.000
53.18517 108.000
53.20512 119.000
53.22507 107.000
53.24501 107.000
53.26496 119.000
53.28491 120.000
53.30485 113.000
53.32480 117.000
53.34475 111.000
53.36469 124.000
53.38464 121.000
53.40459 124.000
53.42454 104.000
53.44448 111.000
53.46443 122.000
53.48438 136.000
53.50432 141.000
53.52427 110.000
53.54422 94.000
53.56416 114.000
53.58411 118.000
53.60406 108.000
53.62401 118.000
53.64395 139.000
53.66390 145.000
53.68385 142.000
53.70379 168.000
53.72374 171.000
53.74369 156.000
53.76363 193.000
53.78358 215.000
53.80353 214.000
53.82348 261.000
53.84342 258.000
53.86337 266.000
53.88332 246.000
53.90326 253.000
53.92321 215.000
53.94316 208.000
53.96310 226.000
53.98305 226.000
54.00300 173.000
54.02294 179.000
54.04289 152.000
54.06284 149.000
54.08279 145.000
54.10273 136.000
54.12268 110.000
54.14263 121.000
54.16257 103.000
54.18252 100.000
54.20247 113.000
54.22241 125.000
54.24236 97.000
54.26231 117.000
54.28226 116.000
54.30220 109.000
54.32215 116.000
54.34210 124.000
54.36204 113.000
54.38199 107.000
54.40194 78.000
54.42188 121.000
54.44183 106.000
54.46178 95.000
54.48172 122.000
54.50167 117.000
54.52162 98.000
54.54157 101.000
54.56151 107.000
54.58146 106.000
54.60141 126.000
54.62135 109.000
54.64130 112.000
54.66125 128.000
54.68119 124.000
54.70114 105.000
54.72109 106.000
54.74104 101.000
54.76098 100.000
54.78093 102.000
54.80088 116.000
54.82082 128.000
54.84077 115.000
54.86072 118.000
54.88066 108.000
54.90061 101.000
54.92056 114.000
54.94050 136.000
54.96045 99.000
54.98040 137.000
55.00035 119.000
55.02029 121.000
55.04024 108.000
55.06019 117.000
55.08013 126.000
55.10008 103.000
55.12003 125.000
55.13997 127.000
55.15992 103.000
55.17987 94.000
55.19982 114.000
55.21976 119.000
55.23971 112.000
55.25966 95.000
55.27960 121.000
55.29955 110.000
55.31950 98.000
55.33944 109.000
55.35939 95.000
55.37934 92.000
55.39929 99.000
55.41923 108.000
55.43918 111.000
55.45913 118.000
55.47907 135.000
55.49902 106.000
55.51897 109.000
55.53891 118.000
55.55886 102.000
55.57881 97.000
55.59875 100.000
55.61870 112.000
55.63865 102.000
55.65860 93.000
55.67854 109.000
55.69849 114.000
55.71844 92.000
55.73838 108.000
55.75833 94.000
55.77828 98.000
55.79822 100.000
55.81817 89.000
55.83812 108.000
55.85807 114.000
55.87801 120.000
55.89796 108.000
55.91791 96.000
55.93785 104.000
55.95780 94.000
55.97775 106.000
55.99769 117.000
56.01764 94.000
56.03759 97.000
56.05753 113.000
56.07748 99.000
56.09743 111.000
56.11738 132.000
56.13732 97.000
56.15727 109.000
56.17722 149.000
56.19716 101.000
56.21711 117.000
56.23706 103.000
56.25700 129.000
56.27695 120.000
56.29690 122.000
56.31685 112.000
56.33679 105.000
56.35674 114.000
56.37669 108.000
56.39663 111.000
56.41658 115.000
56.43653 108.000
56.45647 91.000
56.47642 131.000
56.49637 103.000
56.51631 118.000
56.53626 116.000
56.55621 125.000
56.57616 107.000
56.59610 102.000
56.61605 101.000
56.63600 116.000
56.65594 105.000
56.67589 121.000
56.69584 103.000
56.71578 92.000
56.73573 117.000
56.75568 115.000
56.77563 122.000
56.79557 100.000
56.81552 115.000
56.83547 118.000
56.85541 121.000
56.87536 128.000
56.89531 141.000
56.91525 118.000
56.93520 130.000
56.95515 114.000
56.97510 142.000
56.99504 141.000
57.01499 166.000
57.03494 147.000
57.05488 155.000
57.07483 137.000
57.09478 134.000
57.11472 187.000
57.13467 165.000
57.15462 182.000
57.17456 189.000
57.19451 215.000
57.21446 238.000
57.23441 270.000
57.25435 290.000
57.27430 283.000
57.29425 339.000
57.31419 356.000
57.33414 423.000
57.35409 465.000
57.37403 543.000
57.39398 540.000
57.41393 610.000
57.43388 495.000
57.45382 462.000
57.47377 476.000
57.49372 431.000
57.51366 392.000
57.53361 421.000
57.55356 404.000
57.57350 373.000
57.59345 343.000
57.61340 281.000
57.63334 266.000
57.65329 261.000
57.67324 227.000
57.69319 200.000
57.71313 217.000
57.73308 164.000
57.75303 174.000
57.77297 141.000
57.79292 147.000
57.81287 136.000
57.83281 135.000
57.85276 111.000
57.87271 128.000
57.89266 133.000
57.91260 124.000
57.93255 130.000
57.95250 117.000
57.97244 122.000
57.99239 135.000
58.01234 143.000
58.03228 122.000
58.05223 131.000
58.07218 133.000
58.09212 118.000
58.11207 117.000
58.13202 132.000
58.15197 151.000
58.17191 125.000
58.19186 145.000
58.21181 130.000
58.23175 142.000
58.25170 113.000
58.27165 120.000
58.29159 142.000
58.31154 143.000
58.33149 126.000
58.35144 133.000
58.37138 123.000
58.39133 140.000
58.41128 129.000
58.43122 131.000
58.45117 127.000
58.47112 119.000
58.49106 115.000
58.51101 102.000
58.53096 115.000
58.55090 131.000
58.57085 127.000
58.59080 109.000
58.61075 142.000
58.63069 118.000
58.65064 139.000
58.67059 105.000
58.69053 143.000
58.71048 113.000
58.73043 109.000
58.75037 126.000
58.77032 115.000
58.79027 134.000
58.81022 112.000
58.83016 120.000
58.85011 128.000
58.87006 110.000
58.89000 132.000
58.90995 127.000
58.92990 126.000
58.94984 113.000
58.96979 132.000
58.98974 118.000
59.00969 128.000
59.02963 124.000
59.04958 110.000
59.06953 118.000
59.08947 109.000
59.10942 137.000
59.12937 125.000
59.14931 119.000
59.16926 142.000
59.18921 134.000
59.20915 112.000
59.22910 131.000
59.24905 116.000
59.26900 140.000
59.28894 117.000
59.30889 112.000
59.32884 144.000
59.34878 128.000
59.36873 112.000
59.38868 135.000
59.40862 132.000
59.42857 117.000
59.44852 139.000
59.46847 127.000
59.48841 135.000
59.50836 130.000
59.52831 131.000
59.54825 147.000
59.56820 130.000
59.58815 143.000
59.60809 128.000
59.62804 143.000
59.64799 164.000
59.66793 137.000
59.68788 154.000
59.70783 143.000
59.72778 179.000
59.74772 176.000
59.76767 179.000
59.78762 197.000
59.80756 168.000
59.82751 202.000
59.84746 184.000
59.86740 179.000
59.88735 206.000
59.90730 156.000
59.92725 194.000
59.94719 199.000
59.96714 156.000
59.98709 189.000
60.00703 170.000
60.02698 170.000
60.04693 153.000
60.06687 160.000
60.08682 158.000
60.10677 157.000
60.12671 149.000
60.14666 135.000
60.16661 139.000
60.18656 142.000
60.20650 136.000
60.22645 115.000
60.24640 149.000
60.26634 116.000
60.28629 123.000
60.30624 111.000
60.32618 133.000
60.34613 111.000
60.36608 117.000
60.38603 120.000
60.40597 141.000
60.42592 139.000
60.44587 147.000
60.46581 120.000
60.48576 143.000
60.50571 98.000
60.52565 130.000
60.54560 128.000
60.56555 119.000
60.58550 141.000
60.60544 129.000
60.62539 119.000
60.64534 126.000
60.66528 117.000
60.68523 141.000
60.70518 145.000
60.72512 119.000
60.74507 117.000
60.76502 124.000
60.78496 143.000
60.80491 115.000
60.82486 129.000
60.84481 128.000
60.86475 104.000
60.88470 140.000
60.90465 135.000
60.92459 128.000
60.94454 124.000
60.96449 122.000
60.98443 151.000
61.00438 126.000
61.02433 128.000
61.04428 142.000
61.06422 126.000
61.08417 118.000
61.10412 131.000
61.12406 144.000
61.14401 134.000
61.16396 143.000
61.18390 155.000
61.20385 126.000
61.22380 124.000
61.24374 129.000
61.26369 146.000
61.28364 150.000
61.30359 140.000
61.32353 161.000
61.34348 168.000
61.36343 160.000
61.38337 165.000
61.40332 166.000
61.42327 158.000
61.44321 197.000
61.46316 192.000
61.48311 184.000
61.50306 221.000
61.52300 202.000
61.54295 237.000
61.56290 225.000
61.58284 260.000
61.60279 232.000
61.62274 263.000
61.64268 241.000
61.66263 278.000
61.68258 262.000
61.70252 281.000
61.72247 265.000
61.74242 268.000
61.76237 273.000
61.78231 296.000
61.80226 285.000
61.82221 270.000
61.84215 269.000
61.86210 267.000
61.88205 204.000
61.90199 254.000
61.92194 237.000
61.94189 241.000
61.96184 212.000
61.98178 221.000
62.00173 203.000
62.02168 179.000
62.04162 181.000
62.06157 184.000
62.08152 159.000
62.10146 151.000
62.12141 181.000
62.14136 182.000
62.16131 160.000
62.18125 170.000
62.20120 160.000
62.22115 157.000
62.24109 151.000
62.26104 156.000
62.28099 187.000
62.30093 188.000
62.32088 175.000
62.34083 163.000
62.36077 165.000
62.38072 159.000
62.40067 136.000
62.42062 154.000
62.44056 164.000
62.46051 174.000
62.48046 164.000
62.50040 171.000
62.52035 182.000
62.54030 162.000
62.56024 200.000
62.58019 185.000
62.60014 192.000
62.62009 215.000
62.64003 206.000
62.65998 230.000
62.67993 280.000
62.69987 290.000
62.71982 300.000
62.73977 343.000
62.75971 402.000
62.77966 402.000
62.79961 438.000
62.81955 490.000
62.83950 538.000
62.85945 593.000
62.87940 615.000
62.89934 684.000
62.91929 703.000
62.93924 748.000
62.95918 787.000
62.97913 764.000
62.99908 811.000
63.01902 954.000
63.03897 931.000
63.05892 873.000
63.07887 810.000
63.09881 736.000
63.11876 666.000
63.13871 622.000
63.15865 589.000
63.17860 521.000
63.19855 539.000
63.21849 523.000
63.23844 490.000
63.25839 393.000
63.27833 318.000
63.29828 277.000
63.31823 263.000
63.33818 209.000
63.35812 221.000
63.37807 194.000
63.39802 171.000
63.41796 179.000
63.43791 169.000
63.45786 135.000
63.47780 159.000
63.49775 142.000
63.51770 123.000
63.53765 132.000
63.55759 149.000
63.57754 143.000
63.59749 101.000
63.61743 114.000
63.63738 126.000
63.65733 105.000
63.67727 139.000
63.69722 128.000
63.71717 108.000
63.73712 120.000
63.75706 128.000
63.77701 131.000
63.79696 120.000
63.81690 137.000
63.83685 103.000
63.85680 123.000
63.87674 123.000
63.89669 133.000
63.91664 112.000
63.93658 137.000
63.95653 124.000
63.97648 110.000
63.99643 118.000
64.01637 128.000
64.03632 128.000
64.05627 119.000
64.07621 131.000
64.09616 110.000
64.11611 129.000
64.13605 120.000
64.15600 122.000
64.17595 121.000
64.19590 114.000
64.21584 116.000
64.23579 130.000
64.25574 134.000
64.27568 132.000
64.29563 111.000
64.31558 133.000
64.33552 117.000
64.35547 132.000
64.37542 148.000
64.39536 111.000
64.41531 124.000
64.43526 104.000
64.45521 105.000
64.47515 130.000
64.49510 107.000
64.51505 100.000
64.53499 126.000
64.55494 133.000
64.57489 119.000
64.59483 133.000
64.61478 127.000
64.63473 115.000
64.65468 142.000
64.67462 140.000
64.69457 120.000
64.71452 119.000
64.73446 141.000
64.75441 116.000
64.77436 120.000
64.79430 127.000
64.81425 127.000
64.83420 125.000
64.85414 142.000
64.87409 128.000
64.89404 138.000
64.91399 116.000
64.93393 126.000
64.95388 128.000
64.97383 138.000
64.99377 134.000
65.01372 110.000
65.03367 117.000
65.05361 121.000
65.07356 115.000
65.09351 98.000
65.11346 112.000
65.13340 122.000
65.15335 116.000
65.17330 113.000
65.19324 121.000
65.21319 112.000
65.23314 118.000
65.25308 132.000
65.27303 125.000
65.29298 113.000
65.31293 134.000
65.33287 127.000
65.35282 109.000
65.37277 140.000
65.39271 135.000
65.41266 137.000
65.43261 116.000
65.45255 108.000
65.47250 123.000
65.49245 121.000
65.51239 127.000
65.53234 121.000
65.55229 125.000
65.57224 122.000
65.59218 128.000
65.61213 133.000
65.63208 118.000
65.65202 110.000
65.67197 105.000
65.69192 139.000
65.71186 142.000
65.73181 123.000
65.75176 139.000
65.77171 132.000
65.79165 127.000
65.81160 103.000
65.83155 127.000
65.85149 120.000
65.87144 135.000
65.89139 114.000
65.91133 128.000
65.93128 117.000
65.95123 107.000
65.97117 102.000
65.99112 87.000
66.01107 109.000
66.03102 102.000
66.05096 112.000
66.07091 119.000
66.09086 139.000
66.11080 118.000
66.13075 112.000
66.15070 139.000
66.17064 118.000
66.19059 116.000
66.21054 101.000
66.23049 125.000
66.25043 130.000
66.27038 113.000
66.29033 107.000
66.31027 118.000
66.33022 111.000
66.35017 117.000
66.37011 109.000
66.39006 118.000
66.41001 116.000
66.42995 135.000
66.44990 125.000
66.46985 111.000
66.48980 110.000
66.50974 106.000
66.52969 125.000
66.54964 97.000
66.56958 100.000
66.58953 99.000
66.60948 102.000
66.62942 110.000
66.64937 102.000
66.66932 107.000
66.68927 106.000
66.70921 101.000
66.72916 117.000
66.74911 113.000
66.76905 101.000
66.78900 127.000
66.80895 104.000
66.82889 97.000
66.84884 98.000
66.86879 121.000
66.88874 100.000
66.90868 107.000
66.92863 106.000
66.94858 101.000
66.96852 102.000
66.98847 109.000
67.00842 98.000
67.02836 109.000
67.04831 79.000
67.06826 93.000
67.08820 87.000
67.10815 107.000
67.12810 86.000
67.14805 91.000
67.16799 120.000
67.18794 100.000
67.20789 104.000
67.22783 94.000
67.24778 107.000
67.26773 110.000
67.28767 93.000
67.30762 121.000
67.32757 94.000
67.34752 94.000
67.36746 90.000
67.38741 114.000
67.40736 130.000
67.42730 100.000
67.44725 115.000
67.46720 98.000
67.48714 105.000
67.50709 98.000
67.52704 101.000
67.54698 119.000
67.56693 98.000
67.58688 93.000
67.60683 87.000
67.62677 99.000
67.64672 102.000
67.66667 82.000
67.68661 109.000
67.70656 91.000
67.72651 108.000
67.74645 98.000
67.76640 102.000
67.78635 117.000
67.80630 87.000
67.82624 92.000
67.84619 109.000
67.86614 101.000
67.88608 95.000
67.90603 88.000
67.92598 104.000
67.94592 111.000
67.96587 79.000
67.98582 103.000
68.00576 121.000
68.02571 102.000
68.04566 118.000
68.06561 98.000
68.08555 111.000
68.10550 115.000
68.12545 114.000
68.14539 116.000
68.16534 100.000
68.18529 110.000
68.20523 105.000
68.22518 127.000
68.24513 106.000
68.26508 118.000
68.28502 112.000
68.30497 99.000
68.32492 93.000
68.34486 115.000
68.36481 112.000
68.38476 94.000
68.40470 96.000
68.42465 113.000
68.44460 105.000
68.46455 99.000
68.48449 114.000
68.50444 103.000
68.52439 107.000
68.54433 84.000
68.56428 91.000
68.58423 109.000
68.60417 100.000
68.62412 99.000
68.64407 109.000
68.66401 114.000
68.68396 103.000
68.70391 103.000
68.72386 104.000
68.74380 86.000
68.76375 105.000
68.78370 97.000
68.80364 109.000
68.82359 98.000
68.84354 96.000
68.86348 102.000
68.88343 112.000
68.90338 88.000
68.92333 92.000
68.94327 107.000
68.96322 105.000
68.98317 93.000
69.00311 91.000
69.02306 99.000
69.04301 105.000
69.06295 109.000
69.08290 95.000
69.10285 105.000
69.12279 87.000
69.14274 100.000
69.16269 108.000
69.18264 99.000
69.20258 104.000
69.22253 107.000
69.24248 91.000
69.26242 98.000
69.28237 109.000
69.30232 106.000
69.32226 102.000
69.34221 107.000
69.36216 83.000
69.38211 100.000
69.40205 96.000
69.42200 97.000
69.44195 96.000
69.46189 98.000
69.48184 105.000
69.50179 99.000
69.52173 109.000
69.54168 101.000
69.56163 102.000
69.58157 108.000
69.60152 101.000
69.62147 100.000
69.64142 114.000
69.66136 118.000
69.68131 111.000
69.70126 108.000
69.72120 106.000
69.74115 110.000
69.76110 110.000
69.78104 101.000
69.80099 112.000
69.82094 105.000
69.84089 92.000
69.86083 83.000
69.88078 102.000
69.90073 108.000
69.92067 115.000
69.94062 102.000
69.96057 107.000
69.98051 117.000
70.00046 101.000
70.02041 117.000
70.04035 120.000
70.06030 115.000
70.08025 123.000
70.10020 107.000
70.12014 93.000
70.14009 108.000
70.16004 107.000
70.17998 110.000
70.19993 83.000
70.21988 102.000
70.23982 113.000
70.25977 101.000
70.27972 97.000
70.29967 110.000
70.31961 125.000
70.33956 97.000
70.35951 88.000
70.37945 111.000
70.39940 115.000
70.41935 100.000
70.43929 94.000
70.45924 124.000
70.47919 120.000
70.49914 101.000
70.51908 105.000
70.53903 100.000
70.55898 112.000
70.57892 107.000
70.59887 98.000
70.61882 94.000
70.63876 115.000
70.65871 120.000
70.67866 97.000
70.69860 118.000
70.71855 87.000
70.73850 110.000
70.75845 102.000
70.77839 101.000
70.79834 113.000
70.81829 102.000
70.83823 101.000
70.85818 109.000
70.87813 109.000
70.89807 111.000
70.91802 115.000
70.93797 102.000
70.95792 96.000
70.97786 115.000
70.99781 127.000
71.01776 103.000
71.03770 113.000
71.05765 118.000
71.07760 111.000
71.09754 125.000
71.11749 108.000
71.13744 103.000
71.15738 121.000
71.17733 128.000
71.19728 110.000
71.21723 108.000
71.23717 120.000
71.25712 121.000
71.27707 133.000
71.29701 115.000
71.31696 126.000
71.33691 129.000
71.35685 126.000
71.37680 124.000
71.39675 151.000
71.41670 149.000
71.43664 158.000
71.45659 137.000
71.47654 136.000
71.49648 143.000
71.51643 147.000
71.53638 155.000
71.55632 147.000
71.57627 148.000
71.59622 159.000
71.61616 133.000
71.63611 130.000
71.65606 132.000
71.67601 138.000
71.69595 124.000
71.71590 136.000
71.73585 166.000
71.75579 113.000
71.77574 114.000
71.79569 128.000
71.81563 105.000
71.83558 109.000
71.85553 127.000
71.87548 124.000
71.89542 120.000
71.91537 107.000
71.93532 137.000
71.95526 113.000
71.97521 111.000
71.99516 113.000
72.01510 99.000
72.03505 115.000
72.05500 105.000
72.07495 122.000
72.09489 118.000
72.11484 104.000
72.13479 117.000
72.15473 122.000
72.17468 103.000
72.19463 118.000
72.21457 107.000
72.23452 115.000
72.25447 104.000
72.27441 89.000
72.29436 105.000
72.31431 107.000
72.33426 89.000
72.35420 127.000
72.37415 105.000
72.39410 106.000
72.41404 93.000
72.43399 136.000
72.45394 106.000
72.47388 96.000
72.49383 112.000
72.51378 120.000
72.53373 96.000
72.55367 114.000
72.57362 122.000
72.59357 94.000
72.61351 120.000
72.63346 110.000
72.65341 121.000
72.67335 119.000
72.69330 132.000
72.71325 115.000
72.73319 113.000
72.75314 133.000
72.77309 119.000
72.79304 138.000
72.81298 123.000
72.83293 125.000
72.85288 124.000
72.87282 125.000
72.89277 128.000
72.91272 133.000
72.93266 119.000
72.95261 142.000
72.97256 143.000
72.99251 151.000
73.01245 140.000
73.03240 127.000
73.05235 149.000
73.07229 140.000
73.09224 150.000
73.11219 132.000
73.13213 163.000
73.15208 131.000
73.17203 147.000
73.19197 130.000
73.21192 129.000
73.23187 127.000
73.25182 136.000
73.27176 117.000
73.29171 122.000
73.31166 115.000
73.33160 125.000
73.35155 126.000
73.37150 113.000
73.39144 115.000
73.41139 92.000
73.43134 121.000
73.45129 122.000
73.47123 110.000
73.49118 104.000
73.51113 123.000
73.53107 112.000
73.55102 118.000
73.57097 101.000
73.59091 108.000
73.61086 113.000
73.63081 130.000
73.65076 114.000
73.67070 95.000
73.69065 122.000
73.71060 105.000
73.73054 106.000
73.75049 113.000
73.77044 119.000
73.79038 134.000
73.81033 113.000
73.83028 140.000
73.85022 112.000
73.87017 139.000
73.89012 130.000
73.91007 130.000
73.93001 120.000
73.94996 118.000
73.96991 118.000
73.98985 135.000
74.00980 136.000
74.02975 121.000
74.04969 100.000
74.06964 128.000
74.08959 125.000
74.10954 111.000
74.12948 116.000
74.14943 117.000
74.16938 128.000
74.18932 118.000
74.20927 118.000
74.22922 122.000
74.24916 105.000
74.26911 148.000
74.28906 133.000
74.30900 125.000
74.32895 136.000
74.34890 143.000
74.36885 180.000
74.38879 138.000
74.40874 155.000
74.42869 148.000
74.44863 162.000
74.46858 154.000
74.48853 192.000
74.50847 189.000
74.52842 200.000
74.54837 214.000
74.56832 234.000
74.58826 231.000
74.60821 242.000
74.62816 184.000
74.64810 208.000
74.66805 162.000
74.68800 196.000
74.70794 167.000
74.72789 198.000
74.74784 162.000
74.76778 194.000
74.78773 182.000
74.80768 173.000
74.82763 182.000
74.84757 161.000
74.86752 162.000
74.88747 144.000
74.90741 114.000
74.92736 115.000
74.94731 130.000
74.96725 115.000
74.98720 136.000
75.00715 114.000
75.02710 120.000
75.04704 109.000
75.06699 116.000
75.08694 130.000
75.10688 127.000
75.12683 134.000
75.14678 136.000
75.16672 132.000
75.18667 148.000
75.20662 126.000
75.22657 149.000
75.24651 155.000
75.26646 167.000
75.28641 176.000
75.30635 159.000
75.32630 176.000
75.34625 188.000
75.36619 198.000
75.38614 182.000
75.40609 193.000
75.42603 218.000
75.44598 214.000
75.46593 209.000
75.48588 226.000
75.50582 211.000
75.52577 220.000
75.54572 223.000
75.56566 225.000
75.58561 206.000
75.60556 222.000
75.62550 227.000
75.64545 179.000
75.66540 198.000
75.68535 198.000
75.70529 185.000
75.72524 168.000
75.74519 155.000
75.76513 133.000
75.78508 140.000
75.80503 162.000
75.82497 150.000
75.84492 143.000
75.86487 113.000
75.88481 109.000
75.90476 107.000
75.92471 124.000
75.94466 116.000
75.96460 102.000
75.98455 125.000
76.00450 111.000
76.02444 112.000
76.04439 93.000
76.06434 113.000
76.08428 102.000
76.10423 95.000
76.12418 118.000
76.14413 113.000
76.16407 104.000
76.18402 94.000
76.20397 86.000
76.22391 115.000
76.24386 106.000
76.26381 104.000
76.28375 103.000
76.30370 106.000
76.32365 100.000
76.34359 102.000
76.36354 96.000
76.38349 94.000
76.40344 94.000
76.42338 107.000
76.44333 95.000
76.46328 113.000
76.48322 103.000
76.50317 105.000
76.52312 103.000
76.54306 126.000
76.56301 117.000
76.58296 102.000
76.60291 111.000
76.62285 103.000
76.64280 93.000
76.66275 110.000
76.68269 115.000
76.70264 96.000
76.72259 107.000
76.74253 128.000
76.76248 135.000
76.78243 116.000
76.80238 106.000
76.82232 116.000
76.84227 112.000
76.86222 106.000
76.88216 104.000
76.90211 115.000
76.92206 116.000
76.94200 106.000
76.96195 87.000
76.98190 126.000
77.00184 122.000
77.02179 125.000
77.04174 119.000
77.06169 118.000
77.08163 113.000
77.10158 116.000
77.12153 123.000
77.14147 116.000
77.16142 135.000
77.18137 126.000
77.20131 126.000
77.22126 124.000
77.24121 142.000
77.26116 138.000
77.28110 117.000
77.30105 113.000
77.32100 122.000
77.34094 130.000
77.36089 119.000
77.38084 136.000
77.40078 126.000
77.42073 145.000
77.44068 141.000
77.46062 138.000
77.48057 156.000
77.50052 115.000
77.52047 133.000
77.54041 120.000
77.56036 126.000
77.58031 142.000
77.60025 136.000
77.62020 138.000
77.64015 114.000
77.66009 111.000
77.68004 112.000
77.69999 118.000
77.71994 120.000
77.73988 105.000
77.75983 108.000
77.77978 109.000
77.79972 122.000
77.81967 118.000
77.83962 108.000
77.85956 126.000
77.87951 110.000
77.89946 102.000
77.91940 111.000
77.93935 107.000
77.95930 107.000
77.97925 95.000
77.99919 82.000
78.01914 84.000
78.03909 90.000
78.05903 81.000
78.07898 98.000
78.09893 97.000
78.11887 100.000
78.13882 92.000
78.15877 102.000
78.17872 99.000
78.19866 90.000
78.21861 88.000
78.23856 105.000
78.25850 103.000
78.27845 88.000
78.29840 97.000
78.31834 89.000
78.33829 101.000
78.35824 101.000
78.37819 91.000
78.39813 84.000
78.41808 111.000
78.43803 94.000
78.45797 94.000
78.47792 93.000
78.49787 109.000
78.51781 102.000
78.53776 97.000
78.55771 96.000
78.57765 98.000
78.59760 101.000
78.61755 95.000
78.63750 96.000
78.65744 102.000
78.67739 96.000
78.69734 112.000
78.71728 96.000
78.73723 104.000
78.75718 104.000
78.77712 90.000
78.79707 98.000
78.81702 90.000
78.83697 99.000
78.85691 101.000
78.87686 110.000
78.89681 103.000
78.91675 85.000
78.93670 105.000
78.95665 102.000
78.97659 113.000
78.99654 105.000
79.01649 116.000
79.03643 113.000
79.05638 125.000
79.07633 114.000
79.09628 107.000
79.11622 119.000
79.13617 109.000
79.15612 127.000
79.17606 148.000
79.19601 128.000
79.21596 127.000
79.23590 140.000
79.25585 130.000
79.27580 158.000
79.29575 151.000
79.31569 180.000
79.33564 169.000
79.35559 211.000
79.37553 153.000
79.39548 162.000
79.41543 173.000
79.43537 207.000
79.45532 185.000
79.47527 169.000
79.49521 188.000
79.51516 196.000
79.53511 179.000
79.55506 200.000
79.57500 183.000
79.59495 172.000
79.61490 180.000
79.63484 164.000
79.65479 150.000
79.67474 134.000
79.69468 155.000
79.71463 155.000
79.73458 168.000
79.75453 139.000
79.77447 158.000
79.79442 143.000
79.81437 123.000
79.83431 119.000
79.85426 141.000
79.87421 138.000
79.89415 114.000
79.91410 111.000
79.93405 121.000
79.95399 144.000
79.97394 102.000
79.99389 113.000
80.01384 111.000
80.03378 142.000
80.05373 105.000
80.07368 104.000
80.09362 132.000
80.11357 113.000
80.13352 116.000
80.15346 113.000
80.17341 98.000
80.19336 105.000
80.21331 97.000
80.23325 103.000
80.25320 96.000
80.27315 109.000
80.29309 111.000
80.31304 103.000
80.33299 136.000
80.35293 109.000
80.37288 108.000
80.39283 102.000
80.41278 101.000
80.43272 91.000
80.45267 87.000
80.47262 93.000
80.49256 83.000
80.51251 118.000
80.53246 99.000
80.55240 83.000
80.57235 103.000
80.59230 103.000
80.61224 100.000
80.63219 85.000
80.65214 118.000
80.67209 109.000
80.69203 87.000
80.71198 95.000
80.73193 106.000
80.75187 112.000
80.77182 103.000
80.79177 95.000
80.81171 94.000
80.83166 94.000
80.85161 94.000
80.87156 100.000
80.89150 88.000
80.91145 106.000
80.93140 108.000
80.95134 96.000
80.97129 107.000
80.99124 86.000
81.01118 79.000
81.03113 99.000
81.05108 101.000
81.07102 87.000
81.09097 94.000
81.11092 121.000
81.13087 92.000
81.15081 93.000
81.17076 94.000
81.19071 91.000
81.21065 102.000
81.23060 113.000
81.25055 94.000
81.27049 84.000
81.29044 93.000
81.31039 103.000
81.33034 99.000
81.35028 119.000
81.37023 103.000
81.39018 96.000
81.41012 93.000
81.43007 102.000
81.45002 119.000
81.46996 108.000
81.48991 93.000
81.50986 75.000
81.52980 93.000
81.54975 91.000
81.56970 119.000
81.58965 89.000
81.60959 100.000
81.62954 103.000
81.64949 113.000
81.66943 94.000
81.68938 88.000
81.70933 83.000
81.72927 97.000
81.74922 89.000
81.76917 104.000
81.78912 92.000
81.80906 83.000
81.82901 103.000
81.84896 118.000
81.86890 93.000
81.88885 90.000
81.90880 98.000
81.92874 117.000
81.94869 90.000
81.96864 105.000
81.98859 101.000
82.00853 89.000
82.02848 110.000
82.04843 101.000
82.06837 98.000
82.08832 86.000
82.10827 97.000
82.12821 80.000
82.14816 99.000
82.16811 101.000
82.18805 86.000
82.20800 95.000
82.22795 96.000
82.24790 100.000
82.26784 95.000
82.28779 104.000
82.30774 85.000
82.32768 83.000
82.34763 123.000
82.36758 91.000
82.38752 86.000
82.40747 107.000
82.42742 95.000
82.44737 86.000
82.46731 85.000
82.48726 93.000
82.50721 113.000
82.52715 96.000
82.54710 112.000
82.56705 86.000
82.58699 107.000
82.60694 92.000
82.62689 98.000
82.64683 106.000
82.66678 80.000
82.68673 91.000
82.70668 88.000
82.72662 100.000
82.74657 89.000
82.76652 108.000
82.78646 94.000
82.80641 98.000
82.82636 98.000
82.84630 90.000
82.86625 97.000
82.88620 103.000
82.90615 88.000
82.92609 105.000
82.94604 114.000
82.96599 84.000
82.98593 112.000
83.00588 101.000
83.02583 108.000
83.04577 77.000
83.06572 92.000
83.08567 103.000
83.10561 95.000
83.12556 101.000
83.14551 101.000
83.16546 101.000
83.18540 85.000
83.20535 98.000
83.22530 102.000
83.24524 101.000
83.26519 112.000
83.28514 96.000
83.30508 103.000
83.32503 90.000
83.34498 99.000
83.36493 75.000
83.38487 96.000
83.40482 108.000
83.42477 104.000
83.44471 105.000
83.46466 88.000
83.48461 93.000
83.50455 113.000
83.52450 96.000
83.54445 100.000
83.56440 96.000
83.58434 86.000
83.60429 86.000
83.62424 91.000
83.64418 98.000
83.66413 92.000
83.68408 95.000
83.70402 100.000
83.72397 96.000
83.74392 91.000
83.76386 95.000
83.78381 96.000
83.80376 109.000
83.82371 94.000
83.84365 86.000
83.86360 92.000
83.88355 121.000
83.90349 97.000
83.92344 96.000
83.94339 80.000
83.96333 92.000
83.98328 89.000
84.00323 108.000
84.02318 83.000
84.04312 111.000
84.06307 94.000
84.08302 90.000
84.10296 89.000
84.12291 102.000
84.14286 86.000
84.16280 96.000
84.18275 99.000
84.20270 90.000
84.22264 83.000
84.24259 98.000
84.26254 90.000
84.28249 88.000
84.30243 92.000
84.32238 84.000
84.34233 98.000
84.36227 112.000
84.38222 107.000
84.40217 80.000
84.42211 105.000
84.44206 99.000
84.46201 90.000
84.48196 100.000
84.50190 97.000
84.52185 88.000
84.54180 105.000
84.56174 101.000
84.58169 92.000
84.60164 105.000
84.62158 88.000
84.64153 97.000
84.66148 85.000
84.68142 84.000
84.70137 108.000
84.72132 93.000
84.74127 111.000
84.76121 91.000
84.78116 103.000
84.80111 92.000
84.82105 97.000
84.84100 101.000
84.86095 103.000
84.88089 96.000
84.90084 94.000
84.92079 110.000
84.94074 88.000
84.96068 83.000
84.98063 102.000
85.00058 97.000
85.02052 115.000
85.04047 99.000
85.06042 88.000
85.08036 98.000
85.10031 90.000
85.12026 102.000
85.14021 104.000
85.16015 102.000
85.18010 93.000
85.20005 101.000
85.21999 105.000
85.23994 102.000
85.25989 90.000
85.27983 109.000
85.29978 109.000
85.31973 90.000
85.33967 94.000
85.35962 114.000
85.37957 84.000
85.39952 113.000
85.41946 93.000
85.43941 108.000
85.45936 114.000
85.47930 98.000
85.49925 104.000
85.51920 99.000
85.53914 80.000
85.55909 90.000
85.57904 105.000
85.59899 115.000
85.61893 91.000
85.63888 101.000
85.65883 108.000
85.67877 90.000
85.69872 110.000
85.71867 95.000
85.73861 97.000
85.75856 97.000
85.77851 97.000
85.79845 97.000
85.81840 109.000
85.83835 89.000
85.85830 91.000
85.87824 114.000
85.89819 104.000
85.91814 104.000
85.93808 88.000
85.95803 97.000
85.97798 120.000
85.99792 86.000
86.01787 109.000
86.03782 90.000
86.05777 119.000
86.07771 81.000
86.09766 81.000
86.11761 107.000
86.13755 95.000
86.15750 81.000
86.17745 103.000
86.19739 122.000
86.21734 97.000
86.23729 92.000
86.25723 95.000
86.27718 95.000
86.29713 93.000
86.31708 98.000
86.33702 81.000
86.35697 94.000
86.37692 100.000
86.39686 119.000
86.41681 90.000
86.43676 91.000
86.45670 103.000
86.47665 105.000
86.49660 102.000
86.51655 105.000
86.53649 89.000
86.55644 96.000
86.57639 106.000
86.59633 82.000
86.61628 98.000
86.63623 98.000
86.65617 111.000
86.67612 120.000
86.69607 80.000
86.71602 105.000
86.73596 107.000
86.75591 101.000
86.77586 83.000
86.79580 101.000
86.81575 97.000
86.83570 81.000
86.85564 83.000
86.87559 98.000
86.89554 105.000
86.91548 89.000
86.93543 78.000
86.95538 99.000
86.97533 89.000
86.99527 105.000
87.01522 99.000
87.03517 99.000
87.05511 79.000
87.07506 93.000
87.09501 108.000
87.11495 100.000
87.13490 105.000
87.15485 97.000
87.17480 117.000
87.19474 116.000
87.21469 100.000
87.23464 92.000
87.25458 108.000
87.27453 105.000
87.29448 125.000
87.31442 103.000
87.33437 103.000
87.35432 132.000
87.37426 127.000
87.39421 137.000
87.41416 135.000
87.43411 142.000
87.45405 149.000
87.47400 122.000
87.49395 144.000
87.51389 138.000
87.53384 131.000
87.55379 125.000
87.57373 126.000
87.59368 120.000
87.61363 146.000
87.63358 127.000
87.65352 137.000
87.67347 123.000
87.69342 119.000
87.71336 113.000
87.73331 107.000
87.75326 143.000
87.77320 117.000
87.79315 131.000
87.81310 129.000
87.83304 90.000
87.85299 98.000
87.87294 99.000
87.89289 111.000
87.91283 123.000
87.93278 96.000
87.95273 123.000
87.97267 99.000
87.99262 96.000
88.01257 106.000
88.03251 91.000
88.05246 106.000
88.07241 93.000
88.09236 94.000
88.11230 106.000
88.13225 98.000
88.15220 99.000
88.17214 97.000
88.19209 107.000
88.21204 121.000
88.23198 132.000
88.25193 90.000
88.27188 81.000
88.29183 89.000
88.31177 95.000
88.33172 105.000
88.35167 92.000
88.37161 103.000
88.39156 116.000
88.41151 73.000
88.43145 93.000
88.45140 99.000
88.47135 91.000
88.49129 109.000
88.51124 103.000
88.53119 116.000
88.55114 86.000
88.57108 103.000
88.59103 101.000
88.61098 107.000
88.63092 90.000
88.65087 94.000
88.67082 89.000
88.69076 90.000
88.71071 82.000
88.73066 107.000
88.75061 100.000
88.77055 104.000
88.79050 85.000
88.81045 80.000
88.83039 100.000
88.85034 96.000
88.87029 114.000
88.89023 98.000
88.91018 91.000
88.93013 96.000
88.95007 96.000
88.97002 92.000
88.98997 98.000
89.00992 95.000
89.02986 77.000
89.04981 92.000
89.06976 90.000
89.08970 97.000
89.10965 110.000
89.12960 109.000
89.14954 118.000
89.16949 94.000
89.18944 120.000
89.20939 109.000
89.22933 87.000
89.24928 89.000
89.26923 99.000
89.28917 103.000
89.30912 99.000
89.32907 104.000
89.34901 77.000
89.36896 104.000
89.38891 93.000
89.40885 99.000
89.42880 108.000
89.44875 108.000
89.46870 97.000
89.48864 87.000
89.50859 98.000
89.52854 115.000
89.54848 88.000
89.56843 101.000
89.58838 98.000
89.60832 106.000
89.62827 104.000
89.64822 111.000
89.66817 116.000
89.68811 106.000
89.70806 87.000
89.72801 122.000
89.74795 98.000
89.76790 108.000
89.78785 119.000
89.80779 121.000
89.82774 107.000
89.84769 90.000
89.86764 101.000
89.88758 127.000
89.90753 111.000
89.92748 112.000
89.94742 105.000
89.96737 110.000
89.98732 109.000
90.00726 118.000
