10.00000 65.000
10.01995 69.000
10.03989 81.000
10.05984 77.000
10.07979 97.000
10.09973 97.000
10.11968 87.000
10.13963 79.000
10.15958 89.000
10.17952 78.000
10.19947 106.000
10.21942 79.000
10.23936 97.000
10.25931 79.000
10.27926 78.000
10.29920 84.000
10.31915 77.000
10.33910 81.000
10.35905 83.000
10.37899 77.000
10.39894 83.000
10.41889 96.000
10.43883 90.000
10.45878 79.000
10.47873 87.000
10.49867 87.000
10.51862 83.000
10.53857 89.000
10.55851 87.000
10.57846 100.000
10.59841 69.000
10.61836 91.000
10.63830 102.000
10.65825 96.000
10.67820 86.000
10.69814 77.000
10.71809 60.000
10.73804 94.000
10.75798 91.000
10.77793 74.000
10.79788 92.000
10.81783 86.000
10.83777 89.000
10.85772 86.000
10.87767 82.000
10.89761 93.000
10.91756 91.000
10.93751 88.000
10.95745 90.000
10.97740 86.000
10.99735 88.000
11.01730 95.000
11.03724 82.000
11.05719 103.000
11.07714 92.000
11.09708 68.000
11.11703 87.000
11.13698 83.000
11.15692 79.000
11.17687 76.000
11.19682 105.000
11.21676 81.000
11.23671 97.000
11.25666 102.000
11.27661 82.000
11.29655 78.000
11.31650 93.000
11.33645 96.000
11.35639 80.000
11.37634 75.000
11.39629 107.000
11.41623 87.000
11.43618 83.000
11.45613 73.000
11.47608 87.000
11.49602 94.000
11.51597 95.000
11.53592 81.000
11.55586 86.000
11.57581 86.000
11.59576 83.000
11.61570 99.000
11.63565 92.000
11.65560 82.000
11.67554 91.000
11.69549 81.000
11.71544 85.000
11.73539 86.000
11.75533 90.000
11.77528 81.000
11.79523 103.000
11.81517 93.000
11.83512 110.000
11.85507 80.000
11.87501 102.000
11.89496 90.000
11.91491 95.000
11.93486 84.000
11.95480 82.000
11.97475 92.000
11.99470 85.000
12.01464 84.000
12.03459 71.000
12.05454 84.000
12.07448 89.000
12.09443 106.000
12.11438 80.000
12.13432 94.000
12.15427 83.000
12.17422 103.000
12.19417 100.000
12.21411 85.000
12.23406 84.000
12.25401 90.000
12.27395 82.000
12.29390 72.000
12.31385 89.000
12.33379 97.000
12.35374 91.000
12.37369 90.000
12.39364 104.000
12.41358 92.000
12.43353 76.000
12.45348 93.000
12.47342 101.000
12.49337 92.000
12.51332 94.000
12.53326 86.000
12.55321 97.000
12.57316 84.000
12.59311 97.000
12.61305 80.000
12.63300 93.000
12.65295 103.000
12.67289 72.000
12.69284 100.000
12.71279 82.000
12.73273 86.000
12.75268 96.000
12.77263 96.000
12.79257 63.000
12.81252 91.000
12.83247 86.000
12.85242 85.000
12.87236 105.000
12.89231 103.000
12.91226 92.000
12.93220 94.000
12.95215 96.000
12.97210 100.000
12.99204 87.000
13.01199 97.000
13.03194 85.000
13.05189 105.000
13.07183 100.000
13.09178 86.000
13.11173 108.000
13.13167 105.000
13.15162 81.000
13.17157 100.000
13.19151 95.000
13.21146 96.000
13.23141 92.000
13.25135 93.000
13.27130 85.000
13.29125 108.000
13.31120 91.000
13.33114 120.000
13.35109 109.000
13.37104 107.000
13.39098 91.000
13.41093 84.000
13.43088 96.000
13.45082 114.000
13.47077 111.000
13.49072 96.000
13.51067 89.000
13.53061 87.000
13.55056 97.000
13.57051 86.000
13.59045 93.000
13.61040 98.000
13.63035 109.000
13.65029 76.000
13.67024 109.000
13.69019 100.000
13.71013 105.000
13.73008 95.000
13.75003 113.000
13.76998 103.000
13.78992 104.000
13.80987 101.000
13.82982 105.000
13.84976 101.000
13.86971 105.000
13.88966 93.000
13.90960 99.000
13.92955 105.000
13.94950 95.000
13.96945 108.000
13.98939 102.000
14.00934 119.000
14.02929 98.000
14.04923 106.000
14.06918 106.000
14.08913 105.000
14.10907 113.000
14.12902 106.000
14.14897 104.000
14.16892 101.000
14.18886 96.000
14.20881 111.000
14.22876 125.000
14.24870 115.000
14.26865 109.000
14.28860 116.000
14.30854 93.000
14.32849 106.000
14.34844 109.000
14.36838 123.000
14.38833 104.000
14.40828 108.000
14.42823 120.000
14.44817 111.000
14.46812 117.000
14.48807 104.000
14.50801 105.000
14.52796 127.000
14.54791 110.000
14.56785 112.000
14.58780 98.000
14.60775 110.000
14.62770 107.000
14.64764 131.000
14.66759 103.000
14.68754 114.000
14.70748 110.000
14.72743 110.000
14.74738 112.000
14.76732 94.000
14.78727 122.000
14.80722 112.000
14.82716 118.000
14.84711 121.000
14.86706 124.000
14.88701 124.000
14.90695 116.000
14.92690 135.000
14.94685 122.000
14.96679 111.000
14.98674 108.000
15.00669 115.000
15.02663 113.000
15.04658 111.000
15.06653 117.000
15.08648 143.000
15.10642 126.000
15.12637 117.000
15.14632 125.000
15.16626 119.000
15.18621 130.000
15.20616 135.000
15.22610 111.000
15.24605 127.000
15.26600 119.000
15.28594 119.000
15.30589 119.000
15.32584 136.000
15.34579 109.000
15.36573 150.000
15.38568 140.000
15.40563 103.000
15.42557 117.000
15.44552 126.000
15.46547 134.000
15.48541 123.000
15.50536 120.000
15.52531 148.000
15.54526 121.000
15.56520 166.000
15.58515 135.000
15.60510 131.000
15.62504 139.000
15.64499 133.000
15.66494 152.000
15.68488 145.000
15.70483 137.000
15.72478 156.000
15.74472 127.000
15.76467 132.000
15.78462 133.000
15.80457 161.000
15.82451 148.000
15.84446 130.000
15.86441 138.000
15.88435 157.000
15.90430 141.000
15.92425 168.000
15.94419 144.000
15.96414 137.000
15.98409 140.000
16.00404 168.000
16.02398 143.000
16.04393 122.000
16.06388 151.000
16.08382 145.000
16.10377 168.000
16.12372 140.000
16.14366 161.000
16.16361 159.000
16.18356 158.000
16.20351 141.000
16.22345 159.000
16.24340 158.000
16.26335 152.000
16.28329 136.000
16.30324 149.000
16.32319 161.000
16.34313 149.000
16.36308 146.000
16.38303 147.000
16.40297 158.000
16.42292 153.000
16.44287 179.000
16.46282 174.000
16.48276 158.000
16.50271 169.000
16.52266 167.000
16.54260 160.000
16.56255 173.000
16.58250 172.000
16.60244 171.000
16.62239 140.000
16.64234 172.000
16.66229 189.000
16.68223 185.000
16.70218 153.000
16.72213 188.000
16.74207 187.000
16.76202 161.000
16.78197 183.000
16.80191 164.000
16.82186 180.000
16.84181 148.000
16.86175 173.000
16.88170 170.000
16.90165 174.000
16.92160 163.000
16.94154 196.000
16.96149 196.000
16.98144 208.000
17.00138 190.000
17.02133 201.000
17.04128 185.000
17.06122 218.000
17.08117 181.000
17.10112 191.000
17.12107 180.000
17.14101 189.000
17.16096 190.000
17.18091 174.000
17.20085 207.000
17.22080 218.000
17.24075 208.000
17.26069 196.000
17.28064 184.000
17.30059 176.000
17.32053 184.000
17.34048 197.000
17.36043 212.000
17.38038 201.000
17.40032 198.000
17.42027 204.000
17.44022 206.000
17.46016 223.000
17.48011 210.000
17.50006 220.000
17.52000 235.000
17.53995 201.000
17.55990 186.000
17.57985 208.000
17.59979 219.000
17.61974 229.000
17.63969 215.000
17.65963 203.000
17.67958 236.000
17.69953 211.000
17.71947 226.000
17.73942 250.000
17.75937 209.000
17.77932 228.000
17.79926 260.000
17.81921 228.000
17.83916 241.000
17.85910 227.000
17.87905 250.000
17.89900 232.000
17.91894 246.000
17.93889 253.000
17.95884 241.000
17.97878 256.000
17.99873 225.000
18.01868 242.000
18.03863 231.000
18.05857 242.000
18.07852 248.000
18.09847 229.000
18.11841 227.000
18.13836 244.000
18.15831 246.000
18.17825 244.000
18.19820 249.000
18.21815 241.000
18.23810 241.000
18.25804 250.000
18.27799 233.000
18.29794 254.000
18.31788 266.000
18.33783 265.000
18.35778 277.000
18.37772 263.000
18.39767 234.000
18.41762 251.000
18.43756 285.000
18.45751 263.000
18.47746 242.000
18.49741 281.000
18.51735 286.000
18.53730 287.000
18.55725 279.000
18.57719 264.000
18.59714 258.000
18.61709 275.000
18.63703 255.000
18.65698 261.000
18.67693 309.000
18.69688 244.000
18.71682 265.000
18.73677 281.000
18.75672 261.000
18.77666 274.000
18.79661 283.000
18.81656 256.000
18.83650 301.000
18.85645 301.000
18.87640 260.000
18.89634 274.000
18.91629 281.000
18.93624 296.000
18.95619 274.000
18.97613 309.000
18.99608 302.000
19.01603 296.000
19.03597 298.000
19.05592 273.000
19.07587 304.000
19.09581 299.000
19.11576 276.000
19.13571 266.000
19.15566 311.000
19.17560 300.000
19.19555 304.000
19.21550 312.000
19.23544 323.000
19.25539 332.000
19.27534 322.000
19.29528 314.000
19.31523 334.000
19.33518 316.000
19.35513 318.000
19.37507 328.000
19.39502 309.000
19.41497 343.000
19.43491 295.000
19.45486 294.000
19.47481 309.000
19.49475 314.000
19.51470 314.000
19.53465 299.000
19.55459 305.000
19.57454 325.000
19.59449 348.000
19.61444 311.000
19.63438 310.000
19.65433 315.000
19.67428 337.000
19.69422 325.000
19.71417 312.000
19.73412 346.000
19.75406 325.000
19.77401 324.000
19.79396 335.000
19.81391 324.000
19.83385 327.000
19.85380 356.000
19.87375 343.000
19.89369 342.000
19.91364 317.000
19.93359 346.000
19.95353 353.000
19.97348 328.000
19.99343 342.000
20.01337 314.000
20.03332 366.000
20.05327 355.000
20.07322 368.000
20.09316 355.000
20.11311 358.000
20.13306 356.000
20.15300 347.000
20.17295 375.000
20.19290 342.000
20.21284 348.000
20.23279 338.000
20.25274 345.000
20.27269 352.000
20.29263 333.000
20.31258 376.000
20.33253 312.000
20.35247 363.000
20.37242 367.000
20.39237 332.000
20.41231 364.000
20.43226 361.000
20.45221 345.000
20.47215 400.000
20.49210 369.000
20.51205 378.000
20.53200 392.000
20.55194 396.000
20.57189 342.000
20.59184 358.000
20.61178 361.000
20.63173 378.000
20.65168 356.000
20.67162 334.000
20.69157 347.000
20.71152 351.000
20.73147 378.000
20.75141 369.000
20.77136 376.000
20.79131 357.000
20.81125 406.000
20.83120 394.000
20.85115 361.000
20.87109 320.000
20.89104 366.000
20.91099 379.000
20.93094 376.000
20.95088 385.000
20.97083 409.000
20.99078 394.000
21.01072 380.000
21.03067 355.000
21.05062 398.000
21.07056 393.000
21.09051 369.000
21.11046 396.000
21.13040 380.000
21.15035 372.000
21.17030 416.000
21.19025 389.000
21.21019 366.000
21.23014 383.000
21.25009 378.000
21.27003 398.000
21.28998 357.000
21.30993 378.000
21.32987 373.000
21.34982 423.000
21.36977 334.000
21.38972 371.000
21.40966 399.000
21.42961 382.000
21.44956 368.000
21.46950 400.000
21.48945 372.000
21.50940 374.000
21.52934 392.000
21.54929 395.000
21.56924 387.000
21.58918 375.000
21.60913 381.000
21.62908 406.000
21.64903 369.000
21.66897 404.000
21.68892 408.000
21.70887 405.000
21.72881 417.000
21.74876 433.000
21.76871 391.000
21.78865 374.000
21.80860 448.000
21.82855 379.000
21.84850 415.000
21.86844 424.000
21.88839 414.000
21.90834 427.000
21.92828 416.000
21.94823 409.000
21.96818 435.000
21.98812 391.000
22.00807 375.000
22.02802 412.000
22.04796 425.000
22.06791 378.000
22.08786 409.000
22.10781 426.000
22.12775 404.000
22.14770 375.000
22.16765 412.000
22.18759 436.000
22.20754 442.000
22.22749 424.000
22.24743 444.000
22.26738 415.000
22.28733 422.000
22.30728 429.000
22.32722 377.000
22.34717 416.000
22.36712 444.000
22.38706 400.000
22.40701 456.000
22.42696 406.000
22.44690 434.000
22.46685 433.000
22.48680 440.000
22.50675 420.000
22.52669 432.000
22.54664 433.000
22.56659 434.000
22.58653 468.000
22.60648 413.000
22.62643 480.000
22.64637 476.000
22.66632 449.000
22.68627 445.000
22.70621 434.000
22.72616 454.000
22.74611 428.000
22.76606 473.000
22.78600 462.000
22.80595 429.000
22.82590 440.000
22.84584 441.000
22.86579 455.000
22.88574 443.000
22.90568 453.000
22.92563 424.000
22.94558 441.000
22.96553 465.000
22.98547 424.000
23.00542 448.000
23.02537 451.000
23.04531 507.000
23.06526 458.000
23.08521 463.000
23.10515 403.000
23.12510 482.000
23.14505 509.000
23.16499 452.000
23.18494 440.000
23.20489 443.000
23.22484 440.000
23.24478 496.000
23.26473 427.000
23.28468 459.000
23.30462 468.000
23.32457 509.000
23.34452 455.000
23.36446 459.000
23.38441 479.000
23.40436 478.000
23.42431 476.000
23.44425 413.000
23.46420 509.000
23.48415 446.000
23.50409 460.000
23.52404 446.000
23.54399 489.000
23.56393 461.000
23.58388 447.000
23.60383 498.000
23.62377 489.000
23.64372 487.000
23.66367 489.000
23.68362 461.000
23.70356 494.000
23.72351 471.000
23.74346 490.000
23.76340 505.000
23.78335 487.000
23.80330 498.000
23.82324 470.000
23.84319 512.000
23.86314 501.000
23.88309 486.000
23.90303 475.000
23.92298 490.000
23.94293 511.000
23.96287 518.000
23.98282 477.000
24.00277 497.000
24.02271 506.000
24.04266 492.000
24.06261 499.000
24.08256 499.000
24.10250 484.000
24.12245 533.000
24.14240 487.000
24.16234 507.000
24.18229 497.000
24.20224 498.000
24.22218 492.000
24.24213 492.000
24.26208 520.000
24.28202 490.000
24.30197 534.000
24.32192 494.000
24.34187 519.000
24.36181 494.000
24.38176 508.000
24.40171 533.000
24.42165 539.000
24.44160 506.000
24.46155 532.000
24.48149 553.000
24.50144 542.000
24.52139 524.000
24.54134 502.000
24.56128 527.000
24.58123 534.000
24.60118 543.000
24.62112 535.000
24.64107 526.000
24.66102 540.000
24.68096 522.000
24.70091 582.000
24.72086 517.000
24.74080 504.000
24.76075 534.000
24.78070 572.000
24.80065 568.000
24.82059 574.000
24.84054 567.000
24.86049 534.000
24.88043 532.000
24.90038 540.000
24.92033 539.000
24.94027 538.000
24.96022 567.000
24.98017 502.000
25.00012 584.000
25.02006 559.000
25.04001 587.000
25.05996 619.000
25.07990 610.000
25.09985 577.000
25.11980 605.000
25.13974 559.000
25.15969 559.000
25.17964 599.000
25.19958 621.000
25.21953 518.000
25.23948 553.000
25.25943 613.000
25.27937 603.000
25.29932 562.000
25.31927 621.000
25.33921 610.000
25.35916 605.000
25.37911 576.000
25.39905 551.000
25.41900 561.000
25.43895 589.000
25.45890 600.000
25.47884 586.000
25.49879 606.000
25.51874 624.000
25.53868 579.000
25.55863 628.000
25.57858 631.000
25.59852 578.000
25.61847 640.000
25.63842 564.000
25.65837 555.000
25.67831 637.000
25.69826 617.000
25.71821 536.000
25.73815 646.000
25.75810 638.000
25.77805 621.000
25.79799 630.000
25.81794 619.000
25.83789 601.000
25.85783 662.000
25.87778 668.000
25.89773 633.000
25.91768 660.000
25.93762 597.000
25.95757 641.000
25.97752 622.000
25.99746 639.000
26.01741 632.000
26.03736 644.000
26.05730 641.000
26.07725 652.000
26.09720 657.000
26.11715 640.000
26.13709 648.000
26.15704 636.000
26.17699 663.000
26.19693 671.000
26.21688 678.000
26.23683 660.000
26.25677 662.000
26.27672 640.000
26.29667 670.000
26.31661 663.000
26.33656 673.000
26.35651 694.000
26.37646 658.000
26.39640 665.000
26.41635 686.000
26.43630 637.000
26.45624 648.000
26.47619 671.000
26.49614 683.000
26.51608 675.000
26.53603 652.000
26.55598 702.000
26.57593 681.000
26.59587 678.000
26.61582 697.000
26.63577 695.000
26.65571 747.000
26.67566 703.000
26.69561 700.000
26.71555 692.000
26.73550 701.000
26.75545 683.000
26.77539 696.000
26.79534 733.000
26.81529 664.000
26.83524 732.000
26.85518 745.000
26.87513 690.000
26.89508 727.000
26.91502 724.000
26.93497 690.000
26.95492 670.000
26.97486 733.000
26.99481 755.000
27.01476 704.000
27.03471 711.000
27.05465 677.000
27.07460 739.000
27.09455 701.000
27.11449 786.000
27.13444 768.000
27.15439 723.000
27.17433 761.000
27.19428 687.000
27.21423 716.000
27.23417 731.000
27.25412 726.000
27.27407 744.000
27.29402 726.000
27.31396 735.000
27.33391 710.000
27.35386 752.000
27.37380 762.000
27.39375 763.000
27.41370 720.000
27.43364 770.000
27.45359 773.000
27.47354 712.000
27.49349 795.000
27.51343 784.000
27.53338 726.000
27.55333 779.000
27.57327 770.000
27.59322 787.000
27.61317 813.000
27.63311 742.000
27.65306 718.000
27.67301 731.000
27.69296 809.000
27.71290 735.000
27.73285 802.000
27.75280 740.000
27.77274 797.000
27.79269 751.000
27.81264 783.000
27.83258 740.000
27.85253 770.000
27.87248 774.000
27.89242 784.000
27.91237 818.000
27.93232 825.000
27.95227 781.000
27.97221 819.000
27.99216 806.000
28.01211 787.000
28.03205 784.000
28.05200 872.000
28.07195 791.000
28.09189 755.000
28.11184 806.000
28.13179 815.000
28.15174 787.000
28.17168 813.000
28.19163 771.000
28.21158 771.000
28.23152 718.000
28.25147 832.000
28.27142 759.000
28.29136 798.000
28.31131 794.000
28.33126 757.000
28.35120 797.000
28.37115 828.000
28.39110 861.000
28.41105 823.000
28.43099 767.000
28.45094 800.000
28.47089 804.000
28.49083 882.000
28.51078 754.000
28.53073 847.000
28.55067 806.000
28.57062 842.000
28.59057 790.000
28.61052 813.000
28.63046 798.000
28.65041 847.000
28.67036 788.000
28.69030 781.000
28.71025 809.000
28.73020 918.000
28.75014 893.000
28.77009 826.000
28.79004 828.000
28.80998 852.000
28.82993 829.000
28.84988 768.000
28.86983 822.000
28.88977 769.000
28.90972 839.000
28.92967 839.000
28.94961 866.000
28.96956 811.000
28.98951 850.000
29.00945 792.000
29.02940 816.000
29.04935 819.000
29.06930 801.000
29.08924 816.000
29.10919 846.000
29.12914 822.000
29.14908 790.000
29.16903 883.000
29.18898 872.000
29.20892 823.000
29.22887 840.000
29.24882 874.000
29.26877 856.000
29.28871 832.000
29.30866 864.000
29.32861 833.000
29.34855 874.000
29.36850 866.000
29.38845 805.000
29.40839 844.000
29.42834 863.000
29.44829 874.000
29.46823 798.000
29.48818 879.000
29.50813 806.000
29.52808 841.000
29.54802 847.000
29.56797 867.000
29.58792 866.000
29.60786 845.000
29.62781 853.000
29.64776 859.000
29.66770 841.000
29.68765 808.000
29.70760 819.000
29.72755 887.000
29.74749 821.000
29.76744 862.000
29.78739 878.000
29.80733 871.000
29.82728 812.000
29.84723 849.000
29.86717 792.000
29.88712 853.000
29.90707 805.000
29.92701 895.000
29.94696 810.000
29.96691 816.000
29.98686 886.000
30.00680 838.000
30.02675 900.000
30.04670 866.000
30.06664 817.000
30.08659 811.000
30.10654 764.000
30.12648 842.000
30.14643 852.000
30.16638 855.000
30.18633 785.000
30.20627 782.000
30.22622 816.000
30.24617 843.000
30.26611 845.000
30.28606 784.000
30.30601 826.000
30.32595 796.000
30.34590 838.000
30.36585 861.000
30.38579 837.000
30.40574 820.000
30.42569 834.000
30.44564 873.000
30.46558 799.000
30.48553 796.000
30.50548 811.000
30.52542 808.000
30.54537 840.000
30.56532 838.000
30.58526 775.000
30.60521 864.000
30.62516 794.000
30.64511 848.000
30.66505 820.000
30.68500 806.000
30.70495 862.000
30.72489 783.000
30.74484 865.000
30.76479 855.000
30.78473 827.000
30.80468 859.000
30.82463 836.000
30.84458 819.000
30.86452 776.000
30.88447 788.000
30.90442 833.000
30.92436 825.000
30.94431 823.000
30.96426 801.000
30.98420 808.000
31.00415 827.000
31.02410 773.000
31.04404 746.000
31.06399 827.000
31.08394 777.000
31.10389 800.000
31.12383 802.000
31.14378 790.000
31.16373 809.000
31.18367 789.000
31.20362 814.000
31.22357 777.000
31.24351 778.000
31.26346 808.000
31.28341 782.000
31.30336 801.000
31.32330 789.000
31.34325 841.000
31.36320 841.000
31.38314 837.000
31.40309 805.000
31.42304 800.000
31.44298 770.000
31.46293 801.000
31.48288 801.000
31.50282 767.000
31.52277 831.000
31.54272 771.000
31.56267 775.000
31.58261 817.000
31.60256 793.000
31.62251 796.000
31.64245 754.000
31.66240 747.000
31.68235 802.000
31.70229 766.000
31.72224 804.000
31.74219 781.000
31.76214 824.000
31.78208 787.000
31.80203 776.000
31.82198 747.000
31.84192 715.000
31.86187 762.000
31.88182 779.000
31.90176 730.000
31.92171 767.000
31.94166 796.000
31.96160 762.000
31.98155 714.000
32.00150 783.000
32.02145 781.000
32.04139 708.000
32.06134 717.000
32.08129 736.000
32.10123 761.000
32.12118 745.000
32.14113 757.000
32.16107 772.000
32.18102 736.000
32.20097 713.000
32.22092 817.000
32.24086 759.000
32.26081 764.000
32.28076 735.000
32.30070 759.000
32.32065 748.000
32.34060 705.000
32.36054 733.000
32.38049 783.000
32.40044 738.000
32.42039 695.000
32.44033 716.000
32.46028 770.000
32.48023 722.000
32.50017 749.000
32.52012 712.000
32.54007 752.000
32.56001 763.000
32.57996 752.000
32.59991 726.000
32.61985 782.000
32.63980 729.000
32.65975 691.000
32.67970 762.000
32.69964 735.000
32.71959 760.000
32.73954 720.000
32.75948 701.000
32.77943 668.000
32.79938 726.000
32.81932 728.000
32.83927 720.000
32.85922 686.000
32.87917 677.000
32.89911 707.000
32.91906 751.000
32.93901 675.000
32.95895 673.000
32.97890 681.000
32.99885 698.000
33.01879 705.000
33.03874 735.000
33.05869 740.000
33.07863 710.000
33.09858 678.000
33.11853 667.000
33.13848 702.000
33.15842 648.000
33.17837 626.000
33.19832 699.000
33.21826 685.000
33.23821 724.000
33.25816 676.000
33.27810 653.000
33.29805 648.000
33.31800 688.000
33.33795 665.000
33.35789 677.000
33.37784 658.000
33.39779 685.000
33.41773 677.000
33.43768 710.000
33.45763 673.000
33.47757 627.000
33.49752 626.000
33.51747 670.000
33.53741 721.000
33.55736 640.000
33.57731 641.000
33.59726 667.000
33.61720 710.000
33.63715 713.000
33.65710 620.000
33.67704 659.000
33.69699 621.000
33.71694 639.000
33.73688 637.000
33.75683 699.000
33.77678 605.000
33.79673 675.000
33.81667 634.000
33.83662 595.000
33.85657 666.000
33.87651 658.000
33.89646 614.000
33.91641 607.000
33.93635 667.000
33.95630 620.000
33.97625 628.000
33.99620 647.000
34.01614 638.000
34.03609 636.000
34.05604 635.000
34.07598 682.000
34.09593 615.000
34.11588 686.000
34.13582 615.000
34.15577 609.000
34.17572 580.000
34.19566 582.000
34.21561 556.000
34.23556 623.000
34.25551 577.000
34.27545 616.000
34.29540 608.000
34.31535 600.000
34.33529 608.000
34.35524 573.000
34.37519 588.000
34.39513 627.000
34.41508 594.000
34.43503 594.000
34.45498 612.000
34.47492 605.000
34.49487 653.000
34.51482 633.000
34.53476 611.000
34.55471 634.000
34.57466 654.000
34.59460 684.000
34.61455 565.000
34.63450 601.000
34.65444 613.000
34.67439 630.000
34.69434 634.000
34.71429 603.000
34.73423 558.000
34.75418 595.000
34.77413 581.000
34.79407 614.000
34.81402 596.000
34.83397 576.000
34.85391 589.000
34.87386 575.000
34.89381 561.000
34.91376 562.000
34.93370 598.000
34.95365 596.000
34.97360 575.000
34.99354 559.000
35.01349 606.000
35.03344 570.000
35.05338 571.000
35.07333 550.000
35.09328 614.000
35.11322 575.000
35.13317 555.000
35.15312 567.000
35.17307 553.000
35.19301 559.000
35.21296 563.000
35.23291 559.000
35.25285 578.000
35.27280 607.000
35.29275 564.000
35.31269 559.000
35.33264 558.000
35.35259 593.000
35.37254 572.000
35.39248 619.000
35.41243 563.000
35.43238 569.000
35.45232 551.000
35.47227 589.000
35.49222 572.000
35.51216 566.000
35.53211 555.000
35.55206 544.000
35.57201 574.000
35.59195 571.000
35.61190 548.000
35.63185 569.000
35.65179 581.000
35.67174 615.000
35.69169 536.000
35.71163 575.000
35.73158 558.000
35.75153 601.000
35.77147 537.000
35.79142 539.000
35.81137 574.000
35.83132 531.000
35.85126 562.000
35.87121 581.000
35.89116 561.000
35.91110 549.000
35.93105 556.000
35.95100 517.000
35.97094 543.000
35.99089 540.000
36.01084 539.000
36.03079 598.000
36.05073 588.000
36.07068 542.000
36.09063 571.000
36.11057 568.000
36.13052 567.000
36.15047 589.000
36.17041 582.000
36.19036 582.000
36.21031 588.000
36.23025 587.000
36.25020 622.000
36.27015 606.000
36.29010 667.000
36.31004 642.000
36.32999 716.000
36.34994 669.000
36.36988 710.000
36.38983 705.000
36.40978 731.000
36.42972 762.000
36.44967 816.000
36.46962 747.000
36.48957 808.000
36.50951 857.000
36.52946 964.000
36.54941 986.000
36.56935 998.000
36.58930 1120.000
36.60925 1283.000
36.62919 1394.000
36.64914 1616.000
36.66909 1883.000
36.68903 2125.000
36.70898 2536.000
36.72893 2806.000
36.74888 2991.000
36.76882 3381.000
36.78877 3778.000
36.80872 4076.000
36.82866 4364.000
36.84861 4386.000
36.86856 4371.000
36.88850 4131.000
36.90845 3645.000
36.92840 3326.000
36.94835 2847.000
36.96829 2505.000
36.98824 2101.000
37.00819 1751.000
37.02813 1402.000
37.04808 1174.000
37.06803 1065.000
37.08797 849.000
37.10792 768.000
37.12787 723.000
37.14781 680.000
37.16776 665.000
37.18771 621.000
37.20766 581.000
37.22760 611.000
37.24755 607.000
37.26750 589.000
37.28744 608.000
37.30739 602.000
37.32734 567.000
37.34728 534.000
37.36723 548.000
37.38718 569.000
37.40713 512.000
37.42707 537.000
37.44702 578.000
37.46697 538.000
37.48691 533.000
37.50686 501.000
37.52681 501.000
37.54675 517.000
37.56670 540.000
37.58665 559.000
37.60660 514.000
37.62654 569.000
37.64649 544.000
37.66644 524.000
37.68638 575.000
37.70633 535.000
37.72628 556.000
37.74622 566.000
37.76617 544.000
37.78612 493.000
37.80606 507.000
37.82601 539.000
37.84596 580.000
37.86591 471.000
37.88585 525.000
37.90580 529.000
37.92575 506.000
37.94569 504.000
37.96564 497.000
37.98559 476.000
38.00553 511.000
38.02548 504.000
38.04543 540.000
38.06538 529.000
38.08532 520.000
38.10527 492.000
38.12522 485.000
38.14516 498.000
38.16511 501.000
38.18506 510.000
38.20500 513.000
38.22495 514.000
38.24490 513.000
38.26484 500.000
38.28479 499.000
38.30474 506.000
38.32469 483.000
38.34463 510.000
38.36458 544.000
38.38453 504.000
38.40447 534.000
38.42442 502.000
38.44437 517.000
38.46431 501.000
38.48426 542.000
38.50421 492.000
38.52416 514.000
38.54410 508.000
38.56405 525.000
38.58400 493.000
38.60394 499.000
38.62389 510.000
38.64384 550.000
38.66378 508.000
38.68373 496.000
38.70368 529.000
38.72362 536.000
38.74357 506.000
38.76352 498.000
38.78347 493.000
38.80341 549.000
38.82336 573.000
38.84331 471.000
38.86325 516.000
38.88320 495.000
38.90315 519.000
38.92309 522.000
38.94304 567.000
38.96299 453.000
38.98294 472.000
39.00288 511.000
39.02283 517.000
39.04278 492.000
39.06272 483.000
39.08267 522.000
39.10262 536.000
39.12256 506.000
39.14251 552.000
39.16246 492.000
39.18241 492.000
39.20235 486.000
39.22230 488.000
39.24225 483.000
39.26219 513.000
39.28214 528.000
39.30209 511.000
39.32203 505.000
39.34198 499.000
39.36193 513.000
39.38187 503.000
39.40182 485.000
39.42177 472.000
39.44172 529.000
39.46166 522.000
39.48161 510.000
39.50156 516.000
39.52150 513.000
39.54145 494.000
39.56140 492.000
39.58134 525.000
39.60129 532.000
39.62124 525.000
39.64119 480.000
39.66113 561.000
39.68108 503.000
39.70103 498.000
39.72097 487.000
39.74092 507.000
39.76087 502.000
39.78081 466.000
39.80076 494.000
39.82071 514.000
39.84065 479.000
39.86060 502.000
39.88055 498.000
39.90050 468.000
39.92044 481.000
39.94039 499.000
39.96034 529.000
39.98028 506.000
40.00023 507.000
40.02018 451.000
40.04012 523.000
40.06007 494.000
40.08002 527.000
40.09997 520.000
40.11991 488.000
40.13986 486.000
40.15981 512.000
40.17975 528.000
40.19970 516.000
40.21965 523.000
40.23959 509.000
40.25954 479.000
40.27949 494.000
40.29943 554.000
40.31938 503.000
40.33933 431.000
40.35928 494.000
40.37922 499.000
40.39917 515.000
40.41912 459.000
40.43906 460.000
40.45901 482.000
40.47896 474.000
40.49890 473.000
40.51885 524.000
40.53880 475.000
40.55875 471.000
40.57869 523.000
40.59864 493.000
40.61859 529.000
40.63853 529.000
40.65848 477.000
40.67843 484.000
40.69837 510.000
40.71832 494.000
40.73827 502.000
40.75822 491.000
40.77816 483.000
40.79811 506.000
40.81806 475.000
40.83800 490.000
40.85795 488.000
40.87790 500.000
40.89784 474.000
40.91779 515.000
40.93774 484.000
40.95768 511.000
40.97763 497.000
40.99758 492.000
41.01753 504.000
41.03747 515.000
41.05742 536.000
41.07737 500.000
41.09731 481.000
41.11726 488.000
41.13721 501.000
41.15715 501.000
41.17710 489.000
41.19705 459.000
41.21700 489.000
41.23694 483.000
41.25689 521.000
41.27684 515.000
41.29678 511.000
41.31673 531.000
41.33668 572.000
41.35662 505.000
41.37657 520.000
41.39652 517.000
41.41646 519.000
41.43641 509.000
41.45636 541.000
41.47631 469.000
41.49625 525.000
41.51620 504.000
41.53615 502.000
41.55609 535.000
41.57604 537.000
41.59599 489.000
41.61593 530.000
41.63588 524.000
41.65583 508.000
41.67578 481.000
41.69572 516.000
41.71567 498.000
41.73562 544.000
41.75556 508.000
41.77551 537.000
41.79546 496.000
41.81540 530.000
41.83535 564.000
41.85530 595.000
41.87524 508.000
41.89519 486.000
41.91514 492.000
41.93509 551.000
41.95503 536.000
41.97498 509.000
41.99493 514.000
42.01487 494.000
42.03482 535.000
42.05477 535.000
42.07471 502.000
42.09466 557.000
42.11461 551.000
42.13456 559.000
42.15450 571.000
42.17445 566.000
42.19440 544.000
42.21434 573.000
42.23429 572.000
42.25424 571.000
42.27418 616.000
42.29413 587.000
42.31408 657.000
42.33403 720.000
42.35397 691.000
42.37392 845.000
42.39387 831.000
42.41381 919.000
42.43376 981.000
42.45371 968.000
42.47365 1016.000
42.49360 1034.000
42.51355 1159.000
42.53349 1193.000
42.55344 1219.000
42.57339 1406.000
42.59334 1459.000
42.61328 1662.000
42.63323 1872.000
42.65318 2012.000
42.67312 2175.000
42.69307 2561.000
42.71302 2919.000
42.73296 3366.000
42.75291 3956.000
42.77286 4296.000
42.79281 5000.000
42.81275 5387.000
42.83270 6207.000
42.85265 6809.000
42.87259 7443.000
42.89254 7618.000
42.91249 7528.000
42.93243 6862.000
42.95238 6106.000
42.97233 5350.000
42.99227 4897.000
43.01222 4358.000
43.03217 3815.000
43.05212 3057.000
43.07206 2390.000
43.09201 1860.000
43.11196 1419.000
43.13190 1186.000
43.15185 1046.000
43.17180 912.000
43.19174 797.000
43.21169 769.000
43.23164 724.000
43.25159 691.000
43.27153 678.000
43.29148 649.000
43.31143 620.000
43.33137 572.000
43.35132 591.000
43.37127 562.000
43.39121 585.000
43.41116 525.000
43.43111 545.000
43.45105 524.000
43.47100 549.000
43.49095 558.000
43.51090 506.000
43.53084 504.000
43.55079 537.000
43.57074 519.000
43.59068 523.000
43.61063 506.000
43.63058 502.000
43.65052 511.000
43.67047 472.000
43.69042 480.000
43.71037 495.000
43.73031 481.000
43.75026 492.000
43.77021 493.000
43.79015 501.000
43.81010 453.000
43.83005 495.000
43.84999 478.000
43.86994 452.000
43.88989 480.000
43.90984 472.000
43.92978 478.000
43.94973 466.000
43.96968 424.000
43.98962 481.000
44.00957 469.000
44.02952 467.000
44.04946 503.000
44.06941 464.000
44.08936 454.000
44.10930 436.000
44.12925 437.000
44.14920 450.000
44.16915 431.000
44.18909 444.000
44.20904 450.000
44.22899 470.000
44.24893 408.000
44.26888 451.000
44.28883 460.000
44.30877 433.000
44.32872 437.000
44.34867 419.000
44.36862 439.000
44.38856 405.000
44.40851 435.000
44.42846 440.000
44.44840 416.000
44.46835 437.000
44.48830 442.000
44.50824 391.000
44.52819 433.000
44.54814 455.000
44.56808 478.000
44.58803 420.000
44.60798 444.000
44.62793 473.000
44.64787 440.000
44.66782 426.000
44.68777 417.000
44.70771 424.000
44.72766 404.000
44.74761 401.000
44.76755 452.000
44.78750 454.000
44.80745 409.000
44.82740 406.000
44.84734 419.000
44.86729 410.000
44.88724 424.000
44.90718 385.000
44.92713 410.000
44.94708 397.000
44.96702 404.000
44.98697 407.000
45.00692 425.000
45.02686 400.000
45.04681 370.000
45.06676 427.000
45.08671 464.000
45.10665 406.000
45.12660 390.000
45.14655 384.000
45.16649 388.000
45.18644 425.000
45.20639 431.000
45.22633 409.000
45.24628 383.000
45.26623 424.000
45.28618 361.000
45.30612 379.000
45.32607 386.000
45.34602 391.000
45.36596 382.000
45.38591 414.000
45.40586 403.000
45.42580 415.000
45.44575 394.000
45.46570 391.000
45.48565 416.000
45.50559 399.000
45.52554 372.000
45.54549 368.000
45.56543 431.000
45.58538 394.000
45.60533 407.000
45.62527 392.000
45.64522 400.000
45.66517 415.000
45.68511 381.000
45.70506 372.000
45.72501 378.000
45.74496 421.000
45.76490 379.000
45.78485 376.000
45.80480 416.000
45.82474 341.000
45.84469 419.000
45.86464 379.000
45.88458 387.000
45.90453 376.000
45.92448 396.000
45.94443 351.000
45.96437 351.000
45.98432 388.000
46.00427 395.000
46.02421 369.000
46.04416 382.000
46.06411 372.000
46.08405 412.000
46.10400 390.000
46.12395 406.000
46.14389 390.000
46.16384 353.000
46.18379 379.000
46.20374 408.000
46.22368 387.000
46.24363 365.000
46.26358 366.000
46.28352 395.000
46.30347 409.000
46.32342 403.000
46.34336 346.000
46.36331 362.000
46.38326 364.000
46.40321 393.000
46.42315 373.000
46.44310 372.000
46.46305 370.000
46.48299 371.000
46.50294 370.000
46.52289 374.000
46.54283 365.000
46.56278 391.000
46.58273 349.000
46.60267 377.000
46.62262 336.000
46.64257 355.000
46.66252 349.000
46.68246 370.000
46.70241 346.000
46.72236 414.000
46.74230 368.000
46.76225 365.000
46.78220 358.000
46.80214 327.000
46.82209 381.000
46.84204 352.000
46.86199 354.000
46.88193 328.000
46.90188 367.000
46.92183 400.000
46.94177 370.000
46.96172 377.000
46.98167 349.000
47.00161 390.000
47.02156 366.000
47.04151 371.000
47.06146 340.000
47.08140 346.000
47.10135 364.000
47.12130 345.000
47.14124 337.000
47.16119 381.000
47.18114 354.000
47.20108 363.000
47.22103 349.000
47.24098 345.000
47.26092 347.000
47.28087 368.000
47.30082 341.000
47.32077 370.000
47.34071 355.000
47.36066 385.000
47.38061 327.000
47.40055 363.000
47.42050 352.000
47.44045 368.000
47.46039 366.000
47.48034 365.000
47.50029 348.000
47.52024 385.000
47.54018 362.000
47.56013 353.000
47.58008 368.000
47.60002 317.000
47.61997 380.000
47.63992 340.000
47.65986 361.000
47.67981 336.000
47.69976 325.000
47.71970 337.000
47.73965 357.000
47.75960 341.000
47.77955 353.000
47.79949 311.000
47.81944 356.000
47.83939 374.000
47.85933 338.000
47.87928 361.000
47.89923 355.000
47.91917 352.000
47.93912 352.000
47.95907 335.000
47.97902 344.000
47.99896 351.000
48.01891 350.000
48.03886 332.000
48.05880 349.000
48.07875 358.000
48.09870 370.000
48.11864 339.000
48.13859 371.000
48.15854 352.000
48.17848 348.000
48.19843 331.000
48.21838 372.000
48.23833 363.000
48.25827 343.000
48.27822 347.000
48.29817 335.000
48.31811 314.000
48.33806 342.000
48.35801 339.000
48.37795 349.000
48.39790 332.000
48.41785 345.000
48.43780 310.000
48.45774 363.000
48.47769 327.000
48.49764 326.000
48.51758 329.000
48.53753 358.000
48.55748 330.000
48.57742 339.000
48.59737 332.000
48.61732 328.000
48.63726 307.000
48.65721 319.000
48.67716 341.000
48.69711 336.000
48.71705 355.000
48.73700 317.000
48.75695 336.000
48.77689 322.000
48.79684 341.000
48.81679 334.000
48.83673 345.000
48.85668 343.000
48.87663 343.000
48.89658 356.000
48.91652 347.000
48.93647 369.000
48.95642 345.000
48.97636 336.000
48.99631 350.000
49.01626 327.000
49.03620 355.000
49.05615 354.000
49.07610 314.000
49.09605 381.000
49.11599 312.000
49.13594 355.000
49.15589 315.000
49.17583 355.000
49.19578 369.000
49.21573 337.000
49.23567 332.000
49.25562 343.000
49.27557 361.000
49.29551 338.000
49.31546 324.000
49.33541 358.000
49.35536 335.000
49.37530 336.000
49.39525 339.000
49.41520 322.000
49.43514 319.000
49.45509 345.000
49.47504 332.000
49.49498 330.000
49.51493 322.000
49.53488 308.000
49.55483 315.000
49.57477 345.000
49.59472 322.000
49.61467 348.000
49.63461 347.000
49.65456 328.000
49.67451 338.000
49.69445 344.000
49.71440 340.000
49.73435 313.000
49.75429 287.000
49.77424 312.000
49.79419 333.000
49.81414 327.000
49.83408 312.000
49.85403 316.000
49.87398 354.000
49.89392 344.000
49.91387 320.000
49.93382 357.000
49.95376 323.000
49.97371 362.000
49.99366 382.000
50.01361 331.000
50.03355 321.000
50.05350 331.000
50.07345 339.000
50.09339 311.000
50.11334 326.000
50.13329 334.000
50.15323 306.000
50.17318 325.000
50.19313 327.000
50.21307 341.000
50.23302 335.000
50.25297 323.000
50.27292 298.000
50.29286 318.000
50.31281 347.000
50.33276 331.000
50.35270 340.000
50.37265 357.000
50.39260 336.000
50.41254 311.000
50.43249 328.000
50.45244 289.000
50.47239 318.000
50.49233 304.000
50.51228 343.000
50.53223 336.000
50.55217 352.000
50.57212 308.000
50.59207 345.000
50.61201 316.000
50.63196 307.000
50.65191 316.000
50.67186 318.000
50.69180 318.000
50.71175 328.000
50.73170 331.000
50.75164 335.000
50.77159 304.000
50.79154 332.000
50.81148 296.000
50.83143 312.000
50.85138 305.000
50.87132 329.000
50.89127 356.000
50.91122 300.000
50.93117 305.000
50.95111 321.000
50.97106 300.000
50.99101 324.000
51.01095 298.000
51.03090 351.000
51.05085 347.000
51.07079 333.000
51.09074 286.000
51.11069 299.000
51.13064 311.000
51.15058 348.000
51.17053 296.000
51.19048 317.000
51.21042 290.000
51.23037 303.000
51.25032 332.000
51.27026 296.000
51.29021 331.000
51.31016 342.000
51.33010 295.000
51.35005 327.000
51.37000 316.000
51.38995 345.000
51.40989 302.000
51.42984 264.000
51.44979 320.000
51.46973 322.000
51.48968 319.000
51.50963 322.000
51.52957 316.000
51.54952 290.000
51.56947 301.000
51.58942 313.000
51.60936 302.000
51.62931 301.000
51.64926 325.000
51.66920 307.000
51.68915 286.000
51.70910 293.000
51.72904 322.000
51.74899 327.000
51.76894 343.000
51.78888 291.000
51.80883 304.000
51.82878 295.000
51.84873 333.000
51.86867 314.000
51.88862 335.000
51.90857 334.000
51.92851 332.000
51.94846 324.000
51.96841 330.000
51.98835 327.000
52.00830 315.000
52.02825 306.000
52.04820 342.000
52.06814 335.000
52.08809 345.000
52.10804 315.000
52.12798 298.000
52.14793 337.000
52.16788 329.000
52.18782 309.000
52.20777 272.000
52.22772 308.000
52.24767 313.000
52.26761 292.000
52.28756 339.000
52.30751 314.000
52.32745 329.000
52.34740 291.000
52.36735 316.000
52.38729 333.000
52.40724 287.000
52.42719 340.000
52.44713 295.000
52.46708 304.000
52.48703 303.000
52.50698 331.000
52.52692 304.000
52.54687 292.000
52.56682 302.000
52.58676 313.000
52.60671 321.000
52.62666 296.000
52.64660 310.000
52.66655 323.000
52.68650 318.000
52.70645 326.000
52.72639 314.000
52.74634 328.000
52.76629 293.000
52.78623 332.000
52.80618 306.000
52.82613 313.000
52.84607 316.000
52.86602 325.000
52.88597 307.000
52.90591 348.000
52.92586 293.000
52.94581 311.000
52.96576 294.000
52.98570 303.000
53.00565 302.000
53.02560 294.000
53.04554 300.000
53.06549 274.000
53.08544 306.000
53.10538 288.000
53.12533 320.000
53.14528 300.000
53.16523 282.000
53.18517 326.000
53.20512 322.000
53.22507 325.000
53.24501 320.000
53.26496 322.000
53.28491 287.000
53.30485 290.000
53.32480 293.000
53.34475 308.000
53.36469 312.000
53.38464 301.000
53.40459 300.000
53.42454 313.000
53.44448 280.000
53.46443 289.000
53.48438 324.000
53.50432 276.000
53.52427 296.000
53.54422 292.000
53.56416 325.000
53.58411 313.000
53.60406 300.000
53.62401 284.000
53.64395 309.000
53.66390 317.000
53.68385 298.000
53.70379 306.000
53.72374 302.000
53.74369 347.000
53.76363 279.000
53.78358 312.000
53.80353 326.000
53.82348 304.000
53.84342 275.000
53.86337 304.000
53.88332 264.000
53.90326 279.000
53.92321 310.000
53.94316 301.000
53.96310 302.000
53.98305 297.000
54.00300 325.000
54.02294 316.000
54.04289 277.000
54.06284 276.000
54.08279 302.000
54.10273 343.000
54.12268 299.000
54.14263 315.000
54.16257 309.000
54.18252 311.000
54.20247 275.000
54.22241 327.000
54.24236 282.000
54.26231 293.000
54.28226 279.000
54.30220 294.000
54.32215 336.000
54.34210 286.000
54.36204 323.000
54.38199 307.000
54.40194 298.000
54.42188 314.000
54.44183 311.000
54.46178 304.000
54.48172 339.000
54.50167 301.000
54.52162 308.000
54.54157 297.000
54.56151 289.000
54.58146 319.000
54.60141 318.000
54.62135 310.000
54.64130 308.000
54.66125 291.000
54.68119 347.000
54.70114 304.000
54.72109 291.000
54.74104 301.000
54.76098 296.000
54.78093 263.000
54.80088 296.000
54.82082 320.000
54.84077 307.000
54.86072 316.000
54.88066 318.000
54.90061 300.000
54.92056 308.000
54.94050 268.000
54.96045 307.000
54.98040 332.000
55.00035 298.000
55.02029 289.000
55.04024 331.000
55.06019 298.000
55.08013 293.000
55.10008 294.000
55.12003 259.000
55.13997 287.000
55.15992 308.000
55.17987 303.000
55.19982 296.000
55.21976 283.000
55.23971 298.000
55.25966 292.000
55.27960 320.000
55.29955 292.000
55.31950 283.000
55.33944 271.000
55.35939 316.000
55.37934 339.000
55.39929 291.000
55.41923 296.000
55.43918 314.000
55.45913 278.000
55.47907 297.000
55.49902 305.000
55.51897 322.000
55.53891 300.000
55.55886 304.000
55.57881 284.000
55.59875 291.000
55.61870 309.000
55.63865 295.000
55.65860 310.000
55.67854 291.000
55.69849 294.000
55.71844 293.000
55.73838 317.000
55.75833 282.000
55.77828 241.000
55.79822 302.000
55.81817 300.000
55.83812 321.000
55.85807 292.000
55.87801 296.000
55.89796 298.000
55.91791 277.000
55.93785 288.000
55.95780 269.000
55.97775 296.000
55.99769 313.000
56.01764 307.000
56.03759 339.000
56.05753 300.000
56.07748 277.000
56.09743 334.000
56.11738 307.000
56.13732 291.000
56.15727 310.000
56.17722 245.000
56.19716 309.000
56.21711 307.000
56.23706 329.000
56.25700 271.000
56.27695 325.000
56.29690 297.000
56.31685 306.000
56.33679 323.000
56.35674 310.000
56.37669 320.000
56.39663 277.000
56.41658 300.000
56.43653 285.000
56.45647 302.000
56.47642 311.000
56.49637 294.000
56.51631 325.000
56.53626 295.000
56.55621 288.000
56.57616 252.000
56.59610 303.000
56.61605 297.000
56.63600 275.000
56.65594 271.000
56.67589 298.000
56.69584 286.000
56.71578 308.000
56.73573 313.000
56.75568 282.000
56.77563 269.000
56.79557 298.000
56.81552 317.000
56.83547 271.000
56.85541 292.000
56.87536 268.000
56.89531 271.000
56.91525 287.000
56.93520 292.000
56.95515 304.000
56.97510 301.000
56.99504 263.000
57.01499 293.000
57.03494 290.000
57.05488 295.000
57.07483 277.000
57.09478 315.000
57.11472 274.000
57.13467 306.000
57.15462 308.000
57.17456 310.000
57.19451 263.000
57.21446 309.000
57.23441 302.000
57.25435 303.000
57.27430 288.000
57.29425 310.000
57.31419 308.000
57.33414 273.000
57.35409 287.000
57.37403 281.000
57.39398 304.000
57.41393 277.000
57.43388 266.000
57.45382 296.000
57.47377 277.000
57.49372 304.000
57.51366 278.000
57.53361 300.000
57.55356 284.000
57.57350 254.000
57.59345 299.000
57.61340 276.000
57.63334 270.000
57.65329 257.000
57.67324 307.000
57.69319 271.000
57.71313 310.000
57.73308 271.000
57.75303 270.000
57.77297 291.000
57.79292 279.000
57.81287 268.000
57.83281 327.000
57.85276 294.000
57.87271 282.000
57.89266 268.000
57.91260 285.000
57.93255 271.000
57.95250 279.000
57.97244 295.000
57.99239 278.000
58.01234 325.000
58.03228 284.000
58.05223 270.000
58.07218 292.000
58.09212 272.000
58.11207 271.000
58.13202 312.000
58.15197 288.000
58.17191 290.000
58.19186 314.000
58.21181 305.000
58.23175 334.000
58.25170 293.000
58.27165 282.000
58.29159 319.000
58.31154 313.000
58.33149 285.000
58.35144 312.000
58.37138 278.000
58.39133 279.000
58.41128 290.000
58.43122 318.000
58.45117 323.000
58.47112 261.000
58.49106 287.000
58.51101 297.000
58.53096 268.000
58.55090 293.000
58.57085 295.000
58.59080 292.000
58.61075 282.000
58.63069 278.000
58.65064 289.000
58.67059 285.000
58.69053 288.000
58.71048 297.000
58.73043 268.000
58.75037 292.000
58.77032 276.000
58.79027 285.000
58.81022 304.000
58.83016 287.000
58.85011 268.000
58.87006 303.000
58.89000 314.000
58.90995 286.000
58.92990 323.000
58.94984 307.000
58.96979 266.000
58.98974 309.000
59.00969 285.000
59.02963 282.000
59.04958 273.000
59.06953 286.000
59.08947 308.000
59.10942 295.000
59.12937 285.000
59.14931 258.000
59.16926 292.000
59.18921 281.000
59.20915 288.000
59.22910 279.000
59.24905 286.000
59.26900 331.000
59.28894 252.000
59.30889 277.000
59.32884 297.000
59.34878 275.000
59.36873 283.000
59.38868 297.000
59.40862 275.000
59.42857 295.000
59.44852 285.000
59.46847 304.000
59.48841 308.000
59.50836 288.000
59.52831 284.000
59.54825 281.000
59.56820 284.000
59.58815 275.000
59.60809 302.000
59.62804 274.000
59.64799 288.000
59.66793 271.000
59.68788 279.000
59.70783 296.000
59.72778 267.000
59.74772 269.000
59.76767 296.000
59.78762 301.000
59.80756 299.000
59.82751 304.000
59.84746 272.000
59.86740 302.000
59.88735 285.000
59.90730 268.000
59.92725 267.000
59.94719 292.000
59.96714 281.000
59.98709 279.000
60.00703 296.000
60.02698 269.000
60.04693 281.000
60.06687 323.000
60.08682 239.000
60.10677 287.000
60.12671 295.000
60.14666 304.000
60.16661 288.000
60.18656 295.000
60.20650 270.000
60.22645 287.000
60.24640 278.000
60.26634 327.000
60.28629 291.000
60.30624 306.000
60.32618 282.000
60.34613 274.000
60.36608 292.000
60.38603 301.000
60.40597 251.000
60.42592 300.000
60.44587 265.000
60.46581 296.000
60.48576 296.000
60.50571 294.000
60.52565 306.000
60.54560 283.000
60.56555 289.000
60.58550 285.000
60.60544 307.000
60.62539 307.000
60.64534 301.000
60.66528 334.000
60.68523 303.000
60.70518 297.000
60.72512 298.000
60.74507 324.000
60.76502 307.000
60.78496 316.000
60.80491 321.000
60.82486 305.000
60.84481 330.000
60.86475 283.000
60.88470 277.000
60.90465 277.000
60.92459 274.000
60.94454 296.000
60.96449 291.000
60.98443 281.000
61.00438 296.000
61.02433 279.000
61.04428 300.000
61.06422 287.000
61.08417 279.000
61.10412 292.000
61.12406 336.000
61.14401 321.000
61.16396 308.000
61.18390 280.000
61.20385 287.000
61.22380 314.000
61.24374 309.000
61.26369 300.000
61.28364 274.000
61.30359 305.000
61.32353 301.000
61.34348 285.000
61.36343 321.000
61.38337 316.000
61.40332 316.000
61.42327 294.000
61.44321 285.000
61.46316 320.000
61.48311 319.000
61.50306 285.000
61.52300 311.000
61.54295 323.000
61.56290 309.000
61.58284 319.000
61.60279 311.000
61.62274 359.000
61.64268 329.000
61.66263 295.000
61.68258 303.000
61.70252 306.000
61.72247 327.000
61.74242 326.000
61.76237 281.000
61.78231 349.000
61.80226 379.000
61.82221 349.000
61.84215 353.000
61.86210 359.000
61.88205 376.000
61.90199 394.000
61.92194 377.000
61.94189 392.000
61.96184 449.000
61.98178 483.000
62.00173 512.000
62.02168 494.000
62.04162 603.000
62.06157 618.000
62.08152 647.000
62.10146 715.000
62.12141 787.000
62.14136 777.000
62.16131 1003.000
62.18125 982.000
62.20120 1072.000
62.22115 1170.000
62.24109 1260.000
62.26104 1374.000
62.28099 1592.000
62.30093 1658.000
62.32088 1720.000
62.34083 1914.000
62.36077 2116.000
62.38072 2272.000
62.40067 2517.000
62.42062 2757.000
62.44056 3127.000
62.46051 3455.000
62.48046 3527.000
62.50040 3751.000
62.52035 3784.000
62.54030 3704.000
62.56024 3484.000
62.58019 3104.000
62.60014 2826.000
62.62009 2579.000
62.64003 2412.000
62.65998 2352.000
62.67993 2245.000
62.69987 2103.000
62.71982 1798.000
62.73977 1679.000
62.75971 1446.000
62.77966 1181.000
62.79961 988.000
62.81955 861.000
62.83950 686.000
62.85945 656.000
62.87940 594.000
62.89934 505.000
62.91929 454.000
62.93924 453.000
62.95918 434.000
62.97913 403.000
62.99908 372.000
63.01902 385.000
63.03897 368.000
63.05892 372.000
63.07887 362.000
63.09881 364.000
63.11876 351.000
63.13871 316.000
63.15865 332.000
63.17860 350.000
63.19855 327.000
63.21849 337.000
63.23844 337.000
63.25839 304.000
63.27833 334.000
63.29828 313.000
63.31823 318.000
63.33818 325.000
63.35812 303.000
63.37807 303.000
63.39802 317.000
63.41796 344.000
63.43791 272.000
63.45786 298.000
63.47780 290.000
63.49775 350.000
63.51770 265.000
63.53765 316.000
63.55759 287.000
63.57754 294.000
63.59749 288.000
63.61743 326.000
63.63738 287.000
63.65733 282.000
63.67727 312.000
63.69722 315.000
63.71717 313.000
63.73712 298.000
63.75706 299.000
63.77701 278.000
63.79696 266.000
63.81690 293.000
63.83685 318.000
63.85680 285.000
63.87674 321.000
63.89669 275.000
63.91664 266.000
63.93658 332.000
63.95653 296.000
63.97648 313.000
63.99643 287.000
64.01637 316.000
64.03632 277.000
64.05627 310.000
64.07621 284.000
64.09616 302.000
64.11611 271.000
64.13605 274.000
64.15600 275.000
64.17595 295.000
64.19590 306.000
64.21584 280.000
64.23579 264.000
64.25574 280.000
64.27568 250.000
64.29563 282.000
64.31558 279.000
64.33552 291.000
64.35547 255.000
64.37542 277.000
64.39536 288.000
64.41531 284.000
64.43526 292.000
64.45521 298.000
64.47515 254.000
64.49510 283.000
64.51505 285.000
64.53499 298.000
64.55494 269.000
64.57489 277.000
64.59483 254.000
64.61478 295.000
64.63473 260.000
64.65468 260.000
64.67462 265.000
64.69457 288.000
64.71452 268.000
64.73446 273.000
64.75441 252.000
64.77436 291.000
64.79430 296.000
64.81425 309.000
64.83420 267.000
64.85414 271.000
64.87409 258.000
64.89404 279.000
64.91399 272.000
64.93393 280.000
64.95388 304.000
64.97383 298.000
64.99377 303.000
65.01372 277.000
65.03367 276.000
65.05361 259.000
65.07356 261.000
65.09351 260.000
65.11346 261.000
65.13340 275.000
65.15335 258.000
65.17330 278.000
65.19324 272.000
65.21319 287.000
65.23314 276.000
65.25308 283.000
65.27303 285.000
65.29298 274.000
65.31293 300.000
65.33287 280.000
65.35282 270.000
65.37277 289.000
65.39271 281.000
65.41266 283.000
65.43261 260.000
65.45255 256.000
65.47250 281.000
65.49245 281.000
65.51239 244.000
65.53234 308.000
65.55229 278.000
65.57224 291.000
65.59218 292.000
65.61213 247.000
65.63208 251.000
65.65202 250.000
65.67197 305.000
65.69192 299.000
65.71186 312.000
65.73181 279.000
65.75176 274.000
65.77171 284.000
65.79165 275.000
65.81160 280.000
65.83155 293.000
65.85149 264.000
65.87144 271.000
65.89139 292.000
65.91133 251.000
65.93128 263.000
65.95123 262.000
65.97117 269.000
65.99112 262.000
66.01107 241.000
66.03102 280.000
66.05096 283.000
66.07091 274.000
66.09086 263.000
66.11080 277.000
66.13075 273.000
66.15070 269.000
66.17064 288.000
66.19059 277.000
66.21054 280.000
66.23049 302.000
66.25043 289.000
66.27038 277.000
66.29033 287.000
66.31027 258.000
66.33022 279.000
66.35017 308.000
66.37011 255.000
66.39006 281.000
66.41001 290.000
66.42995 301.000
66.44990 248.000
66.46985 265.000
66.48980 285.000
66.50974 313.000
66.52969 264.000
66.54964 291.000
66.56958 244.000
66.58953 280.000
66.60948 290.000
66.62942 284.000
66.64937 270.000
66.66932 255.000
66.68927 284.000
66.70921 285.000
66.72916 249.000
66.74911 272.000
66.76905 302.000
66.78900 243.000
66.80895 293.000
66.82889 245.000
66.84884 260.000
66.86879 260.000
66.88874 269.000
66.90868 260.000
66.92863 286.000
66.94858 250.000
66.96852 267.000
66.98847 273.000
67.00842 277.000
67.02836 290.000
67.04831 267.000
67.06826 242.000
67.08820 262.000
67.10815 282.000
67.12810 261.000
67.14805 266.000
67.16799 277.000
67.18794 274.000
67.20789 270.000
67.22783 248.000
67.24778 269.000
67.26773 301.000
67.28767 251.000
67.30762 298.000
67.32757 269.000
67.34752 268.000
67.36746 273.000
67.38741 272.000
67.40736 256.000
67.42730 283.000
67.44725 281.000
67.46720 258.000
67.48714 258.000
67.50709 271.000
67.52704 302.000
67.54698 282.000
67.56693 273.000
67.58688 283.000
67.60683 264.000
67.62677 272.000
67.64672 246.000
67.66667 272.000
67.68661 244.000
67.70656 259.000
67.72651 245.000
67.74645 270.000
67.76640 272.000
67.78635 260.000
67.80630 272.000
67.82624 264.000
67.84619 256.000
67.86614 261.000
67.88608 275.000
67.90603 268.000
67.92598 279.000
67.94592 250.000
67.96587 273.000
67.98582 255.000
68.00576 255.000
68.02571 264.000
68.04566 258.000
68.06561 251.000
68.08555 272.000
68.10550 243.000
68.12545 270.000
68.14539 244.000
68.16534 245.000
68.18529 297.000
68.20523 259.000
68.22518 240.000
68.24513 249.000
68.26508 245.000
68.28502 252.000
68.30497 270.000
68.32492 281.000
68.34486 278.000
68.36481 262.000
68.38476 259.000
68.40470 274.000
68.42465 269.000
68.44460 246.000
68.46455 270.000
68.48449 247.000
68.50444 278.000
68.52439 289.000
68.54433 257.000
68.56428 254.000
68.58423 248.000
68.60417 259.000
68.62412 299.000
68.64407 250.000
68.66401 261.000
68.68396 263.000
68.70391 259.000
68.72386 255.000
68.74380 282.000
68.76375 256.000
68.78370 267.000
68.80364 236.000
68.82359 272.000
68.84354 269.000
68.86348 273.000
68.88343 256.000
68.90338 288.000
68.92333 274.000
68.94327 290.000
68.96322 278.000
68.98317 285.000
69.00311 255.000
69.02306 261.000
69.04301 246.000
69.06295 271.000
69.08290 227.000
69.10285 283.000
69.12279 312.000
69.14274 253.000
69.16269 281.000
69.18264 260.000
69.20258 266.000
69.22253 262.000
69.24248 274.000
69.26242 255.000
69.28237 259.000
69.30232 287.000
69.32226 281.000
69.34221 266.000
69.36216 248.000
69.38211 280.000
69.40205 263.000
69.42200 272.000
69.44195 287.000
69.46189 261.000
69.48184 258.000
69.50179 273.000
69.52173 250.000
69.54168 293.000
69.56163 281.000
69.58157 265.000
69.60152 284.000
69.62147 272.000
69.64142 281.000
69.66136 270.000
69.68131 242.000
69.70126 268.000
69.72120 262.000
69.74115 265.000
69.76110 307.000
69.78104 265.000
69.80099 285.000
69.82094 267.000
69.84089 304.000
69.86083 244.000
69.88078 253.000
69.90073 266.000
69.92067 255.000
69.94062 295.000
69.96057 283.000
69.98051 256.000
70.00046 269.000
70.02041 277.000
70.04035 289.000
70.06030 272.000
70.08025 292.000
70.10020 267.000
70.12014 285.000
70.14009 290.000
70.16004 263.000
70.17998 248.000
70.19993 257.000
70.21988 292.000
70.23982 255.000
70.25977 244.000
70.27972 291.000
70.29967 279.000
70.31961 247.000
70.33956 267.000
70.35951 276.000
70.37945 274.000
70.39940 248.000
70.41935 267.000
70.43929 282.000
70.45924 290.000
70.47919 242.000
70.49914 264.000
70.51908 244.000
70.53903 267.000
70.55898 252.000
70.57892 280.000
70.59887 276.000
70.61882 283.000
70.63876 283.000
70.65871 269.000
70.67866 295.000
70.69860 267.000
70.71855 259.000
70.73850 295.000
70.75845 249.000
70.77839 256.000
70.79834 255.000
70.81829 271.000
70.83823 250.000
70.85818 271.000
70.87813 295.000
70.89807 252.000
70.91802 251.000
70.93797 268.000
70.95792 258.000
70.97786 253.000
70.99781 279.000
71.01776 285.000
71.03770 262.000
71.05765 260.000
71.07760 246.000
71.09754 265.000
71.11749 259.000
71.13744 276.000
71.15738 244.000
71.17733 282.000
71.19728 273.000
71.21723 261.000
71.23717 299.000
71.25712 264.000
71.27707 295.000
71.29701 275.000
71.31696 271.000
71.33691 263.000
71.35685 278.000
71.37680 275.000
71.39675 267.000
71.41670 279.000
71.43664 241.000
71.45659 255.000
71.47654 284.000
71.49648 268.000
71.51643 244.000
71.53638 261.000
71.55632 271.000
71.57627 260.000
71.59622 262.000
71.61616 255.000
71.63611 267.000
71.65606 245.000
71.67601 261.000
71.69595 265.000
71.71590 252.000
71.73585 263.000
71.75579 265.000
71.77574 270.000
71.79569 279.000
71.81563 257.000
71.83558 256.000
71.85553 262.000
71.87548 285.000
71.89542 277.000
71.91537 275.000
71.93532 279.000
71.95526 264.000
71.97521 280.000
71.99516 293.000
72.01510 289.000
72.03505 298.000
72.05500 246.000
72.07495 259.000
72.09489 251.000
72.11484 249.000
72.13479 271.000
72.15473 269.000
72.17468 261.000
72.19463 242.000
72.21457 222.000
72.23452 238.000
72.25447 270.000
72.27441 267.000
72.29436 267.000
72.31431 270.000
72.33426 285.000
72.35420 253.000
72.37415 259.000
72.39410 276.000
72.41404 283.000
72.43399 268.000
72.45394 269.000
72.47388 247.000
72.49383 277.000
72.51378 237.000
72.53373 265.000
72.55367 277.000
72.57362 298.000
72.59357 258.000
72.61351 258.000
72.63346 251.000
72.65341 272.000
72.67335 289.000
72.69330 244.000
72.71325 278.000
72.73319 286.000
72.75314 254.000
72.77309 285.000
72.79304 249.000
72.81298 281.000
72.83293 285.000
72.85288 260.000
72.87282 251.000
72.89277 287.000
72.91272 291.000
72.93266 273.000
72.95261 261.000
72.97256 268.000
72.99251 282.000
73.01245 251.000
73.03240 264.000
73.05235 277.000
73.07229 271.000
73.09224 253.000
73.11219 246.000
73.13213 256.000
73.15208 290.000
73.17203 294.000
73.19197 270.000
73.21192 263.000
73.23187 271.000
73.25182 281.000
73.27176 271.000
73.29171 272.000
73.31166 261.000
73.33160 283.000
73.35155 270.000
73.37150 282.000
73.39144 271.000
73.41139 264.000
73.43134 255.000
73.45129 241.000
73.47123 273.000
73.49118 283.000
73.51113 257.000
73.53107 279.000
73.55102 275.000
73.57097 272.000
73.59091 266.000
73.61086 262.000
73.63081 268.000
73.65076 290.000
73.67070 299.000
73.69065 291.000
73.71060 259.000
73.73054 296.000
73.75049 295.000
73.77044 271.000
73.79038 282.000
73.81033 294.000
73.83028 248.000
73.85022 255.000
73.87017 274.000
73.89012 281.000
73.91007 277.000
73.93001 294.000
73.94996 252.000
73.96991 287.000
73.98985 301.000
74.00980 278.000
74.02975 315.000
74.04969 310.000
74.06964 300.000
74.08959 269.000
74.10954 274.000
74.12948 286.000
74.14943 265.000
74.16938 293.000
74.18932 301.000
74.20927 260.000
74.22922 283.000
74.24916 258.000
74.26911 287.000
74.28906 291.000
74.30900 297.000
74.32895 316.000
74.34890 260.000
74.36885 276.000
74.38879 288.000
74.40874 274.000
74.42869 326.000
74.44863 310.000
74.46858 304.000
74.48853 296.000
74.50847 312.000
74.52842 370.000
74.54837 336.000
74.56832 354.000
74.58826 346.000
74.60821 370.000
74.62816 368.000
74.64810 436.000
74.66805 413.000
74.68800 405.000
74.70794 476.000
74.72789 513.000
74.74784 536.000
74.76778 548.000
74.78773 567.000
74.80768 643.000
74.82763 682.000
74.84757 706.000
74.86752 710.000
74.88747 845.000
74.90741 965.000
74.92736 979.000
74.94731 1076.000
74.96725 1122.000
74.98720 1182.000
75.00715 1281.000
75.02710 1576.000
75.04704 1537.000
75.06699 1700.000
75.08694 1555.000
75.10688 1449.000
75.12683 1413.000
75.14678 1240.000
75.16672 1150.000
75.18667 1041.000
75.20662 1009.000
75.22657 953.000
75.24651 927.000
75.26646 1030.000
75.28641 931.000
75.30635 976.000
75.32630 840.000
75.34625 758.000
75.36619 670.000
75.38614 614.000
75.40609 555.000
75.42603 455.000
75.44598 461.000
75.46593 383.000
75.48588 371.000
75.50582 382.000
75.52577 388.000
75.54572 363.000
75.56566 329.000
75.58561 296.000
75.60556 320.000
75.62550 309.000
75.64545 327.000
75.66540 283.000
75.68535 274.000
75.70529 300.000
75.72524 288.000
75.74519 272.000
75.76513 272.000
75.78508 274.000
75.80503 285.000
75.82497 276.000
75.84492 286.000
75.86487 285.000
75.88481 284.000
75.90476 300.000
75.92471 283.000
75.94466 288.000
75.96460 286.000
75.98455 310.000
76.00450 271.000
76.02444 266.000
76.04439 279.000
76.06434 269.000
76.08428 296.000
76.10423 271.000
76.12418 277.000
76.14413 317.000
76.16407 275.000
76.18402 262.000
76.20397 290.000
76.22391 258.000
76.24386 270.000
76.26381 282.000
76.28375 279.000
76.30370 280.000
76.32365 263.000
76.34359 242.000
76.36354 254.000
76.38349 261.000
76.40344 233.000
76.42338 269.000
76.44333 272.000
76.46328 255.000
76.48322 286.000
76.50317 231.000
76.52312 270.000
76.54306 259.000
76.56301 251.000
76.58296 284.000
76.60291 276.000
76.62285 258.000
76.64280 288.000
76.66275 262.000
76.68269 259.000
76.70264 279.000
76.72259 268.000
76.74253 286.000
76.76248 303.000
76.78243 260.000
76.80238 264.000
76.82232 235.000
76.84227 299.000
76.86222 267.000
76.88216 261.000
76.90211 243.000
76.92206 278.000
76.94200 267.000
76.96195 249.000
76.98190 278.000
77.00184 279.000
77.02179 266.000
77.04174 257.000
77.06169 265.000
77.08163 258.000
77.10158 257.000
77.12153 264.000
77.14147 257.000
77.16142 271.000
77.18137 285.000
77.20131 278.000
77.22126 265.000
77.24121 271.000
77.26116 254.000
77.28110 252.000
77.30105 268.000
77.32100 270.000
77.34094 269.000
77.36089 287.000
77.38084 278.000
77.40078 246.000
77.42073 233.000
77.44068 268.000
77.46062 274.000
77.48057 267.000
77.50052 280.000
77.52047 257.000
77.54041 272.000
77.56036 248.000
77.58031 261.000
77.60025 274.000
77.62020 270.000
77.64015 262.000
77.66009 254.000
77.68004 265.000
77.69999 253.000
77.71994 272.000
77.73988 247.000
77.75983 249.000
77.77978 261.000
77.79972 249.000
77.81967 282.000
77.83962 280.000
77.85956 262.000
77.87951 256.000
77.89946 269.000
77.91940 253.000
77.93935 288.000
77.95930 288.000
77.97925 258.000
77.99919 258.000
78.01914 256.000
78.03909 288.000
78.05903 267.000
78.07898 277.000
78.09893 259.000
78.11887 260.000
78.13882 274.000
78.15877 290.000
78.17872 274.000
78.19866 279.000
78.21861 299.000
78.23856 269.000
78.25850 256.000
78.27845 283.000
78.29840 263.000
78.31834 256.000
78.33829 289.000
78.35824 271.000
78.37819 310.000
78.39813 267.000
78.41808 281.000
78.43803 251.000
78.45797 305.000
78.47792 260.000
78.49787 275.000
78.51781 289.000
78.53776 329.000
78.55771 347.000
78.57765 296.000
78.59760 300.000
78.61755 351.000
78.63750 370.000
78.65744 399.000
78.67739 365.000
78.69734 409.000
78.71728 426.000
78.73723 460.000
78.75718 472.000
78.77712 535.000
78.79707 543.000
78.81702 535.000
78.83697 604.000
78.85691 588.000
78.87686 657.000
78.89681 671.000
78.91675 784.000
78.93670 831.000
78.95665 868.000
78.97659 1000.000
78.99654 1020.000
79.01649 1137.000
79.03643 1211.000
79.05638 1227.000
79.07633 1190.000
79.09628 1144.000
79.11622 1028.000
79.13617 940.000
79.15612 906.000
79.17606 901.000
79.19601 912.000
79.21596 838.000
79.23590 900.000
79.25585 851.000
79.27580 820.000
79.29575 755.000
79.31569 701.000
79.33564 690.000
79.35559 624.000
79.37553 560.000
79.39548 518.000
79.41543 510.000
79.43537 471.000
79.45532 462.000
79.47527 360.000
79.49521 385.000
79.51516 376.000
79.53511 388.000
79.55506 340.000
79.57500 309.000
79.59495 300.000
79.61490 306.000
79.63484 296.000
79.65479 286.000
79.67474 288.000
79.69468 279.000
79.71463 264.000
79.73458 289.000
79.75453 253.000
79.77447 270.000
79.79442 257.000
79.81437 284.000
79.83431 255.000
79.85426 268.000
79.87421 290.000
79.89415 270.000
79.91410 248.000
79.93405 248.000
79.95399 275.000
79.97394 284.000
79.99389 271.000
80.01384 268.000
80.03378 251.000
80.05373 275.000
80.07368 253.000
80.09362 296.000
80.11357 289.000
80.13352 255.000
80.15346 291.000
80.17341 248.000
80.19336 274.000
80.21331 285.000
80.23325 253.000
80.25320 270.000
80.27315 252.000
80.29309 249.000
80.31304 261.000
80.33299 261.000
80.35293 264.000
80.37288 239.000
80.39283 234.000
80.41278 242.000
80.43272 278.000
80.45267 250.000
80.47262 259.000
80.49256 256.000
80.51251 258.000
80.53246 248.000
80.55240 266.000
80.57235 264.000
80.59230 277.000
80.61224 243.000
80.63219 263.000
80.65214 246.000
80.67209 248.000
80.69203 262.000
80.71198 269.000
80.73193 273.000
80.75187 263.000
80.77182 249.000
80.79177 268.000
80.81171 268.000
80.83166 253.000
80.85161 243.000
80.87156 258.000
80.89150 287.000
80.91145 280.000
80.93140 256.000
80.95134 244.000
80.97129 271.000
80.99124 278.000
81.01118 283.000
81.03113 266.000
81.05108 255.000
81.07102 271.000
81.09097 256.000
81.11092 242.000
81.13087 246.000
81.15081 261.000
81.17076 263.000
81.19071 280.000
81.21065 238.000
81.23060 300.000
81.25055 280.000
81.27049 244.000
81.29044 242.000
81.31039 226.000
81.33034 263.000
81.35028 244.000
81.37023 241.000
81.39018 258.000
81.41012 251.000
81.43007 242.000
81.45002 241.000
81.46996 232.000
81.48991 243.000
81.50986 278.000
81.52980 259.000
81.54975 265.000
81.56970 264.000
81.58965 230.000
81.60959 250.000
81.62954 230.000
81.64949 245.000
81.66943 253.000
81.68938 231.000
81.70933 261.000
81.72927 246.000
81.74922 269.000
81.76917 240.000
81.78912 246.000
81.80906 284.000
81.82901 232.000
81.84896 253.000
81.86890 255.000
81.88885 253.000
81.90880 221.000
81.92874 270.000
81.94869 258.000
81.96864 264.000
81.98859 249.000
82.00853 275.000
82.02848 253.000
82.04843 257.000
82.06837 262.000
82.08832 221.000
82.10827 259.000
82.12821 259.000
82.14816 248.000
82.16811 257.000
82.18805 227.000
82.20800 274.000
82.22795 268.000
82.24790 231.000
82.26784 254.000
82.28779 252.000
82.30774 256.000
82.32768 249.000
82.34763 235.000
82.36758 270.000
82.38752 245.000
82.40747 268.000
82.42742 273.000
82.44737 212.000
82.46731 222.000
82.48726 249.000
82.50721 254.000
82.52715 268.000
82.54710 269.000
82.56705 271.000
82.58699 286.000
82.60694 259.000
82.62689 233.000
82.64683 270.000
82.66678 255.000
82.68673 252.000
82.70668 262.000
82.72662 256.000
82.74657 256.000
82.76652 268.000
82.78646 250.000
82.80641 245.000
82.82636 263.000
82.84630 235.000
82.86625 259.000
82.88620 253.000
82.90615 256.000
82.92609 258.000
82.94604 212.000
82.96599 258.000
82.98593 243.000
83.00588 228.000
83.02583 279.000
83.04577 264.000
83.06572 256.000
83.08567 255.000
83.10561 263.000
83.12556 251.000
83.14551 243.000
83.16546 231.000
83.18540 237.000
83.20535 260.000
83.22530 262.000
83.24524 255.000
83.26519 259.000
83.28514 237.000
83.30508 244.000
83.32503 254.000
83.34498 195.000
83.36493 242.000
83.38487 255.000
83.40482 208.000
83.42477 268.000
83.44471 251.000
83.46466 263.000
83.48461 256.000
83.50455 245.000
83.52450 272.000
83.54445 230.000
83.56440 214.000
83.58434 266.000
83.60429 270.000
83.62424 226.000
83.64418 255.000
83.66413 236.000
83.68408 241.000
83.70402 264.000
83.72397 236.000
83.74392 243.000
83.76386 265.000
83.78381 275.000
83.80376 276.000
83.82371 251.000
83.84365 270.000
83.86360 228.000
83.88355 237.000
83.90349 247.000
83.92344 245.000
83.94339 257.000
83.96333 277.000
83.98328 239.000
84.00323 246.000
84.02318 232.000
84.04312 284.000
84.06307 275.000
84.08302 259.000
84.10296 252.000
84.12291 248.000
84.14286 268.000
84.16280 263.000
84.18275 292.000
84.20270 252.000
84.22264 233.000
84.24259 267.000
84.26254 260.000
84.28249 246.000
84.30243 223.000
84.32238 263.000
84.34233 278.000
84.36227 266.000
84.38222 240.000
84.40217 270.000
84.42211 240.000
84.44206 246.000
84.46201 256.000
84.48196 255.000
84.50190 251.000
84.52185 252.000
84.54180 225.000
84.56174 252.000
84.58169 279.000
84.60164 257.000
84.62158 235.000
84.64153 261.000
84.66148 263.000
84.68142 250.000
84.70137 285.000
84.72132 244.000
84.74127 246.000
84.76121 276.000
84.78116 255.000
84.80111 261.000
84.82105 216.000
84.84100 237.000
84.86095 240.000
84.88089 259.000
84.90084 281.000
84.92079 260.000
84.94074 285.000
84.96068 262.000
84.98063 244.000
85.00058 245.000
85.02052 271.000
85.04047 263.000
85.06042 272.000
85.08036 290.000
85.10031 245.000
85.12026 228.000
85.14021 255.000
85.16015 254.000
85.18010 266.000
85.20005 238.000
85.21999 263.000
85.23994 272.000
85.25989 243.000
85.27983 262.000
85.29978 255.000
85.31973 235.000
85.33967 247.000
85.35962 237.000
85.37957 266.000
85.39952 257.000
85.41946 225.000
85.43941 275.000
85.45936 253.000
85.47930 235.000
85.49925 230.000
85.51920 250.000
85.53914 275.000
85.55909 233.000
85.57904 258.000
85.59899 260.000
85.61893 266.000
85.63888 258.000
85.65883 242.000
85.67877 238.000
85.69872 266.000
85.71867 234.000
85.73861 235.000
85.75856 218.000
85.77851 257.000
85.79845 269.000
85.81840 267.000
85.83835 249.000
85.85830 250.000
85.87824 269.000
85.89819 282.000
85.91814 284.000
85.93808 244.000
85.95803 229.000
85.97798 229.000
85.99792 260.000
86.01787 255.000
86.03782 262.000
86.05777 252.000
86.07771 280.000
86.09766 217.000
86.11761 275.000
86.13755 285.000
86.15750 251.000
86.17745 256.000
86.19739 261.000
86.21734 238.000
86.23729 267.000
86.25723 238.000
86.27718 249.000
86.29713 227.000
86.31708 258.000
86.33702 233.000
86.35697 258.000
86.37692 256.000
86.39686 268.000
86.41681 273.000
86.43676 248.000
86.45670 243.000
86.47665 250.000
86.49660 247.000
86.51655 270.000
86.53649 218.000
86.55644 218.000
86.57639 245.000
86.59633 268.000
86.61628 228.000
86.63623 243.000
86.65617 246.000
86.67612 257.000
86.69607 244.000
86.71602 276.000
86.73596 240.000
86.75591 259.000
86.77586 263.000
86.79580 253.000
86.81575 273.000
86.83570 233.000
86.85564 259.000
86.87559 243.000
86.89554 249.000
86.91548 253.000
86.93543 241.000
86.95538 295.000
86.97533 244.000
86.99527 235.000
87.01522 288.000
87.03517 243.000
87.05511 257.000
87.07506 260.000
87.09501 241.000
87.11495 218.000
87.13490 249.000
87.15485 256.000
87.17480 253.000
87.19474 234.000
87.21469 231.000
87.23464 249.000
87.25458 247.000
87.27453 254.000
87.29448 252.000
87.31442 252.000
87.33437 262.000
87.35432 248.000
87.37426 288.000
87.39421 257.000
87.41416 254.000
87.43411 222.000
87.45405 252.000
87.47400 270.000
87.49395 268.000
87.51389 254.000
87.53384 245.000
87.55379 258.000
87.57373 275.000
87.59368 264.000
87.61363 237.000
87.63358 248.000
87.65352 238.000
87.67347 256.000
87.69342 251.000
87.71336 242.000
87.73331 274.000
87.75326 218.000
87.77320 242.000
87.79315 246.000
87.81310 251.000
87.83304 279.000
87.85299 247.000
87.87294 220.000
87.89289 257.000
87.91283 269.000
87.93278 265.000
87.95273 240.000
87.97267 232.000
87.99262 254.000
88.01257 270.000
88.03251 223.000
88.05246 244.000
88.07241 232.000
88.09236 238.000
88.11230 254.000
88.13225 242.000
88.15220 242.000
88.17214 250.000
88.19209 246.000
88.21204 241.000
88.23198 262.000
88.25193 260.000
88.27188 239.000
88.29183 231.000
88.31177 267.000
88.33172 218.000
88.35167 267.000
88.37161 280.000
88.39156 254.000
88.41151 255.000
88.43145 258.000
88.45140 243.000
88.47135 265.000
88.49129 262.000
88.51124 244.000
88.53119 255.000
88.55114 240.000
88.57108 250.000
88.59103 207.000
88.61098 248.000
88.63092 234.000
88.65087 211.000
88.67082 239.000
88.69076 264.000
88.71071 231.000
88.73066 257.000
88.75061 272.000
88.77055 253.000
88.79050 270.000
88.81045 239.000
88.83039 237.000
88.85034 257.000
88.87029 236.000
88.89023 255.000
88.91018 257.000
88.93013 224.000
88.95007 251.000
88.97002 258.000
88.98997 233.000
89.00992 230.000
89.02986 259.000
89.04981 244.000
89.06976 256.000
89.08970 250.000
89.10965 233.000
89.12960 280.000
89.14954 271.000
89.16949 240.000
89.18944 286.000
89.20939 254.000
89.22933 237.000
89.24928 247.000
89.26923 257.000
89.28917 248.000
89.30912 268.000
89.32907 229.000
89.34901 252.000
89.36896 275.000
89.38891 273.000
89.40885 251.000
89.42880 259.000
89.44875 236.000
89.46870 237.000
89.48864 219.000
89.50859 294.000
89.52854 266.000
89.54848 216.000
89.56843 264.000
89.58838 264.000
89.60832 269.000
89.62827 261.000
89.64822 275.000
89.66817 252.000
89.68811 235.000
89.70806 249.000
89.72801 261.000
89.74795 248.000
89.76790 245.000
89.78785 245.000
89.80779 246.000
89.82774 246.000
89.84769 253.000
89.86764 268.000
89.88758 267.000
89.90753 276.000
89.92748 270.000
89.94742 291.000
89.96737 271.000
89.98732 246.000
90.00726 258.000
