10.00000 40.000
10.01995 54.000
10.03989 59.000
10.05984 64.000
10.07979 61.000
10.09973 78.000
10.11968 53.000
10.13963 58.000
10.15958 79.000
10.17952 83.000
10.19947 72.000
10.21942 73.000
10.23936 57.000
10.25931 59.000
10.27926 60.000
10.29920 61.000
10.31915 69.000
10.33910 65.000
10.35905 67.000
10.37899 68.000
10.39894 71.000
10.41889 71.000
10.43883 66.000
10.45878 72.000
10.47873 67.000
10.49867 75.000
10.51862 62.000
10.53857 65.000
10.55851 69.000
10.57846 75.000
10.59841 59.000
10.61836 64.000
10.63830 57.000
10.65825 74.000
10.67820 63.000
10.69814 52.000
10.71809 72.000
10.73804 77.000
10.75798 66.000
10.77793 62.000
10.79788 64.000
10.81783 73.000
10.83777 76.000
10.85772 73.000
10.87767 64.000
10.89761 67.000
10.91756 80.000
10.93751 61.000
10.95745 66.000
10.97740 65.000
10.99735 61.000
11.01730 59.000
11.03724 71.000
11.05719 67.000
11.07714 73.000
11.09708 75.000
11.11703 75.000
11.13698 55.000
11.15692 67.000
11.17687 77.000
11.19682 65.000
11.21676 56.000
11.23671 69.000
11.25666 75.000
11.27661 67.000
11.29655 72.000
11.31650 54.000
11.33645 53.000
11.35639 77.000
11.37634 62.000
11.39629 55.000
11.41623 58.000
11.43618 65.000
11.45613 72.000
11.47608 64.000
11.49602 61.000
11.51597 69.000
11.53592 66.000
11.55586 56.000
11.57581 68.000
11.59576 59.000
11.61570 44.000
11.63565 85.000
11.65560 56.000
11.67554 60.000
11.69549 56.000
11.71544 74.000
11.73539 64.000
11.75533 77.000
11.77528 53.000
11.79523 61.000
11.81517 67.000
11.83512 57.000
11.85507 68.000
11.87501 66.000
11.89496 70.000
11.91491 83.000
11.93486 88.000
11.95480 71.000
11.97475 73.000
11.99470 61.000
12.01464 52.000
12.03459 68.000
12.05454 57.000
12.07448 75.000
12.09443 58.000
12.11438 82.000
12.13432 49.000
12.15427 44.000
12.17422 72.000
12.19417 80.000
12.21411 51.000
12.23406 60.000
12.25401 65.000
12.27395 66.000
12.29390 69.000
12.31385 58.000
12.33379 75.000
12.35374 65.000
12.37369 62.000
12.39364 69.000
12.41358 64.000
12.43353 72.000
12.45348 65.000
12.47342 56.000
12.49337 63.000
12.51332 62.000
12.53326 61.000
12.55321 57.000
12.57316 59.000
12.59311 71.000
12.61305 58.000
12.63300 70.000
12.65295 62.000
12.67289 71.000
12.69284 84.000
12.71279 58.000
12.73273 71.000
12.75268 56.000
12.77263 76.000
12.79257 63.000
12.81252 61.000
12.83247 54.000
12.85242 59.000
12.87236 73.000
12.89231 61.000
12.91226 67.000
12.93220 64.000
12.95215 64.000
12.97210 66.000
12.99204 67.000
13.01199 68.000
13.03194 79.000
13.05189 63.000
13.07183 61.000
13.09178 71.000
13.11173 58.000
13.13167 70.000
13.15162 58.000
13.17157 57.000
13.19151 63.000
13.21146 56.000
13.23141 65.000
13.25135 65.000
13.27130 70.000
13.29125 46.000
13.31120 67.000
13.33114 58.000
13.35109 66.000
13.37104 60.000
13.39098 62.000
13.41093 59.000
13.43088 60.000
13.45082 67.000
13.47077 62.000
13.49072 77.000
13.51067 66.000
13.53061 76.000
13.55056 71.000
13.57051 67.000
13.59045 51.000
13.61040 69.000
13.63035 63.000
13.65029 76.000
13.67024 63.000
13.69019 71.000
13.71013 54.000
13.73008 65.000
13.75003 46.000
13.76998 88.000
13.78992 71.000
13.80987 64.000
13.82982 50.000
13.84976 75.000
13.86971 50.000
13.88966 73.000
13.90960 71.000
13.92955 81.000
13.94950 55.000
13.96945 60.000
13.98939 67.000
14.00934 69.000
14.02929 66.000
14.04923 73.000
14.06918 66.000
14.08913 61.000
14.10907 59.000
14.12902 60.000
14.14897 65.000
14.16892 67.000
14.18886 64.000
14.20881 75.000
14.22876 70.000
14.24870 81.000
14.26865 67.000
14.28860 76.000
14.30854 71.000
14.32849 71.000
14.34844 62.000
14.36838 81.000
14.38833 73.000
14.40828 65.000
14.42823 64.000
14.44817 64.000
14.46812 58.000
14.48807 63.000
14.50801 59.000
14.52796 69.000
14.54791 66.000
14.56785 82.000
14.58780 89.000
14.60775 89.000
14.62770 95.000
14.64764 86.000
14.66759 74.000
14.68754 68.000
14.70748 64.000
14.72743 83.000
14.74738 69.000
14.76732 77.000
14.78727 50.000
14.80722 55.000
14.82716 73.000
14.84711 66.000
14.86706 55.000
14.88701 68.000
14.90695 80.000
14.92690 70.000
14.94685 75.000
14.96679 61.000
14.98674 62.000
15.00669 57.000
15.02663 65.000
15.04658 67.000
15.06653 55.000
15.08648 75.000
15.10642 60.000
15.12637 86.000
15.14632 76.000
15.16626 77.000
15.18621 68.000
15.20616 75.000
15.22610 53.000
15.24605 71.000
15.26600 65.000
15.28594 63.000
15.30589 57.000
15.32584 69.000
15.34579 95.000
15.36573 60.000
15.38568 60.000
15.40563 68.000
15.42557 75.000
15.44552 69.000
15.46547 75.000
15.48541 62.000
15.50536 72.000
15.52531 59.000
15.54526 62.000
15.56520 95.000
15.58515 55.000
15.60510 63.000
15.62504 74.000
15.64499 85.000
15.66494 74.000
15.68488 75.000
15.70483 68.000
15.72478 63.000
15.74472 84.000
15.76467 82.000
15.78462 90.000
15.80457 84.000
15.82451 72.000
15.84446 62.000
15.86441 83.000
15.88435 61.000
15.90430 90.000
15.92425 71.000
15.94419 72.000
15.96414 91.000
15.98409 72.000
16.00404 63.000
16.02398 61.000
16.04393 71.000
16.06388 70.000
16.08382 88.000
16.10377 69.000
16.12372 65.000
16.14366 78.000
16.16361 79.000
16.18356 78.000
16.20351 79.000
16.22345 72.000
16.24340 68.000
16.26335 80.000
16.28329 66.000
16.30324 80.000
16.32319 73.000
16.34313 67.000
16.36308 66.000
16.38303 88.000
16.40297 70.000
16.42292 92.000
16.44287 93.000
16.46282 69.000
16.48276 71.000
16.50271 76.000
16.52266 81.000
16.54260 68.000
16.56255 82.000
16.58250 89.000
16.60244 90.000
16.62239 80.000
16.64234 70.000
16.66229 78.000
16.68223 69.000
16.70218 102.000
16.72213 60.000
16.74207 82.000
16.76202 73.000
16.78197 83.000
16.80191 100.000
16.82186 85.000
16.84181 75.000
16.86175 80.000
16.88170 74.000
16.90165 81.000
16.92160 105.000
16.94154 90.000
16.96149 80.000
16.98144 77.000
17.00138 81.000
17.02133 75.000
17.04128 86.000
17.06122 79.000
17.08117 78.000
17.10112 73.000
17.12107 90.000
17.14101 78.000
17.16096 85.000
17.18091 88.000
17.20085 96.000
17.22080 86.000
17.24075 90.000
17.26069 88.000
17.28064 85.000
17.30059 89.000
17.32053 72.000
17.34048 73.000
17.36043 98.000
17.38038 77.000
17.40032 90.000
17.42027 96.000
17.44022 88.000
17.46016 78.000
17.48011 79.000
17.50006 82.000
17.52000 116.000
17.53995 80.000
17.55990 87.000
17.57985 88.000
17.59979 85.000
17.61974 85.000
17.63969 91.000
17.65963 106.000
17.67958 94.000
17.69953 74.000
17.71947 99.000
17.73942 100.000
17.75937 83.000
17.77932 84.000
17.79926 71.000
17.81921 96.000
17.83916 97.000
17.85910 93.000
17.87905 90.000
17.89900 103.000
17.91894 92.000
17.93889 93.000
17.95884 82.000
17.97878 103.000
17.99873 97.000
18.01868 94.000
18.03863 90.000
18.05857 86.000
18.07852 91.000
18.09847 103.000
18.11841 79.000
18.13836 86.000
18.15831 103.000
18.17825 86.000
18.19820 97.000
18.21815 101.000
18.23810 104.000
18.25804 102.000
18.27799 103.000
18.29794 94.000
18.31788 99.000
18.33783 96.000
18.35778 99.000
18.37772 106.000
18.39767 99.000
18.41762 97.000
18.43756 100.000
18.45751 106.000
18.47746 115.000
18.49741 105.000
18.51735 86.000
18.53730 83.000
18.55725 107.000
18.57719 105.000
18.59714 93.000
18.61709 109.000
18.63703 85.000
18.65698 102.000
18.67693 105.000
18.69688 109.000
18.71682 116.000
18.73677 97.000
18.75672 94.000
18.77666 96.000
18.79661 78.000
18.81656 90.000
18.83650 108.000
18.85645 92.000
18.87640 105.000
18.89634 99.000
18.91629 98.000
18.93624 114.000
18.95619 108.000
18.97613 94.000
18.99608 102.000
19.01603 101.000
19.03597 97.000
19.05592 95.000
19.07587 116.000
19.09581 103.000
19.11576 105.000
19.13571 119.000
19.15566 104.000
19.17560 137.000
19.19555 109.000
19.21550 95.000
19.23544 93.000
19.25539 131.000
19.27534 129.000
19.29528 112.000
19.31523 115.000
19.33518 127.000
19.35513 112.000
19.37507 119.000
19.39502 118.000
19.41497 120.000
19.43491 121.000
19.45486 130.000
19.47481 117.000
19.49475 100.000
19.51470 115.000
19.53465 131.000
19.55459 121.000
19.57454 108.000
19.59449 142.000
19.61444 148.000
19.63438 129.000
19.65433 122.000
19.67428 109.000
19.69422 126.000
19.71417 134.000
19.73412 123.000
19.75406 118.000
19.77401 106.000
19.79396 125.000
19.81391 126.000
19.83385 127.000
19.85380 112.000
19.87375 119.000
19.89369 123.000
19.91364 141.000
19.93359 144.000
19.95353 132.000
19.97348 142.000
19.99343 126.000
20.01337 145.000
20.03332 125.000
20.05327 133.000
20.07322 126.000
20.09316 135.000
20.11311 146.000
20.13306 130.000
20.15300 131.000
20.17295 144.000
20.19290 142.000
20.21284 127.000
20.23279 125.000
20.25274 165.000
20.27269 141.000
20.29263 158.000
20.31258 141.000
20.33253 153.000
20.35247 145.000
20.37242 131.000
20.39237 144.000
20.41231 141.000
20.43226 145.000
20.45221 145.000
20.47215 154.000
20.49210 185.000
20.51205 185.000
20.53200 183.000
20.55194 214.000
20.57189 176.000
20.59184 211.000
20.61178 202.000
20.63173 220.000
20.65168 223.000
20.67162 203.000
20.69157 203.000
20.71152 206.000
20.73147 222.000
20.75141 217.000
20.77136 195.000
20.79131 198.000
20.81125 185.000
20.83120 218.000
20.85115 188.000
20.87109 193.000
20.89104 195.000
20.91099 219.000
20.93094 254.000
20.95088 234.000
20.97083 194.000
20.99078 190.000
21.01072 197.000
21.03067 177.000
21.05062 178.000
21.07056 172.000
21.09051 175.000
21.11046 149.000
21.13040 138.000
21.15035 139.000
21.17030 135.000
21.19025 138.000
21.21019 154.000
21.23014 151.000
21.25009 164.000
21.27003 142.000
21.28998 144.000
21.30993 143.000
21.32987 134.000
21.34982 132.000
21.36977 142.000
21.38972 145.000
21.40966 132.000
21.42961 169.000
21.44956 145.000
21.46950 126.000
21.48945 160.000
21.50940 168.000
21.52934 139.000
21.54929 172.000
21.56924 153.000
21.58918 155.000
21.60913 150.000
21.62908 157.000
21.64903 155.000
21.66897 155.000
21.68892 152.000
21.70887 139.000
21.72881 136.000
21.74876 159.000
21.76871 151.000
21.78865 155.000
21.80860 161.000
21.82855 151.000
21.84850 151.000
21.86844 155.000
21.88839 156.000
21.90834 161.000
21.92828 157.000
21.94823 159.000
21.96818 145.000
21.98812 174.000
22.00807 182.000
22.02802 166.000
22.04796 163.000
22.06791 170.000
22.08786 163.000
22.10781 175.000
22.12775 174.000
22.14770 164.000
22.16765 188.000
22.18759 173.000
22.20754 171.000
22.22749 196.000
22.24743 178.000
22.26738 226.000
22.28733 201.000
22.30728 162.000
22.32722 171.000
22.34717 205.000
22.36712 166.000
22.38706 177.000
22.40701 160.000
22.42696 173.000
22.44690 158.000
22.46685 185.000
22.48680 169.000
22.50675 172.000
22.52669 164.000
22.54664 154.000
22.56659 179.000
22.58653 178.000
22.60648 161.000
22.62643 193.000
22.64637 152.000
22.66632 164.000
22.68627 166.000
22.70621 174.000
22.72616 182.000
22.74611 200.000
22.76606 161.000
22.78600 164.000
22.80595 196.000
22.82590 191.000
22.84584 179.000
22.86579 169.000
22.88574 167.000
22.90568 201.000
22.92563 180.000
22.94558 163.000
22.96553 178.000
22.98547 193.000
23.00542 186.000
23.02537 221.000
23.04531 175.000
23.06526 191.000
23.08521 178.000
23.10515 173.000
23.12510 198.000
23.14505 192.000
23.16499 147.000
23.18494 191.000
23.20489 152.000
23.22484 186.000
23.24478 157.000
23.26473 175.000
23.28468 160.000
23.30462 196.000
23.32457 197.000
23.34452 153.000
23.36446 174.000
23.38441 211.000
23.40436 174.000
23.42431 215.000
23.44425 205.000
23.46420 159.000
23.48415 217.000
23.50409 215.000
23.52404 200.000
23.54399 199.000
23.56393 195.000
23.58388 218.000
23.60383 192.000
23.62377 188.000
23.64372 198.000
23.66367 212.000
23.68362 209.000
23.70356 203.000
23.72351 200.000
23.74346 186.000
23.76340 196.000
23.78335 211.000
23.80330 181.000
23.82324 207.000
23.84319 217.000
23.86314 239.000
23.88309 232.000
23.90303 204.000
23.92298 190.000
23.94293 208.000
23.96287 216.000
23.98282 227.000
24.00277 247.000
24.02271 262.000
24.04266 284.000
24.06261 323.000
24.08256 393.000
24.10250 515.000
24.12245 582.000
24.14240 489.000
24.16234 427.000
24.18229 376.000
24.20224 327.000
24.22218 259.000
24.24213 223.000
24.26208 226.000
24.28202 202.000
24.30197 223.000
24.32192 199.000
24.34187 206.000
24.36181 219.000
24.38176 218.000
24.40171 218.000
24.42165 199.000
24.44160 224.000
24.46155 232.000
24.48149 204.000
24.50144 196.000
24.52139 209.000
24.54134 246.000
24.56128 236.000
24.58123 228.000
24.60118 192.000
24.62112 203.000
24.64107 228.000
24.66102 232.000
24.68096 223.000
24.70091 226.000
24.72086 233.000
24.74080 222.000
24.76075 258.000
24.78070 233.000
24.80065 210.000
24.82059 228.000
24.84054 214.000
24.86049 223.000
24.88043 238.000
24.90038 230.000
24.92033 232.000
24.94027 265.000
24.96022 232.000
24.98017 240.000
25.00012 242.000
25.02006 230.000
25.04001 244.000
25.05996 205.000
25.07990 245.000
25.09985 236.000
25.11980 243.000
25.13974 262.000
25.15969 262.000
25.17964 267.000
25.19958 241.000
25.21953 252.000
25.23948 262.000
25.25943 245.000
25.27937 228.000
25.29932 224.000
25.31927 228.000
25.33921 248.000
25.35916 225.000
25.37911 253.000
25.39905 234.000
25.41900 236.000
25.43895 243.000
25.45890 245.000
25.47884 276.000
25.49879 262.000
25.51874 245.000
25.53868 275.000
25.55863 264.000
25.57858 250.000
25.59852 258.000
25.61847 252.000
25.63842 267.000
25.65837 284.000
25.67831 239.000
25.69826 272.000
25.71821 304.000
25.73815 257.000
25.75810 241.000
25.77805 269.000
25.79799 271.000
25.81794 262.000
25.83789 259.000
25.85783 266.000
25.87778 284.000
25.89773 254.000
25.91768 277.000
25.93762 300.000
25.95757 271.000
25.97752 308.000
25.99746 283.000
26.01741 289.000
26.03736 278.000
26.05730 266.000
26.07725 290.000
26.09720 299.000
26.11715 296.000
26.13709 312.000
26.15704 285.000
26.17699 289.000
26.19693 282.000
26.21688 303.000
26.23683 280.000
26.25677 304.000
26.27672 320.000
26.29667 294.000
26.31661 296.000
26.33656 289.000
26.35651 295.000
26.37646 320.000
26.39640 289.000
26.41635 277.000
26.43630 326.000
26.45624 317.000
26.47619 338.000
26.49614 317.000
26.51608 323.000
26.53603 291.000
26.55598 302.000
26.57593 307.000
26.59587 305.000
26.61582 298.000
26.63577 295.000
26.65571 318.000
26.67566 341.000
26.69561 315.000
26.71555 315.000
26.73550 318.000
26.75545 284.000
26.77539 363.000
26.79534 335.000
26.81529 341.000
26.83524 355.000
26.85518 317.000
26.87513 369.000
26.89508 341.000
26.91502 322.000
26.93497 335.000
26.95492 329.000
26.97486 333.000
26.99481 351.000
27.01476 346.000
27.03471 324.000
27.05465 372.000
27.07460 321.000
27.09455 319.000
27.11449 321.000
27.13444 327.000
27.15439 329.000
27.17433 306.000
27.19428 363.000
27.21423 313.000
27.23417 372.000
27.25412 349.000
27.27407 378.000
27.29402 350.000
27.31396 346.000
27.33391 325.000
27.35386 376.000
27.37380 376.000
27.39375 350.000
27.41370 352.000
27.43364 367.000
27.45359 332.000
27.47354 364.000
27.49349 374.000
27.51343 347.000
27.53338 348.000
27.55333 353.000
27.57327 364.000
27.59322 366.000
27.61317 325.000
27.63311 363.000
27.65306 368.000
27.67301 371.000
27.69296 347.000
27.71290 371.000
27.73285 372.000
27.75280 383.000
27.77274 376.000
27.79269 387.000
27.81264 398.000
27.83258 347.000
27.85253 349.000
27.87248 360.000
27.89242 388.000
27.91237 360.000
27.93232 379.000
27.95227 376.000
27.97221 372.000
27.99216 382.000
28.01211 362.000
28.03205 379.000
28.05200 384.000
28.07195 401.000
28.09189 385.000
28.11184 358.000
28.13179 375.000
28.15174 374.000
28.17168 376.000
28.19163 419.000
28.21158 369.000
28.23152 385.000
28.25147 376.000
28.27142 393.000
28.29136 401.000
28.31131 396.000
28.33126 384.000
28.35120 411.000
28.37115 387.000
28.39110 397.000
28.41105 383.000
28.43099 400.000
28.45094 388.000
28.47089 404.000
28.49083 371.000
28.51078 386.000
28.53073 416.000
28.55067 405.000
28.57062 416.000
28.59057 384.000
28.61052 400.000
28.63046 391.000
28.65041 400.000
28.67036 410.000
28.69030 403.000
28.71025 375.000
28.73020 396.000
28.75014 398.000
28.77009 399.000
28.79004 390.000
28.80998 408.000
28.82993 396.000
28.84988 388.000
28.86983 428.000
28.88977 451.000
28.90972 414.000
28.92967 402.000
28.94961 401.000
28.96956 400.000
28.98951 416.000
29.00945 444.000
29.02940 401.000
29.04935 398.000
29.06930 429.000
29.08924 423.000
29.10919 427.000
29.12914 418.000
29.14908 443.000
29.16903 444.000
29.18898 428.000
29.20892 414.000
29.22887 394.000
29.24882 431.000
29.26877 427.000
29.28871 452.000
29.30866 434.000
29.32861 428.000
29.34855 441.000
29.36850 455.000
29.38845 422.000
29.40839 434.000
29.42834 426.000
29.44829 398.000
29.46823 438.000
29.48818 420.000
29.50813 465.000
29.52808 421.000
29.54802 424.000
29.56797 442.000
29.58792 467.000
29.60786 400.000
29.62781 444.000
29.64776 421.000
29.66770 427.000
29.68765 379.000
29.70760 439.000
29.72755 419.000
29.74749 393.000
29.76744 407.000
29.78739 411.000
29.80733 411.000
29.82728 397.000
29.84723 424.000
29.86717 427.000
29.88712 415.000
29.90707 436.000
29.92701 400.000
29.94696 435.000
29.96691 426.000
29.98686 433.000
30.00680 398.000
30.02675 456.000
30.04670 431.000
30.06664 408.000
30.08659 420.000
30.10654 416.000
30.12648 414.000
30.14643 399.000
30.16638 400.000
30.18633 431.000
30.20627 447.000
30.22622 391.000
30.24617 414.000
30.26611 445.000
30.28606 394.000
30.30601 435.000
30.32595 406.000
30.34590 443.000
30.36585 410.000
30.38579 427.000
30.40574 456.000
30.42569 462.000
30.44564 506.000
30.46558 483.000
30.48553 423.000
30.50548 484.000
30.52542 473.000
30.54537 480.000
30.56532 426.000
30.58526 449.000
30.60521 402.000
30.62516 445.000
30.64511 402.000
30.66505 426.000
30.68500 405.000
30.70495 406.000
30.72489 399.000
30.74484 384.000
30.76479 392.000
30.78473 410.000
30.80468 450.000
30.82463 378.000
30.84458 428.000
30.86452 415.000
30.88447 420.000
30.90442 402.000
30.92436 374.000
30.94431 395.000
30.96426 373.000
30.98420 423.000
31.00415 441.000
31.02410 362.000
31.04404 379.000
31.06399 382.000
31.08394 380.000
31.10389 422.000
31.12383 382.000
31.14378 384.000
31.16373 454.000
31.18367 418.000
31.20362 416.000
31.22357 427.000
31.24351 416.000
31.26346 390.000
31.28341 415.000
31.30336 388.000
31.32330 395.000
31.34325 415.000
31.36320 374.000
31.38314 371.000
31.40309 408.000
31.42304 400.000
31.44298 420.000
31.46293 385.000
31.48288 410.000
31.50282 405.000
31.52277 386.000
31.54272 383.000
31.56267 436.000
31.58261 406.000
31.60256 411.000
31.62251 391.000
31.64245 402.000
31.66240 372.000
31.68235 411.000
31.70229 409.000
31.72224 356.000
31.74219 403.000
31.76214 385.000
31.78208 388.000
31.80203 377.000
31.82198 417.000
31.84192 410.000
31.86187 358.000
31.88182 376.000
31.90176 365.000
31.92171 372.000
31.94166 381.000
31.96160 410.000
31.98155 416.000
32.00150 399.000
32.02145 397.000
32.04139 382.000
32.06134 380.000
32.08129 424.000
32.10123 382.000
32.12118 388.000
32.14113 366.000
32.16107 394.000
32.18102 384.000
32.20097 369.000
32.22092 412.000
32.24086 393.000
32.26081 369.000
32.28076 415.000
32.30070 356.000
32.32065 372.000
32.34060 362.000
32.36054 381.000
32.38049 405.000
32.40044 406.000
32.42039 347.000
32.44033 401.000
32.46028 370.000
32.48023 370.000
32.50017 377.000
32.52012 390.000
32.54007 422.000
32.56001 389.000
32.57996 405.000
32.59991 429.000
32.61985 449.000
32.63980 462.000
32.65975 424.000
32.67970 452.000
32.69964 453.000
32.71959 460.000
32.73954 466.000
32.75948 416.000
32.77943 413.000
32.79938 423.000
32.81932 376.000
32.83927 401.000
32.85922 411.000
32.87917 382.000
32.89911 385.000
32.91906 439.000
32.93901 412.000
32.95895 432.000
32.97890 470.000
32.99885 456.000
33.01879 509.000
33.03874 594.000
33.05869 694.000
33.07863 907.000
33.09858 1202.000
33.11853 1516.000
33.13848 1369.000
33.15842 1083.000
33.17837 966.000
33.19832 999.000
33.21826 903.000
33.23821 730.000
33.25816 500.000
33.27810 451.000
33.29805 420.000
33.31800 364.000
33.33795 396.000
33.35789 416.000
33.37784 333.000
33.39779 355.000
33.41773 372.000
33.43768 325.000
33.45763 352.000
33.47757 359.000
33.49752 377.000
33.51747 410.000
33.53741 380.000
33.55736 359.000
33.57731 347.000
33.59726 340.000
33.61720 400.000
33.63715 364.000
33.65710 344.000
33.67704 357.000
33.69699 376.000
33.71694 382.000
33.73688 396.000
33.75683 398.000
33.77678 399.000
33.79673 424.000
33.81667 395.000
33.83662 408.000
33.85657 405.000
33.87651 412.000
33.89646 392.000
33.91641 412.000
33.93635 389.000
33.95630 406.000
33.97625 393.000
33.99620 401.000
34.01614 426.000
34.03609 366.000
34.05604 386.000
34.07598 451.000
34.09593 412.000
34.11588 466.000
34.13582 477.000
34.15577 471.000
34.17572 467.000
34.19566 466.000
34.21561 462.000
34.23556 442.000
34.25551 439.000
34.27545 415.000
34.29540 409.000
34.31535 376.000
34.33529 450.000
34.35524 414.000
34.37519 403.000
34.39513 437.000
34.41508 341.000
34.43503 327.000
34.45498 349.000
34.47492 340.000
34.49487 305.000
34.51482 314.000
34.53476 323.000
34.55471 342.000
34.57466 367.000
34.59460 335.000
34.61455 320.000
34.63450 342.000
34.65444 337.000
34.67439 348.000
34.69434 375.000
34.71429 366.000
34.73423 370.000
34.75418 375.000
34.77413 353.000
34.79407 367.000
34.81402 372.000
34.83397 355.000
34.85391 323.000
34.87386 343.000
34.89381 350.000
34.91376 332.000
34.93370 311.000
34.95365 312.000
34.97360 325.000
34.99354 282.000
35.01349 349.000
35.03344 330.000
35.05338 345.000
35.07333 373.000
35.09328 406.000
35.11322 363.000
35.13317 367.000
35.15312 390.000
35.17307 369.000
35.19301 382.000
35.21296 351.000
35.23291 334.000
35.25285 336.000
35.27280 329.000
35.29275 315.000
35.31269 354.000
35.33264 343.000
35.35259 357.000
35.37254 343.000
35.39248 359.000
35.41243 319.000
35.43238 390.000
35.45232 381.000
35.47227 371.000
35.49222 406.000
35.51216 486.000
35.53211 522.000
35.55206 680.000
35.57201 835.000
35.59195 1080.000
35.61190 1148.000
35.63185 871.000
35.65179 751.000
35.67174 725.000
35.69169 730.000
35.71163 651.000
35.73158 446.000
35.75153 374.000
35.77147 318.000
35.79142 342.000
35.81137 315.000
35.83132 332.000
35.85126 299.000
35.87121 284.000
35.89116 279.000
35.91110 280.000
35.93105 295.000
35.95100 284.000
35.97094 263.000
35.99089 272.000
36.01084 271.000
36.03079 289.000
36.05073 249.000
36.07068 267.000
36.09063 266.000
36.11057 277.000
36.13052 244.000
36.15047 269.000
36.17041 271.000
36.19036 262.000
36.21031 261.000
36.23025 275.000
36.25020 272.000
36.27015 282.000
36.29010 290.000
36.31004 274.000
36.32999 285.000
36.34994 295.000
36.36988 292.000
36.38983 316.000
36.40978 232.000
36.42972 257.000
36.44967 278.000
36.46962 284.000
36.48957 303.000
36.50951 273.000
36.52946 262.000
36.54941 270.000
36.56935 263.000
36.58930 254.000
36.60925 270.000
36.62919 286.000
36.64914 300.000
36.66909 278.000
36.68903 278.000
36.70898 277.000
36.72893 287.000
36.74888 258.000
36.76882 270.000
36.78877 259.000
36.80872 258.000
36.82866 265.000
36.84861 252.000
36.86856 274.000
36.88850 263.000
36.90845 275.000
36.92840 268.000
36.94835 239.000
36.96829 289.000
36.98824 264.000
37.00819 262.000
37.02813 242.000
37.04808 262.000
37.06803 244.000
37.08797 265.000
37.10792 296.000
37.12787 292.000
37.14781 267.000
37.16776 242.000
37.18771 266.000
37.20766 277.000
37.22760 255.000
37.24755 276.000
37.26750 249.000
37.28744 253.000
37.30739 238.000
37.32734 263.000
37.34728 240.000
37.36723 265.000
37.38718 305.000
37.40713 292.000
37.42707 261.000
37.44702 259.000
37.46697 250.000
37.48691 290.000
37.50686 255.000
37.52681 237.000
37.54675 259.000
37.56670 233.000
37.58665 220.000
37.60660 266.000
37.62654 264.000
37.64649 258.000
37.66644 266.000
37.68638 251.000
37.70633 238.000
37.72628 259.000
37.74622 233.000
37.76617 258.000
37.78612 263.000
37.80606 244.000
37.82601 272.000
37.84596 276.000
37.86591 285.000
37.88585 263.000
37.90580 274.000
37.92575 240.000
37.94569 288.000
37.96564 270.000
37.98559 284.000
38.00553 262.000
38.02548 260.000
38.04543 250.000
38.06538 261.000
38.08532 256.000
38.10527 243.000
38.12522 266.000
38.14516 287.000
38.16511 267.000
38.18506 255.000
38.20500 254.000
38.22495 241.000
38.24490 242.000
38.26484 252.000
38.28479 227.000
38.30474 251.000
38.32469 274.000
38.34463 251.000
38.36458 225.000
38.38453 270.000
38.40447 250.000
38.42442 259.000
38.44437 258.000
38.46431 224.000
38.48426 278.000
38.50421 263.000
38.52416 249.000
38.54410 232.000
38.56405 269.000
38.58400 284.000
38.60394 243.000
38.62389 249.000
38.64384 254.000
38.66378 288.000
38.68373 227.000
38.70368 261.000
38.72362 239.000
38.74357 245.000
38.76352 270.000
38.78347 254.000
38.80341 255.000
38.82336 282.000
38.84331 269.000
38.86325 282.000
38.88320 249.000
38.90315 246.000
38.92309 272.000
38.94304 258.000
38.96299 236.000
38.98294 260.000
39.00288 242.000
39.02283 267.000
39.04278 253.000
39.06272 250.000
39.08267 272.000
39.10262 248.000
39.12256 250.000
39.14251 237.000
39.16246 250.000
39.18241 218.000
39.20235 244.000
39.22230 246.000
39.24225 272.000
39.26219 251.000
39.28214 286.000
39.30209 284.000
39.32203 276.000
39.34198 260.000
39.36193 271.000
39.38187 269.000
39.40182 281.000
39.42177 228.000
39.44172 247.000
39.46166 256.000
39.48161 261.000
39.50156 242.000
39.52150 254.000
39.54145 240.000
39.56140 292.000
39.58134 263.000
39.60129 262.000
39.62124 263.000
39.64119 238.000
39.66113 268.000
39.68108 239.000
39.70103 240.000
39.72097 288.000
39.74092 242.000
39.76087 252.000
39.78081 284.000
39.80076 270.000
39.82071 279.000
39.84065 253.000
39.86060 246.000
39.88055 255.000
39.90050 243.000
39.92044 235.000
39.94039 260.000
39.96034 278.000
39.98028 258.000
40.00023 252.000
40.02018 285.000
40.04012 272.000
40.06007 255.000
40.08002 274.000
40.09997 252.000
40.11991 239.000
40.13986 233.000
40.15981 261.000
40.17975 280.000
40.19970 233.000
40.21965 251.000
40.23959 245.000
40.25954 257.000
40.27949 278.000
40.29943 249.000
40.31938 260.000
40.33933 276.000
40.35928 261.000
40.37922 247.000
40.39917 290.000
40.41912 255.000
40.43906 295.000
40.45901 288.000
40.47896 307.000
40.49890 270.000
40.51885 290.000
40.53880 246.000
40.55875 280.000
40.57869 288.000
40.59864 288.000
40.61859 240.000
40.63853 298.000
40.65848 267.000
40.67843 290.000
40.69837 278.000
40.71832 253.000
40.73827 300.000
40.75822 319.000
40.77816 355.000
40.79811 393.000
40.81806 469.000
40.83800 444.000
40.85795 409.000
40.87790 362.000
40.89784 376.000
40.91779 378.000
40.93774 372.000
40.95768 346.000
40.97763 270.000
40.99758 288.000
41.01753 276.000
41.03747 248.000
41.05742 261.000
41.07737 259.000
41.09731 261.000
41.11726 230.000
41.13721 268.000
41.15715 254.000
41.17710 248.000
41.19705 257.000
41.21700 234.000
41.23694 251.000
41.25689 230.000
41.27684 259.000
41.29678 267.000
41.31673 242.000
41.33668 246.000
41.35662 254.000
41.37657 265.000
41.39652 249.000
41.41646 243.000
41.43641 265.000
41.45636 243.000
41.47631 250.000
41.49625 244.000
41.51620 236.000
41.53615 233.000
41.55609 238.000
41.57604 258.000
41.59599 243.000
41.61593 248.000
41.63588 249.000
41.65583 247.000
41.67578 277.000
41.69572 269.000
41.71567 236.000
41.73562 243.000
41.75556 251.000
41.77551 223.000
41.79546 252.000
41.81540 235.000
41.83535 257.000
41.85530 215.000
41.87524 228.000
41.89519 244.000
41.91514 244.000
41.93509 225.000
41.95503 246.000
41.97498 243.000
41.99493 242.000
42.01487 261.000
42.03482 245.000
42.05477 240.000
42.07471 220.000
42.09466 269.000
42.11461 276.000
42.13456 235.000
42.15450 245.000
42.17445 256.000
42.19440 225.000
42.21434 226.000
42.23429 227.000
42.25424 267.000
42.27418 241.000
42.29413 218.000
42.31408 252.000
42.33403 244.000
42.35397 265.000
42.37392 249.000
42.39387 228.000
42.41381 233.000
42.43376 233.000
42.45371 226.000
42.47365 233.000
42.49360 254.000
42.51355 247.000
42.53349 260.000
42.55344 228.000
42.57339 191.000
42.59334 230.000
42.61328 217.000
42.63323 223.000
42.65318 222.000
42.67312 221.000
42.69307 227.000
42.71302 249.000
42.73296 239.000
42.75291 250.000
42.77286 230.000
42.79281 232.000
42.81275 243.000
42.83270 264.000
42.85265 235.000
42.87259 238.000
42.89254 245.000
42.91249 253.000
42.93243 229.000
42.95238 258.000
42.97233 217.000
42.99227 247.000
43.01222 232.000
43.03217 195.000
43.05212 229.000
43.07206 210.000
43.09201 250.000
43.11196 240.000
43.13190 243.000
43.15185 217.000
43.17180 244.000
43.19174 247.000
43.21169 240.000
43.23164 222.000
43.25159 221.000
43.27153 229.000
43.29148 244.000
43.31143 243.000
43.33137 252.000
43.35132 262.000
43.37127 232.000
43.39121 224.000
43.41116 246.000
43.43111 242.000
43.45105 224.000
43.47100 257.000
43.49095 255.000
43.51090 229.000
43.53084 235.000
43.55079 222.000
43.57074 240.000
43.59068 212.000
43.61063 224.000
43.63058 206.000
43.65052 210.000
43.67047 205.000
43.69042 218.000
43.71037 231.000
43.73031 215.000
43.75026 218.000
43.77021 217.000
43.79015 237.000
43.81010 212.000
43.83005 236.000
43.84999 173.000
43.86994 251.000
43.88989 226.000
43.90984 231.000
43.92978 184.000
43.94973 218.000
43.96968 225.000
43.98962 194.000
44.00957 226.000
44.02952 222.000
44.04946 208.000
44.06941 212.000
44.08936 222.000
44.10930 189.000
44.12925 208.000
44.14920 216.000
44.16915 212.000
44.18909 195.000
44.20904 208.000
44.22899 221.000
44.24893 207.000
44.26888 205.000
44.28883 207.000
44.30877 204.000
44.32872 218.000
44.34867 217.000
44.36862 216.000
44.38856 201.000
44.40851 180.000
44.42846 203.000
44.44840 199.000
44.46835 193.000
44.48830 189.000
44.50824 208.000
44.52819 200.000
44.54814 191.000
44.56808 197.000
44.58803 190.000
44.60798 204.000
44.62793 220.000
44.64787 190.000
44.66782 181.000
44.68777 205.000
44.70771 202.000
44.72766 216.000
44.74761 179.000
44.76755 201.000
44.78750 201.000
44.80745 210.000
44.82740 206.000
44.84734 200.000
44.86729 161.000
44.88724 209.000
44.90718 184.000
44.92713 215.000
44.94708 190.000
44.96702 182.000
44.98697 225.000
45.00692 214.000
45.02686 200.000
45.04681 180.000
45.06676 188.000
45.08671 198.000
45.10665 227.000
45.12660 179.000
45.14655 174.000
45.16649 188.000
45.18644 173.000
45.20639 181.000
45.22633 197.000
45.24628 176.000
45.26623 194.000
45.28618 198.000
45.30612 200.000
45.32607 173.000
45.34602 182.000
45.36596 163.000
45.38591 185.000
45.40586 157.000
45.42580 203.000
45.44575 201.000
45.46570 169.000
45.48565 185.000
45.50559 196.000
45.52554 195.000
45.54549 200.000
45.56543 197.000
45.58538 181.000
45.60533 202.000
45.62527 169.000
45.64522 194.000
45.66517 204.000
45.68511 186.000
45.70506 164.000
45.72501 172.000
45.74496 180.000
45.76490 206.000
45.78485 184.000
45.80480 177.000
45.82474 157.000
45.84469 189.000
45.86464 217.000
45.88458 161.000
45.90453 161.000
45.92448 164.000
45.94443 204.000
45.96437 173.000
45.98432 170.000
46.00427 188.000
46.02421 166.000
46.04416 177.000
46.06411 171.000
46.08405 186.000
46.10400 158.000
46.12395 166.000
46.14389 169.000
46.16384 182.000
46.18379 167.000
46.20374 157.000
46.22368 175.000
46.24363 163.000
46.26358 154.000
46.28352 164.000
46.30347 160.000
46.32342 191.000
46.34336 169.000
46.36331 171.000
46.38326 165.000
46.40321 184.000
46.42315 197.000
46.44310 175.000
46.46305 168.000
46.48299 168.000
46.50294 175.000
46.52289 168.000
46.54283 175.000
46.56278 187.000
46.58273 176.000
46.60267 152.000
46.62262 179.000
46.64257 154.000
46.66252 168.000
46.68246 153.000
46.70241 164.000
46.72236 159.000
46.74230 160.000
46.76225 172.000
46.78220 148.000
46.80214 169.000
46.82209 156.000
46.84204 191.000
46.86199 171.000
46.88193 141.000
46.90188 147.000
46.92183 168.000
46.94177 168.000
46.96172 161.000
46.98167 174.000
47.00161 179.000
47.02156 155.000
47.04151 142.000
47.06146 163.000
47.08140 143.000
47.10135 146.000
47.12130 154.000
47.14124 150.000
47.16119 163.000
47.18114 164.000
47.20108 152.000
47.22103 152.000
47.24098 182.000
47.26092 140.000
47.28087 152.000
47.30082 146.000
47.32077 165.000
47.34071 162.000
47.36066 156.000
47.38061 149.000
47.40055 154.000
47.42050 150.000
47.44045 147.000
47.46039 150.000
47.48034 149.000
47.50029 142.000
47.52024 158.000
47.54018 161.000
47.56013 153.000
47.58008 143.000
47.60002 145.000
47.61997 123.000
47.63992 150.000
47.65986 152.000
47.67981 156.000
47.69976 150.000
47.71970 146.000
47.73965 146.000
47.75960 141.000
47.77955 129.000
47.79949 162.000
47.81944 150.000
47.83939 154.000
47.85933 122.000
47.87928 155.000
47.89923 142.000
47.91917 166.000
47.93912 141.000
47.95907 161.000
47.97902 146.000
47.99896 148.000
48.01891 156.000
48.03886 123.000
48.05880 159.000
48.07875 142.000
48.09870 136.000
48.11864 154.000
48.13859 143.000
48.15854 151.000
48.17848 150.000
48.19843 153.000
48.21838 153.000
48.23833 154.000
48.25827 137.000
48.27822 154.000
48.29817 148.000
48.31811 120.000
48.33806 134.000
48.35801 146.000
48.37795 140.000
48.39790 161.000
48.41785 144.000
48.43780 150.000
48.45774 168.000
48.47769 134.000
48.49764 148.000
48.51758 126.000
48.53753 166.000
48.55748 136.000
48.57742 136.000
48.59737 173.000
48.61732 145.000
48.63726 174.000
48.65721 167.000
48.67716 147.000
48.69711 154.000
48.71705 174.000
48.73700 161.000
48.75695 151.000
48.77689 178.000
48.79684 156.000
48.81679 154.000
48.83673 141.000
48.85668 173.000
48.87663 147.000
48.89658 180.000
48.91652 185.000
48.93647 202.000
48.95642 189.000
48.97636 173.000
48.99631 163.000
49.01626 179.000
49.03620 172.000
49.05615 211.000
49.07610 198.000
49.09605 197.000
49.11599 205.000
49.13594 178.000
49.15589 148.000
49.17583 198.000
49.19578 188.000
49.21573 197.000
49.23567 178.000
49.25562 190.000
49.27557 202.000
49.29551 208.000
49.31546 201.000
49.33541 237.000
49.35536 255.000
49.37530 338.000
49.39525 374.000
49.41520 467.000
49.43514 576.000
49.45509 451.000
49.47504 367.000
49.49498 299.000
49.51493 335.000
49.53488 291.000
49.55483 353.000
49.57477 300.000
49.59472 305.000
49.61467 194.000
49.63461 190.000
49.65456 177.000
49.67451 160.000
49.69445 136.000
49.71440 165.000
49.73435 145.000
49.75429 159.000
49.77424 159.000
49.79419 127.000
49.81414 140.000
49.83408 135.000
49.85403 130.000
49.87398 129.000
49.89392 129.000
49.91387 151.000
49.93382 144.000
49.95376 139.000
49.97371 132.000
49.99366 125.000
50.01361 144.000
50.03355 143.000
50.05350 144.000
50.07345 142.000
50.09339 126.000
50.11334 140.000
50.13329 129.000
50.15323 163.000
50.17318 138.000
50.19313 119.000
50.21307 162.000
50.23302 133.000
50.25297 154.000
50.27292 143.000
50.29286 130.000
50.31281 105.000
50.33276 131.000
50.35270 130.000
50.37265 147.000
50.39260 118.000
50.41254 128.000
50.43249 144.000
50.45244 149.000
50.47239 159.000
50.49233 115.000
50.51228 139.000
50.53223 120.000
50.55217 131.000
50.57212 121.000
50.59207 130.000
50.61201 121.000
50.63196 112.000
50.65191 125.000
50.67186 146.000
50.69180 147.000
50.71175 154.000
50.73170 149.000
50.75164 117.000
50.77159 124.000
50.79154 131.000
50.81148 126.000
50.83143 121.000
50.85138 151.000
50.87132 130.000
50.89127 130.000
50.91122 135.000
50.93117 129.000
50.95111 135.000
50.97106 131.000
50.99101 147.000
51.01095 132.000
51.03090 148.000
51.05085 117.000
51.07079 134.000
51.09074 127.000
51.11069 125.000
51.13064 114.000
51.15058 126.000
51.17053 134.000
51.19048 114.000
51.21042 103.000
51.23037 118.000
51.25032 146.000
51.27026 110.000
51.29021 144.000
51.31016 153.000
51.33010 135.000
51.35005 130.000
51.37000 122.000
51.38995 116.000
51.40989 106.000
51.42984 128.000
51.44979 100.000
51.46973 129.000
51.48968 128.000
51.50963 102.000
51.52957 129.000
51.54952 125.000
51.56947 131.000
51.58942 138.000
51.60936 138.000
51.62931 127.000
51.64926 136.000
51.66920 137.000
51.68915 128.000
51.70910 128.000
51.72904 115.000
51.74899 125.000
51.76894 121.000
51.78888 122.000
51.80883 115.000
51.82878 135.000
51.84873 93.000
51.86867 124.000
51.88862 128.000
51.90857 130.000
51.92851 142.000
51.94846 133.000
51.96841 111.000
51.98835 97.000
52.00830 125.000
52.02825 142.000
52.04820 116.000
52.06814 123.000
52.08809 140.000
52.10804 122.000
52.12798 124.000
52.14793 103.000
52.16788 112.000
52.18782 118.000
52.20777 145.000
52.22772 130.000
52.24767 121.000
52.26761 118.000
52.28756 140.000
52.30751 115.000
52.32745 142.000
52.34740 111.000
52.36735 103.000
52.38729 143.000
52.40724 120.000
52.42719 128.000
52.44713 133.000
52.46708 130.000
52.48703 111.000
52.50698 130.000
52.52692 131.000
52.54687 123.000
52.56682 122.000
52.58676 117.000
52.60671 128.000
52.62666 100.000
52.64660 125.000
52.66655 122.000
52.68650 136.000
52.70645 117.000
52.72639 136.000
52.74634 125.000
52.76629 141.000
52.78623 132.000
52.80618 119.000
52.82613 111.000
52.84607 115.000
52.86602 133.000
52.88597 131.000
52.90591 142.000
52.92586 130.000
52.94581 138.000
52.96576 116.000
52.98570 144.000
53.00565 143.000
53.02560 146.000
53.04554 132.000
53.06549 141.000
53.08544 125.000
53.10538 155.000
53.12533 118.000
53.14528 151.000
53.16523 132.000
53.18517 144.000
53.20512 128.000
53.22507 133.000
53.24501 148.000
53.26496 146.000
53.28491 122.000
53.30485 140.000
53.32480 149.000
53.34475 97.000
53.36469 128.000
53.38464 134.000
53.40459 130.000
53.42454 123.000
53.44448 143.000
53.46443 137.000
53.48438 142.000
53.50432 149.000
53.52427 142.000
53.54422 168.000
53.56416 155.000
53.58411 158.000
53.60406 165.000
53.62401 184.000
53.64395 171.000
53.66390 176.000
53.68385 180.000
53.70379 185.000
53.72374 184.000
53.74369 173.000
53.76363 178.000
53.78358 179.000
53.80353 198.000
53.82348 200.000
53.84342 214.000
53.86337 194.000
53.88332 201.000
53.90326 213.000
53.92321 231.000
53.94316 271.000
53.96310 291.000
53.98305 393.000
54.00300 495.000
54.02294 578.000
54.04289 500.000
54.06284 487.000
54.08279 325.000
54.10273 329.000
54.12268 316.000
54.14263 304.000
54.16257 340.000
54.18252 351.000
54.20247 321.000
54.22241 257.000
54.24236 196.000
54.26231 171.000
54.28226 144.000
54.30220 169.000
54.32215 144.000
54.34210 137.000
54.36204 128.000
54.38199 137.000
54.40194 121.000
54.42188 118.000
54.44183 113.000
54.46178 149.000
54.48172 115.000
54.50167 111.000
54.52162 120.000
54.54157 112.000
54.56151 126.000
54.58146 141.000
54.60141 121.000
54.62135 128.000
54.64130 121.000
54.66125 117.000
54.68119 125.000
54.70114 123.000
54.72109 113.000
54.74104 137.000
54.76098 138.000
54.78093 117.000
54.80088 101.000
54.82082 125.000
54.84077 125.000
54.86072 109.000
54.88066 113.000
54.90061 111.000
54.92056 107.000
54.94050 126.000
54.96045 106.000
54.98040 111.000
55.00035 129.000
55.02029 103.000
55.04024 119.000
55.06019 131.000
55.08013 119.000
55.10008 109.000
55.12003 124.000
55.13997 125.000
55.15992 121.000
55.17987 119.000
55.19982 105.000
55.21976 109.000
55.23971 107.000
55.25966 98.000
55.27960 96.000
55.29955 101.000
55.31950 102.000
55.33944 102.000
55.35939 102.000
55.37934 102.000
55.39929 115.000
55.41923 106.000
55.43918 105.000
55.45913 131.000
55.47907 92.000
55.49902 138.000
55.51897 112.000
55.53891 118.000
55.55886 118.000
55.57881 114.000
55.59875 100.000
55.61870 120.000
55.63865 111.000
55.65860 91.000
55.67854 104.000
55.69849 118.000
55.71844 120.000
55.73838 110.000
55.75833 104.000
55.77828 98.000
55.79822 120.000
55.81817 132.000
55.83812 124.000
55.85807 124.000
55.87801 119.000
55.89796 118.000
55.91791 108.000
55.93785 126.000
55.95780 113.000
55.97775 118.000
55.99769 122.000
56.01764 116.000
56.03759 125.000
56.05753 110.000
56.07748 112.000
56.09743 132.000
56.11738 120.000
56.13732 110.000
56.15727 105.000
56.17722 113.000
56.19716 105.000
56.21711 139.000
56.23706 105.000
56.25700 115.000
56.27695 97.000
56.29690 111.000
56.31685 109.000
56.33679 104.000
56.35674 103.000
56.37669 118.000
56.39663 102.000
56.41658 106.000
56.43653 102.000
56.45647 121.000
56.47642 100.000
56.49637 126.000
56.51631 112.000
56.53626 90.000
56.55621 121.000
56.57616 106.000
56.59610 101.000
56.61605 108.000
56.63600 129.000
56.65594 110.000
56.67589 122.000
56.69584 105.000
56.71578 108.000
56.73573 114.000
56.75568 122.000
56.77563 125.000
56.79557 102.000
56.81552 105.000
56.83547 101.000
56.85541 99.000
56.87536 112.000
56.89531 123.000
56.91525 101.000
56.93520 115.000
56.95515 108.000
56.97510 128.000
56.99504 134.000
57.01499 105.000
57.03494 137.000
57.05488 115.000
57.07483 115.000
57.09478 118.000
57.11472 118.000
57.13467 133.000
57.15462 126.000
57.17456 106.000
57.19451 119.000
57.21446 127.000
57.23441 126.000
57.25435 145.000
57.27430 105.000
57.29425 127.000
57.31419 133.000
57.33414 116.000
57.35409 118.000
57.37403 120.000
57.39398 131.000
57.41393 137.000
57.43388 154.000
57.45382 136.000
57.47377 133.000
57.49372 133.000
57.51366 165.000
57.53361 166.000
57.55356 181.000
57.57350 196.000
57.59345 173.000
57.61340 167.000
57.63334 150.000
57.65329 143.000
57.67324 128.000
57.69319 138.000
57.71313 145.000
57.73308 156.000
57.75303 116.000
57.77297 134.000
57.79292 124.000
57.81287 122.000
57.83281 118.000
57.85276 101.000
57.87271 103.000
57.89266 108.000
57.91260 101.000
57.93255 118.000
57.95250 83.000
57.97244 90.000
57.99239 106.000
58.01234 119.000
58.03228 85.000
58.05223 114.000
58.07218 127.000
58.09212 102.000
58.11207 110.000
58.13202 121.000
58.15197 100.000
58.17191 109.000
58.19186 102.000
58.21181 102.000
58.23175 102.000
58.25170 103.000
58.27165 99.000
58.29159 103.000
58.31154 110.000
58.33149 128.000
58.35144 105.000
58.37138 96.000
58.39133 104.000
58.41128 108.000
58.43122 105.000
58.45117 117.000
58.47112 116.000
58.49106 108.000
58.51101 87.000
58.53096 124.000
58.55090 103.000
58.57085 101.000
58.59080 112.000
58.61075 103.000
58.63069 90.000
58.65064 116.000
58.67059 108.000
58.69053 94.000
58.71048 72.000
58.73043 105.000
58.75037 117.000
58.77032 110.000
58.79027 109.000
58.81022 98.000
58.83016 114.000
58.85011 93.000
58.87006 98.000
58.89000 115.000
58.90995 113.000
58.92990 97.000
58.94984 90.000
58.96979 92.000
58.98974 101.000
59.00969 97.000
59.02963 91.000
59.04958 109.000
59.06953 110.000
59.08947 104.000
59.10942 111.000
59.12937 101.000
59.14931 90.000
59.16926 109.000
59.18921 114.000
59.20915 95.000
59.22910 112.000
59.24905 104.000
59.26900 118.000
59.28894 102.000
59.30889 111.000
59.32884 117.000
59.34878 116.000
59.36873 129.000
59.38868 93.000
59.40862 87.000
59.42857 102.000
59.44852 98.000
59.46847 103.000
59.48841 102.000
59.50836 91.000
59.52831 106.000
59.54825 110.000
59.56820 102.000
59.58815 94.000
59.60809 97.000
59.62804 96.000
59.64799 98.000
59.66793 101.000
59.68788 90.000
59.70783 88.000
59.72778 113.000
59.74772 111.000
59.76767 113.000
59.78762 104.000
59.80756 101.000
59.82751 111.000
59.84746 99.000
59.86740 95.000
59.88735 97.000
59.90730 86.000
59.92725 119.000
59.94719 102.000
59.96714 98.000
59.98709 110.000
60.00703 79.000
60.02698 91.000
60.04693 98.000
60.06687 107.000
60.08682 99.000
60.10677 116.000
60.12671 100.000
60.14666 88.000
60.16661 122.000
60.18656 96.000
60.20650 110.000
60.22645 98.000
60.24640 96.000
60.26634 96.000
60.28629 94.000
60.30624 106.000
60.32618 108.000
60.34613 96.000
60.36608 96.000
60.38603 102.000
60.40597 99.000
60.42592 92.000
60.44587 104.000
60.46581 106.000
60.48576 89.000
60.50571 92.000
60.52565 113.000
60.54560 112.000
60.56555 111.000
60.58550 113.000
60.60544 113.000
60.62539 103.000
60.64534 115.000
60.66528 125.000
60.68523 105.000
60.70518 122.000
60.72512 122.000
60.74507 118.000
60.76502 137.000
60.78496 123.000
60.80491 122.000
60.82486 103.000
60.84481 116.000
60.86475 100.000
60.88470 115.000
60.90465 126.000
60.92459 86.000
60.94454 122.000
60.96449 107.000
60.98443 99.000
61.00438 114.000
61.02433 101.000
61.04428 115.000
61.06422 109.000
61.08417 113.000
61.10412 105.000
61.12406 100.000
61.14401 121.000
61.16396 88.000
61.18390 102.000
61.20385 114.000
61.22380 126.000
61.24374 94.000
61.26369 110.000
61.28364 99.000
61.30359 114.000
61.32353 114.000
61.34348 123.000
61.36343 117.000
61.38337 112.000
61.40332 94.000
61.42327 108.000
61.44321 99.000
61.46316 103.000
61.48311 109.000
61.50306 111.000
61.52300 107.000
61.54295 100.000
61.56290 120.000
61.58284 103.000
61.60279 104.000
61.62274 94.000
61.64268 112.000
61.66263 105.000
61.68258 113.000
61.70252 121.000
61.72247 106.000
61.74242 108.000
61.76237 124.000
61.78231 117.000
61.80226 122.000
61.82221 107.000
61.84215 124.000
61.86210 106.000
61.88205 108.000
61.90199 135.000
61.92194 141.000
61.94189 119.000
61.96184 148.000
61.98178 149.000
62.00173 136.000
62.02168 131.000
62.04162 114.000
62.06157 123.000
62.08152 128.000
62.10146 141.000
62.12141 132.000
62.14136 156.000
62.16131 150.000
62.18125 148.000
62.20120 174.000
62.22115 152.000
62.24109 164.000
62.26104 175.000
62.28099 172.000
62.30093 174.000
62.32088 194.000
62.34083 204.000
62.36077 252.000
62.38072 320.000
62.40067 399.000
62.42062 367.000
62.44056 301.000
62.46051 286.000
62.48046 215.000
62.50040 209.000
62.52035 209.000
62.54030 224.000
62.56024 237.000
62.58019 244.000
62.60014 223.000
62.62009 207.000
62.64003 159.000
62.65998 142.000
62.67993 130.000
62.69987 128.000
62.71982 118.000
62.73977 98.000
62.75971 112.000
62.77966 102.000
62.79961 90.000
62.81955 97.000
62.83950 99.000
62.85945 86.000
62.87940 91.000
62.89934 82.000
62.91929 94.000
62.93924 113.000
62.95918 97.000
62.97913 80.000
62.99908 105.000
63.01902 93.000
63.03897 90.000
63.05892 79.000
63.07887 103.000
63.09881 74.000
63.11876 101.000
63.13871 91.000
63.15865 88.000
63.17860 81.000
63.19855 84.000
63.21849 91.000
63.23844 81.000
63.25839 106.000
63.27833 94.000
63.29828 90.000
63.31823 103.000
63.33818 91.000
63.35812 102.000
63.37807 126.000
63.39802 87.000
63.41796 103.000
63.43791 110.000
63.45786 100.000
63.47780 102.000
63.49775 99.000
63.51770 141.000
63.53765 130.000
63.55759 126.000
63.57754 134.000
63.59749 117.000
63.61743 134.000
63.63738 132.000
63.65733 129.000
63.67727 146.000
63.69722 127.000
63.71717 166.000
63.73712 139.000
63.75706 150.000
63.77701 151.000
63.79696 130.000
63.81690 147.000
63.83685 142.000
63.85680 149.000
63.87674 179.000
63.89669 216.000
63.91664 239.000
63.93658 293.000
63.95653 324.000
63.97648 360.000
63.99643 338.000
64.01637 286.000
64.03632 216.000
64.05627 215.000
64.07621 198.000
64.09616 210.000
64.11611 221.000
64.13605 205.000
64.15600 222.000
64.17595 218.000
64.19590 204.000
64.21584 137.000
64.23579 152.000
64.25574 128.000
64.27568 90.000
64.29563 137.000
64.31558 108.000
64.33552 100.000
64.35547 99.000
64.37542 88.000
64.39536 82.000
64.41531 103.000
64.43526 104.000
64.45521 92.000
64.47515 94.000
64.49510 96.000
64.51505 92.000
64.53499 84.000
64.55494 96.000
64.57489 101.000
64.59483 96.000
64.61478 93.000
64.63473 103.000
64.65468 105.000
64.67462 88.000
64.69457 95.000
64.71452 87.000
64.73446 98.000
64.75441 89.000
64.77436 93.000
64.79430 96.000
64.81425 94.000
64.83420 83.000
64.85414 101.000
64.87409 101.000
64.89404 90.000
64.91399 92.000
64.93393 102.000
64.95388 93.000
64.97383 93.000
64.99377 98.000
65.01372 107.000
65.03367 102.000
65.05361 93.000
65.07356 86.000
65.09351 94.000
65.11346 79.000
65.13340 96.000
65.15335 99.000
65.17330 81.000
65.19324 95.000
65.21319 102.000
65.23314 92.000
65.25308 86.000
65.27303 94.000
65.29298 92.000
65.31293 94.000
65.33287 87.000
65.35282 75.000
65.37277 92.000
65.39271 85.000
65.41266 73.000
65.43261 90.000
65.45255 66.000
65.47250 77.000
65.49245 78.000
65.51239 101.000
65.53234 97.000
65.55229 84.000
65.57224 99.000
65.59218 95.000
65.61213 84.000
65.63208 90.000
65.65202 104.000
65.67197 97.000
65.69192 93.000
65.71186 72.000
65.73181 72.000
65.75176 96.000
65.77171 101.000
65.79165 98.000
65.81160 112.000
65.83155 104.000
65.85149 95.000
65.87144 97.000
65.89139 80.000
65.91133 99.000
65.93128 91.000
65.95123 80.000
65.97117 98.000
65.99112 92.000
66.01107 87.000
66.03102 102.000
66.05096 103.000
66.07091 79.000
66.09086 106.000
66.11080 82.000
66.13075 102.000
66.15070 89.000
66.17064 91.000
66.19059 71.000
66.21054 88.000
66.23049 105.000
66.25043 82.000
66.27038 86.000
66.29033 97.000
66.31027 79.000
66.33022 104.000
66.35017 84.000
66.37011 98.000
66.39006 106.000
66.41001 92.000
66.42995 87.000
66.44990 103.000
66.46985 93.000
66.48980 92.000
66.50974 99.000
66.52969 91.000
66.54964 88.000
66.56958 91.000
66.58953 83.000
66.60948 90.000
66.62942 91.000
66.64937 84.000
66.66932 71.000
66.68927 99.000
66.70921 90.000
66.72916 73.000
66.74911 86.000
66.76905 79.000
66.78900 76.000
66.80895 82.000
66.82889 97.000
66.84884 74.000
66.86879 77.000
66.88874 84.000
66.90868 74.000
66.92863 75.000
66.94858 92.000
66.96852 67.000
66.98847 81.000
67.00842 93.000
67.02836 89.000
67.04831 90.000
67.06826 68.000
67.08820 81.000
67.10815 100.000
67.12810 77.000
67.14805 78.000
67.16799 76.000
67.18794 86.000
67.20789 69.000
67.22783 84.000
67.24778 84.000
67.26773 79.000
67.28767 67.000
67.30762 66.000
67.32757 84.000
67.34752 102.000
67.36746 88.000
67.38741 78.000
67.40736 68.000
67.42730 93.000
67.44725 68.000
67.46720 97.000
67.48714 88.000
67.50709 69.000
67.52704 94.000
67.54698 69.000
67.56693 81.000
67.58688 95.000
67.60683 89.000
67.62677 78.000
67.64672 74.000
67.66667 83.000
67.68661 84.000
67.70656 71.000
67.72651 91.000
67.74645 91.000
67.76640 68.000
67.78635 90.000
67.80630 93.000
67.82624 93.000
67.84619 74.000
67.86614 84.000
67.88608 95.000
67.90603 82.000
67.92598 81.000
67.94592 77.000
67.96587 75.000
67.98582 71.000
68.00576 93.000
68.02571 99.000
68.04566 76.000
68.06561 79.000
68.08555 71.000
68.10550 68.000
68.12545 62.000
68.14539 90.000
68.16534 71.000
68.18529 72.000
68.20523 76.000
68.22518 79.000
68.24513 79.000
68.26508 84.000
68.28502 78.000
68.30497 83.000
68.32492 67.000
68.34486 87.000
68.36481 89.000
68.38476 73.000
68.40470 79.000
68.42465 60.000
68.44460 81.000
68.46455 93.000
68.48449 94.000
68.50444 75.000
68.52439 77.000
68.54433 76.000
68.56428 81.000
68.58423 79.000
68.60417 78.000
68.62412 72.000
68.64407 77.000
68.66401 76.000
68.68396 73.000
68.70391 79.000
68.72386 66.000
68.74380 85.000
68.76375 67.000
68.78370 67.000
68.80364 81.000
68.82359 82.000
68.84354 73.000
68.86348 91.000
68.88343 75.000
68.90338 66.000
68.92333 81.000
68.94327 90.000
68.96322 73.000
68.98317 84.000
69.00311 98.000
69.02306 78.000
69.04301 82.000
69.06295 79.000
69.08290 87.000
69.10285 85.000
69.12279 90.000
69.14274 89.000
69.16269 73.000
69.18264 85.000
69.20258 98.000
69.22253 93.000
69.24248 68.000
69.26242 78.000
69.28237 81.000
69.30232 87.000
69.32226 62.000
69.34221 92.000
69.36216 73.000
69.38211 98.000
69.40205 74.000
69.42200 79.000
69.44195 83.000
69.46189 116.000
69.48184 99.000
69.50179 99.000
69.52173 97.000
69.54168 94.000
69.56163 94.000
69.58157 81.000
69.60152 86.000
69.62147 83.000
69.64142 89.000
69.66136 86.000
69.68131 76.000
69.70126 80.000
69.72120 71.000
69.74115 90.000
69.76110 92.000
69.78104 94.000
69.80099 92.000
69.82094 89.000
69.84089 85.000
69.86083 70.000
69.88078 95.000
69.90073 81.000
69.92067 83.000
69.94062 80.000
69.96057 55.000
69.98051 70.000
70.00046 77.000
70.02041 86.000
70.04035 75.000
70.06030 78.000
70.08025 69.000
70.10020 85.000
70.12014 72.000
70.14009 77.000
70.16004 73.000
70.17998 84.000
70.19993 84.000
70.21988 70.000
70.23982 89.000
70.25977 70.000
70.27972 71.000
70.29967 70.000
70.31961 87.000
70.33956 80.000
70.35951 65.000
70.37945 86.000
70.39940 67.000
70.41935 67.000
70.43929 72.000
70.45924 73.000
70.47919 90.000
70.49914 67.000
70.51908 79.000
70.53903 79.000
70.55898 78.000
70.57892 80.000
70.59887 73.000
70.61882 80.000
70.63876 81.000
70.65871 94.000
70.67866 75.000
70.69860 60.000
70.71855 62.000
70.73850 84.000
70.75845 78.000
70.77839 87.000
70.79834 77.000
70.81829 84.000
70.83823 89.000
70.85818 74.000
70.87813 81.000
70.89807 88.000
70.91802 81.000
70.93797 87.000
70.95792 86.000
70.97786 89.000
70.99781 85.000
71.01776 80.000
71.03770 76.000
71.05765 81.000
71.07760 76.000
71.09754 74.000
71.11749 71.000
71.13744 81.000
71.15738 80.000
71.17733 65.000
71.19728 72.000
71.21723 73.000
71.23717 78.000
71.25712 82.000
71.27707 75.000
71.29701 91.000
71.31696 82.000
71.33691 85.000
71.35685 81.000
71.37680 76.000
71.39675 91.000
71.41670 78.000
71.43664 82.000
71.45659 91.000
71.47654 85.000
71.49648 93.000
71.51643 99.000
71.53638 101.000
71.55632 95.000
71.57627 96.000
71.59622 91.000
71.61616 98.000
71.63611 91.000
71.65606 92.000
71.67601 108.000
71.69595 78.000
71.71590 91.000
71.73585 94.000
71.75579 99.000
71.77574 120.000
71.79569 113.000
71.81563 127.000
71.83558 123.000
71.85553 149.000
71.87548 153.000
71.89542 161.000
71.91537 154.000
71.93532 157.000
71.95526 119.000
71.97521 112.000
71.99516 118.000
72.01510 123.000
72.03505 112.000
72.05500 123.000
72.07495 135.000
72.09489 133.000
72.11484 118.000
72.13479 117.000
72.15473 114.000
72.17468 105.000
72.19463 122.000
72.21457 111.000
72.23452 97.000
72.25447 96.000
72.27441 109.000
72.29436 106.000
72.31431 90.000
72.33426 86.000
72.35420 90.000
72.37415 85.000
72.39410 103.000
72.41404 85.000
72.43399 77.000
72.45394 103.000
72.47388 78.000
72.49383 85.000
72.51378 76.000
72.53373 96.000
72.55367 76.000
72.57362 92.000
72.59357 85.000
72.61351 63.000
72.63346 87.000
72.65341 87.000
72.67335 81.000
72.69330 88.000
72.71325 75.000
72.73319 80.000
72.75314 76.000
72.77309 63.000
72.79304 79.000
72.81298 79.000
72.83293 79.000
72.85288 65.000
72.87282 80.000
72.89277 83.000
72.91272 76.000
72.93266 91.000
72.95261 96.000
72.97256 78.000
72.99251 69.000
73.01245 80.000
73.03240 72.000
73.05235 81.000
73.07229 73.000
73.09224 76.000
73.11219 91.000
73.13213 79.000
73.15208 79.000
73.17203 77.000
73.19197 64.000
73.21192 71.000
73.23187 68.000
73.25182 84.000
73.27176 74.000
73.29171 83.000
73.31166 70.000
73.33160 69.000
73.35155 89.000
73.37150 74.000
73.39144 68.000
73.41139 66.000
73.43134 88.000
73.45129 70.000
73.47123 59.000
73.49118 87.000
73.51113 68.000
73.53107 82.000
73.55102 77.000
73.57097 69.000
73.59091 75.000
73.61086 71.000
73.63081 90.000
73.65076 74.000
73.67070 70.000
73.69065 76.000
73.71060 65.000
73.73054 80.000
73.75049 93.000
73.77044 66.000
73.79038 69.000
73.81033 86.000
73.83028 78.000
73.85022 64.000
73.87017 74.000
73.89012 73.000
73.91007 84.000
73.93001 65.000
73.94996 77.000
73.96991 88.000
73.98985 84.000
74.00980 91.000
74.02975 83.000
74.04969 88.000
74.06964 73.000
74.08959 77.000
74.10954 78.000
74.12948 73.000
74.14943 74.000
74.16938 81.000
74.18932 85.000
74.20927 76.000
74.22922 66.000
74.24916 71.000
74.26911 73.000
74.28906 83.000
74.30900 83.000
74.32895 76.000
74.34890 70.000
74.36885 78.000
74.38879 72.000
74.40874 76.000
74.42869 71.000
74.44863 78.000
74.46858 67.000
74.48853 75.000
74.50847 64.000
74.52842 69.000
74.54837 71.000
74.56832 68.000
74.58826 73.000
74.60821 72.000
74.62816 96.000
74.64810 72.000
74.66805 77.000
74.68800 60.000
74.70794 74.000
74.72789 71.000
74.74784 102.000
74.76778 80.000
74.78773 82.000
74.80768 64.000
74.82763 66.000
74.84757 83.000
74.86752 61.000
74.88747 78.000
74.90741 87.000
74.92736 87.000
74.94731 86.000
74.96725 71.000
74.98720 62.000
75.00715 68.000
75.02710 88.000
75.04704 94.000
75.06699 75.000
75.08694 76.000
75.10688 67.000
75.12683 74.000
75.14678 102.000
75.16672 71.000
75.18667 84.000
75.20662 87.000
75.22657 78.000
75.24651 82.000
75.26646 87.000
75.28641 75.000
75.30635 87.000
75.32630 98.000
75.34625 92.000
75.36619 97.000
75.38614 92.000
75.40609 98.000
75.42603 121.000
75.44598 120.000
75.46593 112.000
75.48588 106.000
75.50582 104.000
75.52577 93.000
75.54572 96.000
75.56566 100.000
75.58561 97.000
75.60556 102.000
75.62550 123.000
75.64545 96.000
75.66540 89.000
75.68535 94.000
75.70529 82.000
75.72524 92.000
75.74519 103.000
75.76513 91.000
75.78508 75.000
75.80503 82.000
75.82497 74.000
75.84492 86.000
75.86487 84.000
75.88481 77.000
75.90476 73.000
75.92471 81.000
75.94466 60.000
75.96460 69.000
75.98455 71.000
76.00450 65.000
76.02444 72.000
76.04439 93.000
76.06434 58.000
76.08428 70.000
76.10423 62.000
76.12418 73.000
76.14413 69.000
76.16407 65.000
76.18402 71.000
76.20397 77.000
76.22391 67.000
76.24386 60.000
76.26381 79.000
76.28375 65.000
76.30370 76.000
76.32365 63.000
76.34359 95.000
76.36354 70.000
76.38349 82.000
76.40344 65.000
76.42338 69.000
76.44333 54.000
76.46328 77.000
76.48322 57.000
76.50317 74.000
76.52312 71.000
76.54306 56.000
76.56301 77.000
76.58296 71.000
76.60291 70.000
76.62285 72.000
76.64280 64.000
76.66275 85.000
76.68269 77.000
76.70264 60.000
76.72259 66.000
76.74253 66.000
76.76248 82.000
76.78243 74.000
76.80238 58.000
76.82232 63.000
76.84227 61.000
76.86222 82.000
76.88216 68.000
76.90211 60.000
76.92206 52.000
76.94200 63.000
76.96195 72.000
76.98190 56.000
77.00184 88.000
77.02179 52.000
77.04174 57.000
77.06169 72.000
77.08163 75.000
77.10158 78.000
77.12153 78.000
77.14147 73.000
77.16142 77.000
77.18137 69.000
77.20131 69.000
77.22126 71.000
77.24121 91.000
77.26116 83.000
77.28110 87.000
77.30105 74.000
77.32100 54.000
77.34094 75.000
77.36089 83.000
77.38084 65.000
77.40078 55.000
77.42073 72.000
77.44068 88.000
77.46062 67.000
77.48057 69.000
77.50052 73.000
77.52047 71.000
77.54041 73.000
77.56036 85.000
77.58031 78.000
77.60025 82.000
77.62020 90.000
77.64015 72.000
77.66009 69.000
77.68004 93.000
77.69999 96.000
77.71994 93.000
77.73988 97.000
77.75983 85.000
77.77978 87.000
77.79972 75.000
77.81967 74.000
77.83962 80.000
77.85956 89.000
77.87951 79.000
77.89946 87.000
77.91940 82.000
77.93935 72.000
77.95930 88.000
77.97925 100.000
77.99919 73.000
78.01914 69.000
78.03909 76.000
78.05903 65.000
78.07898 66.000
78.09893 73.000
78.11887 73.000
78.13882 73.000
78.15877 68.000
78.17872 57.000
78.19866 81.000
78.21861 62.000
78.23856 65.000
78.25850 62.000
78.27845 65.000
78.29840 56.000
78.31834 66.000
78.33829 73.000
78.35824 76.000
78.37819 63.000
78.39813 61.000
78.41808 73.000
78.43803 70.000
78.45797 88.000
78.47792 80.000
78.49787 77.000
78.51781 53.000
78.53776 65.000
78.55771 71.000
78.57765 70.000
78.59760 77.000
78.61755 66.000
78.63750 67.000
78.65744 69.000
78.67739 73.000
78.69734 74.000
78.71728 67.000
78.73723 73.000
78.75718 74.000
78.77712 73.000
78.79707 71.000
78.81702 67.000
78.83697 76.000
78.85691 83.000
78.87686 70.000
78.89681 64.000
78.91675 51.000
78.93670 75.000
78.95665 75.000
78.97659 71.000
78.99654 77.000
79.01649 75.000
79.03643 72.000
79.05638 63.000
79.07633 69.000
79.09628 71.000
79.11622 66.000
79.13617 70.000
79.15612 67.000
79.17606 70.000
79.19601 61.000
79.21596 75.000
79.23590 60.000
79.25585 54.000
79.27580 61.000
79.29575 81.000
79.31569 72.000
79.33564 62.000
79.35559 74.000
79.37553 67.000
79.39548 87.000
79.41543 59.000
79.43537 65.000
79.45532 63.000
79.47527 68.000
79.49521 75.000
79.51516 79.000
79.53511 72.000
79.55506 76.000
79.57500 71.000
79.59495 73.000
79.61490 67.000
79.63484 54.000
79.65479 73.000
79.67474 67.000
79.69468 61.000
79.71463 71.000
79.73458 59.000
79.75453 64.000
79.77447 65.000
79.79442 74.000
79.81437 68.000
79.83431 68.000
79.85426 77.000
79.87421 53.000
79.89415 69.000
79.91410 70.000
79.93405 57.000
79.95399 66.000
79.97394 61.000
79.99389 70.000
80.01384 80.000
80.03378 72.000
80.05373 81.000
80.07368 65.000
80.09362 61.000
80.11357 60.000
80.13352 75.000
80.15346 65.000
80.17341 64.000
80.19336 56.000
80.21331 56.000
80.23325 75.000
80.25320 73.000
80.27315 76.000
80.29309 68.000
80.31304 79.000
80.33299 79.000
80.35293 77.000
80.37288 58.000
80.39283 60.000
80.41278 80.000
80.43272 96.000
80.45267 77.000
80.47262 59.000
80.49256 97.000
80.51251 103.000
80.53246 89.000
80.55240 82.000
80.57235 103.000
80.59230 89.000
80.61224 97.000
80.63219 95.000
80.65214 118.000
80.67209 101.000
80.69203 99.000
80.71198 97.000
80.73193 75.000
80.75187 97.000
80.77182 110.000
80.79177 85.000
80.81171 84.000
80.83166 79.000
80.85161 87.000
80.87156 82.000
80.89150 72.000
80.91145 109.000
80.93140 96.000
80.95134 89.000
80.97129 65.000
80.99124 93.000
81.01118 71.000
81.03113 71.000
81.05108 81.000
81.07102 66.000
81.09097 53.000
81.11092 58.000
81.13087 63.000
81.15081 65.000
81.17076 59.000
81.19071 75.000
81.21065 58.000
81.23060 75.000
81.25055 81.000
81.27049 64.000
81.29044 64.000
81.31039 85.000
81.33034 64.000
81.35028 62.000
81.37023 66.000
81.39018 61.000
81.41012 70.000
81.43007 77.000
81.45002 75.000
81.46996 60.000
81.48991 59.000
81.50986 60.000
81.52980 69.000
81.54975 59.000
81.56970 60.000
81.58965 64.000
81.60959 73.000
81.62954 77.000
81.64949 66.000
81.66943 73.000
81.68938 68.000
81.70933 71.000
81.72927 60.000
81.74922 76.000
81.76917 72.000
81.78912 70.000
81.80906 48.000
81.82901 69.000
81.84896 60.000
81.86890 62.000
81.88885 55.000
81.90880 59.000
81.92874 71.000
81.94869 71.000
81.96864 64.000
81.98859 76.000
82.00853 65.000
82.02848 61.000
82.04843 70.000
82.06837 59.000
82.08832 67.000
82.10827 76.000
82.12821 67.000
82.14816 71.000
82.16811 79.000
82.18805 59.000
82.20800 69.000
82.22795 61.000
82.24790 62.000
82.26784 63.000
82.28779 63.000
82.30774 62.000
82.32768 81.000
82.34763 67.000
82.36758 63.000
82.38752 63.000
82.40747 75.000
82.42742 66.000
82.44737 97.000
82.46731 58.000
82.48726 70.000
82.50721 92.000
82.52715 67.000
82.54710 77.000
82.56705 71.000
82.58699 72.000
82.60694 65.000
82.62689 76.000
82.64683 64.000
82.66678 83.000
82.68673 83.000
82.70668 70.000
82.72662 82.000
82.74657 56.000
82.76652 78.000
82.78646 80.000
82.80641 74.000
82.82636 83.000
82.84630 101.000
82.86625 109.000
82.88620 104.000
82.90615 93.000
82.92609 137.000
82.94604 110.000
82.96599 102.000
82.98593 85.000
83.00588 99.000
83.02583 86.000
83.04577 82.000
83.06572 81.000
83.08567 74.000
83.10561 85.000
83.12556 87.000
83.14551 107.000
83.16546 116.000
83.18540 98.000
83.20535 73.000
83.22530 63.000
83.24524 67.000
83.26519 81.000
83.28514 59.000
83.30508 74.000
83.32503 71.000
83.34498 70.000
83.36493 74.000
83.38487 84.000
83.40482 61.000
83.42477 71.000
83.44471 70.000
83.46466 57.000
83.48461 68.000
83.50455 65.000
83.52450 85.000
83.54445 69.000
83.56440 75.000
83.58434 58.000
83.60429 78.000
83.62424 81.000
83.64418 69.000
83.66413 64.000
83.68408 61.000
83.70402 59.000
83.72397 54.000
83.74392 57.000
83.76386 69.000
83.78381 58.000
83.80376 58.000
83.82371 82.000
83.84365 78.000
83.86360 54.000
83.88355 54.000
83.90349 57.000
83.92344 94.000
83.94339 62.000
83.96333 61.000
83.98328 55.000
84.00323 71.000
84.02318 61.000
84.04312 63.000
84.06307 65.000
84.08302 73.000
84.10296 73.000
84.12291 62.000
84.14286 73.000
84.16280 70.000
84.18275 68.000
84.20270 53.000
84.22264 91.000
84.24259 75.000
84.26254 62.000
84.28249 51.000
84.30243 74.000
84.32238 69.000
84.34233 76.000
84.36227 76.000
84.38222 61.000
84.40217 79.000
84.42211 75.000
84.44206 55.000
84.46201 71.000
84.48196 65.000
84.50190 66.000
84.52185 85.000
84.54180 81.000
84.56174 80.000
84.58169 91.000
84.60164 89.000
84.62158 82.000
84.64153 72.000
84.66148 77.000
84.68142 93.000
84.70137 78.000
84.72132 74.000
84.74127 100.000
84.76121 94.000
84.78116 80.000
84.80111 100.000
84.82105 105.000
84.84100 110.000
84.86095 128.000
84.88089 105.000
84.90084 114.000
84.92079 140.000
84.94074 153.000
84.96068 100.000
84.98063 100.000
85.00058 98.000
85.02052 92.000
85.04047 112.000
85.06042 98.000
85.08036 102.000
85.10031 83.000
85.12026 95.000
85.14021 111.000
85.16015 94.000
85.18010 94.000
85.20005 74.000
85.21999 94.000
85.23994 90.000
85.25989 70.000
85.27983 66.000
85.29978 69.000
85.31973 71.000
85.33967 73.000
85.35962 64.000
85.37957 60.000
85.39952 79.000
85.41946 56.000
85.43941 68.000
85.45936 78.000
85.47930 97.000
85.49925 66.000
85.51920 72.000
85.53914 59.000
85.55909 73.000
85.57904 58.000
85.59899 59.000
85.61893 70.000
85.63888 75.000
85.65883 75.000
85.67877 67.000
85.69872 68.000
85.71867 54.000
85.73861 66.000
85.75856 69.000
85.77851 84.000
85.79845 73.000
85.81840 65.000
85.83835 79.000
85.85830 59.000
85.87824 77.000
85.89819 55.000
85.91814 60.000
85.93808 47.000
85.95803 70.000
85.97798 69.000
85.99792 67.000
86.01787 65.000
86.03782 66.000
86.05777 64.000
86.07771 63.000
86.09766 60.000
86.11761 66.000
86.13755 67.000
86.15750 68.000
86.17745 53.000
86.19739 69.000
86.21734 66.000
86.23729 54.000
86.25723 51.000
86.27718 79.000
86.29713 71.000
86.31708 65.000
86.33702 71.000
86.35697 64.000
86.37692 60.000
86.39686 55.000
86.41681 56.000
86.43676 63.000
86.45670 60.000
86.47665 57.000
86.49660 58.000
86.51655 74.000
86.53649 71.000
86.55644 65.000
86.57639 70.000
86.59633 73.000
86.61628 63.000
86.63623 59.000
86.65617 61.000
86.67612 58.000
86.69607 71.000
86.71602 62.000
86.73596 57.000
86.75591 63.000
86.77586 53.000
86.79580 53.000
86.81575 61.000
86.83570 56.000
86.85564 60.000
86.87559 51.000
86.89554 63.000
86.91548 63.000
86.93543 56.000
86.95538 62.000
86.97533 55.000
86.99527 81.000
87.01522 62.000
87.03517 70.000
87.05511 68.000
87.07506 78.000
87.09501 67.000
87.11495 65.000
87.13490 63.000
87.15485 72.000
87.17480 65.000
87.19474 60.000
87.21469 66.000
87.23464 61.000
87.25458 66.000
87.27453 64.000
87.29448 49.000
87.31442 50.000
87.33437 58.000
87.35432 58.000
87.37426 64.000
87.39421 57.000
87.41416 56.000
87.43411 73.000
87.45405 62.000
87.47400 86.000
87.49395 47.000
87.51389 61.000
87.53384 61.000
87.55379 59.000
87.57373 65.000
87.59368 64.000
87.61363 70.000
87.63358 72.000
87.65352 75.000
87.67347 55.000
87.69342 56.000
87.71336 53.000
87.73331 59.000
87.75326 64.000
87.77320 64.000
87.79315 50.000
87.81310 66.000
87.83304 77.000
87.85299 81.000
87.87294 57.000
87.89289 60.000
87.91283 65.000
87.93278 71.000
87.95273 69.000
87.97267 65.000
87.99262 71.000
88.01257 49.000
88.03251 54.000
88.05246 75.000
88.07241 68.000
88.09236 75.000
88.11230 72.000
88.13225 81.000
88.15220 67.000
88.17214 78.000
88.19209 93.000
88.21204 75.000
88.23198 60.000
88.25193 66.000
88.27188 59.000
88.29183 57.000
88.31177 80.000
88.33172 69.000
88.35167 75.000
88.37161 87.000
88.39156 81.000
88.41151 93.000
88.43145 87.000
88.45140 100.000
88.47135 98.000
88.49129 108.000
88.51124 116.000
88.53119 125.000
88.55114 127.000
88.57108 116.000
88.59103 105.000
88.61098 90.000
88.63092 84.000
88.65087 80.000
88.67082 89.000
88.69076 83.000
88.71071 93.000
88.73066 90.000
88.75061 77.000
88.77055 82.000
88.79050 84.000
88.81045 90.000
88.83039 109.000
88.85034 83.000
88.87029 83.000
88.89023 88.000
88.91018 69.000
88.93013 66.000
88.95007 70.000
88.97002 76.000
88.98997 66.000
89.00992 63.000
89.02986 80.000
89.04981 71.000
89.06976 63.000
89.08970 56.000
89.10965 51.000
89.12960 62.000
89.14954 68.000
89.16949 64.000
89.18944 73.000
89.20939 50.000
89.22933 85.000
89.24928 64.000
89.26923 48.000
89.28917 77.000
89.30912 62.000
89.32907 54.000
89.34901 53.000
89.36896 64.000
89.38891 52.000
89.40885 61.000
89.42880 78.000
89.44875 77.000
89.46870 60.000
89.48864 51.000
89.50859 64.000
89.52854 71.000
89.54848 78.000
89.56843 62.000
89.58838 55.000
89.60832 71.000
89.62827 65.000
89.64822 45.000
89.66817 52.000
89.68811 52.000
89.70806 79.000
89.72801 60.000
89.74795 64.000
89.76790 45.000
89.78785 64.000
89.80779 63.000
89.82774 72.000
89.84769 69.000
89.86764 52.000
89.88758 63.000
89.90753 66.000
89.92748 72.000
89.94742 60.000
89.96737 50.000
89.98732 72.000
90.00726 52.000
