10.00000 73.000
10.01995 87.000
10.03989 99.000
10.05984 84.000
10.07979 82.000
10.09973 99.000
10.11968 106.000
10.13963 88.000
10.15958 86.000
10.17952 93.000
10.19947 90.000
10.21942 93.000
10.23936 79.000
10.25931 83.000
10.27926 97.000
10.29920 98.000
10.31915 85.000
10.33910 82.000
10.35905 94.000
10.37899 104.000
10.39894 90.000
10.41889 105.000
10.43883 86.000
10.45878 90.000
10.47873 84.000
10.49867 105.000
10.51862 105.000
10.53857 99.000
10.55851 90.000
10.57846 96.000
10.59841 92.000
10.61836 84.000
10.63830 114.000
10.65825 95.000
10.67820 99.000
10.69814 81.000
10.71809 98.000
10.73804 107.000
10.75798 91.000
10.77793 93.000
10.79788 104.000
10.81783 100.000
10.83777 111.000
10.85772 100.000
10.87767 121.000
10.89761 97.000
10.91756 111.000
10.93751 97.000
10.95745 91.000
10.97740 89.000
10.99735 94.000
11.01730 106.000
11.03724 89.000
11.05719 106.000
11.07714 84.000
11.09708 89.000
11.11703 90.000
11.13698 118.000
11.15692 89.000
11.17687 95.000
11.19682 106.000
11.21676 99.000
11.23671 109.000
11.25666 108.000
11.27661 117.000
11.29655 102.000
11.31650 97.000
11.33645 104.000
11.35639 111.000
11.37634 112.000
11.39629 104.000
11.41623 102.000
11.43618 92.000
11.45613 109.000
11.47608 87.000
11.49602 82.000
11.51597 95.000
11.53592 88.000
11.55586 113.000
11.57581 104.000
11.59576 99.000
11.61570 109.000
11.63565 125.000
11.65560 103.000
11.67554 115.000
11.69549 109.000
11.71544 96.000
11.73539 116.000
11.75533 120.000
11.77528 124.000
11.79523 119.000
11.81517 113.000
11.83512 101.000
11.85507 108.000
11.87501 92.000
11.89496 99.000
11.91491 106.000
11.93486 108.000
11.95480 112.000
11.97475 108.000
11.99470 115.000
12.01464 119.000
12.03459 121.000
12.05454 129.000
12.07448 110.000
12.09443 130.000
12.11438 135.000
12.13432 115.000
12.15427 118.000
12.17422 124.000
12.19417 91.000
12.21411 113.000
12.23406 112.000
12.25401 119.000
12.27395 92.000
12.29390 106.000
12.31385 110.000
12.33379 114.000
12.35374 97.000
12.37369 100.000
12.39364 109.000
12.41358 115.000
12.43353 102.000
12.45348 112.000
12.47342 112.000
12.49337 144.000
12.51332 143.000
12.53326 114.000
12.55321 124.000
12.57316 122.000
12.59311 125.000
12.61305 123.000
12.63300 124.000
12.65295 125.000
12.67289 102.000
12.69284 119.000
12.71279 126.000
12.73273 120.000
12.75268 128.000
12.77263 134.000
12.79257 116.000
12.81252 124.000
12.83247 126.000
12.85242 105.000
12.87236 108.000
12.89231 133.000
12.91226 118.000
12.93220 130.000
12.95215 122.000
12.97210 104.000
12.99204 125.000
13.01199 136.000
13.03194 124.000
13.05189 119.000
13.07183 126.000
13.09178 127.000
13.11173 140.000
13.13167 106.000
13.15162 130.000
13.17157 126.000
13.19151 126.000
13.21146 119.000
13.23141 112.000
13.25135 143.000
13.27130 113.000
13.29125 130.000
13.31120 131.000
13.33114 124.000
13.35109 112.000
13.37104 129.000
13.39098 110.000
13.41093 107.000
13.43088 101.000
13.45082 122.000
13.47077 132.000
13.49072 147.000
13.51067 109.000
13.53061 128.000
13.55056 136.000
13.57051 111.000
13.59045 115.000
13.61040 101.000
13.63035 131.000
13.65029 128.000
13.67024 126.000
13.69019 137.000
13.71013 130.000
13.73008 147.000
13.75003 131.000
13.76998 128.000
13.78992 109.000
13.80987 123.000
13.82982 134.000
13.84976 144.000
13.86971 112.000
13.88966 135.000
13.90960 108.000
13.92955 126.000
13.94950 134.000
13.96945 145.000
13.98939 124.000
14.00934 148.000
14.02929 124.000
14.04923 124.000
14.06918 136.000
14.08913 119.000
14.10907 137.000
14.12902 160.000
14.14897 114.000
14.16892 143.000
14.18886 154.000
14.20881 120.000
14.22876 144.000
14.24870 134.000
14.26865 127.000
14.28860 134.000
14.30854 159.000
14.32849 141.000
14.34844 142.000
14.36838 154.000
14.38833 161.000
14.40828 106.000
14.42823 122.000
14.44817 142.000
14.46812 147.000
14.48807 133.000
14.50801 126.000
14.52796 134.000
14.54791 147.000
14.56785 119.000
14.58780 128.000
14.60775 147.000
14.62770 143.000
14.64764 128.000
14.66759 150.000
14.68754 141.000
14.70748 151.000
14.72743 122.000
14.74738 147.000
14.76732 129.000
14.78727 138.000
14.80722 151.000
14.82716 111.000
14.84711 147.000
14.86706 158.000
14.88701 135.000
14.90695 144.000
14.92690 165.000
14.94685 157.000
14.96679 151.000
14.98674 135.000
15.00669 161.000
15.02663 142.000
15.04658 149.000
15.06653 147.000
15.08648 164.000
15.10642 155.000
15.12637 164.000
15.14632 161.000
15.16626 164.000
15.18621 157.000
15.20616 145.000
15.22610 148.000
15.24605 156.000
15.26600 152.000
15.28594 166.000
15.30589 167.000
15.32584 152.000
15.34579 162.000
15.36573 165.000
15.38568 163.000
15.40563 144.000
15.42557 170.000
15.44552 166.000
15.46547 182.000
15.48541 159.000
15.50536 162.000
15.52531 169.000
15.54526 157.000
15.56520 156.000
15.58515 150.000
15.60510 132.000
15.62504 173.000
15.64499 151.000
15.66494 167.000
15.68488 173.000
15.70483 155.000
15.72478 194.000
15.74472 163.000
15.76467 150.000
15.78462 180.000
15.80457 175.000
15.82451 165.000
15.84446 168.000
15.86441 153.000
15.88435 160.000
15.90430 186.000
15.92425 172.000
15.94419 153.000
15.96414 182.000
15.98409 168.000
16.00404 163.000
16.02398 164.000
16.04393 179.000
16.06388 174.000
16.08382 170.000
16.10377 215.000
16.12372 189.000
16.14366 187.000
16.16361 201.000
16.18356 177.000
16.20351 196.000
16.22345 173.000
16.24340 181.000
16.26335 187.000
16.28329 202.000
16.30324 201.000
16.32319 181.000
16.34313 176.000
16.36308 190.000
16.38303 174.000
16.40297 195.000
16.42292 185.000
16.44287 214.000
16.46282 186.000
16.48276 207.000
16.50271 229.000
16.52266 202.000
16.54260 192.000
16.56255 195.000
16.58250 195.000
16.60244 209.000
16.62239 205.000
16.64234 200.000
16.66229 203.000
16.68223 223.000
16.70218 220.000
16.72213 188.000
16.74207 215.000
16.76202 209.000
16.78197 214.000
16.80191 221.000
16.82186 220.000
16.84181 240.000
16.86175 215.000
16.88170 243.000
16.90165 231.000
16.92160 235.000
16.94154 228.000
16.96149 226.000
16.98144 216.000
17.00138 225.000
17.02133 222.000
17.04128 251.000
17.06122 249.000
17.08117 239.000
17.10112 269.000
17.12107 249.000
17.14101 214.000
17.16096 244.000
17.18091 230.000
17.20085 238.000
17.22080 255.000
17.24075 257.000
17.26069 279.000
17.28064 236.000
17.30059 228.000
17.32053 291.000
17.34048 270.000
17.36043 242.000
17.38038 266.000
17.40032 271.000
17.42027 250.000
17.44022 263.000
17.46016 253.000
17.48011 246.000
17.50006 313.000
17.52000 286.000
17.53995 284.000
17.55990 278.000
17.57985 265.000
17.59979 275.000
17.61974 252.000
17.63969 284.000
17.65963 289.000
17.67958 273.000
17.69953 299.000
17.71947 293.000
17.73942 257.000
17.75937 291.000
17.77932 288.000
17.79926 317.000
17.81921 281.000
17.83916 273.000
17.85910 292.000
17.87905 329.000
17.89900 306.000
17.91894 334.000
17.93889 297.000
17.95884 298.000
17.97878 296.000
17.99873 302.000
18.01868 282.000
18.03863 323.000
18.05857 314.000
18.07852 315.000
18.09847 308.000
18.11841 342.000
18.13836 329.000
18.15831 293.000
18.17825 306.000
18.19820 305.000
18.21815 324.000
18.23810 341.000
18.25804 294.000
18.27799 341.000
18.29794 320.000
18.31788 323.000
18.33783 321.000
18.35778 335.000
18.37772 337.000
18.39767 338.000
18.41762 391.000
18.43756 357.000
18.45751 350.000
18.47746 328.000
18.49741 355.000
18.51735 372.000
18.53730 321.000
18.55725 357.000
18.57719 339.000
18.59714 365.000
18.61709 349.000
18.63703 388.000
18.65698 377.000
18.67693 363.000
18.69688 370.000
18.71682 372.000
18.73677 345.000
18.75672 373.000
18.77666 366.000
18.79661 347.000
18.81656 363.000
18.83650 415.000
18.85645 376.000
18.87640 346.000
18.89634 362.000
18.91629 372.000
18.93624 397.000
18.95619 368.000
18.97613 379.000
18.99608 405.000
19.01603 400.000
19.03597 333.000
19.05592 386.000
19.07587 401.000
19.09581 410.000
19.11576 393.000
19.13571 371.000
19.15566 385.000
19.17560 416.000
19.19555 431.000
19.21550 415.000
19.23544 408.000
19.25539 376.000
19.27534 412.000
19.29528 436.000
19.31523 420.000
19.33518 405.000
19.35513 392.000
19.37507 401.000
19.39502 395.000
19.41497 432.000
19.43491 420.000
19.45486 390.000
19.47481 419.000
19.49475 416.000
19.51470 467.000
19.53465 401.000
19.55459 435.000
19.57454 445.000
19.59449 413.000
19.61444 425.000
19.63438 441.000
19.65433 392.000
19.67428 457.000
19.69422 400.000
19.71417 438.000
19.73412 405.000
19.75406 441.000
19.77401 464.000
19.79396 435.000
19.81391 410.000
19.83385 390.000
19.85380 445.000
19.87375 439.000
19.89369 433.000
19.91364 453.000
19.93359 423.000
19.95353 449.000
19.97348 459.000
19.99343 457.000
20.01337 441.000
20.03332 438.000
20.05327 428.000
20.07322 481.000
20.09316 477.000
20.11311 450.000
20.13306 480.000
20.15300 500.000
20.17295 434.000
20.19290 436.000
20.21284 459.000
20.23279 472.000
20.25274 487.000
20.27269 499.000
20.29263 459.000
20.31258 461.000
20.33253 474.000
20.35247 436.000
20.37242 495.000
20.39237 455.000
20.41231 451.000
20.43226 495.000
20.45221 462.000
20.47215 501.000
20.49210 452.000
20.51205 493.000
20.53200 509.000
20.55194 484.000
20.57189 501.000
20.59184 467.000
20.61178 459.000
20.63173 498.000
20.65168 462.000
20.67162 505.000
20.69157 531.000
20.71152 475.000
20.73147 523.000
20.75141 514.000
20.77136 473.000
20.79131 506.000
20.81125 502.000
20.83120 492.000
20.85115 493.000
20.87109 536.000
20.89104 501.000
20.91099 482.000
20.93094 489.000
20.95088 467.000
20.97083 460.000
20.99078 479.000
21.01072 506.000
21.03067 547.000
21.05062 503.000
21.07056 514.000
21.09051 525.000
21.11046 489.000
21.13040 546.000
21.15035 459.000
21.17030 505.000
21.19025 484.000
21.21019 524.000
21.23014 531.000
21.25009 535.000
21.27003 498.000
21.28998 529.000
21.30993 497.000
21.32987 535.000
21.34982 536.000
21.36977 512.000
21.38972 498.000
21.40966 504.000
21.42961 561.000
21.44956 548.000
21.46950 556.000
21.48945 545.000
21.50940 498.000
21.52934 514.000
21.54929 545.000
21.56924 564.000
21.58918 551.000
21.60913 543.000
21.62908 557.000
21.64903 501.000
21.66897 537.000
21.68892 566.000
21.70887 531.000
21.72881 560.000
21.74876 542.000
21.76871 539.000
21.78865 533.000
21.80860 550.000
21.82855 525.000
21.84850 523.000
21.86844 566.000
21.88839 539.000
21.90834 525.000
21.92828 569.000
21.94823 590.000
21.96818 538.000
21.98812 517.000
22.00807 537.000
22.02802 602.000
22.04796 527.000
22.06791 569.000
22.08786 549.000
22.10781 599.000
22.12775 555.000
22.14770 585.000
22.16765 557.000
22.18759 546.000
22.20754 564.000
22.22749 592.000
22.24743 554.000
22.26738 594.000
22.28733 559.000
22.30728 582.000
22.32722 540.000
22.34717 574.000
22.36712 590.000
22.38706 592.000
22.40701 589.000
22.42696 523.000
22.44690 553.000
22.46685 562.000
22.48680 574.000
22.50675 592.000
22.52669 593.000
22.54664 572.000
22.56659 589.000
22.58653 625.000
22.60648 566.000
22.62643 564.000
22.64637 605.000
22.66632 609.000
22.68627 572.000
22.70621 617.000
22.72616 577.000
22.74611 599.000
22.76606 616.000
22.78600 587.000
22.80595 607.000
22.82590 611.000
22.84584 611.000
22.86579 552.000
22.88574 624.000
22.90568 562.000
22.92563 629.000
22.94558 584.000
22.96553 625.000
22.98547 595.000
23.00542 626.000
23.02537 575.000
23.04531 609.000
23.06526 597.000
23.08521 605.000
23.10515 621.000
23.12510 645.000
23.14505 602.000
23.16499 595.000
23.18494 605.000
23.20489 627.000
23.22484 666.000
23.24478 606.000
23.26473 626.000
23.28468 580.000
23.30462 656.000
23.32457 610.000
23.34452 617.000
23.36446 671.000
23.38441 615.000
23.40436 641.000
23.42431 630.000
23.44425 595.000
23.46420 681.000
23.48415 645.000
23.50409 652.000
23.52404 648.000
23.54399 639.000
23.56393 660.000
23.58388 644.000
23.60383 612.000
23.62377 663.000
23.64372 655.000
23.66367 621.000
23.68362 678.000
23.70356 646.000
23.72351 666.000
23.74346 656.000
23.76340 672.000
23.78335 671.000
23.80330 682.000
23.82324 666.000
23.84319 648.000
23.86314 662.000
23.88309 686.000
23.90303 674.000
23.92298 677.000
23.94293 647.000
23.96287 694.000
23.98282 703.000
24.00277 721.000
24.02271 666.000
24.04266 683.000
24.06261 727.000
24.08256 711.000
24.10250 693.000
24.12245 706.000
24.14240 693.000
24.16234 708.000
24.18229 650.000
24.20224 740.000
24.22218 672.000
24.24213 720.000
24.26208 721.000
24.28202 727.000
24.30197 704.000
24.32192 747.000
24.34187 742.000
24.36181 699.000
24.38176 669.000
24.40171 732.000
24.42165 694.000
24.44160 763.000
24.46155 725.000
24.48149 767.000
24.50144 747.000
24.52139 725.000
24.54134 763.000
24.56128 719.000
24.58123 750.000
24.60118 774.000
24.62112 764.000
24.64107 713.000
24.66102 753.000
24.68096 745.000
24.70091 751.000
24.72086 796.000
24.74080 804.000
24.76075 687.000
24.78070 721.000
24.80065 814.000
24.82059 752.000
24.84054 797.000
24.86049 787.000
24.88043 745.000
24.90038 789.000
24.92033 812.000
24.94027 761.000
24.96022 736.000
24.98017 771.000
25.00012 778.000
25.02006 761.000
25.04001 813.000
25.05996 800.000
25.07990 753.000
25.09985 818.000
25.11980 832.000
25.13974 791.000
25.15969 774.000
25.17964 796.000
25.19958 779.000
25.21953 801.000
25.23948 759.000
25.25943 802.000
25.27937 790.000
25.29932 765.000
25.31927 851.000
25.33921 832.000
25.35916 824.000
25.37911 842.000
25.39905 805.000
25.41900 862.000
25.43895 865.000
25.45890 825.000
25.47884 801.000
25.49879 858.000
25.51874 848.000
25.53868 847.000
25.55863 877.000
25.57858 894.000
25.59852 906.000
25.61847 853.000
25.63842 825.000
25.65837 840.000
25.67831 872.000
25.69826 901.000
25.71821 873.000
25.73815 857.000
25.75810 870.000
25.77805 873.000
25.79799 917.000
25.81794 882.000
25.83789 847.000
25.85783 907.000
25.87778 891.000
25.89773 889.000
25.91768 897.000
25.93762 946.000
25.95757 857.000
25.97752 905.000
25.99746 931.000
26.01741 948.000
26.03736 908.000
26.05730 909.000
26.07725 899.000
26.09720 935.000
26.11715 913.000
26.13709 895.000
26.15704 906.000
26.17699 933.000
26.19693 951.000
26.21688 911.000
26.23683 990.000
26.25677 962.000
26.27672 973.000
26.29667 955.000
26.31661 1007.000
26.33656 935.000
26.35651 993.000
26.37646 948.000
26.39640 994.000
26.41635 967.000
26.43630 1033.000
26.45624 936.000
26.47619 1009.000
26.49614 996.000
26.51608 1000.000
26.53603 999.000
26.55598 968.000
26.57593 1016.000
26.59587 977.000
26.61582 1020.000
26.63577 1013.000
26.65571 1032.000
26.67566 956.000
26.69561 1061.000
26.71555 971.000
26.73550 1027.000
26.75545 993.000
26.77539 976.000
26.79534 979.000
26.81529 1024.000
26.83524 981.000
26.85518 1037.000
26.87513 1015.000
26.89508 1044.000
26.91502 1047.000
26.93497 1048.000
26.95492 1100.000
26.97486 1045.000
26.99481 1080.000
27.01476 1041.000
27.03471 1072.000
27.05465 1091.000
27.07460 1099.000
27.09455 1063.000
27.11449 1051.000
27.13444 1132.000
27.15439 1117.000
27.17433 1067.000
27.19428 1004.000
27.21423 1092.000
27.23417 1111.000
27.25412 1064.000
27.27407 1086.000
27.29402 1064.000
27.31396 1109.000
27.33391 1105.000
27.35386 1105.000
27.37380 1128.000
27.39375 1095.000
27.41370 1153.000
27.43364 1105.000
27.45359 1116.000
27.47354 1140.000
27.49349 1180.000
27.51343 1167.000
27.53338 1190.000
27.55333 1190.000
27.57327 1133.000
27.59322 1150.000
27.61317 1159.000
27.63311 1099.000
27.65306 1214.000
27.67301 1162.000
27.69296 1198.000
27.71290 1075.000
27.73285 1163.000
27.75280 1136.000
27.77274 1142.000
27.79269 1175.000
27.81264 1139.000
27.83258 1134.000
27.85253 1181.000
27.87248 1153.000
27.89242 1194.000
27.91237 1168.000
27.93232 1166.000
27.95227 1228.000
27.97221 1191.000
27.99216 1168.000
28.01211 1135.000
28.03205 1131.000
28.05200 1163.000
28.07195 1178.000
28.09189 1189.000
28.11184 1235.000
28.13179 1242.000
28.15174 1241.000
28.17168 1165.000
28.19163 1217.000
28.21158 1205.000
28.23152 1211.000
28.25147 1183.000
28.27142 1222.000
28.29136 1193.000
28.31131 1216.000
28.33126 1147.000
28.35120 1254.000
28.37115 1250.000
28.39110 1185.000
28.41105 1185.000
28.43099 1247.000
28.45094 1177.000
28.47089 1154.000
28.49083 1226.000
28.51078 1310.000
28.53073 1197.000
28.55067 1262.000
28.57062 1236.000
28.59057 1195.000
28.61052 1232.000
28.63046 1244.000
28.65041 1236.000
28.67036 1233.000
28.69030 1166.000
28.71025 1209.000
28.73020 1229.000
28.75014 1176.000
28.77009 1224.000
28.79004 1200.000
28.80998 1194.000
28.82993 1266.000
28.84988 1227.000
28.86983 1282.000
28.88977 1293.000
28.90972 1256.000
28.92967 1232.000
28.94961 1324.000
28.96956 1297.000
28.98951 1285.000
29.00945 1264.000
29.02940 1296.000
29.04935 1194.000
29.06930 1273.000
29.08924 1238.000
29.10919 1330.000
29.12914 1263.000
29.14908 1252.000
29.16903 1309.000
29.18898 1290.000
29.20892 1261.000
29.22887 1260.000
29.24882 1237.000
29.26877 1202.000
29.28871 1240.000
29.30866 1214.000
29.32861 1280.000
29.34855 1263.000
29.36850 1250.000
29.38845 1266.000
29.40839 1228.000
29.42834 1304.000
29.44829 1248.000
29.46823 1249.000
29.48818 1281.000
29.50813 1260.000
29.52808 1277.000
29.54802 1326.000
29.56797 1263.000
29.58792 1248.000
29.60786 1246.000
29.62781 1299.000
29.64776 1270.000
29.66770 1233.000
29.68765 1283.000
29.70760 1283.000
29.72755 1256.000
29.74749 1271.000
29.76744 1258.000
29.78739 1293.000
29.80733 1261.000
29.82728 1239.000
29.84723 1245.000
29.86717 1262.000
29.88712 1286.000
29.90707 1234.000
29.92701 1294.000
29.94696 1219.000
29.96691 1287.000
29.98686 1303.000
30.00680 1155.000
30.02675 1294.000
30.04670 1184.000
30.06664 1230.000
30.08659 1216.000
30.10654 1346.000
30.12648 1248.000
30.14643 1274.000
30.16638 1215.000
30.18633 1224.000
30.20627 1236.000
30.22622 1223.000
30.24617 1308.000
30.26611 1202.000
30.28606 1228.000
30.30601 1272.000
30.32595 1217.000
30.34590 1213.000
30.36585 1238.000
30.38579 1285.000
30.40574 1223.000
30.42569 1251.000
30.44564 1196.000
30.46558 1269.000
30.48553 1175.000
30.50548 1177.000
30.52542 1320.000
30.54537 1239.000
30.56532 1242.000
30.58526 1202.000
30.60521 1238.000
30.62516 1222.000
30.64511 1226.000
30.66505 1217.000
30.68500 1253.000
30.70495 1186.000
30.72489 1205.000
30.74484 1259.000
30.76479 1181.000
30.78473 1180.000
30.80468 1264.000
30.82463 1258.000
30.84458 1197.000
30.86452 1243.000
30.88447 1232.000
30.90442 1182.000
30.92436 1214.000
30.94431 1190.000
30.96426 1205.000
30.98420 1213.000
31.00415 1208.000
31.02410 1166.000
31.04404 1178.000
31.06399 1209.000
31.08394 1182.000
31.10389 1230.000
31.12383 1228.000
31.14378 1188.000
31.16373 1256.000
31.18367 1175.000
31.20362 1164.000
31.22357 1203.000
31.24351 1204.000
31.26346 1207.000
31.28341 1165.000
31.30336 1215.000
31.32330 1140.000
31.34325 1189.000
31.36320 1206.000
31.38314 1156.000
31.40309 1178.000
31.42304 1199.000
31.44298 1179.000
31.46293 1159.000
31.48288 1134.000
31.50282 1130.000
31.52277 1239.000
31.54272 1127.000
31.56267 1146.000
31.58261 1149.000
31.60256 1155.000
31.62251 1139.000
31.64245 1123.000
31.66240 1177.000
31.68235 1126.000
31.70229 1159.000
31.72224 1199.000
31.74219 1171.000
31.76214 1137.000
31.78208 1094.000
31.80203 1121.000
31.82198 1205.000
31.84192 1106.000
31.86187 1194.000
31.88182 1143.000
31.90176 1156.000
31.92171 1127.000
31.94166 1121.000
31.96160 1101.000
31.98155 1178.000
32.00150 1195.000
32.02145 1114.000
32.04139 1110.000
32.06134 1082.000
32.08129 1054.000
32.10123 1127.000
32.12118 1165.000
32.14113 1112.000
32.16107 1132.000
32.18102 1075.000
32.20097 1120.000
32.22092 1089.000
32.24086 1097.000
32.26081 1160.000
32.28076 1125.000
32.30070 1145.000
32.32065 1128.000
32.34060 1152.000
32.36054 1052.000
32.38049 1093.000
32.40044 1104.000
32.42039 1009.000
32.44033 1041.000
32.46028 1056.000
32.48023 1095.000
32.50017 1017.000
32.52012 1162.000
32.54007 1121.000
32.56001 1029.000
32.57996 1031.000
32.59991 1007.000
32.61985 1125.000
32.63980 1102.000
32.65975 1060.000
32.67970 1042.000
32.69964 1089.000
32.71959 961.000
32.73954 1039.000
32.75948 1008.000
32.77943 1037.000
32.79938 1068.000
32.81932 1064.000
32.83927 1072.000
32.85922 1059.000
32.87917 1036.000
32.89911 1005.000
32.91906 1049.000
32.93901 1053.000
32.95895 1023.000
32.97890 1012.000
32.99885 1002.000
33.01879 1026.000
33.03874 1057.000
33.05869 984.000
33.07863 1002.000
33.09858 1031.000
33.11853 975.000
33.13848 1043.000
33.15842 990.000
33.17837 1009.000
33.19832 1024.000
33.21826 1002.000
33.23821 1066.000
33.25816 996.000
33.27810 983.000
33.29805 980.000
33.31800 1019.000
33.33795 1019.000
33.35789 976.000
33.37784 972.000
33.39779 1021.000
33.41773 1010.000
33.43768 1028.000
33.45763 1023.000
33.47757 999.000
33.49752 965.000
33.51747 963.000
33.53741 957.000
33.55736 973.000
33.57731 1018.000
33.59726 955.000
33.61720 955.000
33.63715 947.000
33.65710 1000.000
33.67704 952.000
33.69699 960.000
33.71694 914.000
33.73688 969.000
33.75683 920.000
33.77678 970.000
33.79673 980.000
33.81667 931.000
33.83662 931.000
33.85657 923.000
33.87651 967.000
33.89646 901.000
33.91641 936.000
33.93635 921.000
33.95630 915.000
33.97625 945.000
33.99620 939.000
34.01614 929.000
34.03609 895.000
34.05604 920.000
34.07598 888.000
34.09593 914.000
34.11588 931.000
34.13582 967.000
34.15577 907.000
34.17572 891.000
34.19566 946.000
34.21561 918.000
34.23556 921.000
34.25551 927.000
34.27545 933.000
34.29540 906.000
34.31535 913.000
34.33529 928.000
34.35524 906.000
34.37519 887.000
34.39513 961.000
34.41508 884.000
34.43503 910.000
34.45498 884.000
34.47492 887.000
34.49487 890.000
34.51482 938.000
34.53476 874.000
34.55471 884.000
34.57466 913.000
34.59460 825.000
34.61455 883.000
34.63450 871.000
34.65444 910.000
34.67439 885.000
34.69434 933.000
34.71429 846.000
34.73423 911.000
34.75418 922.000
34.77413 882.000
34.79407 877.000
34.81402 922.000
34.83397 946.000
34.85391 930.000
34.87386 949.000
34.89381 911.000
34.91376 900.000
34.93370 923.000
34.95365 948.000
34.97360 938.000
34.99354 1002.000
35.01349 966.000
35.03344 985.000
35.05338 979.000
35.07333 925.000
35.09328 927.000
35.11322 916.000
35.13317 942.000
35.15312 912.000
35.17307 884.000
35.19301 868.000
35.21296 883.000
35.23291 855.000
35.25285 871.000
35.27280 854.000
35.29275 845.000
35.31269 867.000
35.33264 799.000
35.35259 810.000
35.37254 831.000
35.39248 845.000
35.41243 807.000
35.43238 790.000
35.45232 790.000
35.47227 841.000
35.49222 811.000
35.51216 864.000
35.53211 809.000
35.55206 821.000
35.57201 825.000
35.59195 798.000
35.61190 787.000
35.63185 801.000
35.65179 801.000
35.67174 764.000
35.69169 825.000
35.71163 809.000
35.73158 762.000
35.75153 796.000
35.77147 807.000
35.79142 803.000
35.81137 778.000
35.83132 735.000
35.85126 806.000
35.87121 800.000
35.89116 798.000
35.91110 782.000
35.93105 776.000
35.95100 799.000
35.97094 777.000
35.99089 765.000
36.01084 747.000
36.03079 788.000
36.05073 750.000
36.07068 810.000
36.09063 788.000
36.11057 781.000
36.13052 759.000
36.15047 743.000
36.17041 820.000
36.19036 756.000
36.21031 775.000
36.23025 826.000
36.25020 831.000
36.27015 777.000
36.29010 818.000
36.31004 817.000
36.32999 853.000
36.34994 888.000
36.36988 878.000
36.38983 821.000
36.40978 851.000
36.42972 831.000
36.44967 883.000
36.46962 913.000
36.48957 847.000
36.50951 937.000
36.52946 1007.000
36.54941 993.000
36.56935 988.000
36.58930 904.000
36.60925 961.000
36.62919 1008.000
36.64914 1007.000
36.66909 916.000
36.68903 965.000
36.70898 946.000
36.72893 880.000
36.74888 866.000
36.76882 818.000
36.78877 822.000
36.80872 763.000
36.82866 817.000
36.84861 773.000
36.86856 730.000
36.88850 774.000
36.90845 787.000
36.92840 723.000
36.94835 724.000
36.96829 743.000
36.98824 761.000
37.00819 801.000
37.02813 743.000
37.04808 784.000
37.06803 719.000
37.08797 754.000
37.10792 755.000
37.12787 764.000
37.14781 744.000
37.16776 791.000
37.18771 711.000
37.20766 768.000
37.22760 749.000
37.24755 751.000
37.26750 764.000
37.28744 727.000
37.30739 696.000
37.32734 720.000
37.34728 773.000
37.36723 732.000
37.38718 797.000
37.40713 760.000
37.42707 720.000
37.44702 682.000
37.46697 772.000
37.48691 725.000
37.50686 766.000
37.52681 758.000
37.54675 769.000
37.56670 759.000
37.58665 719.000
37.60660 777.000
37.62654 704.000
37.64649 744.000
37.66644 716.000
37.68638 746.000
37.70633 761.000
37.72628 759.000
37.74622 809.000
37.76617 725.000
37.78612 761.000
37.80606 732.000
37.82601 774.000
37.84596 799.000
37.86591 798.000
37.88585 754.000
37.90580 805.000
37.92575 789.000
37.94569 777.000
37.96564 783.000
37.98559 757.000
38.00553 799.000
38.02548 825.000
38.04543 841.000
38.06538 835.000
38.08532 838.000
38.10527 861.000
38.12522 806.000
38.14516 819.000
38.16511 862.000
38.18506 899.000
38.20500 946.000
38.22495 865.000
38.24490 952.000
38.26484 827.000
38.28479 840.000
38.30474 837.000
38.32469 862.000
38.34463 822.000
38.36458 812.000
38.38453 770.000
38.40447 837.000
38.42442 824.000
38.44437 772.000
38.46431 789.000
38.48426 783.000
38.50421 775.000
38.52416 721.000
38.54410 801.000
38.56405 730.000
38.58400 727.000
38.60394 754.000
38.62389 792.000
38.64384 754.000
38.66378 743.000
38.68373 699.000
38.70368 792.000
38.72362 799.000
38.74357 764.000
38.76352 735.000
38.78347 772.000
38.80341 775.000
38.82336 716.000
38.84331 801.000
38.86325 769.000
38.88320 710.000
38.90315 736.000
38.92309 727.000
38.94304 747.000
38.96299 694.000
38.98294 732.000
39.00288 735.000
39.02283 725.000
39.04278 739.000
39.06272 730.000
39.08267 726.000
39.10262 770.000
39.12256 746.000
39.14251 772.000
39.16246 714.000
39.18241 705.000
39.20235 747.000
39.22230 721.000
39.24225 740.000
39.26219 702.000
39.28214 767.000
39.30209 734.000
39.32203 691.000
39.34198 760.000
39.36193 718.000
39.38187 729.000
39.40182 735.000
39.42177 695.000
39.44172 727.000
39.46166 756.000
39.48161 805.000
39.50156 703.000
39.52150 750.000
39.54145 737.000
39.56140 793.000
39.58134 737.000
39.60129 759.000
39.62124 788.000
39.64119 728.000
39.66113 742.000
39.68108 757.000
39.70103 716.000
39.72097 766.000
39.74092 702.000
39.76087 768.000
39.78081 787.000
39.80076 741.000
39.82071 742.000
39.84065 755.000
39.86060 697.000
39.88055 710.000
39.90050 750.000
39.92044 753.000
39.94039 754.000
39.96034 721.000
39.98028 708.000
40.00023 743.000
40.02018 748.000
40.04012 774.000
40.06007 733.000
40.08002 732.000
40.09997 751.000
40.11991 760.000
40.13986 728.000
40.15981 724.000
40.17975 726.000
40.19970 729.000
40.21965 773.000
40.23959 706.000
40.25954 696.000
40.27949 702.000
40.29943 727.000
40.31938 722.000
40.33933 731.000
40.35928 793.000
40.37922 714.000
40.39917 775.000
40.41912 769.000
40.43906 730.000
40.45901 758.000
40.47896 736.000
40.49890 765.000
40.51885 723.000
40.53880 713.000
40.55875 686.000
40.57869 770.000
40.59864 699.000
40.61859 723.000
40.63853 737.000
40.65848 775.000
40.67843 765.000
40.69837 730.000
40.71832 695.000
40.73827 756.000
40.75822 718.000
40.77816 727.000
40.79811 794.000
40.81806 708.000
40.83800 752.000
40.85795 712.000
40.87790 721.000
40.89784 731.000
40.91779 759.000
40.93774 708.000
40.95768 733.000
40.97763 757.000
40.99758 800.000
41.01753 745.000
41.03747 720.000
41.05742 694.000
41.07737 798.000
41.09731 747.000
41.11726 803.000
41.13721 735.000
41.15715 706.000
41.17710 742.000
41.19705 800.000
41.21700 752.000
41.23694 715.000
41.25689 744.000
41.27684 734.000
41.29678 703.000
41.31673 774.000
41.33668 788.000
41.35662 685.000
41.37657 750.000
41.39652 736.000
41.41646 726.000
41.43641 707.000
41.45636 737.000
41.47631 768.000
41.49625 715.000
41.51620 694.000
41.53615 699.000
41.55609 723.000
41.57604 765.000
41.59599 729.000
41.61593 752.000
41.63588 711.000
41.65583 769.000
41.67578 752.000
41.69572 744.000
41.71567 773.000
41.73562 752.000
41.75556 778.000
41.77551 743.000
41.79546 745.000
41.81540 786.000
41.83535 751.000
41.85530 706.000
41.87524 747.000
41.89519 786.000
41.91514 751.000
41.93509 744.000
41.95503 718.000
41.97498 748.000
41.99493 767.000
42.01487 722.000
42.03482 760.000
42.05477 736.000
42.07471 778.000
42.09466 743.000
42.11461 795.000
42.13456 798.000
42.15450 807.000
42.17445 858.000
42.19440 754.000
42.21434 785.000
42.23429 861.000
42.25424 830.000
42.27418 860.000
42.29413 861.000
42.31408 868.000
42.33403 846.000
42.35397 943.000
42.37392 912.000
42.39387 914.000
42.41381 896.000
42.43376 923.000
42.45371 940.000
42.47365 929.000
42.49360 949.000
42.51355 928.000
42.53349 983.000
42.55344 990.000
42.57339 1015.000
42.59334 951.000
42.61328 1019.000
42.63323 1022.000
42.65318 1000.000
42.67312 1028.000
42.69307 963.000
42.71302 1014.000
42.73296 940.000
42.75291 947.000
42.77286 921.000
42.79281 927.000
42.81275 915.000
42.83270 873.000
42.85265 943.000
42.87259 865.000
42.89254 851.000
42.91249 820.000
42.93243 807.000
42.95238 822.000
42.97233 759.000
42.99227 796.000
43.01222 770.000
43.03217 776.000
43.05212 726.000
43.07206 775.000
43.09201 696.000
43.11196 737.000
43.13190 749.000
43.15185 729.000
43.17180 671.000
43.19174 699.000
43.21169 736.000
43.23164 698.000
43.25159 676.000
43.27153 693.000
43.29148 665.000
43.31143 688.000
43.33137 695.000
43.35132 672.000
43.37127 681.000
43.39121 696.000
43.41116 670.000
43.43111 702.000
43.45105 669.000
43.47100 665.000
43.49095 710.000
43.51090 656.000
43.53084 620.000
43.55079 711.000
43.57074 696.000
43.59068 684.000
43.61063 677.000
43.63058 645.000
43.65052 629.000
43.67047 656.000
43.69042 689.000
43.71037 628.000
43.73031 682.000
43.75026 651.000
43.77021 628.000
43.79015 643.000
43.81010 654.000
43.83005 588.000
43.84999 663.000
43.86994 650.000
43.88989 631.000
43.90984 667.000
43.92978 669.000
43.94973 633.000
43.96968 611.000
43.98962 659.000
44.00957 666.000
44.02952 638.000
44.04946 628.000
44.06941 676.000
44.08936 596.000
44.10930 640.000
44.12925 687.000
44.14920 672.000
44.16915 598.000
44.18909 636.000
44.20904 605.000
44.22899 641.000
44.24893 659.000
44.26888 614.000
44.28883 673.000
44.30877 663.000
44.32872 663.000
44.34867 640.000
44.36862 628.000
44.38856 632.000
44.40851 621.000
44.42846 638.000
44.44840 654.000
44.46835 619.000
44.48830 647.000
44.50824 630.000
44.52819 680.000
44.54814 644.000
44.56808 612.000
44.58803 630.000
44.60798 643.000
44.62793 587.000
44.64787 612.000
44.66782 621.000
44.68777 596.000
44.70771 586.000
44.72766 632.000
44.74761 644.000
44.76755 598.000
44.78750 577.000
44.80745 601.000
44.82740 606.000
44.84734 591.000
44.86729 598.000
44.88724 608.000
44.90718 593.000
44.92713 627.000
44.94708 579.000
44.96702 585.000
44.98697 574.000
45.00692 624.000
45.02686 576.000
45.04681 642.000
45.06676 610.000
45.08671 576.000
45.10665 567.000
45.12660 620.000
45.14655 604.000
45.16649 612.000
45.18644 629.000
45.20639 600.000
45.22633 573.000
45.24628 573.000
45.26623 594.000
45.28618 582.000
45.30612 560.000
45.32607 599.000
45.34602 566.000
45.36596 580.000
45.38591 547.000
45.40586 561.000
45.42580 559.000
45.44575 595.000
45.46570 598.000
45.48565 599.000
45.50559 537.000
45.52554 605.000
45.54549 523.000
45.56543 591.000
45.58538 507.000
45.60533 560.000
45.62527 534.000
45.64522 584.000
45.66517 563.000
45.68511 560.000
45.70506 558.000
45.72501 550.000
45.74496 555.000
45.76490 580.000
45.78485 553.000
45.80480 586.000
45.82474 555.000
45.84469 547.000
45.86464 562.000
45.88458 568.000
45.90453 563.000
45.92448 529.000
45.94443 555.000
45.96437 517.000
45.98432 546.000
46.00427 537.000
46.02421 546.000
46.04416 560.000
46.06411 568.000
46.08405 535.000
46.10400 579.000
46.12395 497.000
46.14389 545.000
46.16384 537.000
46.18379 570.000
46.20374 558.000
46.22368 539.000
46.24363 547.000
46.26358 530.000
46.28352 546.000
46.30347 541.000
46.32342 549.000
46.34336 517.000
46.36331 546.000
46.38326 562.000
46.40321 496.000
46.42315 543.000
46.44310 544.000
46.46305 503.000
46.48299 518.000
46.50294 535.000
46.52289 560.000
46.54283 479.000
46.56278 484.000
46.58273 516.000
46.60267 483.000
46.62262 539.000
46.64257 520.000
46.66252 542.000
46.68246 543.000
46.70241 527.000
46.72236 492.000
46.74230 509.000
46.76225 533.000
46.78220 486.000
46.80214 549.000
46.82209 489.000
46.84204 486.000
46.86199 494.000
46.88193 520.000
46.90188 511.000
46.92183 507.000
46.94177 504.000
46.96172 538.000
46.98167 570.000
47.00161 521.000
47.02156 524.000
47.04151 522.000
47.06146 507.000
47.08140 513.000
47.10135 514.000
47.12130 523.000
47.14124 522.000
47.16119 512.000
47.18114 488.000
47.20108 518.000
47.22103 520.000
47.24098 520.000
47.26092 485.000
47.28087 532.000
47.30082 498.000
47.32077 493.000
47.34071 456.000
47.36066 505.000
47.38061 510.000
47.40055 495.000
47.42050 505.000
47.44045 504.000
47.46039 485.000
47.48034 501.000
47.50029 489.000
47.52024 476.000
47.54018 498.000
47.56013 509.000
47.58008 464.000
47.60002 499.000
47.61997 519.000
47.63992 495.000
47.65986 513.000
47.67981 520.000
47.69976 458.000
47.71970 522.000
47.73965 496.000
47.75960 487.000
47.77955 458.000
47.79949 511.000
47.81944 509.000
47.83939 487.000
47.85933 488.000
47.87928 500.000
47.89923 478.000
47.91917 483.000
47.93912 495.000
47.95907 469.000
47.97902 518.000
47.99896 514.000
48.01891 497.000
48.03886 508.000
48.05880 526.000
48.07875 485.000
48.09870 510.000
48.11864 529.000
48.13859 502.000
48.15854 496.000
48.17848 520.000
48.19843 512.000
48.21838 552.000
48.23833 529.000
48.25827 535.000
48.27822 516.000
48.29817 533.000
48.31811 580.000
48.33806 511.000
48.35801 551.000
48.37795 515.000
48.39790 529.000
48.41785 527.000
48.43780 552.000
48.45774 553.000
48.47769 500.000
48.49764 504.000
48.51758 512.000
48.53753 532.000
48.55748 514.000
48.57742 490.000
48.59737 496.000
48.61732 500.000
48.63726 505.000
48.65721 443.000
48.67716 533.000
48.69711 488.000
48.71705 522.000
48.73700 475.000
48.75695 506.000
48.77689 514.000
48.79684 461.000
48.81679 485.000
48.83673 479.000
48.85668 530.000
48.87663 451.000
48.89658 418.000
48.91652 462.000
48.93647 498.000
48.95642 478.000
48.97636 483.000
48.99631 443.000
49.01626 496.000
49.03620 479.000
49.05615 489.000
49.07610 458.000
49.09605 455.000
49.11599 480.000
49.13594 459.000
49.15589 470.000
49.17583 467.000
49.19578 429.000
49.21573 521.000
49.23567 441.000
49.25562 436.000
49.27557 469.000
49.29551 467.000
49.31546 449.000
49.33541 493.000
49.35536 490.000
49.37530 479.000
49.39525 462.000
49.41520 466.000
49.43514 505.000
49.45509 484.000
49.47504 470.000
49.49498 440.000
49.51493 474.000
49.53488 438.000
49.55483 462.000
49.57477 470.000
49.59472 465.000
49.61467 490.000
49.63461 475.000
49.65456 426.000
49.67451 486.000
49.69445 426.000
49.71440 484.000
49.73435 424.000
49.75429 441.000
49.77424 463.000
49.79419 433.000
49.81414 454.000
49.83408 499.000
49.85403 462.000
49.87398 456.000
49.89392 463.000
49.91387 454.000
49.93382 434.000
49.95376 446.000
49.97371 435.000
49.99366 470.000
50.01361 441.000
50.03355 406.000
50.05350 505.000
50.07345 414.000
50.09339 478.000
50.11334 455.000
50.13329 476.000
50.15323 449.000
50.17318 460.000
50.19313 484.000
50.21307 436.000
50.23302 439.000
50.25297 474.000
50.27292 462.000
50.29286 433.000
50.31281 472.000
50.33276 462.000
50.35270 486.000
50.37265 478.000
50.39260 463.000
50.41254 475.000
50.43249 487.000
50.45244 467.000
50.47239 467.000
50.49233 422.000
50.51228 463.000
50.53223 439.000
50.55217 454.000
50.57212 413.000
50.59207 446.000
50.61201 457.000
50.63196 503.000
50.65191 422.000
50.67186 460.000
50.69180 441.000
50.71175 429.000
50.73170 471.000
50.75164 453.000
50.77159 439.000
50.79154 410.000
50.81148 468.000
50.83143 451.000
50.85138 435.000
50.87132 471.000
50.89127 431.000
50.91122 463.000
50.93117 431.000
50.95111 389.000
50.97106 452.000
50.99101 455.000
51.01095 485.000
51.03090 419.000
51.05085 425.000
51.07079 428.000
51.09074 439.000
51.11069 471.000
51.13064 452.000
51.15058 449.000
51.17053 462.000
51.19048 439.000
51.21042 432.000
51.23037 420.000
51.25032 443.000
51.27026 430.000
51.29021 415.000
51.31016 431.000
51.33010 461.000
51.35005 427.000
51.37000 449.000
51.38995 422.000
51.40989 412.000
51.42984 455.000
51.44979 417.000
51.46973 442.000
51.48968 429.000
51.50963 448.000
51.52957 442.000
51.54952 498.000
51.56947 452.000
51.58942 462.000
51.60936 429.000
51.62931 433.000
51.64926 424.000
51.66920 465.000
51.68915 458.000
51.70910 432.000
51.72904 434.000
51.74899 435.000
51.76894 431.000
51.78888 436.000
51.80883 439.000
51.82878 433.000
51.84873 395.000
51.86867 415.000
51.88862 419.000
51.90857 423.000
51.92851 413.000
51.94846 397.000
51.96841 460.000
51.98835 452.000
52.00830 447.000
52.02825 405.000
52.04820 449.000
52.06814 453.000
52.08809 438.000
52.10804 414.000
52.12798 446.000
52.14793 459.000
52.16788 424.000
52.18782 402.000
52.20777 400.000
52.22772 405.000
52.24767 399.000
52.26761 436.000
52.28756 437.000
52.30751 418.000
52.32745 438.000
52.34740 455.000
52.36735 459.000
52.38729 417.000
52.40724 453.000
52.42719 421.000
52.44713 396.000
52.46708 434.000
52.48703 413.000
52.50698 441.000
52.52692 463.000
52.54687 419.000
52.56682 443.000
52.58676 391.000
52.60671 437.000
52.62666 421.000
52.64660 420.000
52.66655 422.000
52.68650 433.000
52.70645 446.000
52.72639 460.000
52.74634 427.000
52.76629 450.000
52.78623 431.000
52.80618 451.000
52.82613 423.000
52.84607 480.000
52.86602 407.000
52.88597 412.000
52.90591 408.000
52.92586 399.000
52.94581 431.000
52.96576 415.000
52.98570 444.000
53.00565 433.000
53.02560 439.000
53.04554 422.000
53.06549 439.000
53.08544 428.000
53.10538 440.000
53.12533 424.000
53.14528 450.000
53.16523 424.000
53.18517 466.000
53.20512 426.000
53.22507 412.000
53.24501 459.000
53.26496 428.000
53.28491 417.000
53.30485 440.000
53.32480 421.000
53.34475 418.000
53.36469 436.000
53.38464 410.000
53.40459 442.000
53.42454 426.000
53.44448 409.000
53.46443 424.000
53.48438 425.000
53.50432 402.000
53.52427 431.000
53.54422 414.000
53.56416 403.000
53.58411 446.000
53.60406 423.000
53.62401 370.000
53.64395 407.000
53.66390 420.000
53.68385 400.000
53.70379 414.000
53.72374 422.000
53.74369 385.000
53.76363 371.000
53.78358 422.000
53.80353 415.000
53.82348 453.000
53.84342 453.000
53.86337 418.000
53.88332 440.000
53.90326 423.000
53.92321 415.000
53.94316 392.000
53.96310 402.000
53.98305 397.000
54.00300 409.000
54.02294 370.000
54.04289 399.000
54.06284 383.000
54.08279 412.000
54.10273 402.000
54.12268 442.000
54.14263 406.000
54.16257 405.000
54.18252 389.000
54.20247 472.000
54.22241 449.000
54.24236 410.000
54.26231 402.000
54.28226 390.000
54.30220 409.000
54.32215 411.000
54.34210 428.000
54.36204 398.000
54.38199 381.000
54.40194 439.000
54.42188 369.000
54.44183 397.000
54.46178 398.000
54.48172 435.000
54.50167 401.000
54.52162 385.000
54.54157 408.000
54.56151 422.000
54.58146 427.000
54.60141 404.000
54.62135 392.000
54.64130 396.000
54.66125 425.000
54.68119 445.000
54.70114 389.000
54.72109 351.000
54.74104 388.000
54.76098 390.000
54.78093 410.000
54.80088 399.000
54.82082 395.000
54.84077 424.000
54.86072 356.000
54.88066 401.000
54.90061 400.000
54.92056 394.000
54.94050 412.000
54.96045 453.000
54.98040 366.000
55.00035 398.000
55.02029 386.000
55.04024 386.000
55.06019 401.000
55.08013 434.000
55.10008 418.000
55.12003 401.000
55.13997 349.000
55.15992 409.000
55.17987 375.000
55.19982 393.000
55.21976 451.000
55.23971 423.000
55.25966 404.000
55.27960 428.000
55.29955 383.000
55.31950 432.000
55.33944 357.000
55.35939 415.000
55.37934 377.000
55.39929 372.000
55.41923 349.000
55.43918 378.000
55.45913 384.000
55.47907 387.000
55.49902 427.000
55.51897 411.000
55.53891 383.000
55.55886 379.000
55.57881 401.000
55.59875 391.000
55.61870 376.000
55.63865 385.000
55.65860 384.000
55.67854 394.000
55.69849 369.000
55.71844 391.000
55.73838 404.000
55.75833 424.000
55.77828 424.000
55.79822 406.000
55.81817 434.000
55.83812 386.000
55.85807 376.000
55.87801 381.000
55.89796 358.000
55.91791 384.000
55.93785 365.000
55.95780 391.000
55.97775 418.000
55.99769 382.000
56.01764 412.000
56.03759 391.000
56.05753 418.000
56.07748 388.000
56.09743 411.000
56.11738 357.000
56.13732 388.000
56.15727 378.000
56.17722 393.000
56.19716 367.000
56.21711 378.000
56.23706 382.000
56.25700 374.000
56.27695 407.000
56.29690 418.000
56.31685 392.000
56.33679 390.000
56.35674 363.000
56.37669 362.000
56.39663 397.000
56.41658 403.000
56.43653 403.000
56.45647 379.000
56.47642 377.000
56.49637 374.000
56.51631 383.000
56.53626 326.000
56.55621 451.000
56.57616 334.000
56.59610 397.000
56.61605 366.000
56.63600 385.000
56.65594 388.000
56.67589 371.000
56.69584 384.000
56.71578 358.000
56.73573 393.000
56.75568 373.000
56.77563 409.000
56.79557 378.000
56.81552 422.000
56.83547 417.000
56.85541 379.000
56.87536 381.000
56.89531 387.000
56.91525 372.000
56.93520 374.000
56.95515 387.000
56.97510 396.000
56.99504 391.000
57.01499 369.000
57.03494 376.000
57.05488 389.000
57.07483 411.000
57.09478 389.000
57.11472 393.000
57.13467 391.000
57.15462 384.000
57.17456 350.000
57.19451 379.000
57.21446 393.000
57.23441 377.000
57.25435 406.000
57.27430 354.000
57.29425 405.000
57.31419 388.000
57.33414 381.000
57.35409 398.000
57.37403 396.000
57.39398 392.000
57.41393 411.000
57.43388 393.000
57.45382 423.000
57.47377 387.000
57.49372 376.000
57.51366 397.000
57.53361 412.000
57.55356 370.000
57.57350 424.000
57.59345 381.000
57.61340 367.000
57.63334 441.000
57.65329 403.000
57.67324 371.000
57.69319 399.000
57.71313 373.000
57.73308 389.000
57.75303 432.000
57.77297 385.000
57.79292 410.000
57.81287 366.000
57.83281 409.000
57.85276 419.000
57.87271 406.000
57.89266 401.000
57.91260 367.000
57.93255 415.000
57.95250 394.000
57.97244 370.000
57.99239 397.000
58.01234 383.000
58.03228 368.000
58.05223 380.000
58.07218 382.000
58.09212 369.000
58.11207 353.000
58.13202 372.000
58.15197 390.000
58.17191 357.000
58.19186 378.000
58.21181 411.000
58.23175 389.000
58.25170 411.000
58.27165 382.000
58.29159 387.000
58.31154 364.000
58.33149 360.000
58.35144 399.000
58.37138 398.000
58.39133 363.000
58.41128 355.000
58.43122 379.000
58.45117 396.000
58.47112 373.000
58.49106 346.000
58.51101 372.000
58.53096 363.000
58.55090 323.000
58.57085 395.000
58.59080 378.000
58.61075 368.000
58.63069 369.000
58.65064 377.000
58.67059 350.000
58.69053 366.000
58.71048 392.000
58.73043 359.000
58.75037 376.000
58.77032 372.000
58.79027 382.000
58.81022 364.000
58.83016 351.000
58.85011 348.000
58.87006 416.000
58.89000 347.000
58.90995 340.000
58.92990 380.000
58.94984 366.000
58.96979 322.000
58.98974 375.000
59.00969 380.000
59.02963 351.000
59.04958 412.000
59.06953 344.000
59.08947 370.000
59.10942 349.000
59.12937 390.000
59.14931 364.000
59.16926 392.000
59.18921 373.000
59.20915 362.000
59.22910 347.000
59.24905 367.000
59.26900 344.000
59.28894 356.000
59.30889 380.000
59.32884 326.000
59.34878 374.000
59.36873 380.000
59.38868 337.000
59.40862 391.000
59.42857 361.000
59.44852 381.000
59.46847 380.000
59.48841 381.000
59.50836 397.000
59.52831 346.000
59.54825 387.000
59.56820 354.000
59.58815 351.000
59.60809 356.000
59.62804 385.000
59.64799 398.000
59.66793 377.000
59.68788 371.000
59.70783 347.000
59.72778 360.000
59.74772 385.000
59.76767 348.000
59.78762 370.000
59.80756 342.000
59.82751 375.000
59.84746 391.000
59.86740 369.000
59.88735 358.000
59.90730 369.000
59.92725 375.000
59.94719 380.000
59.96714 339.000
59.98709 359.000
60.00703 370.000
60.02698 377.000
60.04693 373.000
60.06687 369.000
60.08682 312.000
60.10677 330.000
60.12671 339.000
60.14666 383.000
60.16661 368.000
60.18656 369.000
60.20650 361.000
60.22645 313.000
60.24640 387.000
60.26634 351.000
60.28629 357.000
60.30624 345.000
60.32618 388.000
60.34613 344.000
60.36608 387.000
60.38603 349.000
60.40597 375.000
60.42592 355.000
60.44587 348.000
60.46581 369.000
60.48576 360.000
60.50571 400.000
60.52565 376.000
60.54560 350.000
60.56555 335.000
60.58550 367.000
60.60544 352.000
60.62539 387.000
60.64534 377.000
60.66528 388.000
60.68523 344.000
60.70518 371.000
60.72512 368.000
60.74507 401.000
60.76502 360.000
60.78496 378.000
60.80491 351.000
60.82486 409.000
60.84481 392.000
60.86475 393.000
60.88470 392.000
60.90465 353.000
60.92459 384.000
60.94454 391.000
60.96449 383.000
60.98443 410.000
61.00438 420.000
61.02433 387.000
61.04428 366.000
61.06422 397.000
61.08417 425.000
61.10412 433.000
61.12406 387.000
61.14401 391.000
61.16396 416.000
61.18390 378.000
61.20385 393.000
61.22380 398.000
61.24374 404.000
61.26369 382.000
61.28364 384.000
61.30359 399.000
61.32353 386.000
61.34348 395.000
61.36343 383.000
61.38337 383.000
61.40332 405.000
61.42327 405.000
61.44321 379.000
61.46316 415.000
61.48311 403.000
61.50306 348.000
61.52300 357.000
61.54295 388.000
61.56290 391.000
61.58284 352.000
61.60279 404.000
61.62274 421.000
61.64268 438.000
61.66263 430.000
61.68258 418.000
61.70252 464.000
61.72247 428.000
61.74242 472.000
61.76237 470.000
61.78231 475.000
61.80226 463.000
61.82221 499.000
61.84215 525.000
61.86210 492.000
61.88205 480.000
61.90199 537.000
61.92194 527.000
61.94189 558.000
61.96184 531.000
61.98178 497.000
62.00173 558.000
62.02168 538.000
62.04162 585.000
62.06157 585.000
62.08152 622.000
62.10146 614.000
62.12141 604.000
62.14136 610.000
62.16131 606.000
62.18125 569.000
62.20120 632.000
62.22115 577.000
62.24109 552.000
62.26104 558.000
62.28099 525.000
62.30093 538.000
62.32088 548.000
62.34083 498.000
62.36077 486.000
62.38072 443.000
62.40067 478.000
62.42062 474.000
62.44056 440.000
62.46051 426.000
62.48046 408.000
62.50040 411.000
62.52035 398.000
62.54030 402.000
62.56024 405.000
62.58019 422.000
62.60014 364.000
62.62009 411.000
62.64003 366.000
62.65998 400.000
62.67993 378.000
62.69987 348.000
62.71982 385.000
62.73977 361.000
62.75971 356.000
62.77966 339.000
62.79961 388.000
62.81955 401.000
62.83950 341.000
62.85945 321.000
62.87940 378.000
62.89934 363.000
62.91929 354.000
62.93924 346.000
62.95918 369.000
62.97913 342.000
62.99908 322.000
63.01902 361.000
63.03897 341.000
63.05892 377.000
63.07887 364.000
63.09881 330.000
63.11876 354.000
63.13871 384.000
63.15865 366.000
63.17860 331.000
63.19855 345.000
63.21849 327.000
63.23844 355.000
63.25839 378.000
63.27833 355.000
63.29828 294.000
63.31823 335.000
63.33818 340.000
63.35812 343.000
63.37807 351.000
63.39802 330.000
63.41796 333.000
63.43791 353.000
63.45786 350.000
63.47780 321.000
63.49775 330.000
63.51770 353.000
63.53765 347.000
63.55759 346.000
63.57754 364.000
63.59749 348.000
63.61743 343.000
63.63738 375.000
63.65733 336.000
63.67727 335.000
63.69722 361.000
63.71717 351.000
63.73712 361.000
63.75706 327.000
63.77701 346.000
63.79696 361.000
63.81690 367.000
63.83685 324.000
63.85680 364.000
63.87674 336.000
63.89669 370.000
63.91664 368.000
63.93658 317.000
63.95653 333.000
63.97648 318.000
63.99643 363.000
64.01637 383.000
64.03632 338.000
64.05627 370.000
64.07621 341.000
64.09616 289.000
64.11611 338.000
64.13605 333.000
64.15600 331.000
64.17595 366.000
64.19590 332.000
64.21584 332.000
64.23579 363.000
64.25574 340.000
64.27568 376.000
64.29563 337.000
64.31558 381.000
64.33552 339.000
64.35547 371.000
64.37542 340.000
64.39536 321.000
64.41531 361.000
64.43526 312.000
64.45521 327.000
64.47515 335.000
64.49510 350.000
64.51505 377.000
64.53499 337.000
64.55494 335.000
64.57489 329.000
64.59483 320.000
64.61478 321.000
64.63473 336.000
64.65468 341.000
64.67462 327.000
64.69457 316.000
64.71452 368.000
64.73446 350.000
64.75441 359.000
64.77436 312.000
64.79430 353.000
64.81425 333.000
64.83420 359.000
64.85414 357.000
64.87409 379.000
64.89404 357.000
64.91399 371.000
64.93393 321.000
64.95388 406.000
64.97383 383.000
64.99377 339.000
65.01372 341.000
65.03367 340.000
65.05361 335.000
65.07356 376.000
65.09351 383.000
65.11346 391.000
65.13340 360.000
65.15335 383.000
65.17330 396.000
65.19324 347.000
65.21319 391.000
65.23314 388.000
65.25308 406.000
65.27303 383.000
65.29298 399.000
65.31293 343.000
65.33287 345.000
65.35282 323.000
65.37277 343.000
65.39271 372.000
65.41266 348.000
65.43261 356.000
65.45255 361.000
65.47250 351.000
65.49245 381.000
65.51239 391.000
65.53234 349.000
65.55229 393.000
65.57224 397.000
65.59218 355.000
65.61213 378.000
65.63208 415.000
65.65202 384.000
65.67197 364.000
65.69192 382.000
65.71186 352.000
65.73181 391.000
65.75176 384.000
65.77171 391.000
65.79165 381.000
65.81160 422.000
65.83155 398.000
65.85149 373.000
65.87144 377.000
65.89139 397.000
65.91133 414.000
65.93128 401.000
65.95123 403.000
65.97117 379.000
65.99112 365.000
66.01107 356.000
66.03102 350.000
66.05096 374.000
66.07091 331.000
66.09086 376.000
66.11080 384.000
66.13075 363.000
66.15070 355.000
66.17064 351.000
66.19059 349.000
66.21054 376.000
66.23049 349.000
66.25043 340.000
66.27038 368.000
66.29033 349.000
66.31027 376.000
66.33022 353.000
66.35017 341.000
66.37011 338.000
66.39006 357.000
66.41001 374.000
66.42995 356.000
66.44990 333.000
66.46985 336.000
66.48980 349.000
66.50974 352.000
66.52969 306.000
66.54964 352.000
66.56958 329.000
66.58953 325.000
66.60948 310.000
66.62942 333.000
66.64937 326.000
66.66932 355.000
66.68927 369.000
66.70921 369.000
66.72916 296.000
66.74911 335.000
66.76905 350.000
66.78900 330.000
66.80895 361.000
66.82889 311.000
66.84884 367.000
66.86879 343.000
66.88874 337.000
66.90868 349.000
66.92863 348.000
66.94858 361.000
66.96852 373.000
66.98847 313.000
67.00842 348.000
67.02836 373.000
67.04831 352.000
67.06826 332.000
67.08820 315.000
67.10815 359.000
67.12810 347.000
67.14805 397.000
67.16799 347.000
67.18794 379.000
67.20789 393.000
67.22783 346.000
67.24778 394.000
67.26773 369.000
67.28767 394.000
67.30762 365.000
67.32757 395.000
67.34752 342.000
67.36746 351.000
67.38741 405.000
67.40736 363.000
67.42730 398.000
67.44725 353.000
67.46720 380.000
67.48714 399.000
67.50709 363.000
67.52704 398.000
67.54698 414.000
67.56693 381.000
67.58688 365.000
67.60683 364.000
67.62677 404.000
67.64672 395.000
67.66667 349.000
67.68661 378.000
67.70656 327.000
67.72651 355.000
67.74645 369.000
67.76640 394.000
67.78635 353.000
67.80630 372.000
67.82624 359.000
67.84619 351.000
67.86614 360.000
67.88608 340.000
67.90603 314.000
67.92598 341.000
67.94592 342.000
67.96587 355.000
67.98582 336.000
68.00576 350.000
68.02571 359.000
68.04566 366.000
68.06561 344.000
68.08555 327.000
68.10550 333.000
68.12545 320.000
68.14539 304.000
68.16534 330.000
68.18529 329.000
68.20523 309.000
68.22518 320.000
68.24513 319.000
68.26508 317.000
68.28502 355.000
68.30497 330.000
68.32492 328.000
68.34486 390.000
68.36481 320.000
68.38476 320.000
68.40470 325.000
68.42465 353.000
68.44460 305.000
68.46455 327.000
68.48449 314.000
68.50444 353.000
68.52439 325.000
68.54433 335.000
68.56428 301.000
68.58423 339.000
68.60417 346.000
68.62412 308.000
68.64407 327.000
68.66401 364.000
68.68396 320.000
68.70391 343.000
68.72386 348.000
68.74380 352.000
68.76375 360.000
68.78370 328.000
68.80364 316.000
68.82359 318.000
68.84354 332.000
68.86348 278.000
68.88343 358.000
68.90338 334.000
68.92333 356.000
68.94327 347.000
68.96322 284.000
68.98317 328.000
69.00311 326.000
69.02306 334.000
69.04301 364.000
69.06295 344.000
69.08290 302.000
69.10285 337.000
69.12279 327.000
69.14274 342.000
69.16269 349.000
69.18264 326.000
69.20258 347.000
69.22253 309.000
69.24248 325.000
69.26242 362.000
69.28237 333.000
69.30232 343.000
69.32226 314.000
69.34221 322.000
69.36216 311.000
69.38211 325.000
69.40205 365.000
69.42200 288.000
69.44195 320.000
69.46189 344.000
69.48184 352.000
69.50179 314.000
69.52173 337.000
69.54168 312.000
69.56163 325.000
69.58157 317.000
69.60152 349.000
69.62147 358.000
69.64142 349.000
69.66136 307.000
69.68131 348.000
69.70126 321.000
69.72120 357.000
69.74115 332.000
69.76110 306.000
69.78104 323.000
69.80099 321.000
69.82094 351.000
69.84089 354.000
69.86083 346.000
69.88078 338.000
69.90073 313.000
69.92067 335.000
69.94062 320.000
69.96057 326.000
69.98051 344.000
70.00046 349.000
70.02041 335.000
70.04035 329.000
70.06030 355.000
70.08025 320.000
70.10020 373.000
70.12014 322.000
70.14009 325.000
70.16004 343.000
70.17998 292.000
70.19993 344.000
70.21988 320.000
70.23982 350.000
70.25977 326.000
70.27972 354.000
70.29967 327.000
70.31961 323.000
70.33956 352.000
70.35951 354.000
70.37945 355.000
70.39940 299.000
70.41935 302.000
70.43929 309.000
70.45924 319.000
70.47919 315.000
70.49914 358.000
70.51908 335.000
70.53903 342.000
70.55898 333.000
70.57892 332.000
70.59887 342.000
70.61882 351.000
70.63876 313.000
70.65871 332.000
70.67866 336.000
70.69860 361.000
70.71855 340.000
70.73850 337.000
70.75845 296.000
70.77839 330.000
70.79834 308.000
70.81829 318.000
70.83823 321.000
70.85818 340.000
70.87813 360.000
70.89807 334.000
70.91802 314.000
70.93797 344.000
70.95792 368.000
70.97786 349.000
70.99781 339.000
71.01776 330.000
71.03770 339.000
71.05765 325.000
71.07760 360.000
71.09754 348.000
71.11749 317.000
71.13744 341.000
71.15738 337.000
71.17733 334.000
71.19728 341.000
71.21723 326.000
71.23717 337.000
71.25712 316.000
71.27707 344.000
71.29701 310.000
71.31696 351.000
71.33691 303.000
71.35685 311.000
71.37680 343.000
71.39675 328.000
71.41670 327.000
71.43664 361.000
71.45659 326.000
71.47654 339.000
71.49648 345.000
71.51643 318.000
71.53638 325.000
71.55632 340.000
71.57627 323.000
71.59622 301.000
71.61616 349.000
71.63611 343.000
71.65606 336.000
71.67601 355.000
71.69595 376.000
71.71590 341.000
71.73585 356.000
71.75579 342.000
71.77574 356.000
71.79569 390.000
71.81563 362.000
71.83558 335.000
71.85553 346.000
71.87548 355.000
71.89542 335.000
71.91537 374.000
71.93532 357.000
71.95526 354.000
71.97521 327.000
71.99516 341.000
72.01510 350.000
72.03505 355.000
72.05500 335.000
72.07495 297.000
72.09489 349.000
72.11484 309.000
72.13479 326.000
72.15473 301.000
72.17468 330.000
72.19463 363.000
72.21457 378.000
72.23452 332.000
72.25447 343.000
72.27441 340.000
72.29436 348.000
72.31431 358.000
72.33426 361.000
72.35420 293.000
72.37415 311.000
72.39410 339.000
72.41404 348.000
72.43399 352.000
72.45394 343.000
72.47388 329.000
72.49383 342.000
72.51378 312.000
72.53373 317.000
72.55367 323.000
72.57362 315.000
72.59357 311.000
72.61351 357.000
72.63346 305.000
72.65341 302.000
72.67335 342.000
72.69330 332.000
72.71325 328.000
72.73319 332.000
72.75314 354.000
72.77309 338.000
72.79304 323.000
72.81298 321.000
72.83293 339.000
72.85288 340.000
72.87282 339.000
72.89277 349.000
72.91272 373.000
72.93266 321.000
72.95261 334.000
72.97256 340.000
72.99251 323.000
73.01245 337.000
73.03240 350.000
73.05235 322.000
73.07229 349.000
73.09224 336.000
73.11219 337.000
73.13213 324.000
73.15208 330.000
73.17203 312.000
73.19197 349.000
73.21192 315.000
73.23187 309.000
73.25182 314.000
73.27176 346.000
73.29171 336.000
73.31166 353.000
73.33160 366.000
73.35155 312.000
73.37150 353.000
73.39144 342.000
73.41139 344.000
73.43134 319.000
73.45129 320.000
73.47123 319.000
73.49118 350.000
73.51113 309.000
73.53107 341.000
73.55102 308.000
73.57097 334.000
73.59091 334.000
73.61086 332.000
73.63081 358.000
73.65076 326.000
73.67070 322.000
73.69065 363.000
73.71060 333.000
73.73054 317.000
73.75049 329.000
73.77044 358.000
73.79038 353.000
73.81033 312.000
73.83028 316.000
73.85022 349.000
73.87017 397.000
73.89012 328.000
73.91007 364.000
73.93001 346.000
73.94996 365.000
73.96991 299.000
73.98985 346.000
74.00980 355.000
74.02975 366.000
74.04969 387.000
74.06964 370.000
74.08959 372.000
74.10954 347.000
74.12948 358.000
74.14943 382.000
74.16938 370.000
74.18932 375.000
74.20927 396.000
74.22922 416.000
74.24916 383.000
74.26911 410.000
74.28906 397.000
74.30900 423.000
74.32895 430.000
74.34890 433.000
74.36885 391.000
74.38879 426.000
74.40874 421.000
74.42869 429.000
74.44863 426.000
74.46858 432.000
74.48853 432.000
74.50847 486.000
74.52842 443.000
74.54837 435.000
74.56832 417.000
74.58826 443.000
74.60821 446.000
74.62816 444.000
74.64810 443.000
74.66805 407.000
74.68800 445.000
74.70794 434.000
74.72789 428.000
74.74784 421.000
74.76778 430.000
74.78773 398.000
74.80768 444.000
74.82763 402.000
74.84757 395.000
74.86752 394.000
74.88747 386.000
74.90741 419.000
74.92736 377.000
74.94731 379.000
74.96725 378.000
74.98720 392.000
75.00715 390.000
75.02710 373.000
75.04704 367.000
75.06699 363.000
75.08694 381.000
75.10688 362.000
75.12683 321.000
75.14678 387.000
75.16672 344.000
75.18667 336.000
75.20662 308.000
75.22657 340.000
75.24651 366.000
75.26646 327.000
75.28641 350.000
75.30635 395.000
75.32630 308.000
75.34625 329.000
75.36619 341.000
75.38614 336.000
75.40609 322.000
75.42603 319.000
75.44598 318.000
75.46593 312.000
75.48588 330.000
75.50582 352.000
75.52577 349.000
75.54572 312.000
75.56566 289.000
75.58561 336.000
75.60556 295.000
75.62550 313.000
75.64545 307.000
75.66540 329.000
75.68535 337.000
75.70529 367.000
75.72524 316.000
75.74519 331.000
75.76513 322.000
75.78508 330.000
75.80503 344.000
75.82497 336.000
75.84492 327.000
75.86487 350.000
75.88481 318.000
75.90476 321.000
75.92471 322.000
75.94466 313.000
75.96460 323.000
75.98455 349.000
76.00450 333.000
76.02444 320.000
76.04439 311.000
76.06434 317.000
76.08428 328.000
76.10423 325.000
76.12418 324.000
76.14413 327.000
76.16407 339.000
76.18402 333.000
76.20397 332.000
76.22391 317.000
76.24386 318.000
76.26381 331.000
76.28375 295.000
76.30370 330.000
76.32365 330.000
76.34359 310.000
76.36354 338.000
76.38349 333.000
76.40344 318.000
76.42338 304.000
76.44333 329.000
76.46328 332.000
76.48322 313.000
76.50317 317.000
76.52312 322.000
76.54306 369.000
76.56301 286.000
76.58296 343.000
76.60291 339.000
76.62285 301.000
76.64280 293.000
76.66275 302.000
76.68269 320.000
76.70264 330.000
76.72259 290.000
76.74253 297.000
76.76248 353.000
76.78243 293.000
76.80238 306.000
76.82232 313.000
76.84227 314.000
76.86222 315.000
76.88216 363.000
76.90211 295.000
76.92206 359.000
76.94200 344.000
76.96195 328.000
76.98190 357.000
77.00184 306.000
77.02179 324.000
77.04174 261.000
77.06169 349.000
77.08163 286.000
77.10158 319.000
77.12153 339.000
77.14147 332.000
77.16142 348.000
77.18137 300.000
77.20131 319.000
77.22126 313.000
77.24121 307.000
77.26116 353.000
77.28110 304.000
77.30105 337.000
77.32100 318.000
77.34094 379.000
77.36089 325.000
77.38084 342.000
77.40078 317.000
77.42073 330.000
77.44068 298.000
77.46062 328.000
77.48057 333.000
77.50052 309.000
77.52047 310.000
77.54041 337.000
77.56036 308.000
77.58031 347.000
77.60025 347.000
77.62020 304.000
77.64015 311.000
77.66009 303.000
77.68004 323.000
77.69999 325.000
77.71994 339.000
77.73988 309.000
77.75983 328.000
77.77978 353.000
77.79972 310.000
77.81967 311.000
77.83962 298.000
77.85956 298.000
77.87951 330.000
77.89946 306.000
77.91940 309.000
77.93935 332.000
77.95930 344.000
77.97925 321.000
77.99919 331.000
78.01914 321.000
78.03909 304.000
78.05903 322.000
78.07898 310.000
78.09893 339.000
78.11887 318.000
78.13882 326.000
78.15877 331.000
78.17872 318.000
78.19866 325.000
78.21861 343.000
78.23856 362.000
78.25850 373.000
78.27845 364.000
78.29840 385.000
78.31834 358.000
78.33829 363.000
78.35824 326.000
78.37819 405.000
78.39813 361.000
78.41808 388.000
78.43803 374.000
78.45797 381.000
78.47792 412.000
78.49787 395.000
78.51781 434.000
78.53776 407.000
78.55771 393.000
78.57765 428.000
78.59760 434.000
78.61755 436.000
78.63750 435.000
78.65744 399.000
78.67739 376.000
78.69734 395.000
78.71728 385.000
78.73723 395.000
78.75718 385.000
78.77712 398.000
78.79707 381.000
78.81702 373.000
78.83697 369.000
78.85691 359.000
78.87686 359.000
78.89681 361.000
78.91675 359.000
78.93670 349.000
78.95665 334.000
78.97659 371.000
78.99654 351.000
79.01649 373.000
79.03643 343.000
79.05638 317.000
79.07633 320.000
79.09628 333.000
79.11622 311.000
79.13617 325.000
79.15612 350.000
79.17606 299.000
79.19601 332.000
79.21596 340.000
79.23590 305.000
79.25585 335.000
79.27580 369.000
79.29575 308.000
79.31569 278.000
79.33564 288.000
79.35559 300.000
79.37553 325.000
79.39548 296.000
79.41543 328.000
79.43537 286.000
79.45532 313.000
79.47527 306.000
79.49521 317.000
79.51516 317.000
79.53511 310.000
79.55506 312.000
79.57500 297.000
79.59495 307.000
79.61490 334.000
79.63484 347.000
79.65479 306.000
79.67474 318.000
79.69468 317.000
79.71463 307.000
79.73458 321.000
79.75453 320.000
79.77447 357.000
79.79442 299.000
79.81437 326.000
79.83431 323.000
79.85426 305.000
79.87421 296.000
79.89415 311.000
79.91410 305.000
79.93405 323.000
79.95399 313.000
79.97394 310.000
79.99389 319.000
80.01384 325.000
80.03378 315.000
80.05373 294.000
80.07368 345.000
80.09362 320.000
80.11357 350.000
80.13352 333.000
80.15346 327.000
80.17341 332.000
80.19336 317.000
80.21331 295.000
80.23325 324.000
80.25320 323.000
80.27315 309.000
80.29309 324.000
80.31304 312.000
80.33299 322.000
80.35293 302.000
80.37288 296.000
80.39283 291.000
80.41278 300.000
80.43272 283.000
80.45267 314.000
80.47262 328.000
80.49256 318.000
80.51251 324.000
80.53246 340.000
80.55240 346.000
80.57235 308.000
80.59230 299.000
80.61224 309.000
80.63219 308.000
80.65214 303.000
80.67209 312.000
80.69203 329.000
80.71198 290.000
80.73193 313.000
80.75187 317.000
80.77182 314.000
80.79177 306.000
80.81171 309.000
80.83166 305.000
80.85161 286.000
80.87156 335.000
80.89150 318.000
80.91145 288.000
80.93140 326.000
80.95134 344.000
80.97129 301.000
80.99124 319.000
81.01118 325.000
81.03113 349.000
81.05108 307.000
81.07102 335.000
81.09097 277.000
81.11092 307.000
81.13087 361.000
81.15081 320.000
81.17076 317.000
81.19071 303.000
81.21065 317.000
81.23060 321.000
81.25055 337.000
81.27049 301.000
81.29044 323.000
81.31039 308.000
81.33034 342.000
81.35028 319.000
81.37023 325.000
81.39018 324.000
81.41012 339.000
81.43007 341.000
81.45002 295.000
81.46996 314.000
81.48991 312.000
81.50986 323.000
81.52980 307.000
81.54975 329.000
81.56970 322.000
81.58965 297.000
81.60959 325.000
81.62954 312.000
81.64949 289.000
81.66943 336.000
81.68938 314.000
81.70933 345.000
81.72927 342.000
81.74922 342.000
81.76917 345.000
81.78912 337.000
81.80906 308.000
81.82901 318.000
81.84896 310.000
81.86890 328.000
81.88885 337.000
81.90880 349.000
81.92874 312.000
81.94869 312.000
81.96864 285.000
81.98859 362.000
82.00853 304.000
82.02848 338.000
82.04843 327.000
82.06837 319.000
82.08832 308.000
82.10827 298.000
82.12821 337.000
82.14816 300.000
82.16811 356.000
82.18805 306.000
82.20800 330.000
82.22795 331.000
82.24790 321.000
82.26784 320.000
82.28779 309.000
82.30774 356.000
82.32768 319.000
82.34763 354.000
82.36758 302.000
82.38752 338.000
82.40747 319.000
82.42742 350.000
82.44737 320.000
82.46731 326.000
82.48726 341.000
82.50721 305.000
82.52715 308.000
82.54710 309.000
82.56705 343.000
82.58699 349.000
82.60694 319.000
82.62689 311.000
82.64683 302.000
82.66678 348.000
82.68673 328.000
82.70668 321.000
82.72662 366.000
82.74657 300.000
82.76652 332.000
82.78646 338.000
82.80641 304.000
82.82636 337.000
82.84630 333.000
82.86625 339.000
82.88620 326.000
82.90615 308.000
82.92609 313.000
82.94604 318.000
82.96599 330.000
82.98593 347.000
83.00588 335.000
83.02583 302.000
83.04577 306.000
83.06572 345.000
83.08567 322.000
83.10561 333.000
83.12556 319.000
83.14551 297.000
83.16546 335.000
83.18540 343.000
83.20535 321.000
83.22530 339.000
83.24524 304.000
83.26519 322.000
83.28514 307.000
83.30508 292.000
83.32503 321.000
83.34498 348.000
83.36493 335.000
83.38487 318.000
83.40482 338.000
83.42477 306.000
83.44471 288.000
83.46466 335.000
83.48461 340.000
83.50455 327.000
83.52450 349.000
83.54445 334.000
83.56440 309.000
83.58434 294.000
83.60429 324.000
83.62424 290.000
83.64418 324.000
83.66413 315.000
83.68408 304.000
83.70402 303.000
83.72397 303.000
83.74392 319.000
83.76386 351.000
83.78381 318.000
83.80376 328.000
83.82371 306.000
83.84365 329.000
83.86360 317.000
83.88355 303.000
83.90349 337.000
83.92344 310.000
83.94339 303.000
83.96333 335.000
83.98328 290.000
84.00323 302.000
84.02318 319.000
84.04312 320.000
84.06307 321.000
84.08302 324.000
84.10296 308.000
84.12291 301.000
84.14286 315.000
84.16280 356.000
84.18275 296.000
84.20270 333.000
84.22264 289.000
84.24259 302.000
84.26254 313.000
84.28249 296.000
84.30243 297.000
84.32238 311.000
84.34233 325.000
84.36227 306.000
84.38222 311.000
84.40217 303.000
84.42211 287.000
84.44206 321.000
84.46201 351.000
84.48196 317.000
84.50190 282.000
84.52185 286.000
84.54180 306.000
84.56174 299.000
84.58169 332.000
84.60164 320.000
84.62158 317.000
84.64153 351.000
84.66148 307.000
84.68142 292.000
84.70137 297.000
84.72132 302.000
84.74127 303.000
84.76121 306.000
84.78116 288.000
84.80111 309.000
84.82105 299.000
84.84100 318.000
84.86095 330.000
84.88089 293.000
84.90084 297.000
84.92079 315.000
84.94074 324.000
84.96068 294.000
84.98063 320.000
85.00058 336.000
85.02052 302.000
85.04047 283.000
85.06042 305.000
85.08036 332.000
85.10031 339.000
85.12026 328.000
85.14021 338.000
85.16015 334.000
85.18010 315.000
85.20005 297.000
85.21999 307.000
85.23994 321.000
85.25989 348.000
85.27983 323.000
85.29978 294.000
85.31973 296.000
85.33967 279.000
85.35962 288.000
85.37957 345.000
85.39952 348.000
85.41946 333.000
85.43941 316.000
85.45936 302.000
85.47930 292.000
85.49925 325.000
85.51920 260.000
85.53914 292.000
85.55909 298.000
85.57904 310.000
85.59899 308.000
85.61893 309.000
85.63888 318.000
85.65883 294.000
85.67877 314.000
85.69872 335.000
85.71867 324.000
85.73861 324.000
85.75856 316.000
85.77851 324.000
85.79845 347.000
85.81840 292.000
85.83835 312.000
85.85830 308.000
85.87824 301.000
85.89819 309.000
85.91814 303.000
85.93808 317.000
85.95803 312.000
85.97798 302.000
85.99792 316.000
86.01787 305.000
86.03782 302.000
86.05777 319.000
86.07771 319.000
86.09766 303.000
86.11761 307.000
86.13755 340.000
86.15750 327.000
86.17745 308.000
86.19739 337.000
86.21734 292.000
86.23729 307.000
86.25723 302.000
86.27718 328.000
86.29713 296.000
86.31708 323.000
86.33702 300.000
86.35697 308.000
86.37692 322.000
86.39686 287.000
86.41681 346.000
86.43676 307.000
86.45670 330.000
86.47665 336.000
86.49660 284.000
86.51655 326.000
86.53649 339.000
86.55644 331.000
86.57639 287.000
86.59633 319.000
86.61628 297.000
86.63623 319.000
86.65617 293.000
86.67612 346.000
86.69607 298.000
86.71602 348.000
86.73596 310.000
86.75591 314.000
86.77586 327.000
86.79580 305.000
86.81575 308.000
86.83570 301.000
86.85564 312.000
86.87559 318.000
86.89554 292.000
86.91548 292.000
86.93543 314.000
86.95538 297.000
86.97533 328.000
86.99527 325.000
87.01522 315.000
87.03517 311.000
87.05511 307.000
87.07506 293.000
87.09501 307.000
87.11495 317.000
87.13490 335.000
87.15485 299.000
87.17480 293.000
87.19474 292.000
87.21469 318.000
87.23464 304.000
87.25458 325.000
87.27453 331.000
87.29448 270.000
87.31442 324.000
87.33437 320.000
87.35432 322.000
87.37426 316.000
87.39421 309.000
87.41416 288.000
87.43411 303.000
87.45405 350.000
87.47400 304.000
87.49395 306.000
87.51389 336.000
87.53384 283.000
87.55379 282.000
87.57373 314.000
87.59368 313.000
87.61363 321.000
87.63358 298.000
87.65352 308.000
87.67347 334.000
87.69342 307.000
87.71336 315.000
87.73331 282.000
87.75326 330.000
87.77320 337.000
87.79315 343.000
87.81310 292.000
87.83304 336.000
87.85299 324.000
87.87294 335.000
87.89289 299.000
87.91283 321.000
87.93278 297.000
87.95273 324.000
87.97267 281.000
87.99262 316.000
88.01257 315.000
88.03251 307.000
88.05246 263.000
88.07241 322.000
88.09236 300.000
88.11230 333.000
88.13225 306.000
88.15220 300.000
88.17214 296.000
88.19209 335.000
88.21204 306.000
88.23198 286.000
88.25193 299.000
88.27188 303.000
88.29183 322.000
88.31177 343.000
88.33172 318.000
88.35167 349.000
88.37161 309.000
88.39156 303.000
88.41151 367.000
88.43145 313.000
88.45140 316.000
88.47135 331.000
88.49129 290.000
88.51124 310.000
88.53119 296.000
88.55114 309.000
88.57108 317.000
88.59103 320.000
88.61098 319.000
88.63092 298.000
88.65087 325.000
88.67082 312.000
88.69076 310.000
88.71071 314.000
88.73066 320.000
88.75061 282.000
88.77055 293.000
88.79050 311.000
88.81045 328.000
88.83039 329.000
88.85034 342.000
88.87029 288.000
88.89023 330.000
88.91018 322.000
88.93013 340.000
88.95007 295.000
88.97002 307.000
88.98997 308.000
89.00992 327.000
89.02986 308.000
89.04981 323.000
89.06976 286.000
89.08970 306.000
89.10965 343.000
89.12960 291.000
89.14954 309.000
89.16949 336.000
89.18944 286.000
89.20939 296.000
89.22933 301.000
89.24928 291.000
89.26923 296.000
89.28917 316.000
89.30912 274.000
89.32907 332.000
89.34901 293.000
89.36896 325.000
89.38891 280.000
89.40885 325.000
89.42880 316.000
89.44875 314.000
89.46870 330.000
89.48864 329.000
89.50859 320.000
89.52854 309.000
89.54848 326.000
89.56843 336.000
89.58838 329.000
89.60832 323.000
89.62827 314.000
89.64822 323.000
89.66817 318.000
89.68811 317.000
89.70806 307.000
89.72801 308.000
89.74795 312.000
89.76790 288.000
89.78785 308.000
89.80779 306.000
89.82774 322.000
89.84769 310.000
89.86764 338.000
89.88758 323.000
89.90753 298.000
89.92748 305.000
89.94742 325.000
89.96737 301.000
89.98732 309.000
90.00726 308.000
