10.00000 116.000
10.01995 129.000
10.03989 124.000
10.05984 107.000
10.07979 124.000
10.09973 141.000
10.11968 130.000
10.13963 141.000
10.15958 112.000
10.17952 107.000
10.19947 127.000
10.21942 132.000
10.23936 132.000
10.25931 114.000
10.27926 123.000
10.29920 128.000
10.31915 135.000
10.33910 107.000
10.35905 122.000
10.37899 125.000
10.39894 114.000
10.41889 117.000
10.43883 127.000
10.45878 121.000
10.47873 118.000
10.49867 117.000
10.51862 132.000
10.53857 134.000
10.55851 125.000
10.57846 113.000
10.59841 126.000
10.61836 120.000
10.63830 106.000
10.65825 135.000
10.67820 136.000
10.69814 121.000
10.71809 128.000
10.73804 124.000
10.75798 138.000
10.77793 134.000
10.79788 151.000
10.81783 116.000
10.83777 118.000
10.85772 141.000
10.87767 128.000
10.89761 138.000
10.91756 152.000
10.93751 113.000
10.95745 110.000
10.97740 127.000
10.99735 132.000
11.01730 122.000
11.03724 135.000
11.05719 136.000
11.07714 127.000
11.09708 137.000
11.11703 119.000
11.13698 131.000
11.15692 145.000
11.17687 127.000
11.19682 135.000
11.21676 123.000
11.23671 137.000
11.25666 106.000
11.27661 142.000
11.29655 128.000
11.31650 143.000
11.33645 115.000
11.35639 117.000
11.37634 106.000
11.39629 123.000
11.41623 135.000
11.43618 133.000
11.45613 116.000
11.47608 138.000
11.49602 113.000
11.51597 126.000
11.53592 133.000
11.55586 134.000
11.57581 126.000
11.59576 124.000
11.61570 111.000
11.63565 134.000
11.65560 118.000
11.67554 142.000
11.69549 130.000
11.71544 134.000
11.73539 145.000
11.75533 132.000
11.77528 112.000
11.79523 144.000
11.81517 177.000
11.83512 127.000
11.85507 131.000
11.87501 135.000
11.89496 129.000
11.91491 138.000
11.93486 129.000
11.95480 143.000
11.97475 130.000
11.99470 133.000
12.01464 132.000
12.03459 153.000
12.05454 143.000
12.07448 153.000
12.09443 129.000
12.11438 142.000
12.13432 149.000
12.15427 153.000
12.17422 145.000
12.19417 143.000
12.21411 144.000
12.23406 121.000
12.25401 131.000
12.27395 143.000
12.29390 128.000
12.31385 156.000
12.33379 127.000
12.35374 155.000
12.37369 140.000
12.39364 169.000
12.41358 171.000
12.43353 159.000
12.45348 148.000
12.47342 138.000
12.49337 151.000
12.51332 156.000
12.53326 156.000
12.55321 170.000
12.57316 149.000
12.59311 148.000
12.61305 157.000
12.63300 141.000
12.65295 151.000
12.67289 139.000
12.69284 135.000
12.71279 129.000
12.73273 127.000
12.75268 154.000
12.77263 153.000
12.79257 126.000
12.81252 142.000
12.83247 124.000
12.85242 165.000
12.87236 147.000
12.89231 155.000
12.91226 181.000
12.93220 170.000
12.95215 168.000
12.97210 146.000
12.99204 139.000
13.01199 136.000
13.03194 161.000
13.05189 154.000
13.07183 138.000
13.09178 143.000
13.11173 132.000
13.13167 147.000
13.15162 142.000
13.17157 165.000
13.19151 155.000
13.21146 161.000
13.23141 142.000
13.25135 147.000
13.27130 142.000
13.29125 125.000
13.31120 173.000
13.33114 143.000
13.35109 167.000
13.37104 158.000
13.39098 143.000
13.41093 149.000
13.43088 151.000
13.45082 157.000
13.47077 160.000
13.49072 136.000
13.51067 145.000
13.53061 156.000
13.55056 147.000
13.57051 155.000
13.59045 137.000
13.61040 146.000
13.63035 131.000
13.65029 129.000
13.67024 151.000
13.69019 128.000
13.71013 148.000
13.73008 149.000
13.75003 132.000
13.76998 142.000
13.78992 133.000
13.80987 124.000
13.82982 135.000
13.84976 139.000
13.86971 152.000
13.88966 164.000
13.90960 157.000
13.92955 133.000
13.94950 153.000
13.96945 121.000
13.98939 135.000
14.00934 148.000
14.02929 161.000
14.04923 165.000
14.06918 154.000
14.08913 149.000
14.10907 169.000
14.12902 156.000
14.14897 156.000
14.16892 160.000
14.18886 139.000
14.20881 169.000
14.22876 146.000
14.24870 142.000
14.26865 158.000
14.28860 156.000
14.30854 145.000
14.32849 177.000
14.34844 156.000
14.36838 142.000
14.38833 164.000
14.40828 127.000
14.42823 144.000
14.44817 151.000
14.46812 143.000
14.48807 159.000
14.50801 178.000
14.52796 155.000
14.54791 167.000
14.56785 165.000
14.58780 164.000
14.60775 146.000
14.62770 170.000
14.64764 170.000
14.66759 151.000
14.68754 182.000
14.70748 168.000
14.72743 155.000
14.74738 154.000
14.76732 168.000
14.78727 151.000
14.80722 165.000
14.82716 163.000
14.84711 145.000
14.86706 159.000
14.88701 162.000
14.90695 141.000
14.92690 158.000
14.94685 150.000
14.96679 138.000
14.98674 171.000
15.00669 163.000
15.02663 158.000
15.04658 180.000
15.06653 145.000
15.08648 167.000
15.10642 167.000
15.12637 145.000
15.14632 153.000
15.16626 174.000
15.18621 147.000
15.20616 147.000
15.22610 183.000
15.24605 164.000
15.26600 163.000
15.28594 158.000
15.30589 157.000
15.32584 161.000
15.34579 167.000
15.36573 170.000
15.38568 157.000
15.40563 167.000
15.42557 173.000
15.44552 167.000
15.46547 155.000
15.48541 150.000
15.50536 179.000
15.52531 171.000
15.54526 168.000
15.56520 186.000
15.58515 177.000
15.60510 179.000
15.62504 186.000
15.64499 204.000
15.66494 186.000
15.68488 194.000
15.70483 189.000
15.72478 181.000
15.74472 186.000
15.76467 149.000
15.78462 162.000
15.80457 165.000
15.82451 183.000
15.84446 171.000
15.86441 168.000
15.88435 167.000
15.90430 178.000
15.92425 212.000
15.94419 194.000
15.96414 174.000
15.98409 193.000
16.00404 174.000
16.02398 178.000
16.04393 197.000
16.06388 164.000
16.08382 201.000
16.10377 147.000
16.12372 167.000
16.14366 166.000
16.16361 183.000
16.18356 193.000
16.20351 161.000
16.22345 184.000
16.24340 183.000
16.26335 156.000
16.28329 165.000
16.30324 165.000
16.32319 183.000
16.34313 172.000
16.36308 191.000
16.38303 172.000
16.40297 179.000
16.42292 203.000
16.44287 187.000
16.46282 188.000
16.48276 183.000
16.50271 173.000
16.52266 181.000
16.54260 198.000
16.56255 174.000
16.58250 179.000
16.60244 175.000
16.62239 168.000
16.64234 199.000
16.66229 177.000
16.68223 219.000
16.70218 207.000
16.72213 178.000
16.74207 195.000
16.76202 183.000
16.78197 197.000
16.80191 182.000
16.82186 183.000
16.84181 178.000
16.86175 191.000
16.88170 199.000
16.90165 196.000
16.92160 200.000
16.94154 190.000
16.96149 206.000
16.98144 189.000
17.00138 201.000
17.02133 182.000
17.04128 215.000
17.06122 209.000
17.08117 180.000
17.10112 216.000
17.12107 204.000
17.14101 194.000
17.16096 214.000
17.18091 202.000
17.20085 209.000
17.22080 196.000
17.24075 205.000
17.26069 198.000
17.28064 213.000
17.30059 195.000
17.32053 195.000
17.34048 207.000
17.36043 190.000
17.38038 206.000
17.40032 207.000
17.42027 214.000
17.44022 203.000
17.46016 190.000
17.48011 234.000
17.50006 211.000
17.52000 226.000
17.53995 222.000
17.55990 183.000
17.57985 207.000
17.59979 211.000
17.61974 186.000
17.63969 194.000
17.65963 200.000
17.67958 211.000
17.69953 222.000
17.71947 192.000
17.73942 199.000
17.75937 224.000
17.77932 211.000
17.79926 229.000
17.81921 218.000
17.83916 215.000
17.85910 189.000
17.87905 239.000
17.89900 221.000
17.91894 217.000
17.93889 220.000
17.95884 216.000
17.97878 234.000
17.99873 247.000
18.01868 221.000
18.03863 242.000
18.05857 211.000
18.07852 215.000
18.09847 191.000
18.11841 237.000
18.13836 248.000
18.15831 246.000
18.17825 208.000
18.19820 202.000
18.21815 238.000
18.23810 235.000
18.25804 218.000
18.27799 221.000
18.29794 203.000
18.31788 237.000
18.33783 215.000
18.35778 234.000
18.37772 240.000
18.39767 236.000
18.41762 233.000
18.43756 242.000
18.45751 267.000
18.47746 254.000
18.49741 241.000
18.51735 226.000
18.53730 237.000
18.55725 228.000
18.57719 258.000
18.59714 243.000
18.61709 231.000
18.63703 273.000
18.65698 248.000
18.67693 263.000
18.69688 252.000
18.71682 237.000
18.73677 253.000
18.75672 269.000
18.77666 267.000
18.79661 269.000
18.81656 240.000
18.83650 226.000
18.85645 249.000
18.87640 244.000
18.89634 240.000
18.91629 246.000
18.93624 245.000
18.95619 234.000
18.97613 237.000
18.99608 255.000
19.01603 268.000
19.03597 256.000
19.05592 254.000
19.07587 292.000
19.09581 245.000
19.11576 269.000
19.13571 281.000
19.15566 274.000
19.17560 248.000
19.19555 254.000
19.21550 249.000
19.23544 258.000
19.25539 262.000
19.27534 268.000
19.29528 222.000
19.31523 251.000
19.33518 272.000
19.35513 267.000
19.37507 275.000
19.39502 276.000
19.41497 252.000
19.43491 244.000
19.45486 255.000
19.47481 253.000
19.49475 284.000
19.51470 243.000
19.53465 259.000
19.55459 273.000
19.57454 276.000
19.59449 292.000
19.61444 286.000
19.63438 258.000
19.65433 268.000
19.67428 244.000
19.69422 282.000
19.71417 249.000
19.73412 269.000
19.75406 298.000
19.77401 280.000
19.79396 285.000
19.81391 286.000
19.83385 274.000
19.85380 242.000
19.87375 315.000
19.89369 296.000
19.91364 285.000
19.93359 300.000
19.95353 287.000
19.97348 313.000
19.99343 281.000
20.01337 298.000
20.03332 274.000
20.05327 281.000
20.07322 285.000
20.09316 342.000
20.11311 286.000
20.13306 266.000
20.15300 308.000
20.17295 268.000
20.19290 280.000
20.21284 275.000
20.23279 290.000
20.25274 294.000
20.27269 311.000
20.29263 302.000
20.31258 308.000
20.33253 295.000
20.35247 297.000
20.37242 293.000
20.39237 302.000
20.41231 320.000
20.43226 305.000
20.45221 300.000
20.47215 315.000
20.49210 292.000
20.51205 321.000
20.53200 330.000
20.55194 315.000
20.57189 318.000
20.59184 325.000
20.61178 284.000
20.63173 323.000
20.65168 330.000
20.67162 306.000
20.69157 314.000
20.71152 327.000
20.73147 311.000
20.75141 283.000
20.77136 296.000
20.79131 306.000
20.81125 311.000
20.83120 335.000
20.85115 325.000
20.87109 341.000
20.89104 323.000
20.91099 295.000
20.93094 309.000
20.95088 282.000
20.97083 307.000
20.99078 346.000
21.01072 330.000
21.03067 328.000
21.05062 365.000
21.07056 329.000
21.09051 327.000
21.11046 375.000
21.13040 327.000
21.15035 335.000
21.17030 326.000
21.19025 336.000
21.21019 333.000
21.23014 320.000
21.25009 331.000
21.27003 336.000
21.28998 336.000
21.30993 336.000
21.32987 333.000
21.34982 309.000
21.36977 320.000
21.38972 339.000
21.40966 335.000
21.42961 320.000
21.44956 340.000
21.46950 337.000
21.48945 330.000
21.50940 335.000
21.52934 345.000
21.54929 308.000
21.56924 331.000
21.58918 331.000
21.60913 339.000
21.62908 327.000
21.64903 331.000
21.66897 331.000
21.68892 323.000
21.70887 332.000
21.72881 316.000
21.74876 316.000
21.76871 370.000
21.78865 332.000
21.80860 359.000
21.82855 333.000
21.84850 357.000
21.86844 348.000
21.88839 353.000
21.90834 378.000
21.92828 335.000
21.94823 407.000
21.96818 319.000
21.98812 366.000
22.00807 335.000
22.02802 377.000
22.04796 331.000
22.06791 334.000
22.08786 340.000
22.10781 346.000
22.12775 377.000
22.14770 361.000
22.16765 338.000
22.18759 339.000
22.20754 363.000
22.22749 388.000
22.24743 372.000
22.26738 348.000
22.28733 397.000
22.30728 381.000
22.32722 326.000
22.34717 379.000
22.36712 349.000
22.38706 324.000
22.40701 345.000
22.42696 360.000
22.44690 342.000
22.46685 372.000
22.48680 357.000
22.50675 348.000
22.52669 363.000
22.54664 371.000
22.56659 369.000
22.58653 332.000
22.60648 364.000
22.62643 369.000
22.64637 399.000
22.66632 405.000
22.68627 353.000
22.70621 381.000
22.72616 369.000
22.74611 414.000
22.76606 384.000
22.78600 355.000
22.80595 354.000
22.82590 393.000
22.84584 373.000
22.86579 364.000
22.88574 409.000
22.90568 364.000
22.92563 379.000
22.94558 336.000
22.96553 393.000
22.98547 378.000
23.00542 364.000
23.02537 395.000
23.04531 407.000
23.06526 395.000
23.08521 371.000
23.10515 359.000
23.12510 410.000
23.14505 415.000
23.16499 401.000
23.18494 406.000
23.20489 408.000
23.22484 415.000
23.24478 425.000
23.26473 389.000
23.28468 395.000
23.30462 382.000
23.32457 378.000
23.34452 409.000
23.36446 427.000
23.38441 427.000
23.40436 406.000
23.42431 389.000
23.44425 382.000
23.46420 423.000
23.48415 395.000
23.50409 423.000
23.52404 417.000
23.54399 450.000
23.56393 430.000
23.58388 440.000
23.60383 444.000
23.62377 408.000
23.64372 400.000
23.66367 444.000
23.68362 419.000
23.70356 402.000
23.72351 430.000
23.74346 391.000
23.76340 419.000
23.78335 424.000
23.80330 410.000
23.82324 446.000
23.84319 443.000
23.86314 410.000
23.88309 419.000
23.90303 427.000
23.92298 427.000
23.94293 442.000
23.96287 488.000
23.98282 439.000
24.00277 447.000
24.02271 409.000
24.04266 436.000
24.06261 414.000
24.08256 435.000
24.10250 438.000
24.12245 458.000
24.14240 453.000
24.16234 469.000
24.18229 464.000
24.20224 429.000
24.22218 442.000
24.24213 460.000
24.26208 440.000
24.28202 473.000
24.30197 447.000
24.32192 429.000
24.34187 420.000
24.36181 452.000
24.38176 479.000
24.40171 467.000
24.42165 429.000
24.44160 450.000
24.46155 460.000
24.48149 460.000
24.50144 472.000
24.52139 447.000
24.54134 452.000
24.56128 499.000
24.58123 440.000
24.60118 498.000
24.62112 488.000
24.64107 471.000
24.66102 449.000
24.68096 475.000
24.70091 446.000
24.72086 482.000
24.74080 460.000
24.76075 460.000
24.78070 460.000
24.80065 488.000
24.82059 481.000
24.84054 520.000
24.86049 511.000
24.88043 498.000
24.90038 475.000
24.92033 532.000
24.94027 504.000
24.96022 502.000
24.98017 522.000
25.00012 519.000
25.02006 489.000
25.04001 481.000
25.05996 512.000
25.07990 484.000
25.09985 473.000
25.11980 541.000
25.13974 472.000
25.15969 528.000
25.17964 544.000
25.19958 480.000
25.21953 536.000
25.23948 498.000
25.25943 509.000
25.27937 527.000
25.29932 501.000
25.31927 540.000
25.33921 534.000
25.35916 547.000
25.37911 505.000
25.39905 499.000
25.41900 519.000
25.43895 547.000
25.45890 505.000
25.47884 555.000
25.49879 554.000
25.51874 519.000
25.53868 543.000
25.55863 539.000
25.57858 539.000
25.59852 501.000
25.61847 571.000
25.63842 547.000
25.65837 556.000
25.67831 559.000
25.69826 564.000
25.71821 559.000
25.73815 578.000
25.75810 509.000
25.77805 511.000
25.79799 518.000
25.81794 524.000
25.83789 609.000
25.85783 575.000
25.87778 547.000
25.89773 516.000
25.91768 545.000
25.93762 549.000
25.95757 563.000
25.97752 525.000
25.99746 564.000
26.01741 566.000
26.03736 590.000
26.05730 569.000
26.07725 592.000
26.09720 561.000
26.11715 598.000
26.13709 570.000
26.15704 589.000
26.17699 593.000
26.19693 594.000
26.21688 580.000
26.23683 574.000
26.25677 525.000
26.27672 607.000
26.29667 591.000
26.31661 590.000
26.33656 611.000
26.35651 587.000
26.37646 616.000
26.39640 592.000
26.41635 614.000
26.43630 553.000
26.45624 631.000
26.47619 595.000
26.49614 616.000
26.51608 629.000
26.53603 615.000
26.55598 615.000
26.57593 653.000
26.59587 679.000
26.61582 613.000
26.63577 647.000
26.65571 634.000
26.67566 614.000
26.69561 624.000
26.71555 611.000
26.73550 640.000
26.75545 592.000
26.77539 589.000
26.79534 678.000
26.81529 658.000
26.83524 672.000
26.85518 623.000
26.87513 634.000
26.89508 601.000
26.91502 690.000
26.93497 654.000
26.95492 662.000
26.97486 676.000
26.99481 616.000
27.01476 617.000
27.03471 682.000
27.05465 623.000
27.07460 656.000
27.09455 679.000
27.11449 645.000
27.13444 658.000
27.15439 679.000
27.17433 708.000
27.19428 690.000
27.21423 622.000
27.23417 723.000
27.25412 632.000
27.27407 662.000
27.29402 683.000
27.31396 664.000
27.33391 653.000
27.35386 636.000
27.37380 653.000
27.39375 690.000
27.41370 702.000
27.43364 670.000
27.45359 729.000
27.47354 692.000
27.49349 700.000
27.51343 695.000
27.53338 683.000
27.55333 670.000
27.57327 707.000
27.59322 658.000
27.61317 708.000
27.63311 670.000
27.65306 699.000
27.67301 706.000
27.69296 702.000
27.71290 721.000
27.73285 697.000
27.75280 695.000
27.77274 689.000
27.79269 684.000
27.81264 684.000
27.83258 730.000
27.85253 690.000
27.87248 725.000
27.89242 689.000
27.91237 712.000
27.93232 725.000
27.95227 755.000
27.97221 768.000
27.99216 677.000
28.01211 708.000
28.03205 702.000
28.05200 728.000
28.07195 716.000
28.09189 753.000
28.11184 750.000
28.13179 750.000
28.15174 756.000
28.17168 717.000
28.19163 774.000
28.21158 750.000
28.23152 760.000
28.25147 734.000
28.27142 720.000
28.29136 737.000
28.31131 755.000
28.33126 807.000
28.35120 802.000
28.37115 797.000
28.39110 828.000
28.41105 760.000
28.43099 772.000
28.45094 762.000
28.47089 694.000
28.49083 811.000
28.51078 759.000
28.53073 767.000
28.55067 778.000
28.57062 795.000
28.59057 763.000
28.61052 759.000
28.63046 719.000
28.65041 727.000
28.67036 779.000
28.69030 790.000
28.71025 806.000
28.73020 796.000
28.75014 803.000
28.77009 781.000
28.79004 807.000
28.80998 836.000
28.82993 749.000
28.84988 763.000
28.86983 738.000
28.88977 820.000
28.90972 730.000
28.92967 797.000
28.94961 824.000
28.96956 761.000
28.98951 815.000
29.00945 801.000
29.02940 783.000
29.04935 772.000
29.06930 835.000
29.08924 794.000
29.10919 763.000
29.12914 787.000
29.14908 817.000
29.16903 800.000
29.18898 851.000
29.20892 817.000
29.22887 800.000
29.24882 807.000
29.26877 787.000
29.28871 801.000
29.30866 802.000
29.32861 758.000
29.34855 832.000
29.36850 816.000
29.38845 765.000
29.40839 847.000
29.42834 832.000
29.44829 812.000
29.46823 828.000
29.48818 842.000
29.50813 798.000
29.52808 790.000
29.54802 794.000
29.56797 817.000
29.58792 872.000
29.60786 844.000
29.62781 793.000
29.64776 870.000
29.66770 798.000
29.68765 783.000
29.70760 865.000
29.72755 801.000
29.74749 837.000
29.76744 834.000
29.78739 804.000
29.80733 810.000
29.82728 873.000
29.84723 825.000
29.86717 758.000
29.88712 784.000
29.90707 822.000
29.92701 802.000
29.94696 797.000
29.96691 851.000
29.98686 801.000
30.00680 819.000
30.02675 839.000
30.04670 813.000
30.06664 773.000
30.08659 805.000
30.10654 765.000
30.12648 795.000
30.14643 804.000
30.16638 797.000
30.18633 807.000
30.20627 776.000
30.22622 841.000
30.24617 783.000
30.26611 800.000
30.28606 841.000
30.30601 777.000
30.32595 820.000
30.34590 793.000
30.36585 788.000
30.38579 799.000
30.40574 782.000
30.42569 811.000
30.44564 840.000
30.46558 794.000
30.48553 781.000
30.50548 798.000
30.52542 834.000
30.54537 833.000
30.56532 778.000
30.58526 818.000
30.60521 847.000
30.62516 879.000
30.64511 812.000
30.66505 836.000
30.68500 782.000
30.70495 823.000
30.72489 807.000
30.74484 836.000
30.76479 863.000
30.78473 797.000
30.80468 861.000
30.82463 862.000
30.84458 803.000
30.86452 827.000
30.88447 799.000
30.90442 785.000
30.92436 770.000
30.94431 793.000
30.96426 843.000
30.98420 806.000
31.00415 824.000
31.02410 813.000
31.04404 848.000
31.06399 829.000
31.08394 879.000
31.10389 861.000
31.12383 812.000
31.14378 817.000
31.16373 831.000
31.18367 866.000
31.20362 760.000
31.22357 761.000
31.24351 813.000
31.26346 823.000
31.28341 774.000
31.30336 790.000
31.32330 789.000
31.34325 775.000
31.36320 761.000
31.38314 823.000
31.40309 794.000
31.42304 768.000
31.44298 775.000
31.46293 807.000
31.48288 816.000
31.50282 812.000
31.52277 812.000
31.54272 796.000
31.56267 814.000
31.58261 743.000
31.60256 801.000
31.62251 765.000
31.64245 750.000
31.66240 853.000
31.68235 799.000
31.70229 751.000
31.72224 770.000
31.74219 748.000
31.76214 771.000
31.78208 815.000
31.80203 772.000
31.82198 800.000
31.84192 767.000
31.86187 805.000
31.88182 758.000
31.90176 789.000
31.92171 800.000
31.94166 755.000
31.96160 790.000
31.98155 703.000
32.00150 794.000
32.02145 746.000
32.04139 761.000
32.06134 808.000
32.08129 787.000
32.10123 769.000
32.12118 714.000
32.14113 790.000
32.16107 773.000
32.18102 788.000
32.20097 759.000
32.22092 754.000
32.24086 775.000
32.26081 768.000
32.28076 771.000
32.30070 712.000
32.32065 696.000
32.34060 735.000
32.36054 737.000
32.38049 752.000
32.40044 736.000
32.42039 753.000
32.44033 765.000
32.46028 759.000
32.48023 725.000
32.50017 705.000
32.52012 716.000
32.54007 756.000
32.56001 733.000
32.57996 758.000
32.59991 736.000
32.61985 746.000
32.63980 749.000
32.65975 768.000
32.67970 736.000
32.69964 693.000
32.71959 729.000
32.73954 698.000
32.75948 734.000
32.77943 793.000
32.79938 696.000
32.81932 699.000
32.83927 779.000
32.85922 687.000
32.87917 743.000
32.89911 705.000
32.91906 746.000
32.93901 738.000
32.95895 747.000
32.97890 668.000
32.99885 771.000
33.01879 757.000
33.03874 754.000
33.05869 683.000
33.07863 710.000
33.09858 712.000
33.11853 689.000
33.13848 664.000
33.15842 663.000
33.17837 691.000
33.19832 718.000
33.21826 699.000
33.23821 718.000
33.25816 733.000
33.27810 706.000
33.29805 707.000
33.31800 686.000
33.33795 680.000
33.35789 717.000
33.37784 729.000
33.39779 671.000
33.41773 698.000
33.43768 689.000
33.45763 672.000
33.47757 709.000
33.49752 700.000
33.51747 696.000
33.53741 676.000
33.55736 687.000
33.57731 636.000
33.59726 687.000
33.61720 651.000
33.63715 703.000
33.65710 713.000
33.67704 693.000
33.69699 676.000
33.71694 704.000
33.73688 706.000
33.75683 649.000
33.77678 654.000
33.79673 704.000
33.81667 692.000
33.83662 712.000
33.85657 676.000
33.87651 656.000
33.89646 638.000
33.91641 651.000
33.93635 604.000
33.95630 632.000
33.97625 674.000
33.99620 665.000
34.01614 675.000
34.03609 645.000
34.05604 683.000
34.07598 699.000
34.09593 674.000
34.11588 599.000
34.13582 643.000
34.15577 655.000
34.17572 647.000
34.19566 629.000
34.21561 624.000
34.23556 646.000
34.25551 667.000
34.27545 673.000
34.29540 690.000
34.31535 635.000
34.33529 624.000
34.35524 611.000
34.37519 614.000
34.39513 657.000
34.41508 671.000
34.43503 592.000
34.45498 636.000
34.47492 630.000
34.49487 622.000
34.51482 651.000
34.53476 610.000
34.55471 578.000
34.57466 648.000
34.59460 646.000
34.61455 613.000
34.63450 631.000
34.65444 640.000
34.67439 598.000
34.69434 605.000
34.71429 621.000
34.73423 627.000
34.75418 591.000
34.77413 615.000
34.79407 653.000
34.81402 572.000
34.83397 653.000
34.85391 636.000
34.87386 637.000
34.89381 623.000
34.91376 588.000
34.93370 583.000
34.95365 619.000
34.97360 637.000
34.99354 591.000
35.01349 596.000
35.03344 609.000
35.05338 612.000
35.07333 624.000
35.09328 597.000
35.11322 580.000
35.13317 591.000
35.15312 630.000
35.17307 647.000
35.19301 647.000
35.21296 599.000
35.23291 624.000
35.25285 608.000
35.27280 598.000
35.29275 585.000
35.31269 584.000
35.33264 674.000
35.35259 625.000
35.37254 599.000
35.39248 613.000
35.41243 611.000
35.43238 596.000
35.45232 646.000
35.47227 563.000
35.49222 616.000
35.51216 597.000
35.53211 610.000
35.55206 592.000
35.57201 590.000
35.59195 576.000
35.61190 563.000
35.63185 566.000
35.65179 602.000
35.67174 581.000
35.69169 559.000
35.71163 573.000
35.73158 615.000
35.75153 559.000
35.77147 585.000
35.79142 599.000
35.81137 558.000
35.83132 605.000
35.85126 591.000
35.87121 622.000
35.89116 600.000
35.91110 608.000
35.93105 592.000
35.95100 583.000
35.97094 635.000
35.99089 604.000
36.01084 554.000
36.03079 561.000
36.05073 577.000
36.07068 556.000
36.09063 621.000
36.11057 587.000
36.13052 591.000
36.15047 604.000
36.17041 609.000
36.19036 657.000
36.21031 635.000
36.23025 580.000
36.25020 635.000
36.27015 618.000
36.29010 651.000
36.31004 581.000
36.32999 590.000
36.34994 642.000
36.36988 652.000
36.38983 653.000
36.40978 640.000
36.42972 656.000
36.44967 606.000
36.46962 660.000
36.48957 601.000
36.50951 656.000
36.52946 634.000
36.54941 654.000
36.56935 640.000
36.58930 712.000
36.60925 733.000
36.62919 721.000
36.64914 768.000
36.66909 847.000
36.68903 844.000
36.70898 914.000
36.72893 927.000
36.74888 890.000
36.76882 924.000
36.78877 873.000
36.80872 866.000
36.82866 885.000
36.84861 841.000
36.86856 880.000
36.88850 886.000
36.90845 903.000
36.92840 914.000
36.94835 980.000
36.96829 1039.000
36.98824 1151.000
37.00819 1231.000
37.02813 1346.000
37.04808 1577.000
37.06803 1599.000
37.08797 1872.000
37.10792 2030.000
37.12787 2405.000
37.14781 3051.000
37.16776 3700.000
37.18771 4440.000
37.20766 4591.000
37.22760 3940.000
37.24755 3602.000
37.26750 3294.000
37.28744 3224.000
37.30739 2676.000
37.32734 2144.000
37.34728 1715.000
37.36723 1325.000
37.38718 1073.000
37.40713 1021.000
37.42707 813.000
37.44702 800.000
37.46697 741.000
37.48691 715.000
37.50686 661.000
37.52681 674.000
37.54675 653.000
37.56670 601.000
37.58665 662.000
37.60660 633.000
37.62654 629.000
37.64649 609.000
37.66644 563.000
37.68638 579.000
37.70633 625.000
37.72628 580.000
37.74622 558.000
37.76617 606.000
37.78612 581.000
37.80606 547.000
37.82601 625.000
37.84596 558.000
37.86591 621.000
37.88585 587.000
37.90580 570.000
37.92575 526.000
37.94569 527.000
37.96564 523.000
37.98559 608.000
38.00553 623.000
38.02548 592.000
38.04543 554.000
38.06538 602.000
38.08532 508.000
38.10527 561.000
38.12522 550.000
38.14516 554.000
38.16511 572.000
38.18506 619.000
38.20500 546.000
38.22495 532.000
38.24490 538.000
38.26484 576.000
38.28479 571.000
38.30474 555.000
38.32469 574.000
38.34463 564.000
38.36458 552.000
38.38453 542.000
38.40447 586.000
38.42442 604.000
38.44437 579.000
38.46431 525.000
38.48426 544.000
38.50421 547.000
38.52416 557.000
38.54410 554.000
38.56405 524.000
38.58400 548.000
38.60394 526.000
38.62389 559.000
38.64384 561.000
38.66378 553.000
38.68373 540.000
38.70368 587.000
38.72362 560.000
38.74357 565.000
38.76352 525.000
38.78347 583.000
38.80341 515.000
38.82336 526.000
38.84331 586.000
38.86325 557.000
38.88320 560.000
38.90315 622.000
38.92309 549.000
38.94304 552.000
38.96299 574.000
38.98294 539.000
39.00288 569.000
39.02283 562.000
39.04278 552.000
39.06272 526.000
39.08267 548.000
39.10262 539.000
39.12256 526.000
39.14251 556.000
39.16246 539.000
39.18241 553.000
39.20235 570.000
39.22230 537.000
39.24225 518.000
39.26219 562.000
39.28214 558.000
39.30209 548.000
39.32203 545.000
39.34198 549.000
39.36193 595.000
39.38187 546.000
39.40182 534.000
39.42177 596.000
39.44172 589.000
39.46166 540.000
39.48161 583.000
39.50156 537.000
39.52150 584.000
39.54145 521.000
39.56140 559.000
39.58134 593.000
39.60129 573.000
39.62124 549.000
39.64119 590.000
39.66113 523.000
39.68108 569.000
39.70103 533.000
39.72097 542.000
39.74092 522.000
39.76087 567.000
39.78081 514.000
39.80076 626.000
39.82071 516.000
39.84065 568.000
39.86060 527.000
39.88055 534.000
39.90050 564.000
39.92044 556.000
39.94039 516.000
39.96034 551.000
39.98028 541.000
40.00023 552.000
40.02018 589.000
40.04012 491.000
40.06007 580.000
40.08002 562.000
40.09997 575.000
40.11991 559.000
40.13986 527.000
40.15981 509.000
40.17975 562.000
40.19970 510.000
40.21965 556.000
40.23959 570.000
40.25954 554.000
40.27949 580.000
40.29943 526.000
40.31938 553.000
40.33933 547.000
40.35928 576.000
40.37922 538.000
40.39917 469.000
40.41912 539.000
40.43906 527.000
40.45901 523.000
40.47896 518.000
40.49890 538.000
40.51885 545.000
40.53880 574.000
40.55875 583.000
40.57869 545.000
40.59864 523.000
40.61859 538.000
40.63853 540.000
40.65848 556.000
40.67843 556.000
40.69837 545.000
40.71832 558.000
40.73827 545.000
40.75822 530.000
40.77816 533.000
40.79811 525.000
40.81806 546.000
40.83800 533.000
40.85795 524.000
40.87790 551.000
40.89784 569.000
40.91779 505.000
40.93774 535.000
40.95768 559.000
40.97763 572.000
40.99758 553.000
41.01753 541.000
41.03747 544.000
41.05742 551.000
41.07737 532.000
41.09731 535.000
41.11726 582.000
41.13721 546.000
41.15715 539.000
41.17710 553.000
41.19705 563.000
41.21700 521.000
41.23694 570.000
41.25689 560.000
41.27684 556.000
41.29678 517.000
41.31673 587.000
41.33668 588.000
41.35662 547.000
41.37657 568.000
41.39652 573.000
41.41646 552.000
41.43641 573.000
41.45636 551.000
41.47631 554.000
41.49625 564.000
41.51620 577.000
41.53615 507.000
41.55609 538.000
41.57604 575.000
41.59599 550.000
41.61593 598.000
41.63588 564.000
41.65583 588.000
41.67578 550.000
41.69572 541.000
41.71567 530.000
41.73562 556.000
41.75556 562.000
41.77551 516.000
41.79546 590.000
41.81540 537.000
41.83535 557.000
41.85530 598.000
41.87524 555.000
41.89519 537.000
41.91514 582.000
41.93509 576.000
41.95503 549.000
41.97498 583.000
41.99493 554.000
42.01487 547.000
42.03482 540.000
42.05477 563.000
42.07471 595.000
42.09466 579.000
42.11461 563.000
42.13456 605.000
42.15450 589.000
42.17445 576.000
42.19440 615.000
42.21434 642.000
42.23429 553.000
42.25424 592.000
42.27418 591.000
42.29413 591.000
42.31408 641.000
42.33403 616.000
42.35397 663.000
42.37392 642.000
42.39387 606.000
42.41381 684.000
42.43376 685.000
42.45371 664.000
42.47365 684.000
42.49360 698.000
42.51355 729.000
42.53349 737.000
42.55344 759.000
42.57339 830.000
42.59334 826.000
42.61328 886.000
42.63323 951.000
42.65318 944.000
42.67312 976.000
42.69307 1018.000
42.71302 1082.000
42.73296 1179.000
42.75291 1216.000
42.77286 1228.000
42.79281 1193.000
42.81275 1216.000
42.83270 1177.000
42.85265 1248.000
42.87259 1198.000
42.89254 1209.000
42.91249 1172.000
42.93243 1272.000
42.95238 1276.000
42.97233 1353.000
42.99227 1456.000
43.01222 1551.000
43.03217 1709.000
43.05212 1783.000
43.07206 1952.000
43.09201 2334.000
43.11196 2580.000
43.13190 2891.000
43.15185 3235.000
43.17180 3906.000
43.19174 4897.000
43.21169 6444.000
43.23164 7607.000
43.25159 7347.000
43.27153 5840.000
43.29148 4560.000
43.31143 4249.000
43.33137 4418.000
43.35132 4364.000
43.37127 3744.000
43.39121 2761.000
43.41116 1955.000
43.43111 1372.000
43.45105 1166.000
43.47100 1041.000
43.49095 966.000
43.51090 897.000
43.53084 802.000
43.55079 772.000
43.57074 735.000
43.59068 700.000
43.61063 674.000
43.63058 665.000
43.65052 648.000
43.67047 618.000
43.69042 607.000
43.71037 609.000
43.73031 677.000
43.75026 542.000
43.77021 614.000
43.79015 578.000
43.81010 570.000
43.83005 540.000
43.84999 527.000
43.86994 563.000
43.88989 557.000
43.90984 529.000
43.92978 542.000
43.94973 506.000
43.96968 551.000
43.98962 494.000
44.00957 561.000
44.02952 520.000
44.04946 538.000
44.06941 497.000
44.08936 537.000
44.10930 520.000
44.12925 528.000
44.14920 532.000
44.16915 514.000
44.18909 506.000
44.20904 514.000
44.22899 513.000
44.24893 489.000
44.26888 476.000
44.28883 476.000
44.30877 469.000
44.32872 484.000
44.34867 490.000
44.36862 510.000
44.38856 482.000
44.40851 516.000
44.42846 500.000
44.44840 515.000
44.46835 510.000
44.48830 509.000
44.50824 501.000
44.52819 488.000
44.54814 503.000
44.56808 477.000
44.58803 488.000
44.60798 468.000
44.62793 495.000
44.64787 505.000
44.66782 521.000
44.68777 464.000
44.70771 471.000
44.72766 469.000
44.74761 463.000
44.76755 451.000
44.78750 500.000
44.80745 476.000
44.82740 483.000
44.84734 460.000
44.86729 453.000
44.88724 458.000
44.90718 436.000
44.92713 458.000
44.94708 470.000
44.96702 464.000
44.98697 479.000
45.00692 471.000
45.02686 464.000
45.04681 426.000
45.06676 433.000
45.08671 464.000
45.10665 468.000
45.12660 442.000
45.14655 469.000
45.16649 462.000
45.18644 429.000
45.20639 450.000
45.22633 477.000
45.24628 438.000
45.26623 486.000
45.28618 436.000
45.30612 433.000
45.32607 430.000
45.34602 396.000
45.36596 430.000
45.38591 409.000
45.40586 497.000
45.42580 443.000
45.44575 422.000
45.46570 436.000
45.48565 438.000
45.50559 444.000
45.52554 394.000
45.54549 406.000
45.56543 423.000
45.58538 437.000
45.60533 433.000
45.62527 436.000
45.64522 417.000
45.66517 393.000
45.68511 425.000
45.70506 440.000
45.72501 428.000
45.74496 442.000
45.76490 411.000
45.78485 433.000
45.80480 418.000
45.82474 413.000
45.84469 427.000
45.86464 438.000
45.88458 430.000
45.90453 427.000
45.92448 458.000
45.94443 407.000
45.96437 433.000
45.98432 428.000
46.00427 421.000
46.02421 478.000
46.04416 461.000
46.06411 452.000
46.08405 410.000
46.10400 441.000
46.12395 418.000
46.14389 432.000
46.16384 432.000
46.18379 398.000
46.20374 425.000
46.22368 430.000
46.24363 425.000
46.26358 411.000
46.28352 426.000
46.30347 436.000
46.32342 409.000
46.34336 411.000
46.36331 444.000
46.38326 439.000
46.40321 434.000
46.42315 425.000
46.44310 418.000
46.46305 398.000
46.48299 386.000
46.50294 436.000
46.52289 441.000
46.54283 397.000
46.56278 410.000
46.58273 403.000
46.60267 400.000
46.62262 422.000
46.64257 437.000
46.66252 401.000
46.68246 429.000
46.70241 412.000
46.72236 407.000
46.74230 421.000
46.76225 429.000
46.78220 419.000
46.80214 400.000
46.82209 397.000
46.84204 432.000
46.86199 383.000
46.88193 398.000
46.90188 392.000
46.92183 412.000
46.94177 416.000
46.96172 392.000
46.98167 401.000
47.00161 383.000
47.02156 389.000
47.04151 410.000
47.06146 388.000
47.08140 396.000
47.10135 393.000
47.12130 396.000
47.14124 437.000
47.16119 417.000
47.18114 405.000
47.20108 405.000
47.22103 421.000
47.24098 356.000
47.26092 405.000
47.28087 360.000
47.30082 372.000
47.32077 403.000
47.34071 357.000
47.36066 374.000
47.38061 412.000
47.40055 397.000
47.42050 385.000
47.44045 397.000
47.46039 417.000
47.48034 398.000
47.50029 371.000
47.52024 394.000
47.54018 373.000
47.56013 390.000
47.58008 420.000
47.60002 385.000
47.61997 416.000
47.63992 391.000
47.65986 395.000
47.67981 384.000
47.69976 366.000
47.71970 401.000
47.73965 376.000
47.75960 376.000
47.77955 380.000
47.79949 347.000
47.81944 427.000
47.83939 365.000
47.85933 384.000
47.87928 407.000
47.89923 394.000
47.91917 369.000
47.93912 393.000
47.95907 406.000
47.97902 391.000
47.99896 393.000
48.01891 418.000
48.03886 385.000
48.05880 394.000
48.07875 388.000
48.09870 358.000
48.11864 389.000
48.13859 358.000
48.15854 353.000
48.17848 403.000
48.19843 399.000
48.21838 376.000
48.23833 329.000
48.25827 366.000
48.27822 412.000
48.29817 399.000
48.31811 398.000
48.33806 363.000
48.35801 361.000
48.37795 396.000
48.39790 387.000
48.41785 405.000
48.43780 407.000
48.45774 385.000
48.47769 399.000
48.49764 401.000
48.51758 363.000
48.53753 351.000
48.55748 367.000
48.57742 410.000
48.59737 376.000
48.61732 396.000
48.63726 379.000
48.65721 385.000
48.67716 363.000
48.69711 359.000
48.71705 387.000
48.73700 377.000
48.75695 386.000
48.77689 367.000
48.79684 374.000
48.81679 353.000
48.83673 351.000
48.85668 368.000
48.87663 345.000
48.89658 378.000
48.91652 375.000
48.93647 359.000
48.95642 361.000
48.97636 364.000
48.99631 336.000
49.01626 355.000
49.03620 357.000
49.05615 350.000
49.07610 344.000
49.09605 358.000
49.11599 368.000
49.13594 361.000
49.15589 329.000
49.17583 377.000
49.19578 373.000
49.21573 398.000
49.23567 349.000
49.25562 347.000
49.27557 368.000
49.29551 371.000
49.31546 359.000
49.33541 383.000
49.35536 360.000
49.37530 338.000
49.39525 371.000
49.41520 332.000
49.43514 376.000
49.45509 336.000
49.47504 357.000
49.49498 343.000
49.51493 333.000
49.53488 383.000
49.55483 365.000
49.57477 353.000
49.59472 361.000
49.61467 337.000
49.63461 319.000
49.65456 366.000
49.67451 361.000
49.69445 334.000
49.71440 386.000
49.73435 335.000
49.75429 349.000
49.77424 393.000
49.79419 353.000
49.81414 391.000
49.83408 366.000
49.85403 357.000
49.87398 401.000
49.89392 383.000
49.91387 388.000
49.93382 372.000
49.95376 403.000
49.97371 343.000
49.99366 349.000
50.01361 334.000
50.03355 392.000
50.05350 317.000
50.07345 400.000
50.09339 354.000
50.11334 365.000
50.13329 376.000
50.15323 381.000
50.17318 354.000
50.19313 402.000
50.21307 411.000
50.23302 338.000
50.25297 340.000
50.27292 368.000
50.29286 371.000
50.31281 376.000
50.33276 368.000
50.35270 371.000
50.37265 365.000
50.39260 359.000
50.41254 386.000
50.43249 349.000
50.45244 388.000
50.47239 384.000
50.49233 355.000
50.51228 384.000
50.53223 395.000
50.55217 351.000
50.57212 375.000
50.59207 335.000
50.61201 398.000
50.63196 341.000
50.65191 384.000
50.67186 403.000
50.69180 362.000
50.71175 364.000
50.73170 373.000
50.75164 353.000
50.77159 357.000
50.79154 380.000
50.81148 373.000
50.83143 395.000
50.85138 332.000
50.87132 355.000
50.89127 348.000
50.91122 384.000
50.93117 359.000
50.95111 369.000
50.97106 351.000
50.99101 381.000
51.01095 357.000
51.03090 319.000
51.05085 368.000
51.07079 365.000
51.09074 325.000
51.11069 373.000
51.13064 367.000
51.15058 348.000
51.17053 382.000
51.19048 347.000
51.21042 361.000
51.23037 332.000
51.25032 373.000
51.27026 374.000
51.29021 349.000
51.31016 339.000
51.33010 378.000
51.35005 340.000
51.37000 365.000
51.38995 349.000
51.40989 337.000
51.42984 384.000
51.44979 342.000
51.46973 308.000
51.48968 305.000
51.50963 342.000
51.52957 348.000
51.54952 375.000
51.56947 363.000
51.58942 379.000
51.60936 338.000
51.62931 346.000
51.64926 343.000
51.66920 345.000
51.68915 350.000
51.70910 330.000
51.72904 341.000
51.74899 329.000
51.76894 347.000
51.78888 355.000
51.80883 367.000
51.82878 354.000
51.84873 339.000
51.86867 336.000
51.88862 350.000
51.90857 350.000
51.92851 393.000
51.94846 365.000
51.96841 301.000
51.98835 333.000
52.00830 322.000
52.02825 385.000
52.04820 360.000
52.06814 348.000
52.08809 357.000
52.10804 345.000
52.12798 387.000
52.14793 330.000
52.16788 380.000
52.18782 361.000
52.20777 346.000
52.22772 333.000
52.24767 326.000
52.26761 327.000
52.28756 364.000
52.30751 312.000
52.32745 321.000
52.34740 353.000
52.36735 326.000
52.38729 300.000
52.40724 335.000
52.42719 357.000
52.44713 351.000
52.46708 307.000
52.48703 317.000
52.50698 325.000
52.52692 331.000
52.54687 345.000
52.56682 352.000
52.58676 323.000
52.60671 356.000
52.62666 345.000
52.64660 328.000
52.66655 352.000
52.68650 339.000
52.70645 353.000
52.72639 311.000
52.74634 332.000
52.76629 350.000
52.78623 370.000
52.80618 358.000
52.82613 328.000
52.84607 349.000
52.86602 332.000
52.88597 322.000
52.90591 359.000
52.92586 328.000
52.94581 386.000
52.96576 308.000
52.98570 324.000
53.00565 367.000
53.02560 338.000
53.04554 315.000
53.06549 323.000
53.08544 306.000
53.10538 319.000
53.12533 381.000
53.14528 342.000
53.16523 349.000
53.18517 357.000
53.20512 339.000
53.22507 337.000
53.24501 357.000
53.26496 338.000
53.28491 318.000
53.30485 357.000
53.32480 342.000
53.34475 340.000
53.36469 344.000
53.38464 372.000
53.40459 325.000
53.42454 343.000
53.44448 326.000
53.46443 341.000
53.48438 294.000
53.50432 354.000
53.52427 339.000
53.54422 345.000
53.56416 349.000
53.58411 345.000
53.60406 306.000
53.62401 321.000
53.64395 331.000
53.66390 338.000
53.68385 337.000
53.70379 308.000
53.72374 332.000
53.74369 323.000
53.76363 376.000
53.78358 314.000
53.80353 313.000
53.82348 355.000
53.84342 365.000
53.86337 363.000
53.88332 361.000
53.90326 357.000
53.92321 315.000
53.94316 334.000
53.96310 357.000
53.98305 372.000
54.00300 321.000
54.02294 340.000
54.04289 326.000
54.06284 318.000
54.08279 350.000
54.10273 357.000
54.12268 368.000
54.14263 295.000
54.16257 332.000
54.18252 328.000
54.20247 330.000
54.22241 336.000
54.24236 342.000
54.26231 346.000
54.28226 342.000
54.30220 294.000
54.32215 353.000
54.34210 332.000
54.36204 293.000
54.38199 323.000
54.40194 315.000
54.42188 309.000
54.44183 309.000
54.46178 359.000
54.48172 324.000
54.50167 334.000
54.52162 354.000
54.54157 346.000
54.56151 347.000
54.58146 311.000
54.60141 311.000
54.62135 322.000
54.64130 345.000
54.66125 347.000
54.68119 343.000
54.70114 322.000
54.72109 343.000
54.74104 291.000
54.76098 322.000
54.78093 328.000
54.80088 334.000
54.82082 323.000
54.84077 362.000
54.86072 342.000
54.88066 315.000
54.90061 303.000
54.92056 326.000
54.94050 354.000
54.96045 330.000
54.98040 332.000
55.00035 339.000
55.02029 334.000
55.04024 326.000
55.06019 340.000
55.08013 360.000
55.10008 307.000
55.12003 338.000
55.13997 331.000
55.15992 362.000
55.17987 343.000
55.19982 335.000
55.21976 330.000
55.23971 304.000
55.25966 324.000
55.27960 331.000
55.29955 337.000
55.31950 339.000
55.33944 303.000
55.35939 331.000
55.37934 308.000
55.39929 323.000
55.41923 297.000
55.43918 309.000
55.45913 344.000
55.47907 319.000
55.49902 319.000
55.51897 340.000
55.53891 316.000
55.55886 300.000
55.57881 342.000
55.59875 320.000
55.61870 330.000
55.63865 317.000
55.65860 334.000
55.67854 301.000
55.69849 369.000
55.71844 308.000
55.73838 332.000
55.75833 330.000
55.77828 343.000
55.79822 322.000
55.81817 325.000
55.83812 314.000
55.85807 333.000
55.87801 308.000
55.89796 334.000
55.91791 324.000
55.93785 318.000
55.95780 347.000
55.97775 335.000
55.99769 323.000
56.01764 334.000
56.03759 320.000
56.05753 292.000
56.07748 327.000
56.09743 326.000
56.11738 334.000
56.13732 333.000
56.15727 337.000
56.17722 350.000
56.19716 315.000
56.21711 314.000
56.23706 336.000
56.25700 309.000
56.27695 356.000
56.29690 281.000
56.31685 339.000
56.33679 303.000
56.35674 325.000
56.37669 302.000
56.39663 323.000
56.41658 284.000
56.43653 277.000
56.45647 317.000
56.47642 325.000
56.49637 340.000
56.51631 326.000
56.53626 269.000
56.55621 315.000
56.57616 336.000
56.59610 339.000
56.61605 287.000
56.63600 340.000
56.65594 338.000
56.67589 342.000
56.69584 308.000
56.71578 323.000
56.73573 330.000
56.75568 335.000
56.77563 337.000
56.79557 326.000
56.81552 330.000
56.83547 324.000
56.85541 299.000
56.87536 268.000
56.89531 310.000
56.91525 325.000
56.93520 310.000
56.95515 308.000
56.97510 332.000
56.99504 331.000
57.01499 324.000
57.03494 335.000
57.05488 344.000
57.07483 301.000
57.09478 317.000
57.11472 313.000
57.13467 315.000
57.15462 315.000
57.17456 314.000
57.19451 342.000
57.21446 285.000
57.23441 337.000
57.25435 322.000
57.27430 335.000
57.29425 321.000
57.31419 330.000
57.33414 310.000
57.35409 327.000
57.37403 289.000
57.39398 311.000
57.41393 341.000
57.43388 328.000
57.45382 333.000
57.47377 291.000
57.49372 305.000
57.51366 318.000
57.53361 361.000
57.55356 333.000
57.57350 321.000
57.59345 334.000
57.61340 302.000
57.63334 347.000
57.65329 294.000
57.67324 310.000
57.69319 303.000
57.71313 311.000
57.73308 293.000
57.75303 303.000
57.77297 286.000
57.79292 338.000
57.81287 307.000
57.83281 293.000
57.85276 318.000
57.87271 308.000
57.89266 316.000
57.91260 304.000
57.93255 312.000
57.95250 330.000
57.97244 299.000
57.99239 301.000
58.01234 298.000
58.03228 323.000
58.05223 319.000
58.07218 317.000
58.09212 334.000
58.11207 308.000
58.13202 319.000
58.15197 343.000
58.17191 297.000
58.19186 305.000
58.21181 304.000
58.23175 309.000
58.25170 321.000
58.27165 288.000
58.29159 320.000
58.31154 327.000
58.33149 320.000
58.35144 325.000
58.37138 303.000
58.39133 308.000
58.41128 304.000
58.43122 312.000
58.45117 312.000
58.47112 303.000
58.49106 350.000
58.51101 316.000
58.53096 339.000
58.55090 349.000
58.57085 307.000
58.59080 342.000
58.61075 290.000
58.63069 303.000
58.65064 312.000
58.67059 328.000
58.69053 312.000
58.71048 315.000
58.73043 310.000
58.75037 326.000
58.77032 307.000
58.79027 318.000
58.81022 313.000
58.83016 299.000
58.85011 298.000
58.87006 306.000
58.89000 287.000
58.90995 316.000
58.92990 312.000
58.94984 315.000
58.96979 286.000
58.98974 324.000
59.00969 301.000
59.02963 333.000
59.04958 291.000
59.06953 316.000
59.08947 309.000
59.10942 279.000
59.12937 293.000
59.14931 300.000
59.16926 308.000
59.18921 310.000
59.20915 346.000
59.22910 320.000
59.24905 290.000
59.26900 345.000
59.28894 296.000
59.30889 301.000
59.32884 319.000
59.34878 278.000
59.36873 306.000
59.38868 274.000
59.40862 290.000
59.42857 285.000
59.44852 316.000
59.46847 309.000
59.48841 310.000
59.50836 339.000
59.52831 311.000
59.54825 326.000
59.56820 309.000
59.58815 295.000
59.60809 338.000
59.62804 316.000
59.64799 278.000
59.66793 292.000
59.68788 307.000
59.70783 297.000
59.72778 286.000
59.74772 337.000
59.76767 329.000
59.78762 273.000
59.80756 310.000
59.82751 328.000
59.84746 312.000
59.86740 284.000
59.88735 305.000
59.90730 281.000
59.92725 311.000
59.94719 346.000
59.96714 310.000
59.98709 299.000
60.00703 285.000
60.02698 338.000
60.04693 314.000
60.06687 274.000
60.08682 326.000
60.10677 302.000
60.12671 312.000
60.14666 302.000
60.16661 309.000
60.18656 304.000
60.20650 287.000
60.22645 287.000
60.24640 328.000
60.26634 314.000
60.28629 299.000
60.30624 281.000
60.32618 308.000
60.34613 300.000
60.36608 301.000
60.38603 308.000
60.40597 303.000
60.42592 340.000
60.44587 309.000
60.46581 323.000
60.48576 334.000
60.50571 318.000
60.52565 308.000
60.54560 328.000
60.56555 336.000
60.58550 309.000
60.60544 333.000
60.62539 316.000
60.64534 353.000
60.66528 283.000
60.68523 305.000
60.70518 335.000
60.72512 327.000
60.74507 299.000
60.76502 289.000
60.78496 321.000
60.80491 335.000
60.82486 341.000
60.84481 319.000
60.86475 316.000
60.88470 327.000
60.90465 331.000
60.92459 295.000
60.94454 315.000
60.96449 278.000
60.98443 293.000
61.00438 291.000
61.02433 304.000
61.04428 284.000
61.06422 296.000
61.08417 312.000
61.10412 326.000
61.12406 291.000
61.14401 307.000
61.16396 327.000
61.18390 320.000
61.20385 320.000
61.22380 291.000
61.24374 313.000
61.26369 321.000
61.28364 344.000
61.30359 289.000
61.32353 353.000
61.34348 339.000
61.36343 300.000
61.38337 321.000
61.40332 310.000
61.42327 311.000
61.44321 309.000
61.46316 302.000
61.48311 309.000
61.50306 291.000
61.52300 321.000
61.54295 322.000
61.56290 288.000
61.58284 315.000
61.60279 358.000
61.62274 331.000
61.64268 324.000
61.66263 323.000
61.68258 316.000
61.70252 312.000
61.72247 337.000
61.74242 320.000
61.76237 322.000
61.78231 328.000
61.80226 364.000
61.82221 318.000
61.84215 305.000
61.86210 310.000
61.88205 351.000
61.90199 358.000
61.92194 357.000
61.94189 369.000
61.96184 393.000
61.98178 405.000
62.00173 390.000
62.02168 399.000
62.04162 423.000
62.06157 471.000
62.08152 499.000
62.10146 535.000
62.12141 574.000
62.14136 577.000
62.16131 622.000
62.18125 672.000
62.20120 651.000
62.22115 697.000
62.24109 691.000
62.26104 741.000
62.28099 768.000
62.30093 806.000
62.32088 777.000
62.34083 876.000
62.36077 854.000
62.38072 893.000
62.40067 866.000
62.42062 878.000
62.44056 928.000
62.46051 949.000
62.48046 1002.000
62.50040 927.000
62.52035 955.000
62.54030 977.000
62.56024 997.000
62.58019 1028.000
62.60014 1064.000
62.62009 1078.000
62.64003 1133.000
62.65998 1271.000
62.67993 1388.000
62.69987 1554.000
62.71982 1682.000
62.73977 1992.000
62.75971 2136.000
62.77966 2521.000
62.79961 2547.000
62.81955 2743.000
62.83950 2609.000
62.85945 2472.000
62.87940 2288.000
62.89934 2092.000
62.91929 1917.000
62.93924 1765.000
62.95918 1787.000
62.97913 1713.000
62.99908 1589.000
63.01902 1503.000
63.03897 1339.000
63.05892 1130.000
63.07887 997.000
63.09881 849.000
63.11876 676.000
63.13871 597.000
63.15865 548.000
63.17860 504.000
63.19855 471.000
63.21849 450.000
63.23844 434.000
63.25839 433.000
63.27833 433.000
63.29828 408.000
63.31823 359.000
63.33818 376.000
63.35812 365.000
63.37807 352.000
63.39802 312.000
63.41796 303.000
63.43791 332.000
63.45786 355.000
63.47780 339.000
63.49775 353.000
63.51770 346.000
63.53765 358.000
63.55759 347.000
63.57754 340.000
63.59749 288.000
63.61743 316.000
63.63738 339.000
63.65733 369.000
63.67727 352.000
63.69722 327.000
63.71717 314.000
63.73712 343.000
63.75706 337.000
63.77701 338.000
63.79696 317.000
63.81690 317.000
63.83685 331.000
63.85680 333.000
63.87674 322.000
63.89669 303.000
63.91664 331.000
63.93658 293.000
63.95653 320.000
63.97648 320.000
63.99643 335.000
64.01637 336.000
64.03632 285.000
64.05627 308.000
64.07621 322.000
64.09616 316.000
64.11611 318.000
64.13605 302.000
64.15600 307.000
64.17595 320.000
64.19590 303.000
64.21584 293.000
64.23579 289.000
64.25574 300.000
64.27568 299.000
64.29563 316.000
64.31558 320.000
64.33552 320.000
64.35547 313.000
64.37542 277.000
64.39536 312.000
64.41531 306.000
64.43526 292.000
64.45521 310.000
64.47515 293.000
64.49510 301.000
64.51505 317.000
64.53499 303.000
64.55494 325.000
64.57489 283.000
64.59483 299.000
64.61478 320.000
64.63473 285.000
64.65468 283.000
64.67462 283.000
64.69457 309.000
64.71452 293.000
64.73446 275.000
64.75441 301.000
64.77436 284.000
64.79430 286.000
64.81425 292.000
64.83420 308.000
64.85414 307.000
64.87409 291.000
64.89404 316.000
64.91399 287.000
64.93393 291.000
64.95388 352.000
64.97383 316.000
64.99377 301.000
65.01372 303.000
65.03367 327.000
65.05361 276.000
65.07356 315.000
65.09351 295.000
65.11346 290.000
65.13340 330.000
65.15335 299.000
65.17330 262.000
65.19324 312.000
65.21319 303.000
65.23314 294.000
65.25308 267.000
65.27303 284.000
65.29298 275.000
65.31293 290.000
65.33287 310.000
65.35282 337.000
65.37277 295.000
65.39271 319.000
65.41266 292.000
65.43261 317.000
65.45255 285.000
65.47250 330.000
65.49245 260.000
65.51239 286.000
65.53234 279.000
65.55229 282.000
65.57224 291.000
65.59218 314.000
65.61213 294.000
65.63208 278.000
65.65202 318.000
65.67197 294.000
65.69192 304.000
65.71186 302.000
65.73181 305.000
65.75176 287.000
65.77171 300.000
65.79165 314.000
65.81160 266.000
65.83155 299.000
65.85149 289.000
65.87144 299.000
65.89139 307.000
65.91133 294.000
65.93128 322.000
65.95123 306.000
65.97117 305.000
65.99112 289.000
66.01107 308.000
66.03102 266.000
66.05096 302.000
66.07091 273.000
66.09086 296.000
66.11080 310.000
66.13075 260.000
66.15070 283.000
66.17064 289.000
66.19059 260.000
66.21054 303.000
66.23049 295.000
66.25043 290.000
66.27038 299.000
66.29033 275.000
66.31027 269.000
66.33022 278.000
66.35017 286.000
66.37011 303.000
66.39006 289.000
66.41001 309.000
66.42995 258.000
66.44990 253.000
66.46985 305.000
66.48980 312.000
66.50974 307.000
66.52969 264.000
66.54964 281.000
66.56958 254.000
66.58953 290.000
66.60948 286.000
66.62942 305.000
66.64937 314.000
66.66932 283.000
66.68927 312.000
66.70921 288.000
66.72916 302.000
66.74911 271.000
66.76905 292.000
66.78900 296.000
66.80895 301.000
66.82889 283.000
66.84884 326.000
66.86879 298.000
66.88874 269.000
66.90868 275.000
66.92863 274.000
66.94858 301.000
66.96852 276.000
66.98847 274.000
67.00842 309.000
67.02836 304.000
67.04831 298.000
67.06826 300.000
67.08820 274.000
67.10815 289.000
67.12810 266.000
67.14805 253.000
67.16799 277.000
67.18794 295.000
67.20789 302.000
67.22783 305.000
67.24778 276.000
67.26773 279.000
67.28767 285.000
67.30762 274.000
67.32757 318.000
67.34752 292.000
67.36746 331.000
67.38741 287.000
67.40736 274.000
67.42730 291.000
67.44725 278.000
67.46720 275.000
67.48714 311.000
67.50709 300.000
67.52704 282.000
67.54698 303.000
67.56693 322.000
67.58688 247.000
67.60683 270.000
67.62677 320.000
67.64672 276.000
67.66667 299.000
67.68661 317.000
67.70656 310.000
67.72651 288.000
67.74645 289.000
67.76640 288.000
67.78635 261.000
67.80630 283.000
67.82624 275.000
67.84619 272.000
67.86614 276.000
67.88608 281.000
67.90603 276.000
67.92598 276.000
67.94592 300.000
67.96587 308.000
67.98582 270.000
68.00576 281.000
68.02571 295.000
68.04566 315.000
68.06561 279.000
68.08555 321.000
68.10550 284.000
68.12545 279.000
68.14539 290.000
68.16534 320.000
68.18529 278.000
68.20523 290.000
68.22518 346.000
68.24513 292.000
68.26508 272.000
68.28502 280.000
68.30497 272.000
68.32492 257.000
68.34486 291.000
68.36481 266.000
68.38476 295.000
68.40470 283.000
68.42465 270.000
68.44460 275.000
68.46455 258.000
68.48449 288.000
68.50444 288.000
68.52439 266.000
68.54433 317.000
68.56428 294.000
68.58423 268.000
68.60417 294.000
68.62412 261.000
68.64407 290.000
68.66401 293.000
68.68396 300.000
68.70391 280.000
68.72386 267.000
68.74380 281.000
68.76375 272.000
68.78370 289.000
68.80364 299.000
68.82359 315.000
68.84354 283.000
68.86348 279.000
68.88343 274.000
68.90338 282.000
68.92333 294.000
68.94327 260.000
68.96322 273.000
68.98317 278.000
69.00311 254.000
69.02306 291.000
69.04301 286.000
69.06295 271.000
69.08290 286.000
69.10285 267.000
69.12279 271.000
69.14274 294.000
69.16269 258.000
69.18264 279.000
69.20258 303.000
69.22253 292.000
69.24248 315.000
69.26242 341.000
69.28237 247.000
69.30232 301.000
69.32226 277.000
69.34221 296.000
69.36216 261.000
69.38211 285.000
69.40205 299.000
69.42200 255.000
69.44195 267.000
69.46189 303.000
69.48184 285.000
69.50179 279.000
69.52173 298.000
69.54168 289.000
69.56163 259.000
69.58157 248.000
69.60152 255.000
69.62147 292.000
69.64142 263.000
69.66136 272.000
69.68131 278.000
69.70126 279.000
69.72120 252.000
69.74115 258.000
69.76110 288.000
69.78104 294.000
69.80099 259.000
69.82094 297.000
69.84089 311.000
69.86083 297.000
69.88078 273.000
69.90073 275.000
69.92067 264.000
69.94062 282.000
69.96057 251.000
69.98051 265.000
70.00046 271.000
70.02041 262.000
70.04035 275.000
70.06030 269.000
70.08025 285.000
70.10020 277.000
70.12014 272.000
70.14009 276.000
70.16004 273.000
70.17998 271.000
70.19993 262.000
70.21988 290.000
70.23982 297.000
70.25977 266.000
70.27972 286.000
70.29967 309.000
70.31961 311.000
70.33956 275.000
70.35951 274.000
70.37945 305.000
70.39940 292.000
70.41935 274.000
70.43929 291.000
70.45924 273.000
70.47919 293.000
70.49914 264.000
70.51908 288.000
70.53903 294.000
70.55898 274.000
70.57892 300.000
70.59887 299.000
70.61882 249.000
70.63876 271.000
70.65871 277.000
70.67866 263.000
70.69860 282.000
70.71855 289.000
70.73850 279.000
70.75845 278.000
70.77839 268.000
70.79834 278.000
70.81829 278.000
70.83823 287.000
70.85818 265.000
70.87813 271.000
70.89807 272.000
70.91802 322.000
70.93797 265.000
70.95792 265.000
70.97786 270.000
70.99781 290.000
71.01776 282.000
71.03770 279.000
71.05765 273.000
71.07760 275.000
71.09754 289.000
71.11749 246.000
71.13744 273.000
71.15738 246.000
71.17733 254.000
71.19728 275.000
71.21723 297.000
71.23717 270.000
71.25712 274.000
71.27707 285.000
71.29701 279.000
71.31696 262.000
71.33691 244.000
71.35685 278.000
71.37680 288.000
71.39675 290.000
71.41670 293.000
71.43664 297.000
71.45659 291.000
71.47654 277.000
71.49648 283.000
71.51643 268.000
71.53638 305.000
71.55632 276.000
71.57627 264.000
71.59622 255.000
71.61616 271.000
71.63611 278.000
71.65606 264.000
71.67601 283.000
71.69595 309.000
71.71590 248.000
71.73585 268.000
71.75579 273.000
71.77574 262.000
71.79569 260.000
71.81563 254.000
71.83558 265.000
71.85553 261.000
71.87548 265.000
71.89542 267.000
71.91537 281.000
71.93532 250.000
71.95526 305.000
71.97521 281.000
71.99516 282.000
72.01510 274.000
72.03505 271.000
72.05500 273.000
72.07495 267.000
72.09489 254.000
72.11484 276.000
72.13479 248.000
72.15473 306.000
72.17468 244.000
72.19463 274.000
72.21457 249.000
72.23452 270.000
72.25447 288.000
72.27441 274.000
72.29436 281.000
72.31431 287.000
72.33426 263.000
72.35420 277.000
72.37415 270.000
72.39410 245.000
72.41404 280.000
72.43399 271.000
72.45394 261.000
72.47388 261.000
72.49383 303.000
72.51378 279.000
72.53373 272.000
72.55367 264.000
72.57362 292.000
72.59357 278.000
72.61351 286.000
72.63346 315.000
72.65341 295.000
72.67335 269.000
72.69330 250.000
72.71325 286.000
72.73319 261.000
72.75314 271.000
72.77309 262.000
72.79304 294.000
72.81298 290.000
72.83293 284.000
72.85288 264.000
72.87282 270.000
72.89277 284.000
72.91272 271.000
72.93266 300.000
72.95261 279.000
72.97256 281.000
72.99251 255.000
73.01245 280.000
73.03240 283.000
73.05235 285.000
73.07229 285.000
73.09224 260.000
73.11219 282.000
73.13213 257.000
73.15208 262.000
73.17203 263.000
73.19197 297.000
73.21192 283.000
73.23187 280.000
73.25182 286.000
73.27176 283.000
73.29171 271.000
73.31166 267.000
73.33160 293.000
73.35155 278.000
73.37150 274.000
73.39144 301.000
73.41139 279.000
73.43134 280.000
73.45129 281.000
73.47123 292.000
73.49118 295.000
73.51113 263.000
73.53107 300.000
73.55102 280.000
73.57097 266.000
73.59091 272.000
73.61086 257.000
73.63081 283.000
73.65076 290.000
73.67070 301.000
73.69065 280.000
73.71060 289.000
73.73054 272.000
73.75049 280.000
73.77044 254.000
73.79038 258.000
73.81033 300.000
73.83028 287.000
73.85022 277.000
73.87017 275.000
73.89012 280.000
73.91007 297.000
73.93001 298.000
73.94996 282.000
73.96991 285.000
73.98985 277.000
74.00980 284.000
74.02975 266.000
74.04969 272.000
74.06964 300.000
74.08959 300.000
74.10954 283.000
74.12948 278.000
74.14943 239.000
74.16938 296.000
74.18932 299.000
74.20927 281.000
74.22922 302.000
74.24916 263.000
74.26911 273.000
74.28906 285.000
74.30900 244.000
74.32895 282.000
74.34890 268.000
74.36885 327.000
74.38879 260.000
74.40874 298.000
74.42869 306.000
74.44863 307.000
74.46858 300.000
74.48853 299.000
74.50847 281.000
74.52842 298.000
74.54837 300.000
74.56832 304.000
74.58826 306.000
74.60821 337.000
74.62816 316.000
74.64810 358.000
74.66805 332.000
74.68800 374.000
74.70794 395.000
74.72789 406.000
74.74784 437.000
74.76778 444.000
74.78773 407.000
74.80768 469.000
74.82763 420.000
74.84757 454.000
74.86752 494.000
74.88747 476.000
74.90741 527.000
74.92736 515.000
74.94731 517.000
74.96725 571.000
74.98720 515.000
75.00715 521.000
75.02710 517.000
75.04704 506.000
75.06699 557.000
75.08694 580.000
75.10688 581.000
75.12683 580.000
75.14678 607.000
75.16672 649.000
75.18667 650.000
75.20662 723.000
75.22657 771.000
75.24651 795.000
75.26646 910.000
75.28641 877.000
75.30635 1038.000
75.32630 1079.000
75.34625 1134.000
75.36619 1115.000
75.38614 996.000
75.40609 1009.000
75.42603 954.000
75.44598 794.000
75.46593 759.000
75.48588 739.000
75.50582 726.000
75.52577 720.000
75.54572 742.000
75.56566 714.000
75.58561 700.000
75.60556 656.000
75.62550 640.000
75.64545 550.000
75.66540 520.000
75.68535 483.000
75.70529 418.000
75.72524 404.000
75.74519 382.000
75.76513 344.000
75.78508 324.000
75.80503 375.000
75.82497 335.000
75.84492 344.000
75.86487 302.000
75.88481 305.000
75.90476 313.000
75.92471 262.000
75.94466 298.000
75.96460 315.000
75.98455 278.000
76.00450 276.000
76.02444 298.000
76.04439 291.000
76.06434 251.000
76.08428 267.000
76.10423 249.000
76.12418 291.000
76.14413 275.000
76.16407 288.000
76.18402 268.000
76.20397 280.000
76.22391 266.000
76.24386 274.000
76.26381 267.000
76.28375 303.000
76.30370 288.000
76.32365 277.000
76.34359 286.000
76.36354 268.000
76.38349 274.000
76.40344 308.000
76.42338 278.000
76.44333 274.000
76.46328 279.000
76.48322 292.000
76.50317 283.000
76.52312 289.000
76.54306 244.000
76.56301 279.000
76.58296 272.000
76.60291 279.000
76.62285 302.000
76.64280 293.000
76.66275 281.000
76.68269 275.000
76.70264 287.000
76.72259 303.000
76.74253 282.000
76.76248 271.000
76.78243 283.000
76.80238 277.000
76.82232 269.000
76.84227 263.000
76.86222 273.000
76.88216 262.000
76.90211 280.000
76.92206 284.000
76.94200 271.000
76.96195 226.000
76.98190 276.000
77.00184 262.000
77.02179 261.000
77.04174 267.000
77.06169 283.000
77.08163 278.000
77.10158 285.000
77.12153 265.000
77.14147 295.000
77.16142 251.000
77.18137 308.000
77.20131 265.000
77.22126 263.000
77.24121 239.000
77.26116 281.000
77.28110 284.000
77.30105 255.000
77.32100 293.000
77.34094 297.000
77.36089 254.000
77.38084 248.000
77.40078 271.000
77.42073 272.000
77.44068 270.000
77.46062 254.000
77.48057 261.000
77.50052 273.000
77.52047 302.000
77.54041 274.000
77.56036 293.000
77.58031 280.000
77.60025 288.000
77.62020 279.000
77.64015 242.000
77.66009 286.000
77.68004 280.000
77.69999 260.000
77.71994 281.000
77.73988 263.000
77.75983 272.000
77.77978 295.000
77.79972 318.000
77.81967 275.000
77.83962 252.000
77.85956 272.000
77.87951 260.000
77.89946 269.000
77.91940 277.000
77.93935 285.000
77.95930 296.000
77.97925 269.000
77.99919 265.000
78.01914 264.000
78.03909 264.000
78.05903 289.000
78.07898 224.000
78.09893 249.000
78.11887 277.000
78.13882 271.000
78.15877 272.000
78.17872 272.000
78.19866 277.000
78.21861 283.000
78.23856 275.000
78.25850 252.000
78.27845 275.000
78.29840 279.000
78.31834 286.000
78.33829 252.000
78.35824 271.000
78.37819 275.000
78.39813 290.000
78.41808 288.000
78.43803 292.000
78.45797 279.000
78.47792 312.000
78.49787 309.000
78.51781 276.000
78.53776 280.000
78.55771 277.000
78.57765 310.000
78.59760 296.000
78.61755 331.000
78.63750 300.000
78.65744 307.000
78.67739 355.000
78.69734 333.000
78.71728 318.000
78.73723 387.000
78.75718 386.000
78.77712 393.000
78.79707 382.000
78.81702 420.000
78.83697 383.000
78.85691 395.000
78.87686 455.000
78.89681 411.000
78.91675 419.000
78.93670 406.000
78.95665 450.000
78.97659 485.000
78.99654 489.000
79.01649 495.000
79.03643 489.000
79.05638 490.000
79.07633 493.000
79.09628 508.000
79.11622 511.000
79.13617 509.000
79.15612 549.000
79.17606 530.000
79.19601 599.000
79.21596 661.000
79.23590 653.000
79.25585 735.000
79.27580 776.000
79.29575 897.000
79.31569 854.000
79.33564 846.000
79.35559 794.000
79.37553 778.000
79.39548 765.000
79.41543 676.000
79.43537 681.000
79.45532 625.000
79.47527 623.000
79.49521 619.000
79.51516 647.000
79.53511 656.000
79.55506 630.000
79.57500 604.000
79.59495 545.000
79.61490 529.000
79.63484 459.000
79.65479 507.000
79.67474 443.000
79.69468 381.000
79.71463 401.000
79.73458 375.000
79.75453 363.000
79.77447 326.000
79.79442 305.000
79.81437 307.000
79.83431 313.000
79.85426 310.000
79.87421 298.000
79.89415 274.000
79.91410 295.000
79.93405 312.000
79.95399 289.000
79.97394 289.000
79.99389 269.000
80.01384 273.000
80.03378 271.000
80.05373 269.000
80.07368 273.000
80.09362 282.000
80.11357 285.000
80.13352 256.000
80.15346 272.000
80.17341 294.000
80.19336 287.000
80.21331 273.000
80.23325 282.000
80.25320 256.000
80.27315 285.000
80.29309 255.000
80.31304 269.000
80.33299 268.000
80.35293 269.000
80.37288 291.000
80.39283 266.000
80.41278 276.000
80.43272 255.000
80.45267 287.000
80.47262 273.000
80.49256 245.000
80.51251 264.000
80.53246 278.000
80.55240 299.000
80.57235 256.000
80.59230 268.000
80.61224 253.000
80.63219 282.000
80.65214 277.000
80.67209 271.000
80.69203 266.000
80.71198 263.000
80.73193 247.000
80.75187 244.000
80.77182 274.000
80.79177 271.000
80.81171 257.000
80.83166 274.000
80.85161 255.000
80.87156 284.000
80.89150 263.000
80.91145 274.000
80.93140 244.000
80.95134 294.000
80.97129 262.000
80.99124 260.000
81.01118 281.000
81.03113 246.000
81.05108 267.000
81.07102 262.000
81.09097 285.000
81.11092 281.000
81.13087 268.000
81.15081 247.000
81.17076 246.000
81.19071 268.000
81.21065 260.000
81.23060 283.000
81.25055 282.000
81.27049 274.000
81.29044 279.000
81.31039 247.000
81.33034 273.000
81.35028 288.000
81.37023 260.000
81.39018 273.000
81.41012 272.000
81.43007 304.000
81.45002 278.000
81.46996 268.000
81.48991 281.000
81.50986 234.000
81.52980 222.000
81.54975 266.000
81.56970 263.000
81.58965 263.000
81.60959 248.000
81.62954 238.000
81.64949 302.000
81.66943 278.000
81.68938 261.000
81.70933 272.000
81.72927 283.000
81.74922 255.000
81.76917 264.000
81.78912 249.000
81.80906 278.000
81.82901 276.000
81.84896 267.000
81.86890 247.000
81.88885 270.000
81.90880 250.000
81.92874 297.000
81.94869 276.000
81.96864 288.000
81.98859 244.000
82.00853 285.000
82.02848 250.000
82.04843 266.000
82.06837 257.000
82.08832 254.000
82.10827 262.000
82.12821 233.000
82.14816 273.000
82.16811 276.000
82.18805 284.000
82.20800 246.000
82.22795 290.000
82.24790 266.000
82.26784 270.000
82.28779 283.000
82.30774 255.000
82.32768 268.000
82.34763 263.000
82.36758 260.000
82.38752 270.000
82.40747 281.000
82.42742 281.000
82.44737 270.000
82.46731 243.000
82.48726 261.000
82.50721 236.000
82.52715 251.000
82.54710 268.000
82.56705 245.000
82.58699 240.000
82.60694 268.000
82.62689 258.000
82.64683 234.000
82.66678 291.000
82.68673 251.000
82.70668 251.000
82.72662 288.000
82.74657 272.000
82.76652 281.000
82.78646 253.000
82.80641 278.000
82.82636 274.000
82.84630 257.000
82.86625 272.000
82.88620 252.000
82.90615 283.000
82.92609 243.000
82.94604 298.000
82.96599 288.000
82.98593 250.000
83.00588 239.000
83.02583 251.000
83.04577 248.000
83.06572 275.000
83.08567 278.000
83.10561 270.000
83.12556 268.000
83.14551 238.000
83.16546 269.000
83.18540 268.000
83.20535 244.000
83.22530 273.000
83.24524 273.000
83.26519 269.000
83.28514 292.000
83.30508 253.000
83.32503 267.000
83.34498 272.000
83.36493 257.000
83.38487 276.000
83.40482 267.000
83.42477 263.000
83.44471 270.000
83.46466 287.000
83.48461 289.000
83.50455 256.000
83.52450 258.000
83.54445 248.000
83.56440 260.000
83.58434 261.000
83.60429 241.000
83.62424 272.000
83.64418 261.000
83.66413 255.000
83.68408 274.000
83.70402 273.000
83.72397 282.000
83.74392 284.000
83.76386 309.000
83.78381 261.000
83.80376 240.000
83.82371 284.000
83.84365 259.000
83.86360 259.000
83.88355 250.000
83.90349 259.000
83.92344 248.000
83.94339 261.000
83.96333 227.000
83.98328 281.000
84.00323 269.000
84.02318 277.000
84.04312 245.000
84.06307 230.000
84.08302 256.000
84.10296 249.000
84.12291 255.000
84.14286 276.000
84.16280 260.000
84.18275 271.000
84.20270 281.000
84.22264 241.000
84.24259 267.000
84.26254 266.000
84.28249 272.000
84.30243 254.000
84.32238 262.000
84.34233 263.000
84.36227 256.000
84.38222 236.000
84.40217 268.000
84.42211 248.000
84.44206 245.000
84.46201 239.000
84.48196 242.000
84.50190 275.000
84.52185 268.000
84.54180 285.000
84.56174 284.000
84.58169 277.000
84.60164 233.000
84.62158 248.000
84.64153 255.000
84.66148 242.000
84.68142 267.000
84.70137 268.000
84.72132 255.000
84.74127 289.000
84.76121 230.000
84.78116 244.000
84.80111 233.000
84.82105 260.000
84.84100 249.000
84.86095 286.000
84.88089 237.000
84.90084 304.000
84.92079 240.000
84.94074 260.000
84.96068 253.000
84.98063 250.000
85.00058 226.000
85.02052 255.000
85.04047 240.000
85.06042 247.000
85.08036 246.000
85.10031 278.000
85.12026 250.000
85.14021 252.000
85.16015 279.000
85.18010 245.000
85.20005 271.000
85.21999 262.000
85.23994 259.000
85.25989 253.000
85.27983 268.000
85.29978 237.000
85.31973 268.000
85.33967 265.000
85.35962 259.000
85.37957 245.000
85.39952 233.000
85.41946 256.000
85.43941 248.000
85.45936 254.000
85.47930 261.000
85.49925 267.000
85.51920 239.000
85.53914 275.000
85.55909 235.000
85.57904 262.000
85.59899 244.000
85.61893 273.000
85.63888 257.000
85.65883 272.000
85.67877 253.000
85.69872 232.000
85.71867 273.000
85.73861 237.000
85.75856 238.000
85.77851 271.000
85.79845 250.000
85.81840 242.000
85.83835 284.000
85.85830 242.000
85.87824 241.000
85.89819 229.000
85.91814 271.000
85.93808 256.000
85.95803 249.000
85.97798 238.000
85.99792 256.000
86.01787 250.000
86.03782 275.000
86.05777 236.000
86.07771 264.000
86.09766 287.000
86.11761 268.000
86.13755 263.000
86.15750 275.000
86.17745 272.000
86.19739 288.000
86.21734 274.000
86.23729 246.000
86.25723 251.000
86.27718 241.000
86.29713 267.000
86.31708 257.000
86.33702 226.000
86.35697 248.000
86.37692 252.000
86.39686 267.000
86.41681 282.000
86.43676 277.000
86.45670 239.000
86.47665 240.000
86.49660 244.000
86.51655 236.000
86.53649 281.000
86.55644 243.000
86.57639 271.000
86.59633 271.000
86.61628 253.000
86.63623 243.000
86.65617 278.000
86.67612 290.000
86.69607 246.000
86.71602 248.000
86.73596 255.000
86.75591 291.000
86.77586 265.000
86.79580 261.000
86.81575 264.000
86.83570 241.000
86.85564 239.000
86.87559 274.000
86.89554 272.000
86.91548 244.000
86.93543 252.000
86.95538 262.000
86.97533 258.000
86.99527 251.000
87.01522 259.000
87.03517 258.000
87.05511 264.000
87.07506 216.000
87.09501 273.000
87.11495 254.000
87.13490 247.000
87.15485 262.000
87.17480 253.000
87.19474 233.000
87.21469 245.000
87.23464 247.000
87.25458 257.000
87.27453 261.000
87.29448 264.000
87.31442 241.000
87.33437 246.000
87.35432 251.000
87.37426 268.000
87.39421 264.000
87.41416 285.000
87.43411 291.000
87.45405 287.000
87.47400 278.000
87.49395 235.000
87.51389 248.000
87.53384 261.000
87.55379 283.000
87.57373 288.000
87.59368 285.000
87.61363 260.000
87.63358 253.000
87.65352 296.000
87.67347 256.000
87.69342 246.000
87.71336 264.000
87.73331 257.000
87.75326 259.000
87.77320 256.000
87.79315 259.000
87.81310 269.000
87.83304 277.000
87.85299 227.000
87.87294 249.000
87.89289 264.000
87.91283 253.000
87.93278 260.000
87.95273 238.000
87.97267 261.000
87.99262 252.000
88.01257 271.000
88.03251 267.000
88.05246 271.000
88.07241 248.000
88.09236 285.000
88.11230 253.000
88.13225 221.000
88.15220 282.000
88.17214 273.000
88.19209 246.000
88.21204 269.000
88.23198 279.000
88.25193 252.000
88.27188 253.000
88.29183 240.000
88.31177 269.000
88.33172 262.000
88.35167 267.000
88.37161 255.000
88.39156 259.000
88.41151 269.000
88.43145 229.000
88.45140 257.000
88.47135 219.000
88.49129 239.000
88.51124 262.000
88.53119 236.000
88.55114 256.000
88.57108 278.000
88.59103 279.000
88.61098 280.000
88.63092 228.000
88.65087 251.000
88.67082 254.000
88.69076 254.000
88.71071 252.000
88.73066 245.000
88.75061 265.000
88.77055 274.000
88.79050 261.000
88.81045 240.000
88.83039 249.000
88.85034 239.000
88.87029 275.000
88.89023 248.000
88.91018 259.000
88.93013 259.000
88.95007 261.000
88.97002 255.000
88.98997 231.000
89.00992 244.000
89.02986 293.000
89.04981 239.000
89.06976 245.000
89.08970 235.000
89.10965 237.000
89.12960 235.000
89.14954 259.000
89.16949 250.000
89.18944 252.000
89.20939 312.000
89.22933 266.000
89.24928 271.000
89.26923 262.000
89.28917 257.000
89.30912 234.000
89.32907 284.000
89.34901 237.000
89.36896 259.000
89.38891 283.000
89.40885 241.000
89.42880 264.000
89.44875 229.000
89.46870 255.000
89.48864 262.000
89.50859 263.000
89.52854 247.000
89.54848 272.000
89.56843 273.000
89.58838 261.000
89.60832 265.000
89.62827 261.000
89.64822 238.000
89.66817 275.000
89.68811 235.000
89.70806 240.000
89.72801 251.000
89.74795 247.000
89.76790 285.000
89.78785 282.000
89.80779 298.000
89.82774 262.000
89.84769 245.000
89.86764 263.000
89.88758 286.000
89.90753 258.000
89.92748 241.000
89.94742 262.000
89.96737 241.000
89.98732 250.000
90.00726 277.000
