10.00000 120.000
10.01995 95.000
10.03989 139.000
10.05984 127.000
10.07979 98.000
10.09973 127.000
10.11968 104.000
10.13963 109.000
10.15958 121.000
10.17952 120.000
10.19947 116.000
10.21942 111.000
10.23936 123.000
10.25931 109.000
10.27926 93.000
10.29920 120.000
10.31915 101.000
10.33910 114.000
10.35905 119.000
10.37899 107.000
10.39894 99.000
10.41889 136.000
10.43883 97.000
10.45878 108.000
10.47873 108.000
10.49867 103.000
10.51862 122.000
10.53857 106.000
10.55851 121.000
10.57846 130.000
10.59841 113.000
10.61836 112.000
10.63830 130.000
10.65825 119.000
10.67820 120.000
10.69814 101.000
10.71809 112.000
10.73804 125.000
10.75798 106.000
10.77793 133.000
10.79788 124.000
10.81783 136.000
10.83777 145.000
10.85772 110.000
10.87767 130.000
10.89761 118.000
10.91756 136.000
10.93751 98.000
10.95745 143.000
10.97740 115.000
10.99735 130.000
11.01730 111.000
11.03724 113.000
11.05719 142.000
11.07714 122.000
11.09708 125.000
11.11703 121.000
11.13698 140.000
11.15692 111.000
11.17687 114.000
11.19682 98.000
11.21676 101.000
11.23671 136.000
11.25666 116.000
11.27661 114.000
11.29655 110.000
11.31650 125.000
11.33645 94.000
11.35639 127.000
11.37634 122.000
11.39629 130.000
11.41623 113.000
11.43618 121.000
11.45613 130.000
11.47608 109.000
11.49602 103.000
11.51597 129.000
11.53592 132.000
11.55586 114.000
11.57581 99.000
11.59576 148.000
11.61570 147.000
11.63565 104.000
11.65560 142.000
11.67554 121.000
11.69549 130.000
11.71544 133.000
11.73539 116.000
11.75533 140.000
11.77528 147.000
11.79523 129.000
11.81517 129.000
11.83512 132.000
11.85507 126.000
11.87501 130.000
11.89496 132.000
11.91491 111.000
11.93486 135.000
11.95480 141.000
11.97475 133.000
11.99470 113.000
12.01464 139.000
12.03459 134.000
12.05454 105.000
12.07448 131.000
12.09443 146.000
12.11438 140.000
12.13432 118.000
12.15427 141.000
12.17422 134.000
12.19417 135.000
12.21411 133.000
12.23406 110.000
12.25401 129.000
12.27395 136.000
12.29390 129.000
12.31385 128.000
12.33379 132.000
12.35374 137.000
12.37369 137.000
12.39364 138.000
12.41358 108.000
12.43353 134.000
12.45348 120.000
12.47342 139.000
12.49337 143.000
12.51332 140.000
12.53326 143.000
12.55321 111.000
12.57316 120.000
12.59311 137.000
12.61305 112.000
12.63300 110.000
12.65295 135.000
12.67289 152.000
12.69284 155.000
12.71279 163.000
12.73273 142.000
12.75268 142.000
12.77263 106.000
12.79257 158.000
12.81252 127.000
12.83247 133.000
12.85242 130.000
12.87236 149.000
12.89231 133.000
12.91226 140.000
12.93220 135.000
12.95215 142.000
12.97210 127.000
12.99204 145.000
13.01199 124.000
13.03194 141.000
13.05189 155.000
13.07183 143.000
13.09178 140.000
13.11173 129.000
13.13167 132.000
13.15162 138.000
13.17157 139.000
13.19151 135.000
13.21146 139.000
13.23141 155.000
13.25135 125.000
13.27130 125.000
13.29125 128.000
13.31120 148.000
13.33114 161.000
13.35109 139.000
13.37104 184.000
13.39098 144.000
13.41093 147.000
13.43088 144.000
13.45082 150.000
13.47077 134.000
13.49072 151.000
13.51067 143.000
13.53061 137.000
13.55056 154.000
13.57051 130.000
13.59045 144.000
13.61040 147.000
13.63035 138.000
13.65029 148.000
13.67024 147.000
13.69019 143.000
13.71013 146.000
13.73008 121.000
13.75003 152.000
13.76998 137.000
13.78992 143.000
13.80987 132.000
13.82982 157.000
13.84976 158.000
13.86971 164.000
13.88966 166.000
13.90960 155.000
13.92955 144.000
13.94950 133.000
13.96945 140.000
13.98939 141.000
14.00934 147.000
14.02929 127.000
14.04923 162.000
14.06918 136.000
14.08913 138.000
14.10907 153.000
14.12902 135.000
14.14897 141.000
14.16892 139.000
14.18886 140.000
14.20881 138.000
14.22876 139.000
14.24870 150.000
14.26865 157.000
14.28860 152.000
14.30854 117.000
14.32849 144.000
14.34844 147.000
14.36838 163.000
14.38833 140.000
14.40828 149.000
14.42823 159.000
14.44817 134.000
14.46812 146.000
14.48807 160.000
14.50801 141.000
14.52796 146.000
14.54791 141.000
14.56785 147.000
14.58780 150.000
14.60775 137.000
14.62770 162.000
14.64764 152.000
14.66759 157.000
14.68754 159.000
14.70748 162.000
14.72743 153.000
14.74738 173.000
14.76732 156.000
14.78727 139.000
14.80722 160.000
14.82716 144.000
14.84711 145.000
14.86706 168.000
14.88701 170.000
14.90695 168.000
14.92690 174.000
14.94685 159.000
14.96679 153.000
14.98674 149.000
15.00669 145.000
15.02663 177.000
15.04658 147.000
15.06653 178.000
15.08648 180.000
15.10642 166.000
15.12637 162.000
15.14632 160.000
15.16626 162.000
15.18621 169.000
15.20616 167.000
15.22610 162.000
15.24605 159.000
15.26600 156.000
15.28594 172.000
15.30589 181.000
15.32584 160.000
15.34579 172.000
15.36573 149.000
15.38568 150.000
15.40563 161.000
15.42557 178.000
15.44552 153.000
15.46547 173.000
15.48541 167.000
15.50536 134.000
15.52531 171.000
15.54526 172.000
15.56520 173.000
15.58515 176.000
15.60510 143.000
15.62504 179.000
15.64499 140.000
15.66494 189.000
15.68488 167.000
15.70483 157.000
15.72478 178.000
15.74472 173.000
15.76467 186.000
15.78462 168.000
15.80457 172.000
15.82451 188.000
15.84446 189.000
15.86441 162.000
15.88435 181.000
15.90430 191.000
15.92425 183.000
15.94419 172.000
15.96414 185.000
15.98409 181.000
16.00404 183.000
16.02398 181.000
16.04393 169.000
16.06388 185.000
16.08382 168.000
16.10377 170.000
16.12372 176.000
16.14366 190.000
16.16361 169.000
16.18356 170.000
16.20351 168.000
16.22345 170.000
16.24340 200.000
16.26335 173.000
16.28329 168.000
16.30324 164.000
16.32319 167.000
16.34313 171.000
16.36308 165.000
16.38303 195.000
16.40297 183.000
16.42292 173.000
16.44287 175.000
16.46282 198.000
16.48276 197.000
16.50271 165.000
16.52266 175.000
16.54260 180.000
16.56255 202.000
16.58250 199.000
16.60244 188.000
16.62239 166.000
16.64234 189.000
16.66229 190.000
16.68223 190.000
16.70218 194.000
16.72213 191.000
16.74207 172.000
16.76202 182.000
16.78197 178.000
16.80191 181.000
16.82186 182.000
16.84181 194.000
16.86175 198.000
16.88170 169.000
16.90165 204.000
16.92160 178.000
16.94154 202.000
16.96149 206.000
16.98144 188.000
17.00138 158.000
17.02133 192.000
17.04128 185.000
17.06122 210.000
17.08117 186.000
17.10112 203.000
17.12107 213.000
17.14101 206.000
17.16096 198.000
17.18091 187.000
17.20085 203.000
17.22080 189.000
17.24075 207.000
17.26069 207.000
17.28064 206.000
17.30059 215.000
17.32053 196.000
17.34048 189.000
17.36043 220.000
17.38038 186.000
17.40032 204.000
17.42027 208.000
17.44022 193.000
17.46016 195.000
17.48011 240.000
17.50006 175.000
17.52000 221.000
17.53995 235.000
17.55990 194.000
17.57985 192.000
17.59979 209.000
17.61974 192.000
17.63969 229.000
17.65963 197.000
17.67958 222.000
17.69953 219.000
17.71947 180.000
17.73942 219.000
17.75937 208.000
17.77932 221.000
17.79926 214.000
17.81921 231.000
17.83916 182.000
17.85910 197.000
17.87905 209.000
17.89900 193.000
17.91894 217.000
17.93889 193.000
17.95884 201.000
17.97878 223.000
17.99873 191.000
18.01868 192.000
18.03863 211.000
18.05857 197.000
18.07852 221.000
18.09847 257.000
18.11841 222.000
18.13836 236.000
18.15831 218.000
18.17825 227.000
18.19820 228.000
18.21815 208.000
18.23810 227.000
18.25804 218.000
18.27799 242.000
18.29794 189.000
18.31788 207.000
18.33783 211.000
18.35778 237.000
18.37772 221.000
18.39767 207.000
18.41762 237.000
18.43756 233.000
18.45751 221.000
18.47746 228.000
18.49741 236.000
18.51735 217.000
18.53730 209.000
18.55725 216.000
18.57719 199.000
18.59714 249.000
18.61709 232.000
18.63703 245.000
18.65698 230.000
18.67693 213.000
18.69688 225.000
18.71682 219.000
18.73677 222.000
18.75672 235.000
18.77666 235.000
18.79661 249.000
18.81656 225.000
18.83650 212.000
18.85645 259.000
18.87640 255.000
18.89634 247.000
18.91629 224.000
18.93624 218.000
18.95619 250.000
18.97613 239.000
18.99608 253.000
19.01603 231.000
19.03597 246.000
19.05592 242.000
19.07587 244.000
19.09581 220.000
19.11576 230.000
19.13571 241.000
19.15566 251.000
19.17560 256.000
19.19555 252.000
19.21550 259.000
19.23544 222.000
19.25539 236.000
19.27534 249.000
19.29528 238.000
19.31523 256.000
19.33518 253.000
19.35513 228.000
19.37507 239.000
19.39502 265.000
19.41497 239.000
19.43491 254.000
19.45486 239.000
19.47481 247.000
19.49475 227.000
19.51470 261.000
19.53465 241.000
19.55459 238.000
19.57454 268.000
19.59449 249.000
19.61444 233.000
19.63438 290.000
19.65433 233.000
19.67428 267.000
19.69422 242.000
19.71417 274.000
19.73412 280.000
19.75406 258.000
19.77401 260.000
19.79396 232.000
19.81391 279.000
19.83385 272.000
19.85380 274.000
19.87375 255.000
19.89369 256.000
19.91364 258.000
19.93359 246.000
19.95353 276.000
19.97348 248.000
19.99343 233.000
20.01337 259.000
20.03332 250.000
20.05327 249.000
20.07322 257.000
20.09316 268.000
20.11311 244.000
20.13306 291.000
20.15300 281.000
20.17295 242.000
20.19290 249.000
20.21284 255.000
20.23279 274.000
20.25274 273.000
20.27269 266.000
20.29263 285.000
20.31258 302.000
20.33253 285.000
20.35247 247.000
20.37242 266.000
20.39237 253.000
20.41231 259.000
20.43226 260.000
20.45221 274.000
20.47215 291.000
20.49210 261.000
20.51205 268.000
20.53200 285.000
20.55194 292.000
20.57189 263.000
20.59184 272.000
20.61178 304.000
20.63173 294.000
20.65168 284.000
20.67162 253.000
20.69157 262.000
20.71152 270.000
20.73147 271.000
20.75141 266.000
20.77136 241.000
20.79131 297.000
20.81125 251.000
20.83120 285.000
20.85115 239.000
20.87109 269.000
20.89104 271.000
20.91099 277.000
20.93094 284.000
20.95088 292.000
20.97083 288.000
20.99078 284.000
21.01072 279.000
21.03067 284.000
21.05062 264.000
21.07056 256.000
21.09051 277.000
21.11046 273.000
21.13040 299.000
21.15035 281.000
21.17030 263.000
21.19025 286.000
21.21019 292.000
21.23014 289.000
21.25009 274.000
21.27003 292.000
21.28998 269.000
21.30993 316.000
21.32987 309.000
21.34982 296.000
21.36977 305.000
21.38972 310.000
21.40966 269.000
21.42961 280.000
21.44956 304.000
21.46950 280.000
21.48945 264.000
21.50940 300.000
21.52934 297.000
21.54929 274.000
21.56924 283.000
21.58918 308.000
21.60913 310.000
21.62908 323.000
21.64903 319.000
21.66897 289.000
21.68892 284.000
21.70887 330.000
21.72881 293.000
21.74876 312.000
21.76871 303.000
21.78865 297.000
21.80860 271.000
21.82855 308.000
21.84850 289.000
21.86844 272.000
21.88839 310.000
21.90834 268.000
21.92828 277.000
21.94823 330.000
21.96818 320.000
21.98812 311.000
22.00807 285.000
22.02802 293.000
22.04796 271.000
22.06791 308.000
22.08786 306.000
22.10781 301.000
22.12775 332.000
22.14770 285.000
22.16765 309.000
22.18759 288.000
22.20754 278.000
22.22749 307.000
22.24743 330.000
22.26738 287.000
22.28733 317.000
22.30728 280.000
22.32722 318.000
22.34717 333.000
22.36712 308.000
22.38706 322.000
22.40701 310.000
22.42696 307.000
22.44690 301.000
22.46685 306.000
22.48680 314.000
22.50675 293.000
22.52669 324.000
22.54664 329.000
22.56659 339.000
22.58653 306.000
22.60648 317.000
22.62643 313.000
22.64637 314.000
22.66632 325.000
22.68627 314.000
22.70621 269.000
22.72616 333.000
22.74611 303.000
22.76606 317.000
22.78600 292.000
22.80595 314.000
22.82590 338.000
22.84584 312.000
22.86579 336.000
22.88574 327.000
22.90568 296.000
22.92563 338.000
22.94558 327.000
22.96553 339.000
22.98547 360.000
23.00542 310.000
23.02537 330.000
23.04531 325.000
23.06526 299.000
23.08521 339.000
23.10515 304.000
23.12510 336.000
23.14505 301.000
23.16499 339.000
23.18494 346.000
23.20489 346.000
23.22484 316.000
23.24478 345.000
23.26473 316.000
23.28468 357.000
23.30462 356.000
23.32457 328.000
23.34452 344.000
23.36446 303.000
23.38441 346.000
23.40436 324.000
23.42431 316.000
23.44425 336.000
23.46420 348.000
23.48415 347.000
23.50409 364.000
23.52404 358.000
23.54399 335.000
23.56393 338.000
23.58388 360.000
23.60383 309.000
23.62377 351.000
23.64372 342.000
23.66367 351.000
23.68362 324.000
23.70356 341.000
23.72351 347.000
23.74346 356.000
23.76340 351.000
23.78335 329.000
23.80330 340.000
23.82324 325.000
23.84319 357.000
23.86314 308.000
23.88309 305.000
23.90303 337.000
23.92298 360.000
23.94293 348.000
23.96287 350.000
23.98282 339.000
24.00277 362.000
24.02271 317.000
24.04266 355.000
24.06261 347.000
24.08256 337.000
24.10250 351.000
24.12245 345.000
24.14240 335.000
24.16234 343.000
24.18229 358.000
24.20224 369.000
24.22218 347.000
24.24213 355.000
24.26208 357.000
24.28202 341.000
24.30197 353.000
24.32192 340.000
24.34187 348.000
24.36181 347.000
24.38176 386.000
24.40171 376.000
24.42165 358.000
24.44160 374.000
24.46155 349.000
24.48149 394.000
24.50144 348.000
24.52139 380.000
24.54134 343.000
24.56128 357.000
24.58123 352.000
24.60118 367.000
24.62112 362.000
24.64107 388.000
24.66102 357.000
24.68096 356.000
24.70091 338.000
24.72086 359.000
24.74080 377.000
24.76075 382.000
24.78070 348.000
24.80065 371.000
24.82059 393.000
24.84054 370.000
24.86049 346.000
24.88043 392.000
24.90038 363.000
24.92033 345.000
24.94027 369.000
24.96022 387.000
24.98017 367.000
25.00012 356.000
25.02006 367.000
25.04001 410.000
25.05996 364.000
25.07990 410.000
25.09985 370.000
25.11980 406.000
25.13974 355.000
25.15969 363.000
25.17964 410.000
25.19958 441.000
25.21953 397.000
25.23948 388.000
25.25943 333.000
25.27937 373.000
25.29932 363.000
25.31927 378.000
25.33921 408.000
25.35916 397.000
25.37911 358.000
25.39905 372.000
25.41900 387.000
25.43895 370.000
25.45890 403.000
25.47884 393.000
25.49879 411.000
25.51874 380.000
25.53868 382.000
25.55863 390.000
25.57858 404.000
25.59852 411.000
25.61847 405.000
25.63842 414.000
25.65837 400.000
25.67831 393.000
25.69826 420.000
25.71821 399.000
25.73815 368.000
25.75810 422.000
25.77805 391.000
25.79799 443.000
25.81794 378.000
25.83789 418.000
25.85783 392.000
25.87778 384.000
25.89773 407.000
25.91768 422.000
25.93762 375.000
25.95757 431.000
25.97752 440.000
25.99746 385.000
26.01741 383.000
26.03736 400.000
26.05730 408.000
26.07725 425.000
26.09720 406.000
26.11715 397.000
26.13709 396.000
26.15704 409.000
26.17699 425.000
26.19693 358.000
26.21688 410.000
26.23683 394.000
26.25677 437.000
26.27672 388.000
26.29667 427.000
26.31661 460.000
26.33656 421.000
26.35651 375.000
26.37646 437.000
26.39640 442.000
26.41635 443.000
26.43630 399.000
26.45624 411.000
26.47619 415.000
26.49614 463.000
26.51608 430.000
26.53603 462.000
26.55598 440.000
26.57593 415.000
26.59587 412.000
26.61582 396.000
26.63577 392.000
26.65571 417.000
26.67566 430.000
26.69561 446.000
26.71555 428.000
26.73550 424.000
26.75545 474.000
26.77539 412.000
26.79534 402.000
26.81529 445.000
26.83524 453.000
26.85518 449.000
26.87513 425.000
26.89508 442.000
26.91502 440.000
26.93497 456.000
26.95492 465.000
26.97486 436.000
26.99481 459.000
27.01476 452.000
27.03471 425.000
27.05465 453.000
27.07460 473.000
27.09455 430.000
27.11449 455.000
27.13444 446.000
27.15439 423.000
27.17433 449.000
27.19428 485.000
27.21423 448.000
27.23417 417.000
27.25412 446.000
27.27407 467.000
27.29402 474.000
27.31396 481.000
27.33391 450.000
27.35386 446.000
27.37380 446.000
27.39375 446.000
27.41370 427.000
27.43364 432.000
27.45359 456.000
27.47354 484.000
27.49349 479.000
27.51343 454.000
27.53338 428.000
27.55333 477.000
27.57327 434.000
27.59322 473.000
27.61317 452.000
27.63311 448.000
27.65306 482.000
27.67301 447.000
27.69296 465.000
27.71290 474.000
27.73285 460.000
27.75280 454.000
27.77274 469.000
27.79269 431.000
27.81264 454.000
27.83258 455.000
27.85253 490.000
27.87248 482.000
27.89242 484.000
27.91237 488.000
27.93232 439.000
27.95227 446.000
27.97221 415.000
27.99216 444.000
28.01211 522.000
28.03205 472.000
28.05200 526.000
28.07195 429.000
28.09189 480.000
28.11184 514.000
28.13179 491.000
28.15174 467.000
28.17168 458.000
28.19163 494.000
28.21158 448.000
28.23152 476.000
28.25147 477.000
28.27142 499.000
28.29136 434.000
28.31131 487.000
28.33126 466.000
28.35120 472.000
28.37115 459.000
28.39110 508.000
28.41105 469.000
28.43099 500.000
28.45094 478.000
28.47089 485.000
28.49083 454.000
28.51078 518.000
28.53073 457.000
28.55067 496.000
28.57062 465.000
28.59057 462.000
28.61052 503.000
28.63046 486.000
28.65041 476.000
28.67036 468.000
28.69030 468.000
28.71025 463.000
28.73020 509.000
28.75014 547.000
28.77009 539.000
28.79004 479.000
28.80998 508.000
28.82993 476.000
28.84988 457.000
28.86983 465.000
28.88977 522.000
28.90972 441.000
28.92967 458.000
28.94961 519.000
28.96956 482.000
28.98951 473.000
29.00945 512.000
29.02940 514.000
29.04935 503.000
29.06930 493.000
29.08924 488.000
29.10919 463.000
29.12914 482.000
29.14908 529.000
29.16903 514.000
29.18898 462.000
29.20892 434.000
29.22887 528.000
29.24882 505.000
29.26877 489.000
29.28871 453.000
29.30866 493.000
29.32861 491.000
29.34855 507.000
29.36850 466.000
29.38845 536.000
29.40839 501.000
29.42834 507.000
29.44829 500.000
29.46823 475.000
29.48818 466.000
29.50813 513.000
29.52808 484.000
29.54802 494.000
29.56797 478.000
29.58792 446.000
29.60786 522.000
29.62781 505.000
29.64776 497.000
29.66770 491.000
29.68765 455.000
29.70760 467.000
29.72755 466.000
29.74749 484.000
29.76744 501.000
29.78739 514.000
29.80733 491.000
29.82728 473.000
29.84723 524.000
29.86717 495.000
29.88712 513.000
29.90707 502.000
29.92701 513.000
29.94696 511.000
29.96691 489.000
29.98686 480.000
30.00680 515.000
30.02675 409.000
30.04670 474.000
30.06664 495.000
30.08659 517.000
30.10654 466.000
30.12648 457.000
30.14643 459.000
30.16638 472.000
30.18633 485.000
30.20627 477.000
30.22622 497.000
30.24617 468.000
30.26611 498.000
30.28606 478.000
30.30601 518.000
30.32595 533.000
30.34590 491.000
30.36585 517.000
30.38579 459.000
30.40574 482.000
30.42569 484.000
30.44564 456.000
30.46558 461.000
30.48553 529.000
30.50548 507.000
30.52542 492.000
30.54537 463.000
30.56532 461.000
30.58526 490.000
30.60521 496.000
30.62516 507.000
30.64511 505.000
30.66505 476.000
30.68500 464.000
30.70495 486.000
30.72489 516.000
30.74484 487.000
30.76479 487.000
30.78473 493.000
30.80468 496.000
30.82463 487.000
30.84458 504.000
30.86452 473.000
30.88447 501.000
30.90442 466.000
30.92436 476.000
30.94431 492.000
30.96426 487.000
30.98420 477.000
31.00415 500.000
31.02410 476.000
31.04404 500.000
31.06399 453.000
31.08394 465.000
31.10389 475.000
31.12383 467.000
31.14378 515.000
31.16373 500.000
31.18367 488.000
31.20362 467.000
31.22357 458.000
31.24351 462.000
31.26346 470.000
31.28341 500.000
31.30336 473.000
31.32330 469.000
31.34325 499.000
31.36320 454.000
31.38314 456.000
31.40309 482.000
31.42304 458.000
31.44298 462.000
31.46293 518.000
31.48288 480.000
31.50282 454.000
31.52277 460.000
31.54272 456.000
31.56267 475.000
31.58261 477.000
31.60256 485.000
31.62251 466.000
31.64245 451.000
31.66240 465.000
31.68235 447.000
31.70229 471.000
31.72224 511.000
31.74219 476.000
31.76214 473.000
31.78208 550.000
31.80203 471.000
31.82198 466.000
31.84192 484.000
31.86187 474.000
31.88182 487.000
31.90176 443.000
31.92171 496.000
31.94166 477.000
31.96160 469.000
31.98155 465.000
32.00150 455.000
32.02145 450.000
32.04139 481.000
32.06134 481.000
32.08129 490.000
32.10123 503.000
32.12118 457.000
32.14113 493.000
32.16107 457.000
32.18102 445.000
32.20097 443.000
32.22092 461.000
32.24086 477.000
32.26081 442.000
32.28076 497.000
32.30070 473.000
32.32065 480.000
32.34060 452.000
32.36054 488.000
32.38049 504.000
32.40044 490.000
32.42039 463.000
32.44033 477.000
32.46028 453.000
32.48023 458.000
32.50017 423.000
32.52012 460.000
32.54007 467.000
32.56001 463.000
32.57996 491.000
32.59991 457.000
32.61985 468.000
32.63980 427.000
32.65975 456.000
32.67970 442.000
32.69964 450.000
32.71959 454.000
32.73954 485.000
32.75948 443.000
32.77943 478.000
32.79938 457.000
32.81932 457.000
32.83927 485.000
32.85922 429.000
32.87917 433.000
32.89911 470.000
32.91906 449.000
32.93901 429.000
32.95895 426.000
32.97890 406.000
32.99885 450.000
33.01879 468.000
33.03874 463.000
33.05869 429.000
33.07863 469.000
33.09858 445.000
33.11853 430.000
33.13848 487.000
33.15842 452.000
33.17837 438.000
33.19832 437.000
33.21826 446.000
33.23821 446.000
33.25816 462.000
33.27810 420.000
33.29805 445.000
33.31800 459.000
33.33795 451.000
33.35789 454.000
33.37784 445.000
33.39779 453.000
33.41773 462.000
33.43768 462.000
33.45763 470.000
33.47757 434.000
33.49752 418.000
33.51747 453.000
33.53741 470.000
33.55736 434.000
33.57731 460.000
33.59726 443.000
33.61720 438.000
33.63715 457.000
33.65710 461.000
33.67704 469.000
33.69699 433.000
33.71694 444.000
33.73688 443.000
33.75683 422.000
33.77678 399.000
33.79673 439.000
33.81667 439.000
33.83662 421.000
33.85657 480.000
33.87651 432.000
33.89646 422.000
33.91641 407.000
33.93635 492.000
33.95630 460.000
33.97625 449.000
33.99620 448.000
34.01614 438.000
34.03609 435.000
34.05604 424.000
34.07598 445.000
34.09593 421.000
34.11588 438.000
34.13582 442.000
34.15577 424.000
34.17572 416.000
34.19566 467.000
34.21561 430.000
34.23556 432.000
34.25551 472.000
34.27545 416.000
34.29540 429.000
34.31535 434.000
34.33529 384.000
34.35524 411.000
34.37519 432.000
34.39513 433.000
34.41508 412.000
34.43503 442.000
34.45498 399.000
34.47492 403.000
34.49487 424.000
34.51482 410.000
34.53476 441.000
34.55471 435.000
34.57466 445.000
34.59460 441.000
34.61455 388.000
34.63450 420.000
34.65444 417.000
34.67439 403.000
34.69434 389.000
34.71429 437.000
34.73423 407.000
34.75418 414.000
34.77413 399.000
34.79407 451.000
34.81402 442.000
34.83397 428.000
34.85391 444.000
34.87386 397.000
34.89381 412.000
34.91376 469.000
34.93370 388.000
34.95365 438.000
34.97360 388.000
34.99354 404.000
35.01349 418.000
35.03344 428.000
35.05338 461.000
35.07333 412.000
35.09328 401.000
35.11322 409.000
35.13317 382.000
35.15312 415.000
35.17307 410.000
35.19301 419.000
35.21296 399.000
35.23291 386.000
35.25285 379.000
35.27280 440.000
35.29275 437.000
35.31269 431.000
35.33264 458.000
35.35259 377.000
35.37254 412.000
35.39248 398.000
35.41243 399.000
35.43238 391.000
35.45232 410.000
35.47227 440.000
35.49222 380.000
35.51216 421.000
35.53211 392.000
35.55206 426.000
35.57201 420.000
35.59195 423.000
35.61190 441.000
35.63185 440.000
35.65179 441.000
35.67174 428.000
35.69169 428.000
35.71163 438.000
35.73158 411.000
35.75153 402.000
35.77147 413.000
35.79142 437.000
35.81137 434.000
35.83132 415.000
35.85126 432.000
35.87121 464.000
35.89116 404.000
35.91110 407.000
35.93105 415.000
35.95100 405.000
35.97094 398.000
35.99089 420.000
36.01084 429.000
36.03079 427.000
36.05073 414.000
36.07068 442.000
36.09063 473.000
36.11057 452.000
36.13052 430.000
36.15047 435.000
36.17041 438.000
36.19036 484.000
36.21031 473.000
36.23025 470.000
36.25020 509.000
36.27015 487.000
36.29010 533.000
36.31004 509.000
36.32999 552.000
36.34994 555.000
36.36988 507.000
36.38983 566.000
36.40978 570.000
36.42972 600.000
36.44967 581.000
36.46962 650.000
36.48957 741.000
36.50951 698.000
36.52946 759.000
36.54941 821.000
36.56935 796.000
36.58930 909.000
36.60925 967.000
36.62919 1142.000
36.64914 1240.000
36.66909 1471.000
36.68903 1742.000
36.70898 2060.000
36.72893 2562.000
36.74888 2843.000
36.76882 3384.000
36.78877 3718.000
36.80872 4038.000
36.82866 4525.000
36.84861 4733.000
36.86856 4999.000
36.88850 5035.000
36.90845 5283.000
36.92840 5315.000
36.94835 5246.000
36.96829 5408.000
36.98824 5379.000
37.00819 5370.000
37.02813 5474.000
37.04808 5312.000
37.06803 5036.000
37.08797 4576.000
37.10792 4223.000
37.12787 3735.000
37.14781 3272.000
37.16776 2757.000
37.18771 2332.000
37.20766 1988.000
37.22760 1619.000
37.24755 1262.000
37.26750 1111.000
37.28744 941.000
37.30739 850.000
37.32734 724.000
37.34728 638.000
37.36723 578.000
37.38718 590.000
37.40713 546.000
37.42707 554.000
37.44702 505.000
37.46697 499.000
37.48691 505.000
37.50686 453.000
37.52681 505.000
37.54675 477.000
37.56670 491.000
37.58665 490.000
37.60660 451.000
37.62654 460.000
37.64649 447.000
37.66644 499.000
37.68638 430.000
37.70633 477.000
37.72628 431.000
37.74622 482.000
37.76617 474.000
37.78612 431.000
37.80606 388.000
37.82601 419.000
37.84596 427.000
37.86591 434.000
37.88585 447.000
37.90580 425.000
37.92575 420.000
37.94569 421.000
37.96564 441.000
37.98559 417.000
38.00553 417.000
38.02548 391.000
38.04543 432.000
38.06538 448.000
38.08532 429.000
38.10527 434.000
38.12522 434.000
38.14516 445.000
38.16511 419.000
38.18506 413.000
38.20500 445.000
38.22495 412.000
38.24490 415.000
38.26484 403.000
38.28479 419.000
38.30474 382.000
38.32469 410.000
38.34463 412.000
38.36458 431.000
38.38453 362.000
38.40447 423.000
38.42442 419.000
38.44437 436.000
38.46431 447.000
38.48426 419.000
38.50421 422.000
38.52416 415.000
38.54410 451.000
38.56405 416.000
38.58400 355.000
38.60394 418.000
38.62389 429.000
38.64384 411.000
38.66378 397.000
38.68373 411.000
38.70368 425.000
38.72362 436.000
38.74357 378.000
38.76352 432.000
38.78347 400.000
38.80341 411.000
38.82336 400.000
38.84331 371.000
38.86325 409.000
38.88320 403.000
38.90315 428.000
38.92309 415.000
38.94304 398.000
38.96299 400.000
38.98294 357.000
39.00288 381.000
39.02283 403.000
39.04278 405.000
39.06272 414.000
39.08267 433.000
39.10262 385.000
39.12256 420.000
39.14251 403.000
39.16246 417.000
39.18241 396.000
39.20235 394.000
39.22230 375.000
39.24225 398.000
39.26219 379.000
39.28214 424.000
39.30209 372.000
39.32203 420.000
39.34198 354.000
39.36193 406.000
39.38187 386.000
39.40182 417.000
39.42177 404.000
39.44172 400.000
39.46166 426.000
39.48161 373.000
39.50156 419.000
39.52150 390.000
39.54145 384.000
39.56140 375.000
39.58134 418.000
39.60129 414.000
39.62124 392.000
39.64119 387.000
39.66113 375.000
39.68108 434.000
39.70103 377.000
39.72097 408.000
39.74092 405.000
39.76087 379.000
39.78081 393.000
39.80076 371.000
39.82071 411.000
39.84065 413.000
39.86060 419.000
39.88055 401.000
39.90050 393.000
39.92044 383.000
39.94039 417.000
39.96034 396.000
39.98028 367.000
40.00023 382.000
40.02018 434.000
40.04012 363.000
40.06007 416.000
40.08002 430.000
40.09997 379.000
40.11991 377.000
40.13986 431.000
40.15981 379.000
40.17975 416.000
40.19970 379.000
40.21965 395.000
40.23959 376.000
40.25954 394.000
40.27949 374.000
40.29943 379.000
40.31938 431.000
40.33933 403.000
40.35928 433.000
40.37922 349.000
40.39917 394.000
40.41912 438.000
40.43906 417.000
40.45901 394.000
40.47896 383.000
40.49890 412.000
40.51885 384.000
40.53880 418.000
40.55875 364.000
40.57869 409.000
40.59864 409.000
40.61859 395.000
40.63853 404.000
40.65848 393.000
40.67843 409.000
40.69837 423.000
40.71832 403.000
40.73827 392.000
40.75822 375.000
40.77816 409.000
40.79811 399.000
40.81806 397.000
40.83800 381.000
40.85795 398.000
40.87790 417.000
40.89784 417.000
40.91779 405.000
40.93774 425.000
40.95768 381.000
40.97763 362.000
40.99758 409.000
41.01753 408.000
41.03747 398.000
41.05742 416.000
41.07737 412.000
41.09731 412.000
41.11726 418.000
41.13721 419.000
41.15715 404.000
41.17710 406.000
41.19705 414.000
41.21700 381.000
41.23694 412.000
41.25689 403.000
41.27684 436.000
41.29678 403.000
41.31673 395.000
41.33668 396.000
41.35662 395.000
41.37657 404.000
41.39652 404.000
41.41646 409.000
41.43641 387.000
41.45636 389.000
41.47631 432.000
41.49625 393.000
41.51620 436.000
41.53615 403.000
41.55609 406.000
41.57604 425.000
41.59599 398.000
41.61593 401.000
41.63588 426.000
41.65583 421.000
41.67578 423.000
41.69572 432.000
41.71567 444.000
41.73562 397.000
41.75556 445.000
41.77551 403.000
41.79546 407.000
41.81540 443.000
41.83535 425.000
41.85530 426.000
41.87524 412.000
41.89519 443.000
41.91514 457.000
41.93509 429.000
41.95503 462.000
41.97498 441.000
41.99493 440.000
42.01487 443.000
42.03482 454.000
42.05477 436.000
42.07471 477.000
42.09466 460.000
42.11461 442.000
42.13456 473.000
42.15450 461.000
42.17445 486.000
42.19440 457.000
42.21434 459.000
42.23429 468.000
42.25424 526.000
42.27418 479.000
42.29413 510.000
42.31408 569.000
42.33403 624.000
42.35397 613.000
42.37392 590.000
42.39387 667.000
42.41381 740.000
42.43376 734.000
42.45371 674.000
42.47365 726.000
42.49360 766.000
42.51355 803.000
42.53349 839.000
42.55344 961.000
42.57339 997.000
42.59334 1011.000
42.61328 1138.000
42.63323 1225.000
42.65318 1314.000
42.67312 1531.000
42.69307 1770.000
42.71302 1945.000
42.73296 2534.000
42.75291 2996.000
42.77286 3541.000
42.79281 4114.000
42.81275 5030.000
42.83270 5634.000
42.85265 6359.000
42.87259 7049.000
42.89254 7565.000
42.91249 8164.000
42.93243 8468.000
42.95238 8604.000
42.97233 9032.000
42.99227 8942.000
43.01222 9045.000
43.03217 9320.000
43.05212 9219.000
43.07206 9310.000
43.09201 8712.000
43.11196 8184.000
43.13190 7353.000
43.15185 6557.000
43.17180 5795.000
43.19174 5206.000
43.21169 4425.000
43.23164 3698.000
43.25159 2949.000
43.27153 2445.000
43.29148 1968.000
43.31143 1637.000
43.33137 1253.000
43.35132 1121.000
43.37127 984.000
43.39121 865.000
43.41116 824.000
43.43111 703.000
43.45105 679.000
43.47100 670.000
43.49095 647.000
43.51090 598.000
43.53084 579.000
43.55079 513.000
43.57074 540.000
43.59068 545.000
43.61063 509.000
43.63058 506.000
43.65052 468.000
43.67047 548.000
43.69042 513.000
43.71037 443.000
43.73031 497.000
43.75026 484.000
43.77021 492.000
43.79015 430.000
43.81010 434.000
43.83005 476.000
43.84999 452.000
43.86994 443.000
43.88989 450.000
43.90984 448.000
43.92978 427.000
43.94973 445.000
43.96968 430.000
43.98962 422.000
44.00957 414.000
44.02952 436.000
44.04946 431.000
44.06941 424.000
44.08936 407.000
44.10930 422.000
44.12925 401.000
44.14920 434.000
44.16915 439.000
44.18909 372.000
44.20904 428.000
44.22899 428.000
44.24893 402.000
44.26888 449.000
44.28883 413.000
44.30877 394.000
44.32872 402.000
44.34867 397.000
44.36862 437.000
44.38856 413.000
44.40851 397.000
44.42846 394.000
44.44840 406.000
44.46835 374.000
44.48830 414.000
44.50824 408.000
44.52819 406.000
44.54814 429.000
44.56808 399.000
44.58803 407.000
44.60798 380.000
44.62793 393.000
44.64787 375.000
44.66782 392.000
44.68777 371.000
44.70771 391.000
44.72766 385.000
44.74761 391.000
44.76755 409.000
44.78750 356.000
44.80745 399.000
44.82740 391.000
44.84734 377.000
44.86729 349.000
44.88724 360.000
44.90718 350.000
44.92713 383.000
44.94708 401.000
44.96702 379.000
44.98697 380.000
45.00692 373.000
45.02686 372.000
45.04681 371.000
45.06676 375.000
45.08671 367.000
45.10665 388.000
45.12660 389.000
45.14655 390.000
45.16649 337.000
45.18644 402.000
45.20639 392.000
45.22633 403.000
45.24628 385.000
45.26623 387.000
45.28618 371.000
45.30612 391.000
45.32607 341.000
45.34602 412.000
45.36596 402.000
45.38591 380.000
45.40586 362.000
45.42580 356.000
45.44575 388.000
45.46570 371.000
45.48565 373.000
45.50559 375.000
45.52554 377.000
45.54549 348.000
45.56543 382.000
45.58538 356.000
45.60533 406.000
45.62527 368.000
45.64522 361.000
45.66517 359.000
45.68511 353.000
45.70506 405.000
45.72501 372.000
45.74496 389.000
45.76490 395.000
45.78485 325.000
45.80480 367.000
45.82474 371.000
45.84469 396.000
45.86464 331.000
45.88458 341.000
45.90453 371.000
45.92448 352.000
45.94443 375.000
45.96437 350.000
45.98432 371.000
46.00427 384.000
46.02421 340.000
46.04416 385.000
46.06411 364.000
46.08405 367.000
46.10400 359.000
46.12395 369.000
46.14389 354.000
46.16384 347.000
46.18379 388.000
46.20374 372.000
46.22368 360.000
46.24363 348.000
46.26358 359.000
46.28352 368.000
46.30347 329.000
46.32342 371.000
46.34336 332.000
46.36331 356.000
46.38326 356.000
46.40321 363.000
46.42315 317.000
46.44310 354.000
46.46305 318.000
46.48299 347.000
46.50294 368.000
46.52289 339.000
46.54283 358.000
46.56278 340.000
46.58273 387.000
46.60267 347.000
46.62262 329.000
46.64257 348.000
46.66252 379.000
46.68246 306.000
46.70241 319.000
46.72236 349.000
46.74230 333.000
46.76225 354.000
46.78220 330.000
46.80214 341.000
46.82209 331.000
46.84204 355.000
46.86199 344.000
46.88193 360.000
46.90188 359.000
46.92183 339.000
46.94177 320.000
46.96172 386.000
46.98167 364.000
47.00161 338.000
47.02156 354.000
47.04151 352.000
47.06146 355.000
47.08140 334.000
47.10135 348.000
47.12130 349.000
47.14124 333.000
47.16119 351.000
47.18114 317.000
47.20108 352.000
47.22103 387.000
47.24098 352.000
47.26092 322.000
47.28087 320.000
47.30082 307.000
47.32077 333.000
47.34071 353.000
47.36066 337.000
47.38061 337.000
47.40055 337.000
47.42050 344.000
47.44045 375.000
47.46039 347.000
47.48034 308.000
47.50029 343.000
47.52024 325.000
47.54018 338.000
47.56013 334.000
47.58008 362.000
47.60002 337.000
47.61997 337.000
47.63992 354.000
47.65986 355.000
47.67981 336.000
47.69976 338.000
47.71970 323.000
47.73965 357.000
47.75960 308.000
47.77955 352.000
47.79949 329.000
47.81944 345.000
47.83939 371.000
47.85933 327.000
47.87928 318.000
47.89923 297.000
47.91917 358.000
47.93912 369.000
47.95907 329.000
47.97902 347.000
47.99896 302.000
48.01891 331.000
48.03886 368.000
48.05880 304.000
48.07875 354.000
48.09870 331.000
48.11864 351.000
48.13859 328.000
48.15854 344.000
48.17848 340.000
48.19843 359.000
48.21838 373.000
48.23833 333.000
48.25827 314.000
48.27822 334.000
48.29817 340.000
48.31811 347.000
48.33806 346.000
48.35801 332.000
48.37795 324.000
48.39790 322.000
48.41785 358.000
48.43780 345.000
48.45774 351.000
48.47769 327.000
48.49764 332.000
48.51758 387.000
48.53753 343.000
48.55748 353.000
48.57742 313.000
48.59737 334.000
48.61732 326.000
48.63726 327.000
48.65721 389.000
48.67716 338.000
48.69711 308.000
48.71705 320.000
48.73700 343.000
48.75695 337.000
48.77689 345.000
48.79684 336.000
48.81679 386.000
48.83673 337.000
48.85668 303.000
48.87663 335.000
48.89658 367.000
48.91652 344.000
48.93647 311.000
48.95642 369.000
48.97636 332.000
48.99631 332.000
49.01626 328.000
49.03620 291.000
49.05615 360.000
49.07610 347.000
49.09605 328.000
49.11599 367.000
49.13594 327.000
49.15589 354.000
49.17583 324.000
49.19578 331.000
49.21573 345.000
49.23567 341.000
49.25562 338.000
49.27557 343.000
49.29551 353.000
49.31546 340.000
49.33541 316.000
49.35536 309.000
49.37530 330.000
49.39525 360.000
49.41520 330.000
49.43514 367.000
49.45509 315.000
49.47504 343.000
49.49498 365.000
49.51493 314.000
49.53488 345.000
49.55483 350.000
49.57477 333.000
49.59472 312.000
49.61467 384.000
49.63461 300.000
49.65456 322.000
49.67451 316.000
49.69445 349.000
49.71440 349.000
49.73435 337.000
49.75429 337.000
49.77424 330.000
49.79419 351.000
49.81414 322.000
49.83408 345.000
49.85403 342.000
49.87398 287.000
49.89392 343.000
49.91387 339.000
49.93382 308.000
49.95376 341.000
49.97371 325.000
49.99366 355.000
50.01361 330.000
50.03355 346.000
50.05350 367.000
50.07345 349.000
50.09339 340.000
50.11334 336.000
50.13329 344.000
50.15323 317.000
50.17318 316.000
50.19313 350.000
50.21307 326.000
50.23302 363.000
50.25297 333.000
50.27292 344.000
50.29286 295.000
50.31281 319.000
50.33276 303.000
50.35270 311.000
50.37265 331.000
50.39260 338.000
50.41254 361.000
50.43249 332.000
50.45244 339.000
50.47239 325.000
50.49233 327.000
50.51228 327.000
50.53223 325.000
50.55217 299.000
50.57212 343.000
50.59207 343.000
50.61201 341.000
50.63196 358.000
50.65191 373.000
50.67186 288.000
50.69180 362.000
50.71175 317.000
50.73170 356.000
50.75164 299.000
50.77159 328.000
50.79154 325.000
50.81148 306.000
50.83143 342.000
50.85138 328.000
50.87132 320.000
50.89127 338.000
50.91122 296.000
50.93117 327.000
50.95111 286.000
50.97106 337.000
50.99101 312.000
51.01095 342.000
51.03090 322.000
51.05085 329.000
51.07079 330.000
51.09074 311.000
51.11069 329.000
51.13064 310.000
51.15058 348.000
51.17053 330.000
51.19048 347.000
51.21042 320.000
51.23037 341.000
51.25032 330.000
51.27026 338.000
51.29021 323.000
51.31016 321.000
51.33010 338.000
51.35005 349.000
51.37000 312.000
51.38995 346.000
51.40989 354.000
51.42984 342.000
51.44979 352.000
51.46973 335.000
51.48968 340.000
51.50963 323.000
51.52957 307.000
51.54952 328.000
51.56947 303.000
51.58942 336.000
51.60936 325.000
51.62931 324.000
51.64926 317.000
51.66920 327.000
51.68915 296.000
51.70910 345.000
51.72904 321.000
51.74899 333.000
51.76894 295.000
51.78888 319.000
51.80883 314.000
51.82878 333.000
51.84873 337.000
51.86867 306.000
51.88862 327.000
51.90857 320.000
51.92851 328.000
51.94846 326.000
51.96841 343.000
51.98835 326.000
52.00830 313.000
52.02825 347.000
52.04820 342.000
52.06814 337.000
52.08809 301.000
52.10804 311.000
52.12798 302.000
52.14793 322.000
52.16788 336.000
52.18782 333.000
52.20777 337.000
52.22772 341.000
52.24767 337.000
52.26761 346.000
52.28756 287.000
52.30751 320.000
52.32745 347.000
52.34740 331.000
52.36735 318.000
52.38729 309.000
52.40724 312.000
52.42719 335.000
52.44713 358.000
52.46708 315.000
52.48703 351.000
52.50698 306.000
52.52692 319.000
52.54687 331.000
52.56682 300.000
52.58676 338.000
52.60671 308.000
52.62666 310.000
52.64660 327.000
52.66655 319.000
52.68650 341.000
52.70645 315.000
52.72639 330.000
52.74634 327.000
52.76629 322.000
52.78623 320.000
52.80618 333.000
52.82613 334.000
52.84607 300.000
52.86602 303.000
52.88597 307.000
52.90591 341.000
52.92586 341.000
52.94581 348.000
52.96576 293.000
52.98570 334.000
53.00565 316.000
53.02560 349.000
53.04554 326.000
53.06549 314.000
53.08544 320.000
53.10538 318.000
53.12533 328.000
53.14528 321.000
53.16523 335.000
53.18517 328.000
53.20512 327.000
53.22507 316.000
53.24501 335.000
53.26496 311.000
53.28491 318.000
53.30485 296.000
53.32480 304.000
53.34475 295.000
53.36469 305.000
53.38464 353.000
53.40459 292.000
53.42454 329.000
53.44448 317.000
53.46443 314.000
53.48438 326.000
53.50432 299.000
53.52427 296.000
53.54422 316.000
53.56416 347.000
53.58411 333.000
53.60406 354.000
53.62401 302.000
53.64395 298.000
53.66390 363.000
53.68385 279.000
53.70379 281.000
53.72374 329.000
53.74369 278.000
53.76363 304.000
53.78358 329.000
53.80353 322.000
53.82348 301.000
53.84342 324.000
53.86337 323.000
53.88332 318.000
53.90326 340.000
53.92321 298.000
53.94316 342.000
53.96310 324.000
53.98305 318.000
54.00300 291.000
54.02294 316.000
54.04289 345.000
54.06284 328.000
54.08279 304.000
54.10273 312.000
54.12268 306.000
54.14263 335.000
54.16257 330.000
54.18252 322.000
54.20247 330.000
54.22241 293.000
54.24236 325.000
54.26231 340.000
54.28226 304.000
54.30220 322.000
54.32215 317.000
54.34210 333.000
54.36204 315.000
54.38199 292.000
54.40194 311.000
54.42188 324.000
54.44183 303.000
54.46178 317.000
54.48172 308.000
54.50167 335.000
54.52162 312.000
54.54157 335.000
54.56151 297.000
54.58146 327.000
54.60141 299.000
54.62135 292.000
54.64130 321.000
54.66125 349.000
54.68119 314.000
54.70114 352.000
54.72109 295.000
54.74104 320.000
54.76098 306.000
54.78093 271.000
54.80088 332.000
54.82082 350.000
54.84077 305.000
54.86072 325.000
54.88066 307.000
54.90061 311.000
54.92056 327.000
54.94050 332.000
54.96045 303.000
54.98040 335.000
55.00035 320.000
55.02029 335.000
55.04024 340.000
55.06019 290.000
55.08013 319.000
55.10008 306.000
55.12003 332.000
55.13997 293.000
55.15992 298.000
55.17987 308.000
55.19982 319.000
55.21976 299.000
55.23971 308.000
55.25966 342.000
55.27960 314.000
55.29955 286.000
55.31950 321.000
55.33944 312.000
55.35939 291.000
55.37934 287.000
55.39929 306.000
55.41923 324.000
55.43918 313.000
55.45913 293.000
55.47907 323.000
55.49902 307.000
55.51897 325.000
55.53891 329.000
55.55886 320.000
55.57881 314.000
55.59875 330.000
55.61870 311.000
55.63865 337.000
55.65860 314.000
55.67854 348.000
55.69849 314.000
55.71844 333.000
55.73838 296.000
55.75833 345.000
55.77828 334.000
55.79822 313.000
55.81817 316.000
55.83812 312.000
55.85807 351.000
55.87801 319.000
55.89796 301.000
55.91791 313.000
55.93785 303.000
55.95780 318.000
55.97775 301.000
55.99769 335.000
56.01764 322.000
56.03759 324.000
56.05753 342.000
56.07748 323.000
56.09743 299.000
56.11738 340.000
56.13732 309.000
56.15727 293.000
56.17722 304.000
56.19716 328.000
56.21711 321.000
56.23706 315.000
56.25700 313.000
56.27695 294.000
56.29690 316.000
56.31685 309.000
56.33679 308.000
56.35674 318.000
56.37669 273.000
56.39663 334.000
56.41658 315.000
56.43653 337.000
56.45647 328.000
56.47642 312.000
56.49637 322.000
56.51631 301.000
56.53626 289.000
56.55621 301.000
56.57616 329.000
56.59610 324.000
56.61605 296.000
56.63600 322.000
56.65594 332.000
56.67589 305.000
56.69584 323.000
56.71578 331.000
56.73573 309.000
56.75568 324.000
56.77563 293.000
56.79557 306.000
56.81552 315.000
56.83547 318.000
56.85541 313.000
56.87536 326.000
56.89531 306.000
56.91525 341.000
56.93520 334.000
56.95515 318.000
56.97510 339.000
56.99504 344.000
57.01499 293.000
57.03494 293.000
57.05488 330.000
57.07483 348.000
57.09478 306.000
57.11472 298.000
57.13467 341.000
57.15462 343.000
57.17456 316.000
57.19451 299.000
57.21446 323.000
57.23441 331.000
57.25435 342.000
57.27430 309.000
57.29425 333.000
57.31419 280.000
57.33414 331.000
57.35409 327.000
57.37403 286.000
57.39398 337.000
57.41393 304.000
57.43388 290.000
57.45382 325.000
57.47377 316.000
57.49372 319.000
57.51366 316.000
57.53361 298.000
57.55356 292.000
57.57350 310.000
57.59345 334.000
57.61340 323.000
57.63334 332.000
57.65329 284.000
57.67324 306.000
57.69319 320.000
57.71313 330.000
57.73308 321.000
57.75303 301.000
57.77297 311.000
57.79292 310.000
57.81287 312.000
57.83281 333.000
57.85276 337.000
57.87271 309.000
57.89266 310.000
57.91260 343.000
57.93255 311.000
57.95250 304.000
57.97244 288.000
57.99239 338.000
58.01234 337.000
58.03228 309.000
58.05223 319.000
58.07218 314.000
58.09212 284.000
58.11207 347.000
58.13202 290.000
58.15197 288.000
58.17191 315.000
58.19186 314.000
58.21181 337.000
58.23175 293.000
58.25170 323.000
58.27165 297.000
58.29159 322.000
58.31154 342.000
58.33149 367.000
58.35144 316.000
58.37138 298.000
58.39133 289.000
58.41128 306.000
58.43122 316.000
58.45117 339.000
58.47112 306.000
58.49106 344.000
58.51101 316.000
58.53096 290.000
58.55090 304.000
58.57085 318.000
58.59080 333.000
58.61075 321.000
58.63069 323.000
58.65064 348.000
58.67059 348.000
58.69053 340.000
58.71048 331.000
58.73043 326.000
58.75037 302.000
58.77032 298.000
58.79027 311.000
58.81022 320.000
58.83016 307.000
58.85011 305.000
58.87006 323.000
58.89000 323.000
58.90995 286.000
58.92990 317.000
58.94984 339.000
58.96979 276.000
58.98974 327.000
59.00969 347.000
59.02963 312.000
59.04958 328.000
59.06953 325.000
59.08947 297.000
59.10942 327.000
59.12937 310.000
59.14931 317.000
59.16926 276.000
59.18921 315.000
59.20915 307.000
59.22910 328.000
59.24905 335.000
59.26900 336.000
59.28894 291.000
59.30889 323.000
59.32884 310.000
59.34878 318.000
59.36873 303.000
59.38868 342.000
59.40862 312.000
59.42857 308.000
59.44852 334.000
59.46847 321.000
59.48841 297.000
59.50836 330.000
59.52831 328.000
59.54825 293.000
59.56820 345.000
59.58815 312.000
59.60809 331.000
59.62804 301.000
59.64799 322.000
59.66793 327.000
59.68788 327.000
59.70783 301.000
59.72778 314.000
59.74772 303.000
59.76767 348.000
59.78762 310.000
59.80756 310.000
59.82751 314.000
59.84746 303.000
59.86740 316.000
59.88735 298.000
59.90730 329.000
59.92725 323.000
59.94719 317.000
59.96714 304.000
59.98709 318.000
60.00703 326.000
60.02698 323.000
60.04693 304.000
60.06687 315.000
60.08682 319.000
60.10677 325.000
60.12671 300.000
60.14666 323.000
60.16661 289.000
60.18656 337.000
60.20650 324.000
60.22645 308.000
60.24640 327.000
60.26634 340.000
60.28629 323.000
60.30624 334.000
60.32618 318.000
60.34613 305.000
60.36608 305.000
60.38603 313.000
60.40597 330.000
60.42592 297.000
60.44587 329.000
60.46581 336.000
60.48576 352.000
60.50571 331.000
60.52565 324.000
60.54560 323.000
60.56555 311.000
60.58550 320.000
60.60544 333.000
60.62539 338.000
60.64534 346.000
60.66528 353.000
60.68523 331.000
60.70518 322.000
60.72512 317.000
60.74507 289.000
60.76502 334.000
60.78496 342.000
60.80491 323.000
60.82486 284.000
60.84481 326.000
60.86475 331.000
60.88470 338.000
60.90465 320.000
60.92459 330.000
60.94454 306.000
60.96449 337.000
60.98443 297.000
61.00438 330.000
61.02433 327.000
61.04428 336.000
61.06422 308.000
61.08417 332.000
61.10412 340.000
61.12406 304.000
61.14401 335.000
61.16396 322.000
61.18390 345.000
61.20385 350.000
61.22380 322.000
61.24374 315.000
61.26369 340.000
61.28364 328.000
61.30359 346.000
61.32353 341.000
61.34348 319.000
61.36343 326.000
61.38337 343.000
61.40332 352.000
61.42327 313.000
61.44321 340.000
61.46316 345.000
61.48311 380.000
61.50306 373.000
61.52300 371.000
61.54295 365.000
61.56290 347.000
61.58284 371.000
61.60279 350.000
61.62274 349.000
61.64268 375.000
61.66263 356.000
61.68258 311.000
61.70252 358.000
61.72247 349.000
61.74242 370.000
61.76237 370.000
61.78231 344.000
61.80226 372.000
61.82221 431.000
61.84215 380.000
61.86210 386.000
61.88205 365.000
61.90199 356.000
61.92194 382.000
61.94189 409.000
61.96184 400.000
61.98178 424.000
62.00173 426.000
62.02168 468.000
62.04162 453.000
62.06157 480.000
62.08152 518.000
62.10146 518.000
62.12141 537.000
62.14136 579.000
62.16131 635.000
62.18125 622.000
62.20120 644.000
62.22115 699.000
62.24109 791.000
62.26104 890.000
62.28099 859.000
62.30093 1026.000
62.32088 1156.000
62.34083 1276.000
62.36077 1468.000
62.38072 1686.000
62.40067 1881.000
62.42062 2162.000
62.44056 2360.000
62.46051 2696.000
62.48046 3084.000
62.50040 3320.000
62.52035 3661.000
62.54030 4005.000
62.56024 4138.000
62.58019 4393.000
62.60014 4461.000
62.62009 4594.000
62.64003 4811.000
62.65998 4745.000
62.67993 4621.000
62.69987 4439.000
62.71982 4245.000
62.73977 3875.000
62.75971 3495.000
62.77966 3497.000
62.79961 3010.000
62.81955 2817.000
62.83950 2520.000
62.85945 2230.000
62.87940 1965.000
62.89934 1875.000
62.91929 1555.000
62.93924 1389.000
62.95918 1201.000
62.97913 1043.000
62.99908 873.000
63.01902 754.000
63.03897 708.000
63.05892 659.000
63.07887 610.000
63.09881 553.000
63.11876 526.000
63.13871 510.000
63.15865 504.000
63.17860 436.000
63.19855 466.000
63.21849 467.000
63.23844 399.000
63.25839 411.000
63.27833 378.000
63.29828 399.000
63.31823 404.000
63.33818 402.000
63.35812 364.000
63.37807 392.000
63.39802 349.000
63.41796 389.000
63.43791 395.000
63.45786 402.000
63.47780 367.000
63.49775 398.000
63.51770 369.000
63.53765 380.000
63.55759 359.000
63.57754 350.000
63.59749 378.000
63.61743 382.000
63.63738 366.000
63.65733 378.000
63.67727 358.000
63.69722 346.000
63.71717 352.000
63.73712 394.000
63.75706 343.000
63.77701 374.000
63.79696 350.000
63.81690 330.000
63.83685 356.000
63.85680 364.000
63.87674 326.000
63.89669 317.000
63.91664 373.000
63.93658 347.000
63.95653 348.000
63.97648 298.000
63.99643 335.000
64.01637 334.000
64.03632 314.000
64.05627 333.000
64.07621 329.000
64.09616 348.000
64.11611 317.000
64.13605 334.000
64.15600 320.000
64.17595 315.000
64.19590 322.000
64.21584 330.000
64.23579 347.000
64.25574 290.000
64.27568 350.000
64.29563 328.000
64.31558 330.000
64.33552 326.000
64.35547 328.000
64.37542 326.000
64.39536 358.000
64.41531 345.000
64.43526 294.000
64.45521 299.000
64.47515 323.000
64.49510 313.000
64.51505 338.000
64.53499 317.000
64.55494 295.000
64.57489 328.000
64.59483 296.000
64.61478 319.000
64.63473 305.000
64.65468 340.000
64.67462 299.000
64.69457 356.000
64.71452 333.000
64.73446 328.000
64.75441 327.000
64.77436 317.000
64.79430 322.000
64.81425 306.000
64.83420 342.000
64.85414 331.000
64.87409 308.000
64.89404 315.000
64.91399 325.000
64.93393 296.000
64.95388 331.000
64.97383 326.000
64.99377 354.000
65.01372 302.000
65.03367 307.000
65.05361 314.000
65.07356 294.000
65.09351 315.000
65.11346 314.000
65.13340 311.000
65.15335 303.000
65.17330 300.000
65.19324 319.000
65.21319 325.000
65.23314 317.000
65.25308 342.000
65.27303 330.000
65.29298 307.000
65.31293 347.000
65.33287 326.000
65.35282 303.000
65.37277 342.000
65.39271 341.000
65.41266 347.000
65.43261 329.000
65.45255 289.000
65.47250 342.000
65.49245 292.000
65.51239 344.000
65.53234 298.000
65.55229 325.000
65.57224 337.000
65.59218 287.000
65.61213 329.000
65.63208 322.000
65.65202 298.000
65.67197 316.000
65.69192 303.000
65.71186 317.000
65.73181 319.000
65.75176 314.000
65.77171 289.000
65.79165 302.000
65.81160 338.000
65.83155 310.000
65.85149 310.000
65.87144 294.000
65.89139 314.000
65.91133 312.000
65.93128 363.000
65.95123 323.000
65.97117 309.000
65.99112 309.000
66.01107 284.000
66.03102 353.000
66.05096 266.000
66.07091 320.000
66.09086 318.000
66.11080 269.000
66.13075 280.000
66.15070 339.000
66.17064 333.000
66.19059 323.000
66.21054 323.000
66.23049 296.000
66.25043 314.000
66.27038 287.000
66.29033 294.000
66.31027 317.000
66.33022 312.000
66.35017 328.000
66.37011 286.000
66.39006 327.000
66.41001 323.000
66.42995 347.000
66.44990 335.000
66.46985 294.000
66.48980 325.000
66.50974 329.000
66.52969 323.000
66.54964 326.000
66.56958 321.000
66.58953 315.000
66.60948 350.000
66.62942 292.000
66.64937 294.000
66.66932 347.000
66.68927 345.000
66.70921 331.000
66.72916 311.000
66.74911 342.000
66.76905 299.000
66.78900 297.000
66.80895 307.000
66.82889 292.000
66.84884 298.000
66.86879 337.000
66.88874 299.000
66.90868 319.000
66.92863 349.000
66.94858 311.000
66.96852 299.000
66.98847 301.000
67.00842 326.000
67.02836 320.000
67.04831 298.000
67.06826 290.000
67.08820 329.000
67.10815 340.000
67.12810 314.000
67.14805 312.000
67.16799 301.000
67.18794 279.000
67.20789 298.000
67.22783 308.000
67.24778 277.000
67.26773 308.000
67.28767 305.000
67.30762 286.000
67.32757 287.000
67.34752 291.000
67.36746 287.000
67.38741 322.000
67.40736 307.000
67.42730 293.000
67.44725 336.000
67.46720 316.000
67.48714 307.000
67.50709 305.000
67.52704 285.000
67.54698 344.000
67.56693 304.000
67.58688 330.000
67.60683 286.000
67.62677 307.000
67.64672 279.000
67.66667 321.000
67.68661 289.000
67.70656 297.000
67.72651 316.000
67.74645 304.000
67.76640 281.000
67.78635 306.000
67.80630 303.000
67.82624 319.000
67.84619 327.000
67.86614 314.000
67.88608 282.000
67.90603 303.000
67.92598 271.000
67.94592 343.000
67.96587 315.000
67.98582 332.000
68.00576 299.000
68.02571 310.000
68.04566 296.000
68.06561 297.000
68.08555 285.000
68.10550 338.000
68.12545 301.000
68.14539 310.000
68.16534 335.000
68.18529 297.000
68.20523 318.000
68.22518 282.000
68.24513 293.000
68.26508 294.000
68.28502 320.000
68.30497 319.000
68.32492 323.000
68.34486 318.000
68.36481 309.000
68.38476 305.000
68.40470 313.000
68.42465 290.000
68.44460 303.000
68.46455 312.000
68.48449 328.000
68.50444 288.000
68.52439 322.000
68.54433 306.000
68.56428 333.000
68.58423 345.000
68.60417 312.000
68.62412 346.000
68.64407 287.000
68.66401 309.000
68.68396 299.000
68.70391 297.000
68.72386 269.000
68.74380 296.000
68.76375 329.000
68.78370 296.000
68.80364 315.000
68.82359 325.000
68.84354 299.000
68.86348 297.000
68.88343 284.000
68.90338 319.000
68.92333 319.000
68.94327 294.000
68.96322 324.000
68.98317 294.000
69.00311 300.000
69.02306 300.000
69.04301 302.000
69.06295 303.000
69.08290 315.000
69.10285 326.000
69.12279 307.000
69.14274 317.000
69.16269 295.000
69.18264 308.000
69.20258 310.000
69.22253 332.000
69.24248 308.000
69.26242 291.000
69.28237 281.000
69.30232 333.000
69.32226 319.000
69.34221 273.000
69.36216 316.000
69.38211 312.000
69.40205 315.000
69.42200 279.000
69.44195 289.000
69.46189 275.000
69.48184 295.000
69.50179 321.000
69.52173 276.000
69.54168 271.000
69.56163 328.000
69.58157 326.000
69.60152 296.000
69.62147 310.000
69.64142 302.000
69.66136 305.000
69.68131 327.000
69.70126 324.000
69.72120 304.000
69.74115 292.000
69.76110 302.000
69.78104 275.000
69.80099 310.000
69.82094 317.000
69.84089 271.000
69.86083 327.000
69.88078 323.000
69.90073 300.000
69.92067 311.000
69.94062 314.000
69.96057 323.000
69.98051 337.000
70.00046 301.000
70.02041 336.000
70.04035 313.000
70.06030 282.000
70.08025 304.000
70.10020 305.000
70.12014 287.000
70.14009 316.000
70.16004 298.000
70.17998 335.000
70.19993 295.000
70.21988 305.000
70.23982 282.000
70.25977 342.000
70.27972 313.000
70.29967 299.000
70.31961 251.000
70.33956 296.000
70.35951 294.000
70.37945 307.000
70.39940 317.000
70.41935 317.000
70.43929 301.000
70.45924 289.000
70.47919 266.000
70.49914 337.000
70.51908 323.000
70.53903 296.000
70.55898 292.000
70.57892 281.000
70.59887 289.000
70.61882 289.000
70.63876 325.000
70.65871 297.000
70.67866 269.000
70.69860 313.000
70.71855 298.000
70.73850 309.000
70.75845 312.000
70.77839 311.000
70.79834 320.000
70.81829 300.000
70.83823 319.000
70.85818 290.000
70.87813 303.000
70.89807 299.000
70.91802 316.000
70.93797 280.000
70.95792 274.000
70.97786 302.000
70.99781 299.000
71.01776 291.000
71.03770 278.000
71.05765 297.000
71.07760 323.000
71.09754 297.000
71.11749 315.000
71.13744 306.000
71.15738 292.000
71.17733 299.000
71.19728 323.000
71.21723 282.000
71.23717 285.000
71.25712 290.000
71.27707 327.000
71.29701 293.000
71.31696 298.000
71.33691 305.000
71.35685 324.000
71.37680 299.000
71.39675 284.000
71.41670 291.000
71.43664 316.000
71.45659 296.000
71.47654 320.000
71.49648 317.000
71.51643 305.000
71.53638 312.000
71.55632 306.000
71.57627 325.000
71.59622 288.000
71.61616 307.000
71.63611 286.000
71.65606 303.000
71.67601 302.000
71.69595 341.000
71.71590 332.000
71.73585 304.000
71.75579 290.000
71.77574 285.000
71.79569 312.000
71.81563 296.000
71.83558 304.000
71.85553 299.000
71.87548 323.000
71.89542 289.000
71.91537 325.000
71.93532 306.000
71.95526 311.000
71.97521 279.000
71.99516 311.000
72.01510 322.000
72.03505 309.000
72.05500 309.000
72.07495 341.000
72.09489 297.000
72.11484 302.000
72.13479 321.000
72.15473 294.000
72.17468 277.000
72.19463 310.000
72.21457 294.000
72.23452 308.000
72.25447 324.000
72.27441 283.000
72.29436 284.000
72.31431 307.000
72.33426 316.000
72.35420 281.000
72.37415 297.000
72.39410 307.000
72.41404 295.000
72.43399 292.000
72.45394 269.000
72.47388 320.000
72.49383 298.000
72.51378 282.000
72.53373 302.000
72.55367 292.000
72.57362 308.000
72.59357 281.000
72.61351 276.000
72.63346 278.000
72.65341 309.000
72.67335 285.000
72.69330 308.000
72.71325 307.000
72.73319 303.000
72.75314 302.000
72.77309 296.000
72.79304 305.000
72.81298 294.000
72.83293 315.000
72.85288 325.000
72.87282 326.000
72.89277 277.000
72.91272 282.000
72.93266 316.000
72.95261 335.000
72.97256 304.000
72.99251 317.000
73.01245 320.000
73.03240 280.000
73.05235 328.000
73.07229 313.000
73.09224 283.000
73.11219 310.000
73.13213 311.000
73.15208 312.000
73.17203 289.000
73.19197 317.000
73.21192 311.000
73.23187 285.000
73.25182 305.000
73.27176 319.000
73.29171 340.000
73.31166 314.000
73.33160 303.000
73.35155 325.000
73.37150 313.000
73.39144 306.000
73.41139 303.000
73.43134 285.000
73.45129 298.000
73.47123 273.000
73.49118 316.000
73.51113 301.000
73.53107 302.000
73.55102 339.000
73.57097 314.000
73.59091 258.000
73.61086 287.000
73.63081 321.000
73.65076 282.000
73.67070 301.000
73.69065 313.000
73.71060 320.000
73.73054 319.000
73.75049 297.000
73.77044 320.000
73.79038 327.000
73.81033 329.000
73.83028 303.000
73.85022 310.000
73.87017 303.000
73.89012 331.000
73.91007 334.000
73.93001 326.000
73.94996 308.000
73.96991 311.000
73.98985 309.000
74.00980 308.000
74.02975 314.000
74.04969 334.000
74.06964 316.000
74.08959 310.000
74.10954 337.000
74.12948 311.000
74.14943 296.000
74.16938 323.000
74.18932 345.000
74.20927 334.000
74.22922 320.000
74.24916 301.000
74.26911 330.000
74.28906 325.000
74.30900 328.000
74.32895 311.000
74.34890 318.000
74.36885 316.000
74.38879 326.000
74.40874 322.000
74.42869 338.000
74.44863 352.000
74.46858 340.000
74.48853 344.000
74.50847 357.000
74.52842 329.000
74.54837 376.000
74.56832 367.000
74.58826 343.000
74.60821 349.000
74.62816 362.000
74.64810 391.000
74.66805 370.000
74.68800 416.000
74.70794 429.000
74.72789 452.000
74.74784 458.000
74.76778 464.000
74.78773 489.000
74.80768 485.000
74.82763 539.000
74.84757 557.000
74.86752 590.000
74.88747 641.000
74.90741 655.000
74.92736 722.000
74.94731 888.000
74.96725 917.000
74.98720 1075.000
75.00715 1126.000
75.02710 1190.000
75.04704 1363.000
75.06699 1477.000
75.08694 1518.000
75.10688 1694.000
75.12683 1776.000
75.14678 1803.000
75.16672 1883.000
75.18667 1881.000
75.20662 1856.000
75.22657 1731.000
75.24651 1746.000
75.26646 1652.000
75.28641 1565.000
75.30635 1530.000
75.32630 1443.000
75.34625 1348.000
75.36619 1275.000
75.38614 1195.000
75.40609 1147.000
75.42603 1115.000
75.44598 1090.000
75.46593 916.000
75.48588 897.000
75.50582 791.000
75.52577 715.000
75.54572 707.000
75.56566 599.000
75.58561 524.000
75.60556 521.000
75.62550 461.000
75.64545 469.000
75.66540 464.000
75.68535 432.000
75.70529 376.000
75.72524 366.000
75.74519 368.000
75.76513 358.000
75.78508 386.000
75.80503 352.000
75.82497 344.000
75.84492 356.000
75.86487 326.000
75.88481 343.000
75.90476 339.000
75.92471 351.000
75.94466 357.000
75.96460 336.000
75.98455 321.000
76.00450 318.000
76.02444 339.000
76.04439 340.000
76.06434 322.000
76.08428 325.000
76.10423 309.000
76.12418 341.000
76.14413 321.000
76.16407 329.000
76.18402 284.000
76.20397 305.000
76.22391 319.000
76.24386 360.000
76.26381 313.000
76.28375 336.000
76.30370 297.000
76.32365 300.000
76.34359 315.000
76.36354 313.000
76.38349 339.000
76.40344 310.000
76.42338 307.000
76.44333 314.000
76.46328 321.000
76.48322 335.000
76.50317 288.000
76.52312 297.000
76.54306 315.000
76.56301 310.000
76.58296 290.000
76.60291 282.000
76.62285 314.000
76.64280 311.000
76.66275 339.000
76.68269 313.000
76.70264 302.000
76.72259 338.000
76.74253 280.000
76.76248 328.000
76.78243 303.000
76.80238 305.000
76.82232 325.000
76.84227 287.000
76.86222 296.000
76.88216 312.000
76.90211 328.000
76.92206 300.000
76.94200 305.000
76.96195 320.000
76.98190 353.000
77.00184 296.000
77.02179 337.000
77.04174 303.000
77.06169 292.000
77.08163 304.000
77.10158 285.000
77.12153 308.000
77.14147 335.000
77.16142 320.000
77.18137 300.000
77.20131 294.000
77.22126 319.000
77.24121 295.000
77.26116 314.000
77.28110 308.000
77.30105 316.000
77.32100 338.000
77.34094 320.000
77.36089 303.000
77.38084 332.000
77.40078 317.000
77.42073 349.000
77.44068 308.000
77.46062 345.000
77.48057 307.000
77.50052 328.000
77.52047 301.000
77.54041 316.000
77.56036 316.000
77.58031 301.000
77.60025 295.000
77.62020 282.000
77.64015 334.000
77.66009 304.000
77.68004 306.000
77.69999 327.000
77.71994 280.000
77.73988 317.000
77.75983 319.000
77.77978 263.000
77.79972 303.000
77.81967 303.000
77.83962 324.000
77.85956 294.000
77.87951 293.000
77.89946 286.000
77.91940 290.000
77.93935 304.000
77.95930 315.000
77.97925 312.000
77.99919 338.000
78.01914 331.000
78.03909 303.000
78.05903 312.000
78.07898 323.000
78.09893 313.000
78.11887 308.000
78.13882 326.000
78.15877 321.000
78.17872 319.000
78.19866 310.000
78.21861 329.000
78.23856 303.000
78.25850 309.000
78.27845 334.000
78.29840 320.000
78.31834 333.000
78.33829 350.000
78.35824 307.000
78.37819 344.000
78.39813 316.000
78.41808 311.000
78.43803 328.000
78.45797 294.000
78.47792 328.000
78.49787 334.000
78.51781 334.000
78.53776 376.000
78.55771 326.000
78.57765 344.000
78.59760 331.000
78.61755 349.000
78.63750 401.000
78.65744 374.000
78.67739 361.000
78.69734 398.000
78.71728 350.000
78.73723 420.000
78.75718 421.000
78.77712 437.000
78.79707 430.000
78.81702 482.000
78.83697 495.000
78.85691 502.000
78.87686 545.000
78.89681 577.000
78.91675 603.000
78.93670 695.000
78.95665 751.000
78.97659 776.000
78.99654 874.000
79.01649 904.000
79.03643 1068.000
79.05638 1087.000
79.07633 1208.000
79.09628 1306.000
79.11622 1242.000
79.13617 1313.000
79.15612 1397.000
79.17606 1389.000
79.19601 1379.000
79.21596 1328.000
79.23590 1261.000
79.25585 1298.000
79.27580 1169.000
79.29575 1213.000
79.31569 1167.000
79.33564 1117.000
79.35559 1099.000
79.37553 998.000
79.39548 985.000
79.41543 933.000
79.43537 892.000
79.45532 878.000
79.47527 783.000
79.49521 733.000
79.51516 629.000
79.53511 629.000
79.55506 545.000
79.57500 521.000
79.59495 508.000
79.61490 492.000
79.63484 434.000
79.65479 473.000
79.67474 406.000
79.69468 394.000
79.71463 427.000
79.73458 365.000
79.75453 338.000
79.77447 406.000
79.79442 376.000
79.81437 390.000
79.83431 334.000
79.85426 332.000
79.87421 329.000
79.89415 348.000
79.91410 335.000
79.93405 338.000
79.95399 315.000
79.97394 314.000
79.99389 364.000
80.01384 333.000
80.03378 327.000
80.05373 339.000
80.07368 332.000
80.09362 322.000
80.11357 296.000
80.13352 315.000
80.15346 297.000
80.17341 334.000
80.19336 317.000
80.21331 322.000
80.23325 298.000
80.25320 363.000
80.27315 313.000
80.29309 312.000
80.31304 303.000
80.33299 319.000
80.35293 332.000
80.37288 300.000
80.39283 316.000
80.41278 339.000
80.43272 291.000
80.45267 283.000
80.47262 309.000
80.49256 312.000
80.51251 291.000
80.53246 310.000
80.55240 295.000
80.57235 318.000
80.59230 321.000
80.61224 271.000
80.63219 307.000
80.65214 295.000
80.67209 322.000
80.69203 330.000
80.71198 319.000
80.73193 293.000
80.75187 302.000
80.77182 285.000
80.79177 296.000
80.81171 277.000
80.83166 312.000
80.85161 306.000
80.87156 307.000
80.89150 302.000
80.91145 301.000
80.93140 307.000
80.95134 294.000
80.97129 298.000
80.99124 282.000
81.01118 306.000
81.03113 305.000
81.05108 316.000
81.07102 304.000
81.09097 295.000
81.11092 280.000
81.13087 315.000
81.15081 318.000
81.17076 309.000
81.19071 289.000
81.21065 315.000
81.23060 303.000
81.25055 302.000
81.27049 304.000
81.29044 313.000
81.31039 278.000
81.33034 260.000
81.35028 325.000
81.37023 299.000
81.39018 320.000
81.41012 298.000
81.43007 286.000
81.45002 306.000
81.46996 280.000
81.48991 302.000
81.50986 324.000
81.52980 319.000
81.54975 302.000
81.56970 323.000
81.58965 262.000
81.60959 309.000
81.62954 308.000
81.64949 293.000
81.66943 298.000
81.68938 278.000
81.70933 285.000
81.72927 327.000
81.74922 315.000
81.76917 300.000
81.78912 292.000
81.80906 269.000
81.82901 317.000
81.84896 284.000
81.86890 289.000
81.88885 268.000
81.90880 287.000
81.92874 298.000
81.94869 314.000
81.96864 311.000
81.98859 303.000
82.00853 322.000
82.02848 323.000
82.04843 299.000
82.06837 335.000
82.08832 305.000
82.10827 281.000
82.12821 284.000
82.14816 257.000
82.16811 290.000
82.18805 301.000
82.20800 295.000
82.22795 293.000
82.24790 274.000
82.26784 284.000
82.28779 310.000
82.30774 327.000
82.32768 310.000
82.34763 286.000
82.36758 323.000
82.38752 290.000
82.40747 319.000
82.42742 261.000
82.44737 294.000
82.46731 290.000
82.48726 306.000
82.50721 307.000
82.52715 294.000
82.54710 318.000
82.56705 315.000
82.58699 294.000
82.60694 297.000
82.62689 307.000
82.64683 279.000
82.66678 311.000
82.68673 299.000
82.70668 304.000
82.72662 302.000
82.74657 297.000
82.76652 295.000
82.78646 308.000
82.80641 303.000
82.82636 295.000
82.84630 300.000
82.86625 270.000
82.88620 299.000
82.90615 274.000
82.92609 254.000
82.94604 293.000
82.96599 303.000
82.98593 287.000
83.00588 265.000
83.02583 317.000
83.04577 308.000
83.06572 286.000
83.08567 287.000
83.10561 321.000
83.12556 294.000
83.14551 302.000
83.16546 296.000
83.18540 287.000
83.20535 306.000
83.22530 292.000
83.24524 318.000
83.26519 295.000
83.28514 309.000
83.30508 292.000
83.32503 307.000
83.34498 311.000
83.36493 291.000
83.38487 300.000
83.40482 332.000
83.42477 311.000
83.44471 323.000
83.46466 301.000
83.48461 296.000
83.50455 306.000
83.52450 300.000
83.54445 312.000
83.56440 294.000
83.58434 282.000
83.60429 279.000
83.62424 284.000
83.64418 328.000
83.66413 316.000
83.68408 268.000
83.70402 327.000
83.72397 299.000
83.74392 308.000
83.76386 267.000
83.78381 311.000
83.80376 296.000
83.82371 325.000
83.84365 337.000
83.86360 317.000
83.88355 288.000
83.90349 309.000
83.92344 329.000
83.94339 295.000
83.96333 285.000
83.98328 328.000
84.00323 299.000
84.02318 294.000
84.04312 278.000
84.06307 320.000
84.08302 329.000
84.10296 294.000
84.12291 292.000
84.14286 280.000
84.16280 296.000
84.18275 307.000
84.20270 300.000
84.22264 293.000
84.24259 283.000
84.26254 269.000
84.28249 288.000
84.30243 322.000
84.32238 289.000
84.34233 299.000
84.36227 301.000
84.38222 320.000
84.40217 272.000
84.42211 305.000
84.44206 284.000
84.46201 296.000
84.48196 284.000
84.50190 298.000
84.52185 298.000
84.54180 303.000
84.56174 306.000
84.58169 295.000
84.60164 290.000
84.62158 272.000
84.64153 278.000
84.66148 305.000
84.68142 282.000
84.70137 245.000
84.72132 306.000
84.74127 295.000
84.76121 282.000
84.78116 322.000
84.80111 291.000
84.82105 269.000
84.84100 310.000
84.86095 268.000
84.88089 283.000
84.90084 287.000
84.92079 256.000
84.94074 294.000
84.96068 315.000
84.98063 296.000
85.00058 295.000
85.02052 299.000
85.04047 280.000
85.06042 314.000
85.08036 306.000
85.10031 320.000
85.12026 321.000
85.14021 296.000
85.16015 310.000
85.18010 309.000
85.20005 289.000
85.21999 320.000
85.23994 318.000
85.25989 292.000
85.27983 284.000
85.29978 273.000
85.31973 284.000
85.33967 284.000
85.35962 286.000
85.37957 312.000
85.39952 289.000
85.41946 306.000
85.43941 281.000
85.45936 264.000
85.47930 296.000
85.49925 297.000
85.51920 319.000
85.53914 276.000
85.55909 303.000
85.57904 318.000
85.59899 304.000
85.61893 288.000
85.63888 318.000
85.65883 296.000
85.67877 299.000
85.69872 296.000
85.71867 289.000
85.73861 300.000
85.75856 256.000
85.77851 247.000
85.79845 337.000
85.81840 287.000
85.83835 267.000
85.85830 298.000
85.87824 277.000
85.89819 295.000
85.91814 283.000
85.93808 314.000
85.95803 286.000
85.97798 291.000
85.99792 288.000
86.01787 277.000
86.03782 309.000
86.05777 254.000
86.07771 287.000
86.09766 277.000
86.11761 283.000
86.13755 328.000
86.15750 310.000
86.17745 285.000
86.19739 296.000
86.21734 280.000
86.23729 291.000
86.25723 327.000
86.27718 270.000
86.29713 297.000
86.31708 265.000
86.33702 291.000
86.35697 286.000
86.37692 312.000
86.39686 320.000
86.41681 328.000
86.43676 295.000
86.45670 314.000
86.47665 325.000
86.49660 286.000
86.51655 290.000
86.53649 300.000
86.55644 307.000
86.57639 296.000
86.59633 294.000
86.61628 302.000
86.63623 292.000
86.65617 341.000
86.67612 279.000
86.69607 286.000
86.71602 285.000
86.73596 316.000
86.75591 309.000
86.77586 269.000
86.79580 289.000
86.81575 278.000
86.83570 259.000
86.85564 301.000
86.87559 339.000
86.89554 292.000
86.91548 305.000
86.93543 306.000
86.95538 291.000
86.97533 283.000
86.99527 279.000
87.01522 292.000
87.03517 289.000
87.05511 310.000
87.07506 264.000
87.09501 293.000
87.11495 278.000
87.13490 303.000
87.15485 309.000
87.17480 269.000
87.19474 275.000
87.21469 274.000
87.23464 301.000
87.25458 307.000
87.27453 300.000
87.29448 288.000
87.31442 306.000
87.33437 276.000
87.35432 309.000
87.37426 313.000
87.39421 322.000
87.41416 296.000
87.43411 310.000
87.45405 283.000
87.47400 301.000
87.49395 300.000
87.51389 276.000
87.53384 320.000
87.55379 282.000
87.57373 301.000
87.59368 315.000
87.61363 269.000
87.63358 274.000
87.65352 274.000
87.67347 273.000
87.69342 280.000
87.71336 290.000
87.73331 276.000
87.75326 304.000
87.77320 304.000
87.79315 290.000
87.81310 259.000
87.83304 299.000
87.85299 307.000
87.87294 296.000
87.89289 293.000
87.91283 298.000
87.93278 289.000
87.95273 266.000
87.97267 326.000
87.99262 275.000
88.01257 294.000
88.03251 297.000
88.05246 305.000
88.07241 273.000
88.09236 296.000
88.11230 303.000
88.13225 286.000
88.15220 277.000
88.17214 283.000
88.19209 317.000
88.21204 302.000
88.23198 264.000
88.25193 301.000
88.27188 318.000
88.29183 292.000
88.31177 296.000
88.33172 288.000
88.35167 297.000
88.37161 289.000
88.39156 306.000
88.41151 299.000
88.43145 306.000
88.45140 275.000
88.47135 291.000
88.49129 264.000
88.51124 298.000
88.53119 300.000
88.55114 288.000
88.57108 281.000
88.59103 302.000
88.61098 268.000
88.63092 294.000
88.65087 289.000
88.67082 309.000
88.69076 288.000
88.71071 286.000
88.73066 291.000
88.75061 302.000
88.77055 308.000
88.79050 310.000
88.81045 303.000
88.83039 292.000
88.85034 294.000
88.87029 285.000
88.89023 284.000
88.91018 289.000
88.93013 297.000
88.95007 284.000
88.97002 305.000
88.98997 302.000
89.00992 285.000
89.02986 270.000
89.04981 308.000
89.06976 306.000
89.08970 299.000
89.10965 273.000
89.12960 267.000
89.14954 289.000
89.16949 312.000
89.18944 316.000
89.20939 273.000
89.22933 307.000
89.24928 314.000
89.26923 296.000
89.28917 291.000
89.30912 309.000
89.32907 262.000
89.34901 297.000
89.36896 287.000
89.38891 258.000
89.40885 295.000
89.42880 304.000
89.44875 285.000
89.46870 295.000
89.48864 281.000
89.50859 312.000
89.52854 269.000
89.54848 302.000
89.56843 310.000
89.58838 315.000
89.60832 302.000
89.62827 268.000
89.64822 306.000
89.66817 282.000
89.68811 301.000
89.70806 291.000
89.72801 312.000
89.74795 313.000
89.76790 328.000
89.78785 299.000
89.80779 313.000
89.82774 292.000
89.84769 314.000
89.86764 285.000
89.88758 263.000
89.90753 309.000
89.92748 325.000
89.94742 296.000
89.96737 282.000
89.98732 321.000
90.00726 312.000
