10.00000 94.000
10.01995 72.000
10.03989 76.000
10.05984 103.000
10.07979 99.000
10.09973 96.000
10.11968 90.000
10.13963 108.000
10.15958 113.000
10.17952 96.000
10.19947 100.000
10.21942 104.000
10.23936 85.000
10.25931 89.000
10.27926 86.000
10.29920 103.000
10.31915 82.000
10.33910 108.000
10.35905 107.000
10.37899 94.000
10.39894 82.000
10.41889 81.000
10.43883 85.000
10.45878 86.000
10.47873 104.000
10.49867 101.000
10.51862 88.000
10.53857 90.000
10.55851 121.000
10.57846 107.000
10.59841 86.000
10.61836 103.000
10.63830 102.000
10.65825 88.000
10.67820 91.000
10.69814 99.000
10.71809 100.000
10.73804 97.000
10.75798 85.000
10.77793 99.000
10.79788 116.000
10.81783 99.000
10.83777 97.000
10.85772 92.000
10.87767 93.000
10.89761 105.000
10.91756 116.000
10.93751 103.000
10.95745 135.000
10.97740 110.000
10.99735 98.000
11.01730 101.000
11.03724 101.000
11.05719 112.000
11.07714 104.000
11.09708 103.000
11.11703 92.000
11.13698 106.000
11.15692 114.000
11.17687 127.000
11.19682 113.000
11.21676 124.000
11.23671 91.000
11.25666 100.000
11.27661 113.000
11.29655 106.000
11.31650 109.000
11.33645 108.000
11.35639 111.000
11.37634 133.000
11.39629 116.000
11.41623 120.000
11.43618 106.000
11.45613 126.000
11.47608 121.000
11.49602 121.000
11.51597 107.000
11.53592 108.000
11.55586 104.000
11.57581 121.000
11.59576 130.000
11.61570 97.000
11.63565 126.000
11.65560 111.000
11.67554 116.000
11.69549 106.000
11.71544 126.000
11.73539 129.000
11.75533 98.000
11.77528 130.000
11.79523 116.000
11.81517 144.000
11.83512 115.000
11.85507 119.000
11.87501 136.000
11.89496 123.000
11.91491 130.000
11.93486 129.000
11.95480 131.000
11.97475 124.000
11.99470 130.000
12.01464 114.000
12.03459 134.000
12.05454 132.000
12.07448 124.000
12.09443 138.000
12.11438 120.000
12.13432 104.000
12.15427 143.000
12.17422 111.000
12.19417 143.000
12.21411 140.000
12.23406 114.000
12.25401 122.000
12.27395 141.000
12.29390 144.000
12.31385 138.000
12.33379 125.000
12.35374 158.000
12.37369 128.000
12.39364 129.000
12.41358 121.000
12.43353 123.000
12.45348 120.000
12.47342 120.000
12.49337 132.000
12.51332 129.000
12.53326 143.000
12.55321 151.000
12.57316 121.000
12.59311 126.000
12.61305 122.000
12.63300 137.000
12.65295 145.000
12.67289 130.000
12.69284 155.000
12.71279 137.000
12.73273 145.000
12.75268 146.000
12.77263 155.000
12.79257 162.000
12.81252 140.000
12.83247 146.000
12.85242 141.000
12.87236 149.000
12.89231 119.000
12.91226 149.000
12.93220 125.000
12.95215 128.000
12.97210 128.000
12.99204 119.000
13.01199 146.000
13.03194 142.000
13.05189 130.000
13.07183 134.000
13.09178 117.000
13.11173 146.000
13.13167 125.000
13.15162 163.000
13.17157 156.000
13.19151 125.000
13.21146 140.000
13.23141 146.000
13.25135 144.000
13.27130 144.000
13.29125 123.000
13.31120 182.000
13.33114 136.000
13.35109 162.000
13.37104 129.000
13.39098 154.000
13.41093 146.000
13.43088 158.000
13.45082 137.000
13.47077 138.000
13.49072 150.000
13.51067 138.000
13.53061 138.000
13.55056 146.000
13.57051 116.000
13.59045 146.000
13.61040 147.000
13.63035 137.000
13.65029 145.000
13.67024 140.000
13.69019 132.000
13.71013 132.000
13.73008 151.000
13.75003 150.000
13.76998 154.000
13.78992 153.000
13.80987 156.000
13.82982 137.000
13.84976 141.000
13.86971 145.000
13.88966 133.000
13.90960 159.000
13.92955 126.000
13.94950 159.000
13.96945 145.000
13.98939 150.000
14.00934 144.000
14.02929 155.000
14.04923 154.000
14.06918 159.000
14.08913 157.000
14.10907 177.000
14.12902 143.000
14.14897 139.000
14.16892 145.000
14.18886 146.000
14.20881 156.000
14.22876 145.000
14.24870 139.000
14.26865 141.000
14.28860 143.000
14.30854 159.000
14.32849 147.000
14.34844 159.000
14.36838 173.000
14.38833 148.000
14.40828 157.000
14.42823 151.000
14.44817 153.000
14.46812 163.000
14.48807 181.000
14.50801 155.000
14.52796 147.000
14.54791 164.000
14.56785 169.000
14.58780 173.000
14.60775 163.000
14.62770 151.000
14.64764 162.000
14.66759 150.000
14.68754 149.000
14.70748 157.000
14.72743 154.000
14.74738 156.000
14.76732 141.000
14.78727 164.000
14.80722 175.000
14.82716 148.000
14.84711 160.000
14.86706 142.000
14.88701 170.000
14.90695 160.000
14.92690 157.000
14.94685 172.000
14.96679 173.000
14.98674 179.000
15.00669 157.000
15.02663 171.000
15.04658 158.000
15.06653 167.000
15.08648 165.000
15.10642 155.000
15.12637 154.000
15.14632 172.000
15.16626 160.000
15.18621 166.000
15.20616 164.000
15.22610 175.000
15.24605 175.000
15.26600 176.000
15.28594 170.000
15.30589 156.000
15.32584 141.000
15.34579 150.000
15.36573 147.000
15.38568 189.000
15.40563 166.000
15.42557 164.000
15.44552 177.000
15.46547 165.000
15.48541 183.000
15.50536 174.000
15.52531 160.000
15.54526 179.000
15.56520 176.000
15.58515 168.000
15.60510 154.000
15.62504 172.000
15.64499 178.000
15.66494 168.000
15.68488 173.000
15.70483 192.000
15.72478 186.000
15.74472 206.000
15.76467 164.000
15.78462 183.000
15.80457 149.000
15.82451 180.000
15.84446 187.000
15.86441 186.000
15.88435 192.000
15.90430 201.000
15.92425 177.000
15.94419 163.000
15.96414 201.000
15.98409 192.000
16.00404 188.000
16.02398 184.000
16.04393 207.000
16.06388 177.000
16.08382 216.000
16.10377 204.000
16.12372 196.000
16.14366 204.000
16.16361 157.000
16.18356 194.000
16.20351 214.000
16.22345 195.000
16.24340 202.000
16.26335 189.000
16.28329 203.000
16.30324 224.000
16.32319 197.000
16.34313 199.000
16.36308 205.000
16.38303 220.000
16.40297 209.000
16.42292 203.000
16.44287 213.000
16.46282 217.000
16.48276 218.000
16.50271 205.000
16.52266 196.000
16.54260 186.000
16.56255 207.000
16.58250 242.000
16.60244 229.000
16.62239 244.000
16.64234 216.000
16.66229 218.000
16.68223 229.000
16.70218 217.000
16.72213 246.000
16.74207 245.000
16.76202 242.000
16.78197 209.000
16.80191 198.000
16.82186 237.000
16.84181 242.000
16.86175 238.000
16.88170 249.000
16.90165 231.000
16.92160 236.000
16.94154 219.000
16.96149 226.000
16.98144 266.000
17.00138 252.000
17.02133 229.000
17.04128 248.000
17.06122 247.000
17.08117 273.000
17.10112 241.000
17.12107 270.000
17.14101 264.000
17.16096 248.000
17.18091 259.000
17.20085 271.000
17.22080 265.000
17.24075 266.000
17.26069 251.000
17.28064 266.000
17.30059 255.000
17.32053 272.000
17.34048 240.000
17.36043 298.000
17.38038 284.000
17.40032 273.000
17.42027 296.000
17.44022 278.000
17.46016 307.000
17.48011 291.000
17.50006 268.000
17.52000 279.000
17.53995 281.000
17.55990 308.000
17.57985 281.000
17.59979 318.000
17.61974 286.000
17.63969 250.000
17.65963 297.000
17.67958 314.000
17.69953 288.000
17.71947 289.000
17.73942 289.000
17.75937 278.000
17.77932 294.000
17.79926 295.000
17.81921 274.000
17.83916 302.000
17.85910 296.000
17.87905 338.000
17.89900 323.000
17.91894 309.000
17.93889 306.000
17.95884 344.000
17.97878 308.000
17.99873 317.000
18.01868 302.000
18.03863 329.000
18.05857 309.000
18.07852 325.000
18.09847 319.000
18.11841 358.000
18.13836 342.000
18.15831 330.000
18.17825 325.000
18.19820 310.000
18.21815 362.000
18.23810 367.000
18.25804 364.000
18.27799 339.000
18.29794 339.000
18.31788 359.000
18.33783 344.000
18.35778 333.000
18.37772 347.000
18.39767 332.000
18.41762 357.000
18.43756 390.000
18.45751 339.000
18.47746 389.000
18.49741 389.000
18.51735 365.000
18.53730 366.000
18.55725 380.000
18.57719 384.000
18.59714 388.000
18.61709 378.000
18.63703 329.000
18.65698 390.000
18.67693 374.000
18.69688 359.000
18.71682 410.000
18.73677 385.000
18.75672 378.000
18.77666 398.000
18.79661 382.000
18.81656 427.000
18.83650 417.000
18.85645 356.000
18.87640 360.000
18.89634 410.000
18.91629 396.000
18.93624 406.000
18.95619 390.000
18.97613 397.000
18.99608 411.000
19.01603 434.000
19.03597 454.000
19.05592 420.000
19.07587 409.000
19.09581 410.000
19.11576 414.000
19.13571 388.000
19.15566 401.000
19.17560 405.000
19.19555 422.000
19.21550 418.000
19.23544 439.000
19.25539 412.000
19.27534 445.000
19.29528 434.000
19.31523 423.000
19.33518 398.000
19.35513 421.000
19.37507 408.000
19.39502 400.000
19.41497 445.000
19.43491 431.000
19.45486 438.000
19.47481 416.000
19.49475 453.000
19.51470 464.000
19.53465 463.000
19.55459 420.000
19.57454 438.000
19.59449 421.000
19.61444 411.000
19.63438 455.000
19.65433 494.000
19.67428 460.000
19.69422 444.000
19.71417 451.000
19.73412 453.000
19.75406 471.000
19.77401 448.000
19.79396 451.000
19.81391 493.000
19.83385 470.000
19.85380 438.000
19.87375 471.000
19.89369 466.000
19.91364 434.000
19.93359 460.000
19.95353 498.000
19.97348 433.000
19.99343 459.000
20.01337 406.000
20.03332 480.000
20.05327 516.000
20.07322 468.000
20.09316 461.000
20.11311 480.000
20.13306 508.000
20.15300 466.000
20.17295 488.000
20.19290 492.000
20.21284 480.000
20.23279 454.000
20.25274 474.000
20.27269 498.000
20.29263 524.000
20.31258 460.000
20.33253 465.000
20.35247 498.000
20.37242 466.000
20.39237 475.000
20.41231 507.000
20.43226 486.000
20.45221 508.000
20.47215 459.000
20.49210 489.000
20.51205 530.000
20.53200 487.000
20.55194 491.000
20.57189 533.000
20.59184 504.000
20.61178 525.000
20.63173 511.000
20.65168 511.000
20.67162 498.000
20.69157 481.000
20.71152 522.000
20.73147 520.000
20.75141 489.000
20.77136 527.000
20.79131 542.000
20.81125 503.000
20.83120 502.000
20.85115 502.000
20.87109 498.000
20.89104 524.000
20.91099 509.000
20.93094 486.000
20.95088 507.000
20.97083 488.000
20.99078 522.000
21.01072 523.000
21.03067 507.000
21.05062 537.000
21.07056 575.000
21.09051 535.000
21.11046 532.000
21.13040 520.000
21.15035 524.000
21.17030 548.000
21.19025 571.000
21.21019 515.000
21.23014 557.000
21.25009 571.000
21.27003 580.000
21.28998 568.000
21.30993 536.000
21.32987 564.000
21.34982 514.000
21.36977 521.000
21.38972 551.000
21.40966 636.000
21.42961 551.000
21.44956 532.000
21.46950 507.000
21.48945 555.000
21.50940 538.000
21.52934 522.000
21.54929 557.000
21.56924 548.000
21.58918 529.000
21.60913 500.000
21.62908 559.000
21.64903 578.000
21.66897 550.000
21.68892 538.000
21.70887 591.000
21.72881 568.000
21.74876 555.000
21.76871 567.000
21.78865 566.000
21.80860 549.000
21.82855 548.000
21.84850 563.000
21.86844 575.000
21.88839 599.000
21.90834 502.000
21.92828 599.000
21.94823 582.000
21.96818 559.000
21.98812 625.000
22.00807 591.000
22.02802 613.000
22.04796 548.000
22.06791 598.000
22.08786 539.000
22.10781 579.000
22.12775 570.000
22.14770 578.000
22.16765 583.000
22.18759 584.000
22.20754 573.000
22.22749 595.000
22.24743 600.000
22.26738 573.000
22.28733 571.000
22.30728 601.000
22.32722 622.000
22.34717 584.000
22.36712 602.000
22.38706 588.000
22.40701 560.000
22.42696 617.000
22.44690 585.000
22.46685 648.000
22.48680 556.000
22.50675 570.000
22.52669 610.000
22.54664 591.000
22.56659 601.000
22.58653 598.000
22.60648 576.000
22.62643 593.000
22.64637 619.000
22.66632 612.000
22.68627 605.000
22.70621 646.000
22.72616 598.000
22.74611 639.000
22.76606 629.000
22.78600 611.000
22.80595 657.000
22.82590 627.000
22.84584 616.000
22.86579 632.000
22.88574 626.000
22.90568 660.000
22.92563 590.000
22.94558 631.000
22.96553 668.000
22.98547 672.000
23.00542 633.000
23.02537 674.000
23.04531 643.000
23.06526 650.000
23.08521 672.000
23.10515 662.000
23.12510 648.000
23.14505 656.000
23.16499 621.000
23.18494 609.000
23.20489 676.000
23.22484 634.000
23.24478 664.000
23.26473 625.000
23.28468 665.000
23.30462 684.000
23.32457 639.000
23.34452 724.000
23.36446 686.000
23.38441 638.000
23.40436 631.000
23.42431 640.000
23.44425 650.000
23.46420 650.000
23.48415 671.000
23.50409 648.000
23.52404 673.000
23.54399 643.000
23.56393 689.000
23.58388 682.000
23.60383 613.000
23.62377 693.000
23.64372 737.000
23.66367 700.000
23.68362 679.000
23.70356 663.000
23.72351 689.000
23.74346 665.000
23.76340 688.000
23.78335 695.000
23.80330 677.000
23.82324 687.000
23.84319 694.000
23.86314 680.000
23.88309 709.000
23.90303 707.000
23.92298 749.000
23.94293 724.000
23.96287 707.000
23.98282 688.000
24.00277 695.000
24.02271 675.000
24.04266 764.000
24.06261 721.000
24.08256 687.000
24.10250 742.000
24.12245 747.000
24.14240 732.000
24.16234 645.000
24.18229 729.000
24.20224 703.000
24.22218 728.000
24.24213 729.000
24.26208 771.000
24.28202 710.000
24.30197 721.000
24.32192 753.000
24.34187 743.000
24.36181 770.000
24.38176 738.000
24.40171 776.000
24.42165 770.000
24.44160 787.000
24.46155 781.000
24.48149 777.000
24.50144 809.000
24.52139 749.000
24.54134 803.000
24.56128 791.000
24.58123 761.000
24.60118 785.000
24.62112 807.000
24.64107 802.000
24.66102 781.000
24.68096 786.000
24.70091 847.000
24.72086 848.000
24.74080 745.000
24.76075 755.000
24.78070 786.000
24.80065 795.000
24.82059 836.000
24.84054 813.000
24.86049 775.000
24.88043 760.000
24.90038 795.000
24.92033 809.000
24.94027 789.000
24.96022 783.000
24.98017 831.000
25.00012 837.000
25.02006 855.000
25.04001 820.000
25.05996 838.000
25.07990 841.000
25.09985 905.000
25.11980 902.000
25.13974 867.000
25.15969 869.000
25.17964 854.000
25.19958 904.000
25.21953 797.000
25.23948 841.000
25.25943 904.000
25.27937 897.000
25.29932 855.000
25.31927 869.000
25.33921 898.000
25.35916 893.000
25.37911 884.000
25.39905 873.000
25.41900 881.000
25.43895 910.000
25.45890 897.000
25.47884 937.000
25.49879 917.000
25.51874 947.000
25.53868 918.000
25.55863 891.000
25.57858 924.000
25.59852 902.000
25.61847 953.000
25.63842 958.000
25.65837 905.000
25.67831 885.000
25.69826 877.000
25.71821 897.000
25.73815 961.000
25.75810 907.000
25.77805 930.000
25.79799 927.000
25.81794 956.000
25.83789 1003.000
25.85783 941.000
25.87778 939.000
25.89773 930.000
25.91768 948.000
25.93762 946.000
25.95757 940.000
25.97752 980.000
25.99746 928.000
26.01741 952.000
26.03736 1016.000
26.05730 1030.000
26.07725 1007.000
26.09720 1024.000
26.11715 1019.000
26.13709 994.000
26.15704 992.000
26.17699 1112.000
26.19693 1034.000
26.21688 930.000
26.23683 1044.000
26.25677 977.000
26.27672 1023.000
26.29667 1023.000
26.31661 1020.000
26.33656 1084.000
26.35651 1011.000
26.37646 1009.000
26.39640 988.000
26.41635 1047.000
26.43630 1113.000
26.45624 1071.000
26.47619 1047.000
26.49614 966.000
26.51608 1056.000
26.53603 1070.000
26.55598 1053.000
26.57593 1047.000
26.59587 1082.000
26.61582 975.000
26.63577 1088.000
26.65571 1037.000
26.67566 1131.000
26.69561 1078.000
26.71555 1035.000
26.73550 1143.000
26.75545 1106.000
26.77539 1064.000
26.79534 1072.000
26.81529 1116.000
26.83524 1087.000
26.85518 1094.000
26.87513 1113.000
26.89508 1094.000
26.91502 1135.000
26.93497 1113.000
26.95492 1120.000
26.97486 1173.000
26.99481 1125.000
27.01476 1136.000
27.03471 1119.000
27.05465 1082.000
27.07460 1129.000
27.09455 1095.000
27.11449 1133.000
27.13444 1141.000
27.15439 1176.000
27.17433 1136.000
27.19428 1203.000
27.21423 1162.000
27.23417 1142.000
27.25412 1229.000
27.27407 1133.000
27.29402 1157.000
27.31396 1105.000
27.33391 1125.000
27.35386 1225.000
27.37380 1148.000
27.39375 1131.000
27.41370 1144.000
27.43364 1144.000
27.45359 1135.000
27.47354 1212.000
27.49349 1243.000
27.51343 1224.000
27.53338 1211.000
27.55333 1159.000
27.57327 1191.000
27.59322 1215.000
27.61317 1222.000
27.63311 1250.000
27.65306 1216.000
27.67301 1256.000
27.69296 1170.000
27.71290 1242.000
27.73285 1196.000
27.75280 1200.000
27.77274 1272.000
27.79269 1228.000
27.81264 1246.000
27.83258 1302.000
27.85253 1205.000
27.87248 1250.000
27.89242 1237.000
27.91237 1320.000
27.93232 1274.000
27.95227 1228.000
27.97221 1287.000
27.99216 1173.000
28.01211 1306.000
28.03205 1231.000
28.05200 1274.000
28.07195 1192.000
28.09189 1291.000
28.11184 1300.000
28.13179 1297.000
28.15174 1314.000
28.17168 1340.000
28.19163 1318.000
28.21158 1270.000
28.23152 1296.000
28.25147 1255.000
28.27142 1339.000
28.29136 1329.000
28.31131 1366.000
28.33126 1305.000
28.35120 1273.000
28.37115 1240.000
28.39110 1317.000
28.41105 1202.000
28.43099 1276.000
28.45094 1292.000
28.47089 1375.000
28.49083 1267.000
28.51078 1220.000
28.53073 1309.000
28.55067 1275.000
28.57062 1318.000
28.59057 1288.000
28.61052 1320.000
28.63046 1397.000
28.65041 1315.000
28.67036 1266.000
28.69030 1330.000
28.71025 1346.000
28.73020 1391.000
28.75014 1374.000
28.77009 1355.000
28.79004 1285.000
28.80998 1330.000
28.82993 1331.000
28.84988 1349.000
28.86983 1313.000
28.88977 1342.000
28.90972 1354.000
28.92967 1329.000
28.94961 1346.000
28.96956 1368.000
28.98951 1341.000
29.00945 1293.000
29.02940 1329.000
29.04935 1384.000
29.06930 1332.000
29.08924 1295.000
29.10919 1386.000
29.12914 1327.000
29.14908 1336.000
29.16903 1320.000
29.18898 1317.000
29.20892 1354.000
29.22887 1370.000
29.24882 1331.000
29.26877 1304.000
29.28871 1314.000
29.30866 1292.000
29.32861 1407.000
29.34855 1336.000
29.36850 1421.000
29.38845 1389.000
29.40839 1342.000
29.42834 1297.000
29.44829 1346.000
29.46823 1339.000
29.48818 1379.000
29.50813 1328.000
29.52808 1409.000
29.54802 1357.000
29.56797 1363.000
29.58792 1348.000
29.60786 1393.000
29.62781 1344.000
29.64776 1320.000
29.66770 1327.000
29.68765 1378.000
29.70760 1301.000
29.72755 1318.000
29.74749 1348.000
29.76744 1368.000
29.78739 1363.000
29.80733 1354.000
29.82728 1358.000
29.84723 1381.000
29.86717 1375.000
29.88712 1307.000
29.90707 1326.000
29.92701 1311.000
29.94696 1408.000
29.96691 1333.000
29.98686 1420.000
30.00680 1354.000
30.02675 1313.000
30.04670 1344.000
30.06664 1426.000
30.08659 1283.000
30.10654 1315.000
30.12648 1408.000
30.14643 1360.000
30.16638 1384.000
30.18633 1350.000
30.20627 1304.000
30.22622 1344.000
30.24617 1333.000
30.26611 1413.000
30.28606 1360.000
30.30601 1352.000
30.32595 1339.000
30.34590 1322.000
30.36585 1376.000
30.38579 1333.000
30.40574 1294.000
30.42569 1319.000
30.44564 1284.000
30.46558 1275.000
30.48553 1330.000
30.50548 1364.000
30.52542 1339.000
30.54537 1329.000
30.56532 1284.000
30.58526 1349.000
30.60521 1256.000
30.62516 1289.000
30.64511 1301.000
30.66505 1361.000
30.68500 1273.000
30.70495 1316.000
30.72489 1329.000
30.74484 1347.000
30.76479 1283.000
30.78473 1254.000
30.80468 1334.000
30.82463 1252.000
30.84458 1326.000
30.86452 1290.000
30.88447 1283.000
30.90442 1336.000
30.92436 1326.000
30.94431 1302.000
30.96426 1224.000
30.98420 1289.000
31.00415 1278.000
31.02410 1354.000
31.04404 1304.000
31.06399 1332.000
31.08394 1297.000
31.10389 1266.000
31.12383 1251.000
31.14378 1278.000
31.16373 1255.000
31.18367 1287.000
31.20362 1275.000
31.22357 1231.000
31.24351 1193.000
31.26346 1302.000
31.28341 1245.000
31.30336 1275.000
31.32330 1261.000
31.34325 1216.000
31.36320 1271.000
31.38314 1277.000
31.40309 1250.000
31.42304 1271.000
31.44298 1235.000
31.46293 1327.000
31.48288 1246.000
31.50282 1303.000
31.52277 1235.000
31.54272 1237.000
31.56267 1245.000
31.58261 1266.000
31.60256 1302.000
31.62251 1222.000
31.64245 1198.000
31.66240 1234.000
31.68235 1196.000
31.70229 1214.000
31.72224 1266.000
31.74219 1267.000
31.76214 1318.000
31.78208 1171.000
31.80203 1212.000
31.82198 1222.000
31.84192 1288.000
31.86187 1224.000
31.88182 1227.000
31.90176 1174.000
31.92171 1213.000
31.94166 1222.000
31.96160 1265.000
31.98155 1248.000
32.00150 1221.000
32.02145 1183.000
32.04139 1177.000
32.06134 1207.000
32.08129 1201.000
32.10123 1180.000
32.12118 1193.000
32.14113 1174.000
32.16107 1149.000
32.18102 1138.000
32.20097 1193.000
32.22092 1217.000
32.24086 1160.000
32.26081 1193.000
32.28076 1142.000
32.30070 1161.000
32.32065 1136.000
32.34060 1165.000
32.36054 1196.000
32.38049 1155.000
32.40044 1143.000
32.42039 1169.000
32.44033 1151.000
32.46028 1172.000
32.48023 1129.000
32.50017 1081.000
32.52012 1168.000
32.54007 1212.000
32.56001 1165.000
32.57996 1140.000
32.59991 1169.000
32.61985 1158.000
32.63980 1164.000
32.65975 1118.000
32.67970 1093.000
32.69964 1075.000
32.71959 1142.000
32.73954 1124.000
32.75948 1086.000
32.77943 1122.000
32.79938 1171.000
32.81932 1113.000
32.83927 1087.000
32.85922 1088.000
32.87917 1112.000
32.89911 1073.000
32.91906 1099.000
32.93901 1058.000
32.95895 1115.000
32.97890 1080.000
32.99885 1063.000
33.01879 1065.000
33.03874 1086.000
33.05869 1048.000
33.07863 1070.000
33.09858 1061.000
33.11853 1106.000
33.13848 1110.000
33.15842 1053.000
33.17837 1043.000
33.19832 1064.000
33.21826 1047.000
33.23821 1027.000
33.25816 1084.000
33.27810 1040.000
33.29805 990.000
33.31800 1056.000
33.33795 1094.000
33.35789 1052.000
33.37784 1059.000
33.39779 1046.000
33.41773 1033.000
33.43768 1053.000
33.45763 1024.000
33.47757 1028.000
33.49752 1010.000
33.51747 1077.000
33.53741 1033.000
33.55736 1090.000
33.57731 1084.000
33.59726 1046.000
33.61720 955.000
33.63715 1072.000
33.65710 1028.000
33.67704 1008.000
33.69699 1027.000
33.71694 1005.000
33.73688 994.000
33.75683 1023.000
33.77678 956.000
33.79673 1062.000
33.81667 991.000
33.83662 1009.000
33.85657 1016.000
33.87651 1011.000
33.89646 1035.000
33.91641 1066.000
33.93635 1009.000
33.95630 978.000
33.97625 1030.000
33.99620 1003.000
34.01614 990.000
34.03609 1004.000
34.05604 972.000
34.07598 980.000
34.09593 908.000
34.11588 986.000
34.13582 974.000
34.15577 953.000
34.17572 910.000
34.19566 989.000
34.21561 977.000
34.23556 983.000
34.25551 936.000
34.27545 970.000
34.29540 934.000
34.31535 937.000
34.33529 998.000
34.35524 870.000
34.37519 941.000
34.39513 927.000
34.41508 982.000
34.43503 906.000
34.45498 873.000
34.47492 976.000
34.49487 951.000
34.51482 977.000
34.53476 941.000
34.55471 905.000
34.57466 995.000
34.59460 914.000
34.61455 953.000
34.63450 920.000
34.65444 950.000
34.67439 977.000
34.69434 914.000
34.71429 857.000
34.73423 903.000
34.75418 911.000
34.77413 940.000
34.79407 913.000
34.81402 951.000
34.83397 993.000
34.85391 914.000
34.87386 947.000
34.89381 937.000
34.91376 957.000
34.93370 847.000
34.95365 883.000
34.97360 859.000
34.99354 1014.000
35.01349 905.000
35.03344 929.000
35.05338 900.000
35.07333 915.000
35.09328 879.000
35.11322 949.000
35.13317 891.000
35.15312 896.000
35.17307 834.000
35.19301 869.000
35.21296 934.000
35.23291 836.000
35.25285 826.000
35.27280 879.000
35.29275 877.000
35.31269 840.000
35.33264 915.000
35.35259 858.000
35.37254 804.000
35.39248 845.000
35.41243 845.000
35.43238 800.000
35.45232 804.000
35.47227 798.000
35.49222 829.000
35.51216 848.000
35.53211 839.000
35.55206 847.000
35.57201 813.000
35.59195 827.000
35.61190 843.000
35.63185 771.000
35.65179 814.000
35.67174 808.000
35.69169 863.000
35.71163 836.000
35.73158 827.000
35.75153 811.000
35.77147 815.000
35.79142 852.000
35.81137 867.000
35.83132 870.000
35.85126 842.000
35.87121 857.000
35.89116 839.000
35.91110 826.000
35.93105 791.000
35.95100 898.000
35.97094 788.000
35.99089 800.000
36.01084 830.000
36.03079 832.000
36.05073 845.000
36.07068 812.000
36.09063 788.000
36.11057 827.000
36.13052 796.000
36.15047 802.000
36.17041 739.000
36.19036 811.000
36.21031 818.000
36.23025 805.000
36.25020 819.000
36.27015 795.000
36.29010 786.000
36.31004 838.000
36.32999 787.000
36.34994 807.000
36.36988 803.000
36.38983 766.000
36.40978 778.000
36.42972 753.000
36.44967 795.000
36.46962 835.000
36.48957 793.000
36.50951 784.000
36.52946 769.000
36.54941 785.000
36.56935 833.000
36.58930 759.000
36.60925 834.000
36.62919 791.000
36.64914 795.000
36.66909 805.000
36.68903 801.000
36.70898 755.000
36.72893 789.000
36.74888 787.000
36.76882 800.000
36.78877 796.000
36.80872 817.000
36.82866 745.000
36.84861 771.000
36.86856 779.000
36.88850 816.000
36.90845 768.000
36.92840 744.000
36.94835 804.000
36.96829 751.000
36.98824 797.000
37.00819 760.000
37.02813 785.000
37.04808 801.000
37.06803 780.000
37.08797 808.000
37.10792 765.000
37.12787 799.000
37.14781 748.000
37.16776 746.000
37.18771 778.000
37.20766 787.000
37.22760 789.000
37.24755 797.000
37.26750 749.000
37.28744 746.000
37.30739 788.000
37.32734 780.000
37.34728 808.000
37.36723 749.000
37.38718 747.000
37.40713 739.000
37.42707 759.000
37.44702 793.000
37.46697 782.000
37.48691 764.000
37.50686 728.000
37.52681 775.000
37.54675 784.000
37.56670 806.000
37.58665 771.000
37.60660 774.000
37.62654 720.000
37.64649 777.000
37.66644 731.000
37.68638 839.000
37.70633 775.000
37.72628 803.000
37.74622 807.000
37.76617 827.000
37.78612 809.000
37.80606 807.000
37.82601 741.000
37.84596 748.000
37.86591 808.000
37.88585 794.000
37.90580 824.000
37.92575 846.000
37.94569 777.000
37.96564 814.000
37.98559 764.000
38.00553 834.000
38.02548 780.000
38.04543 859.000
38.06538 784.000
38.08532 852.000
38.10527 788.000
38.12522 783.000
38.14516 788.000
38.16511 814.000
38.18506 895.000
38.20500 776.000
38.22495 814.000
38.24490 849.000
38.26484 824.000
38.28479 831.000
38.30474 794.000
38.32469 808.000
38.34463 815.000
38.36458 773.000
38.38453 795.000
38.40447 789.000
38.42442 761.000
38.44437 755.000
38.46431 758.000
38.48426 758.000
38.50421 842.000
38.52416 769.000
38.54410 817.000
38.56405 730.000
38.58400 765.000
38.60394 794.000
38.62389 807.000
38.64384 779.000
38.66378 759.000
38.68373 747.000
38.70368 738.000
38.72362 799.000
38.74357 783.000
38.76352 800.000
38.78347 803.000
38.80341 765.000
38.82336 721.000
38.84331 748.000
38.86325 763.000
38.88320 785.000
38.90315 815.000
38.92309 749.000
38.94304 758.000
38.96299 787.000
38.98294 795.000
39.00288 764.000
39.02283 825.000
39.04278 791.000
39.06272 761.000
39.08267 817.000
39.10262 774.000
39.12256 792.000
39.14251 807.000
39.16246 783.000
39.18241 789.000
39.20235 801.000
39.22230 768.000
39.24225 769.000
39.26219 753.000
39.28214 767.000
39.30209 818.000
39.32203 727.000
39.34198 781.000
39.36193 746.000
39.38187 790.000
39.40182 781.000
39.42177 776.000
39.44172 764.000
39.46166 781.000
39.48161 795.000
39.50156 779.000
39.52150 765.000
39.54145 724.000
39.56140 734.000
39.58134 811.000
39.60129 791.000
39.62124 793.000
39.64119 776.000
39.66113 749.000
39.68108 776.000
39.70103 780.000
39.72097 769.000
39.74092 795.000
39.76087 754.000
39.78081 791.000
39.80076 781.000
39.82071 766.000
39.84065 808.000
39.86060 799.000
39.88055 721.000
39.90050 820.000
39.92044 830.000
39.94039 785.000
39.96034 813.000
39.98028 816.000
40.00023 819.000
40.02018 799.000
40.04012 808.000
40.06007 783.000
40.08002 782.000
40.09997 785.000
40.11991 781.000
40.13986 778.000
40.15981 792.000
40.17975 751.000
40.19970 766.000
40.21965 792.000
40.23959 756.000
40.25954 780.000
40.27949 807.000
40.29943 754.000
40.31938 791.000
40.33933 795.000
40.35928 809.000
40.37922 807.000
40.39917 832.000
40.41912 887.000
40.43906 771.000
40.45901 797.000
40.47896 798.000
40.49890 792.000
40.51885 821.000
40.53880 778.000
40.55875 805.000
40.57869 795.000
40.59864 832.000
40.61859 774.000
40.63853 785.000
40.65848 765.000
40.67843 770.000
40.69837 806.000
40.71832 777.000
40.73827 754.000
40.75822 736.000
40.77816 817.000
40.79811 754.000
40.81806 781.000
40.83800 789.000
40.85795 755.000
40.87790 807.000
40.89784 775.000
40.91779 793.000
40.93774 763.000
40.95768 748.000
40.97763 799.000
40.99758 785.000
41.01753 764.000
41.03747 789.000
41.05742 771.000
41.07737 808.000
41.09731 805.000
41.11726 781.000
41.13721 748.000
41.15715 754.000
41.17710 790.000
41.19705 752.000
41.21700 818.000
41.23694 742.000
41.25689 761.000
41.27684 760.000
41.29678 729.000
41.31673 731.000
41.33668 810.000
41.35662 782.000
41.37657 764.000
41.39652 797.000
41.41646 841.000
41.43641 781.000
41.45636 813.000
41.47631 767.000
41.49625 815.000
41.51620 820.000
41.53615 768.000
41.55609 756.000
41.57604 776.000
41.59599 744.000
41.61593 771.000
41.63588 793.000
41.65583 763.000
41.67578 787.000
41.69572 768.000
41.71567 785.000
41.73562 766.000
41.75556 746.000
41.77551 778.000
41.79546 794.000
41.81540 794.000
41.83535 734.000
41.85530 809.000
41.87524 756.000
41.89519 767.000
41.91514 750.000
41.93509 694.000
41.95503 763.000
41.97498 719.000
41.99493 743.000
42.01487 706.000
42.03482 765.000
42.05477 770.000
42.07471 719.000
42.09466 734.000
42.11461 749.000
42.13456 768.000
42.15450 792.000
42.17445 793.000
42.19440 765.000
42.21434 703.000
42.23429 734.000
42.25424 765.000
42.27418 748.000
42.29413 811.000
42.31408 756.000
42.33403 748.000
42.35397 763.000
42.37392 727.000
42.39387 760.000
42.41381 727.000
42.43376 776.000
42.45371 722.000
42.47365 769.000
42.49360 724.000
42.51355 747.000
42.53349 765.000
42.55344 748.000
42.57339 706.000
42.59334 732.000
42.61328 779.000
42.63323 756.000
42.65318 750.000
42.67312 748.000
42.69307 724.000
42.71302 743.000
42.73296 760.000
42.75291 748.000
42.77286 721.000
42.79281 774.000
42.81275 694.000
42.83270 754.000
42.85265 736.000
42.87259 746.000
42.89254 713.000
42.91249 726.000
42.93243 740.000
42.95238 720.000
42.97233 748.000
42.99227 716.000
43.01222 684.000
43.03217 710.000
43.05212 712.000
43.07206 769.000
43.09201 731.000
43.11196 727.000
43.13190 725.000
43.15185 761.000
43.17180 725.000
43.19174 713.000
43.21169 704.000
43.23164 678.000
43.25159 670.000
43.27153 716.000
43.29148 710.000
43.31143 691.000
43.33137 671.000
43.35132 732.000
43.37127 678.000
43.39121 758.000
43.41116 671.000
43.43111 728.000
43.45105 739.000
43.47100 730.000
43.49095 684.000
43.51090 727.000
43.53084 722.000
43.55079 702.000
43.57074 690.000
43.59068 646.000
43.61063 662.000
43.63058 735.000
43.65052 686.000
43.67047 709.000
43.69042 629.000
43.71037 707.000
43.73031 659.000
43.75026 686.000
43.77021 699.000
43.79015 732.000
43.81010 643.000
43.83005 658.000
43.84999 674.000
43.86994 656.000
43.88989 646.000
43.90984 653.000
43.92978 670.000
43.94973 695.000
43.96968 679.000
43.98962 670.000
44.00957 628.000
44.02952 651.000
44.04946 664.000
44.06941 639.000
44.08936 668.000
44.10930 584.000
44.12925 711.000
44.14920 678.000
44.16915 656.000
44.18909 691.000
44.20904 621.000
44.22899 692.000
44.24893 629.000
44.26888 618.000
44.28883 647.000
44.30877 641.000
44.32872 677.000
44.34867 665.000
44.36862 657.000
44.38856 649.000
44.40851 640.000
44.42846 662.000
44.44840 669.000
44.46835 606.000
44.48830 671.000
44.50824 663.000
44.52819 663.000
44.54814 674.000
44.56808 646.000
44.58803 642.000
44.60798 634.000
44.62793 646.000
44.64787 663.000
44.66782 628.000
44.68777 583.000
44.70771 619.000
44.72766 592.000
44.74761 600.000
44.76755 594.000
44.78750 633.000
44.80745 628.000
44.82740 580.000
44.84734 652.000
44.86729 651.000
44.88724 644.000
44.90718 631.000
44.92713 651.000
44.94708 617.000
44.96702 614.000
44.98697 633.000
45.00692 682.000
45.02686 604.000
45.04681 680.000
45.06676 629.000
45.08671 564.000
45.10665 560.000
45.12660 559.000
45.14655 607.000
45.16649 659.000
45.18644 614.000
45.20639 628.000
45.22633 589.000
45.24628 596.000
45.26623 613.000
45.28618 625.000
45.30612 536.000
45.32607 608.000
45.34602 601.000
45.36596 646.000
45.38591 610.000
45.40586 592.000
45.42580 615.000
45.44575 570.000
45.46570 562.000
45.48565 560.000
45.50559 629.000
45.52554 595.000
45.54549 616.000
45.56543 604.000
45.58538 635.000
45.60533 561.000
45.62527 602.000
45.64522 603.000
45.66517 587.000
45.68511 624.000
45.70506 556.000
45.72501 559.000
45.74496 564.000
45.76490 588.000
45.78485 576.000
45.80480 559.000
45.82474 596.000
45.84469 572.000
45.86464 551.000
45.88458 548.000
45.90453 561.000
45.92448 607.000
45.94443 549.000
45.96437 585.000
45.98432 592.000
46.00427 581.000
46.02421 520.000
46.04416 576.000
46.06411 569.000
46.08405 519.000
46.10400 570.000
46.12395 574.000
46.14389 586.000
46.16384 585.000
46.18379 538.000
46.20374 590.000
46.22368 574.000
46.24363 541.000
46.26358 552.000
46.28352 606.000
46.30347 520.000
46.32342 570.000
46.34336 515.000
46.36331 551.000
46.38326 574.000
46.40321 544.000
46.42315 573.000
46.44310 516.000
46.46305 528.000
46.48299 547.000
46.50294 556.000
46.52289 556.000
46.54283 557.000
46.56278 573.000
46.58273 559.000
46.60267 530.000
46.62262 547.000
46.64257 570.000
46.66252 537.000
46.68246 513.000
46.70241 543.000
46.72236 497.000
46.74230 514.000
46.76225 551.000
46.78220 572.000
46.80214 561.000
46.82209 523.000
46.84204 498.000
46.86199 545.000
46.88193 480.000
46.90188 547.000
46.92183 518.000
46.94177 520.000
46.96172 536.000
46.98167 537.000
47.00161 526.000
47.02156 529.000
47.04151 548.000
47.06146 545.000
47.08140 567.000
47.10135 543.000
47.12130 515.000
47.14124 513.000
47.16119 539.000
47.18114 508.000
47.20108 567.000
47.22103 513.000
47.24098 529.000
47.26092 515.000
47.28087 529.000
47.30082 501.000
47.32077 492.000
47.34071 512.000
47.36066 514.000
47.38061 514.000
47.40055 525.000
47.42050 531.000
47.44045 506.000
47.46039 484.000
47.48034 500.000
47.50029 510.000
47.52024 561.000
47.54018 504.000
47.56013 522.000
47.58008 510.000
47.60002 522.000
47.61997 532.000
47.63992 500.000
47.65986 518.000
47.67981 513.000
47.69976 510.000
47.71970 529.000
47.73965 515.000
47.75960 528.000
47.77955 511.000
47.79949 515.000
47.81944 490.000
47.83939 515.000
47.85933 527.000
47.87928 503.000
47.89923 551.000
47.91917 540.000
47.93912 541.000
47.95907 498.000
47.97902 511.000
47.99896 508.000
48.01891 494.000
48.03886 501.000
48.05880 510.000
48.07875 524.000
48.09870 480.000
48.11864 523.000
48.13859 547.000
48.15854 535.000
48.17848 531.000
48.19843 518.000
48.21838 478.000
48.23833 523.000
48.25827 492.000
48.27822 510.000
48.29817 539.000
48.31811 493.000
48.33806 515.000
48.35801 499.000
48.37795 497.000
48.39790 473.000
48.41785 476.000
48.43780 516.000
48.45774 440.000
48.47769 448.000
48.49764 502.000
48.51758 518.000
48.53753 481.000
48.55748 493.000
48.57742 472.000
48.59737 480.000
48.61732 508.000
48.63726 467.000
48.65721 496.000
48.67716 489.000
48.69711 487.000
48.71705 485.000
48.73700 480.000
48.75695 537.000
48.77689 531.000
48.79684 505.000
48.81679 479.000
48.83673 516.000
48.85668 504.000
48.87663 471.000
48.89658 482.000
48.91652 486.000
48.93647 505.000
48.95642 488.000
48.97636 489.000
48.99631 487.000
49.01626 504.000
49.03620 465.000
49.05615 480.000
49.07610 487.000
49.09605 461.000
49.11599 495.000
49.13594 497.000
49.15589 489.000
49.17583 457.000
49.19578 486.000
49.21573 502.000
49.23567 464.000
49.25562 432.000
49.27557 531.000
49.29551 519.000
49.31546 423.000
49.33541 496.000
49.35536 454.000
49.37530 458.000
49.39525 460.000
49.41520 446.000
49.43514 454.000
49.45509 448.000
49.47504 443.000
49.49498 478.000
49.51493 478.000
49.53488 474.000
49.55483 503.000
49.57477 473.000
49.59472 504.000
49.61467 443.000
49.63461 423.000
49.65456 458.000
49.67451 441.000
49.69445 451.000
49.71440 483.000
49.73435 511.000
49.75429 492.000
49.77424 471.000
49.79419 461.000
49.81414 471.000
49.83408 474.000
49.85403 487.000
49.87398 467.000
49.89392 445.000
49.91387 471.000
49.93382 438.000
49.95376 473.000
49.97371 462.000
49.99366 458.000
50.01361 449.000
50.03355 467.000
50.05350 469.000
50.07345 466.000
50.09339 466.000
50.11334 470.000
50.13329 419.000
50.15323 465.000
50.17318 445.000
50.19313 478.000
50.21307 422.000
50.23302 445.000
50.25297 491.000
50.27292 454.000
50.29286 457.000
50.31281 463.000
50.33276 449.000
50.35270 426.000
50.37265 505.000
50.39260 482.000
50.41254 483.000
50.43249 463.000
50.45244 455.000
50.47239 454.000
50.49233 478.000
50.51228 453.000
50.53223 448.000
50.55217 471.000
50.57212 447.000
50.59207 476.000
50.61201 462.000
50.63196 460.000
50.65191 486.000
50.67186 445.000
50.69180 437.000
50.71175 475.000
50.73170 458.000
50.75164 463.000
50.77159 446.000
50.79154 464.000
50.81148 472.000
50.83143 433.000
50.85138 423.000
50.87132 437.000
50.89127 450.000
50.91122 437.000
50.93117 441.000
50.95111 447.000
50.97106 449.000
50.99101 433.000
51.01095 429.000
51.03090 419.000
51.05085 493.000
51.07079 486.000
51.09074 460.000
51.11069 456.000
51.13064 498.000
51.15058 423.000
51.17053 429.000
51.19048 443.000
51.21042 435.000
51.23037 449.000
51.25032 430.000
51.27026 445.000
51.29021 451.000
51.31016 396.000
51.33010 445.000
51.35005 464.000
51.37000 400.000
51.38995 417.000
51.40989 427.000
51.42984 461.000
51.44979 438.000
51.46973 443.000
51.48968 459.000
51.50963 479.000
51.52957 435.000
51.54952 428.000
51.56947 468.000
51.58942 421.000
51.60936 443.000
51.62931 453.000
51.64926 486.000
51.66920 479.000
51.68915 424.000
51.70910 426.000
51.72904 433.000
51.74899 441.000
51.76894 471.000
51.78888 408.000
51.80883 417.000
51.82878 447.000
51.84873 452.000
51.86867 471.000
51.88862 429.000
51.90857 463.000
51.92851 417.000
51.94846 447.000
51.96841 458.000
51.98835 421.000
52.00830 437.000
52.02825 435.000
52.04820 456.000
52.06814 439.000
52.08809 428.000
52.10804 419.000
52.12798 443.000
52.14793 471.000
52.16788 436.000
52.18782 452.000
52.20777 418.000
52.22772 413.000
52.24767 437.000
52.26761 439.000
52.28756 415.000
52.30751 427.000
52.32745 439.000
52.34740 427.000
52.36735 413.000
52.38729 413.000
52.40724 423.000
52.42719 439.000
52.44713 406.000
52.46708 469.000
52.48703 396.000
52.50698 463.000
52.52692 427.000
52.54687 439.000
52.56682 425.000
52.58676 416.000
52.60671 412.000
52.62666 451.000
52.64660 458.000
52.66655 423.000
52.68650 435.000
52.70645 429.000
52.72639 494.000
52.74634 458.000
52.76629 420.000
52.78623 421.000
52.80618 439.000
52.82613 433.000
52.84607 466.000
52.86602 392.000
52.88597 414.000
52.90591 457.000
52.92586 405.000
52.94581 452.000
52.96576 401.000
52.98570 426.000
53.00565 425.000
53.02560 472.000
53.04554 460.000
53.06549 434.000
53.08544 426.000
53.10538 457.000
53.12533 426.000
53.14528 423.000
53.16523 427.000
53.18517 423.000
53.20512 456.000
53.22507 440.000
53.24501 442.000
53.26496 434.000
53.28491 423.000
53.30485 415.000
53.32480 404.000
53.34475 465.000
53.36469 411.000
53.38464 402.000
53.40459 435.000
53.42454 424.000
53.44448 451.000
53.46443 429.000
53.48438 388.000
53.50432 401.000
53.52427 449.000
53.54422 436.000
53.56416 442.000
53.58411 448.000
53.60406 407.000
53.62401 419.000
53.64395 456.000
53.66390 411.000
53.68385 451.000
53.70379 452.000
53.72374 407.000
53.74369 455.000
53.76363 448.000
53.78358 398.000
53.80353 399.000
53.82348 449.000
53.84342 393.000
53.86337 433.000
53.88332 405.000
53.90326 391.000
53.92321 444.000
53.94316 444.000
53.96310 412.000
53.98305 397.000
54.00300 391.000
54.02294 427.000
54.04289 456.000
54.06284 406.000
54.08279 427.000
54.10273 402.000
54.12268 438.000
54.14263 393.000
54.16257 418.000
54.18252 423.000
54.20247 418.000
54.22241 420.000
54.24236 376.000
54.26231 417.000
54.28226 442.000
54.30220 408.000
54.32215 416.000
54.34210 440.000
54.36204 439.000
54.38199 420.000
54.40194 405.000
54.42188 452.000
54.44183 439.000
54.46178 416.000
54.48172 422.000
54.50167 400.000
54.52162 418.000
54.54157 393.000
54.56151 408.000
54.58146 412.000
54.60141 376.000
54.62135 414.000
54.64130 420.000
54.66125 403.000
54.68119 377.000
54.70114 423.000
54.72109 410.000
54.74104 401.000
54.76098 430.000
54.78093 384.000
54.80088 411.000
54.82082 402.000
54.84077 432.000
54.86072 393.000
54.88066 427.000
54.90061 403.000
54.92056 398.000
54.94050 410.000
54.96045 383.000
54.98040 380.000
55.00035 424.000
55.02029 410.000
55.04024 396.000
55.06019 382.000
55.08013 428.000
55.10008 382.000
55.12003 407.000
55.13997 397.000
55.15992 423.000
55.17987 374.000
55.19982 390.000
55.21976 413.000
55.23971 423.000
55.25966 407.000
55.27960 407.000
55.29955 419.000
55.31950 386.000
55.33944 399.000
55.35939 395.000
55.37934 380.000
55.39929 385.000
55.41923 407.000
55.43918 417.000
55.45913 414.000
55.47907 376.000
55.49902 378.000
55.51897 367.000
55.53891 381.000
55.55886 394.000
55.57881 383.000
55.59875 375.000
55.61870 360.000
55.63865 402.000
55.65860 409.000
55.67854 409.000
55.69849 375.000
55.71844 384.000
55.73838 416.000
55.75833 420.000
55.77828 370.000
55.79822 406.000
55.81817 383.000
55.83812 408.000
55.85807 399.000
55.87801 426.000
55.89796 412.000
55.91791 373.000
55.93785 399.000
55.95780 405.000
55.97775 394.000
55.99769 408.000
56.01764 372.000
56.03759 431.000
56.05753 387.000
56.07748 389.000
56.09743 373.000
56.11738 373.000
56.13732 395.000
56.15727 383.000
56.17722 342.000
56.19716 383.000
56.21711 414.000
56.23706 380.000
56.25700 376.000
56.27695 388.000
56.29690 380.000
56.31685 382.000
56.33679 372.000
56.35674 359.000
56.37669 411.000
56.39663 385.000
56.41658 413.000
56.43653 353.000
56.45647 389.000
56.47642 358.000
56.49637 389.000
56.51631 392.000
56.53626 391.000
56.55621 389.000
56.57616 375.000
56.59610 362.000
56.61605 369.000
56.63600 389.000
56.65594 360.000
56.67589 412.000
56.69584 386.000
56.71578 383.000
56.73573 386.000
56.75568 376.000
56.77563 349.000
56.79557 391.000
56.81552 390.000
56.83547 391.000
56.85541 380.000
56.87536 369.000
56.89531 385.000
56.91525 386.000
56.93520 411.000
56.95515 373.000
56.97510 382.000
56.99504 366.000
57.01499 415.000
57.03494 382.000
57.05488 406.000
57.07483 387.000
57.09478 404.000
57.11472 392.000
57.13467 354.000
57.15462 362.000
57.17456 370.000
57.19451 382.000
57.21446 380.000
57.23441 388.000
57.25435 396.000
57.27430 403.000
57.29425 384.000
57.31419 374.000
57.33414 368.000
57.35409 358.000
57.37403 405.000
57.39398 339.000
57.41393 355.000
57.43388 375.000
57.45382 384.000
57.47377 390.000
57.49372 354.000
57.51366 403.000
57.53361 380.000
57.55356 390.000
57.57350 391.000
57.59345 383.000
57.61340 426.000
57.63334 361.000
57.65329 383.000
57.67324 387.000
57.69319 379.000
57.71313 370.000
57.73308 386.000
57.75303 372.000
57.77297 403.000
57.79292 359.000
57.81287 363.000
57.83281 370.000
57.85276 378.000
57.87271 383.000
57.89266 353.000
57.91260 362.000
57.93255 370.000
57.95250 385.000
57.97244 349.000
57.99239 374.000
58.01234 388.000
58.03228 366.000
58.05223 385.000
58.07218 389.000
58.09212 374.000
58.11207 386.000
58.13202 366.000
58.15197 379.000
58.17191 360.000
58.19186 338.000
58.21181 377.000
58.23175 365.000
58.25170 381.000
58.27165 360.000
58.29159 366.000
58.31154 370.000
58.33149 354.000
58.35144 342.000
58.37138 358.000
58.39133 390.000
58.41128 338.000
58.43122 352.000
58.45117 355.000
58.47112 334.000
58.49106 375.000
58.51101 353.000
58.53096 355.000
58.55090 372.000
58.57085 386.000
58.59080 352.000
58.61075 378.000
58.63069 370.000
58.65064 365.000
58.67059 334.000
58.69053 350.000
58.71048 375.000
58.73043 363.000
58.75037 394.000
58.77032 327.000
58.79027 398.000
58.81022 344.000
58.83016 333.000
58.85011 368.000
58.87006 351.000
58.89000 315.000
58.90995 389.000
58.92990 362.000
58.94984 357.000
58.96979 363.000
58.98974 373.000
59.00969 364.000
59.02963 344.000
59.04958 390.000
59.06953 331.000
59.08947 352.000
59.10942 363.000
59.12937 337.000
59.14931 388.000
59.16926 335.000
59.18921 344.000
59.20915 366.000
59.22910 378.000
59.24905 346.000
59.26900 352.000
59.28894 337.000
59.30889 355.000
59.32884 344.000
59.34878 372.000
59.36873 354.000
59.38868 323.000
59.40862 361.000
59.42857 341.000
59.44852 362.000
59.46847 384.000
59.48841 340.000
59.50836 356.000
59.52831 316.000
59.54825 327.000
59.56820 328.000
59.58815 388.000
59.60809 342.000
59.62804 330.000
59.64799 319.000
59.66793 393.000
59.68788 349.000
59.70783 334.000
59.72778 349.000
59.74772 349.000
59.76767 347.000
59.78762 346.000
59.80756 366.000
59.82751 339.000
59.84746 360.000
59.86740 352.000
59.88735 346.000
59.90730 357.000
59.92725 363.000
59.94719 335.000
59.96714 326.000
59.98709 326.000
60.00703 338.000
60.02698 350.000
60.04693 335.000
60.06687 339.000
60.08682 294.000
60.10677 364.000
60.12671 337.000
60.14666 355.000
60.16661 377.000
60.18656 367.000
60.20650 359.000
60.22645 343.000
60.24640 354.000
60.26634 356.000
60.28629 375.000
60.30624 307.000
60.32618 335.000
60.34613 355.000
60.36608 322.000
60.38603 354.000
60.40597 371.000
60.42592 341.000
60.44587 327.000
60.46581 339.000
60.48576 332.000
60.50571 342.000
60.52565 350.000
60.54560 340.000
60.56555 351.000
60.58550 312.000
60.60544 377.000
60.62539 347.000
60.64534 375.000
60.66528 364.000
60.68523 349.000
60.70518 354.000
60.72512 351.000
60.74507 333.000
60.76502 345.000
60.78496 331.000
60.80491 410.000
60.82486 335.000
60.84481 330.000
60.86475 362.000
60.88470 361.000
60.90465 357.000
60.92459 333.000
60.94454 334.000
60.96449 329.000
60.98443 357.000
61.00438 337.000
61.02433 350.000
61.04428 329.000
61.06422 360.000
61.08417 328.000
61.10412 376.000
61.12406 331.000
61.14401 391.000
61.16396 315.000
61.18390 352.000
61.20385 326.000
61.22380 304.000
61.24374 355.000
61.26369 329.000
61.28364 334.000
61.30359 331.000
61.32353 326.000
61.34348 350.000
61.36343 339.000
61.38337 365.000
61.40332 325.000
61.42327 324.000
61.44321 330.000
61.46316 312.000
61.48311 328.000
61.50306 326.000
61.52300 358.000
61.54295 343.000
61.56290 312.000
61.58284 321.000
61.60279 374.000
61.62274 334.000
61.64268 321.000
61.66263 296.000
61.68258 338.000
61.70252 335.000
61.72247 336.000
61.74242 320.000
61.76237 337.000
61.78231 326.000
61.80226 368.000
61.82221 332.000
61.84215 341.000
61.86210 318.000
61.88205 299.000
61.90199 342.000
61.92194 371.000
61.94189 300.000
61.96184 339.000
61.98178 346.000
62.00173 298.000
62.02168 349.000
62.04162 315.000
62.06157 334.000
62.08152 360.000
62.10146 347.000
62.12141 352.000
62.14136 326.000
62.16131 363.000
62.18125 339.000
62.20120 315.000
62.22115 302.000
62.24109 328.000
62.26104 330.000
62.28099 328.000
62.30093 365.000
62.32088 355.000
62.34083 347.000
62.36077 299.000
62.38072 358.000
62.40067 301.000
62.42062 308.000
62.44056 326.000
62.46051 327.000
62.48046 319.000
62.50040 328.000
62.52035 330.000
62.54030 335.000
62.56024 296.000
62.58019 333.000
62.60014 319.000
62.62009 352.000
62.64003 341.000
62.65998 330.000
62.67993 310.000
62.69987 339.000
62.71982 339.000
62.73977 315.000
62.75971 302.000
62.77966 326.000
62.79961 316.000
62.81955 335.000
62.83950 344.000
62.85945 309.000
62.87940 302.000
62.89934 306.000
62.91929 318.000
62.93924 345.000
62.95918 311.000
62.97913 307.000
62.99908 329.000
63.01902 334.000
63.03897 313.000
63.05892 308.000
63.07887 317.000
63.09881 337.000
63.11876 319.000
63.13871 348.000
63.15865 334.000
63.17860 351.000
63.19855 322.000
63.21849 336.000
63.23844 337.000
63.25839 308.000
63.27833 346.000
63.29828 332.000
63.31823 321.000
63.33818 342.000
63.35812 310.000
63.37807 320.000
63.39802 308.000
63.41796 299.000
63.43791 331.000
63.45786 329.000
63.47780 314.000
63.49775 295.000
63.51770 316.000
63.53765 357.000
63.55759 333.000
63.57754 322.000
63.59749 337.000
63.61743 324.000
63.63738 326.000
63.65733 341.000
63.67727 288.000
63.69722 304.000
63.71717 308.000
63.73712 311.000
63.75706 305.000
63.77701 331.000
63.79696 335.000
63.81690 317.000
63.83685 313.000
63.85680 335.000
63.87674 333.000
63.89669 298.000
63.91664 329.000
63.93658 342.000
63.95653 333.000
63.97648 322.000
63.99643 323.000
64.01637 286.000
64.03632 304.000
64.05627 303.000
64.07621 276.000
64.09616 345.000
64.11611 305.000
64.13605 307.000
64.15600 321.000
64.17595 296.000
64.19590 322.000
64.21584 336.000
64.23579 304.000
64.25574 355.000
64.27568 312.000
64.29563 334.000
64.31558 338.000
64.33552 321.000
64.35547 293.000
64.37542 294.000
64.39536 320.000
64.41531 346.000
64.43526 337.000
64.45521 312.000
64.47515 334.000
64.49510 318.000
64.51505 295.000
64.53499 294.000
64.55494 341.000
64.57489 288.000
64.59483 340.000
64.61478 292.000
64.63473 319.000
64.65468 316.000
64.67462 295.000
64.69457 304.000
64.71452 313.000
64.73446 316.000
64.75441 306.000
64.77436 315.000
64.79430 309.000
64.81425 311.000
64.83420 319.000
64.85414 354.000
64.87409 284.000
64.89404 330.000
64.91399 350.000
64.93393 308.000
64.95388 324.000
64.97383 317.000
64.99377 317.000
65.01372 287.000
65.03367 321.000
65.05361 284.000
65.07356 340.000
65.09351 298.000
65.11346 304.000
65.13340 315.000
65.15335 304.000
65.17330 333.000
65.19324 310.000
65.21319 315.000
65.23314 348.000
65.25308 291.000
65.27303 315.000
65.29298 343.000
65.31293 333.000
65.33287 338.000
65.35282 320.000
65.37277 323.000
65.39271 334.000
65.41266 317.000
65.43261 327.000
65.45255 338.000
65.47250 303.000
65.49245 322.000
65.51239 313.000
65.53234 332.000
65.55229 313.000
65.57224 331.000
65.59218 337.000
65.61213 338.000
65.63208 302.000
65.65202 319.000
65.67197 309.000
65.69192 300.000
65.71186 348.000
65.73181 305.000
65.75176 345.000
65.77171 305.000
65.79165 314.000
65.81160 305.000
65.83155 304.000
65.85149 324.000
65.87144 312.000
65.89139 276.000
65.91133 323.000
65.93128 287.000
65.95123 295.000
65.97117 311.000
65.99112 344.000
66.01107 310.000
66.03102 310.000
66.05096 318.000
66.07091 302.000
66.09086 298.000
66.11080 321.000
66.13075 330.000
66.15070 355.000
66.17064 331.000
66.19059 300.000
66.21054 357.000
66.23049 320.000
66.25043 300.000
66.27038 317.000
66.29033 342.000
66.31027 341.000
66.33022 313.000
66.35017 310.000
66.37011 322.000
66.39006 333.000
66.41001 312.000
66.42995 314.000
66.44990 316.000
66.46985 294.000
66.48980 302.000
66.50974 298.000
66.52969 331.000
66.54964 326.000
66.56958 292.000
66.58953 283.000
66.60948 322.000
66.62942 313.000
66.64937 299.000
66.66932 313.000
66.68927 290.000
66.70921 298.000
66.72916 292.000
66.74911 304.000
66.76905 299.000
66.78900 301.000
66.80895 296.000
66.82889 323.000
66.84884 299.000
66.86879 317.000
66.88874 336.000
66.90868 334.000
66.92863 287.000
66.94858 334.000
66.96852 303.000
66.98847 294.000
67.00842 316.000
67.02836 312.000
67.04831 297.000
67.06826 320.000
67.08820 342.000
67.10815 326.000
67.12810 325.000
67.14805 330.000
67.16799 322.000
67.18794 306.000
67.20789 299.000
67.22783 288.000
67.24778 323.000
67.26773 332.000
67.28767 306.000
67.30762 339.000
67.32757 324.000
67.34752 322.000
67.36746 308.000
67.38741 320.000
67.40736 308.000
67.42730 344.000
67.44725 313.000
67.46720 305.000
67.48714 324.000
67.50709 337.000
67.52704 295.000
67.54698 316.000
67.56693 307.000
67.58688 339.000
67.60683 328.000
67.62677 303.000
67.64672 315.000
67.66667 307.000
67.68661 302.000
67.70656 302.000
67.72651 295.000
67.74645 296.000
67.76640 315.000
67.78635 306.000
67.80630 328.000
67.82624 305.000
67.84619 312.000
67.86614 305.000
67.88608 338.000
67.90603 303.000
67.92598 272.000
67.94592 301.000
67.96587 294.000
67.98582 288.000
68.00576 298.000
68.02571 300.000
68.04566 323.000
68.06561 298.000
68.08555 282.000
68.10550 316.000
68.12545 314.000
68.14539 332.000
68.16534 323.000
68.18529 287.000
68.20523 302.000
68.22518 335.000
68.24513 292.000
68.26508 314.000
68.28502 318.000
68.30497 310.000
68.32492 282.000
68.34486 291.000
68.36481 316.000
68.38476 290.000
68.40470 303.000
68.42465 326.000
68.44460 305.000
68.46455 295.000
68.48449 292.000
68.50444 291.000
68.52439 271.000
68.54433 271.000
68.56428 294.000
68.58423 328.000
68.60417 301.000
68.62412 295.000
68.64407 301.000
68.66401 311.000
68.68396 312.000
68.70391 313.000
68.72386 293.000
68.74380 322.000
68.76375 281.000
68.78370 312.000
68.80364 325.000
68.82359 326.000
68.84354 300.000
68.86348 312.000
68.88343 286.000
68.90338 271.000
68.92333 296.000
68.94327 287.000
68.96322 275.000
68.98317 333.000
69.00311 283.000
69.02306 340.000
69.04301 268.000
69.06295 318.000
69.08290 333.000
69.10285 318.000
69.12279 312.000
69.14274 332.000
69.16269 337.000
69.18264 291.000
69.20258 321.000
69.22253 306.000
69.24248 295.000
69.26242 284.000
69.28237 312.000
69.30232 293.000
69.32226 305.000
69.34221 342.000
69.36216 314.000
69.38211 334.000
69.40205 305.000
69.42200 306.000
69.44195 296.000
69.46189 286.000
69.48184 283.000
69.50179 325.000
69.52173 282.000
69.54168 326.000
69.56163 340.000
69.58157 283.000
69.60152 323.000
69.62147 321.000
69.64142 299.000
69.66136 297.000
69.68131 282.000
69.70126 316.000
69.72120 301.000
69.74115 289.000
69.76110 306.000
69.78104 306.000
69.80099 309.000
69.82094 308.000
69.84089 306.000
69.86083 303.000
69.88078 288.000
69.90073 305.000
69.92067 290.000
69.94062 329.000
69.96057 279.000
69.98051 284.000
70.00046 285.000
70.02041 299.000
70.04035 308.000
70.06030 329.000
70.08025 316.000
70.10020 265.000
70.12014 306.000
70.14009 300.000
70.16004 305.000
70.17998 329.000
70.19993 287.000
70.21988 264.000
70.23982 321.000
70.25977 320.000
70.27972 296.000
70.29967 331.000
70.31961 273.000
70.33956 296.000
70.35951 312.000
70.37945 316.000
70.39940 308.000
70.41935 290.000
70.43929 334.000
70.45924 282.000
70.47919 310.000
70.49914 307.000
70.51908 309.000
70.53903 309.000
70.55898 320.000
70.57892 309.000
70.59887 298.000
70.61882 297.000
70.63876 302.000
70.65871 317.000
70.67866 326.000
70.69860 344.000
70.71855 328.000
70.73850 299.000
70.75845 300.000
70.77839 295.000
70.79834 269.000
70.81829 302.000
70.83823 276.000
70.85818 279.000
70.87813 316.000
70.89807 279.000
70.91802 278.000
70.93797 295.000
70.95792 311.000
70.97786 292.000
70.99781 269.000
71.01776 314.000
71.03770 324.000
71.05765 306.000
71.07760 314.000
71.09754 290.000
71.11749 310.000
71.13744 297.000
71.15738 310.000
71.17733 298.000
71.19728 330.000
71.21723 307.000
71.23717 280.000
71.25712 295.000
71.27707 303.000
71.29701 273.000
71.31696 282.000
71.33691 285.000
71.35685 269.000
71.37680 310.000
71.39675 322.000
71.41670 318.000
71.43664 337.000
71.45659 310.000
71.47654 277.000
71.49648 312.000
71.51643 302.000
71.53638 306.000
71.55632 291.000
71.57627 290.000
71.59622 275.000
71.61616 301.000
71.63611 306.000
71.65606 292.000
71.67601 304.000
71.69595 315.000
71.71590 310.000
71.73585 290.000
71.75579 310.000
71.77574 304.000
71.79569 283.000
71.81563 283.000
71.83558 276.000
71.85553 325.000
71.87548 285.000
71.89542 316.000
71.91537 265.000
71.93532 307.000
71.95526 295.000
71.97521 324.000
71.99516 308.000
72.01510 293.000
72.03505 290.000
72.05500 301.000
72.07495 294.000
72.09489 288.000
72.11484 269.000
72.13479 316.000
72.15473 327.000
72.17468 330.000
72.19463 273.000
72.21457 327.000
72.23452 312.000
72.25447 286.000
72.27441 286.000
72.29436 304.000
72.31431 289.000
72.33426 282.000
72.35420 330.000
72.37415 294.000
72.39410 307.000
72.41404 325.000
72.43399 309.000
72.45394 318.000
72.47388 255.000
72.49383 323.000
72.51378 301.000
72.53373 317.000
72.55367 304.000
72.57362 325.000
72.59357 278.000
72.61351 317.000
72.63346 321.000
72.65341 320.000
72.67335 274.000
72.69330 271.000
72.71325 303.000
72.73319 293.000
72.75314 277.000
72.77309 295.000
72.79304 310.000
72.81298 340.000
72.83293 301.000
72.85288 299.000
72.87282 298.000
72.89277 306.000
72.91272 303.000
72.93266 299.000
72.95261 315.000
72.97256 309.000
72.99251 297.000
73.01245 296.000
73.03240 289.000
73.05235 327.000
73.07229 297.000
73.09224 318.000
73.11219 288.000
73.13213 285.000
73.15208 289.000
73.17203 292.000
73.19197 309.000
73.21192 303.000
73.23187 291.000
73.25182 309.000
73.27176 293.000
73.29171 246.000
73.31166 287.000
73.33160 275.000
73.35155 304.000
73.37150 266.000
73.39144 305.000
73.41139 295.000
73.43134 295.000
73.45129 323.000
73.47123 303.000
73.49118 284.000
73.51113 290.000
73.53107 311.000
73.55102 295.000
73.57097 304.000
73.59091 281.000
73.61086 330.000
73.63081 262.000
73.65076 305.000
73.67070 293.000
73.69065 279.000
73.71060 316.000
73.73054 274.000
73.75049 283.000
73.77044 308.000
73.79038 295.000
73.81033 284.000
73.83028 310.000
73.85022 284.000
73.87017 289.000
73.89012 305.000
73.91007 285.000
73.93001 287.000
73.94996 301.000
73.96991 325.000
73.98985 290.000
74.00980 285.000
74.02975 293.000
74.04969 286.000
74.06964 309.000
74.08959 289.000
74.10954 326.000
74.12948 292.000
74.14943 301.000
74.16938 290.000
74.18932 301.000
74.20927 314.000
74.22922 308.000
74.24916 286.000
74.26911 311.000
74.28906 300.000
74.30900 295.000
74.32895 294.000
74.34890 286.000
74.36885 286.000
74.38879 289.000
74.40874 290.000
74.42869 272.000
74.44863 287.000
74.46858 262.000
74.48853 309.000
74.50847 336.000
74.52842 296.000
74.54837 304.000
74.56832 286.000
74.58826 308.000
74.60821 292.000
74.62816 307.000
74.64810 275.000
74.66805 293.000
74.68800 298.000
74.70794 289.000
74.72789 292.000
74.74784 282.000
74.76778 257.000
74.78773 330.000
74.80768 286.000
74.82763 314.000
74.84757 313.000
74.86752 279.000
74.88747 293.000
74.90741 307.000
74.92736 286.000
74.94731 282.000
74.96725 273.000
74.98720 300.000
75.00715 306.000
75.02710 325.000
75.04704 295.000
75.06699 303.000
75.08694 302.000
75.10688 306.000
75.12683 315.000
75.14678 327.000
75.16672 317.000
75.18667 318.000
75.20662 283.000
75.22657 309.000
75.24651 301.000
75.26646 295.000
75.28641 282.000
75.30635 258.000
75.32630 273.000
75.34625 296.000
75.36619 274.000
75.38614 289.000
75.40609 308.000
75.42603 293.000
75.44598 294.000
75.46593 284.000
75.48588 299.000
75.50582 283.000
75.52577 277.000
75.54572 294.000
75.56566 300.000
75.58561 271.000
75.60556 314.000
75.62550 307.000
75.64545 278.000
75.66540 289.000
75.68535 287.000
75.70529 332.000
75.72524 304.000
75.74519 301.000
75.76513 310.000
75.78508 266.000
75.80503 291.000
75.82497 264.000
75.84492 297.000
75.86487 300.000
75.88481 250.000
75.90476 312.000
75.92471 310.000
75.94466 268.000
75.96460 276.000
75.98455 282.000
76.00450 276.000
76.02444 267.000
76.04439 319.000
76.06434 290.000
76.08428 299.000
76.10423 303.000
76.12418 282.000
76.14413 299.000
76.16407 275.000
76.18402 281.000
76.20397 297.000
76.22391 317.000
76.24386 304.000
76.26381 267.000
76.28375 309.000
76.30370 316.000
76.32365 304.000
76.34359 298.000
76.36354 304.000
76.38349 291.000
76.40344 264.000
76.42338 290.000
76.44333 281.000
76.46328 285.000
76.48322 275.000
76.50317 293.000
76.52312 284.000
76.54306 306.000
76.56301 300.000
76.58296 308.000
76.60291 282.000
76.62285 286.000
76.64280 277.000
76.66275 300.000
76.68269 304.000
76.70264 327.000
76.72259 305.000
76.74253 268.000
76.76248 291.000
76.78243 292.000
76.80238 253.000
76.82232 302.000
76.84227 304.000
76.86222 300.000
76.88216 284.000
76.90211 270.000
76.92206 308.000
76.94200 311.000
76.96195 322.000
76.98190 301.000
77.00184 313.000
77.02179 308.000
77.04174 289.000
77.06169 275.000
77.08163 289.000
77.10158 304.000
77.12153 308.000
77.14147 269.000
77.16142 293.000
77.18137 295.000
77.20131 283.000
77.22126 292.000
77.24121 289.000
77.26116 296.000
77.28110 294.000
77.30105 282.000
77.32100 265.000
77.34094 324.000
77.36089 277.000
77.38084 285.000
77.40078 319.000
77.42073 287.000
77.44068 290.000
77.46062 300.000
77.48057 312.000
77.50052 329.000
77.52047 297.000
77.54041 304.000
77.56036 294.000
77.58031 287.000
77.60025 290.000
77.62020 296.000
77.64015 275.000
77.66009 261.000
77.68004 312.000
77.69999 288.000
77.71994 298.000
77.73988 295.000
77.75983 289.000
77.77978 311.000
77.79972 297.000
77.81967 277.000
77.83962 307.000
77.85956 300.000
77.87951 299.000
77.89946 264.000
77.91940 292.000
77.93935 279.000
77.95930 337.000
77.97925 300.000
77.99919 290.000
78.01914 281.000
78.03909 294.000
78.05903 298.000
78.07898 290.000
78.09893 285.000
78.11887 298.000
78.13882 328.000
78.15877 258.000
78.17872 285.000
78.19866 302.000
78.21861 289.000
78.23856 331.000
78.25850 275.000
78.27845 303.000
78.29840 291.000
78.31834 300.000
78.33829 315.000
78.35824 291.000
78.37819 289.000
78.39813 309.000
78.41808 297.000
78.43803 269.000
78.45797 319.000
78.47792 323.000
78.49787 281.000
78.51781 263.000
78.53776 292.000
78.55771 320.000
78.57765 308.000
78.59760 280.000
78.61755 292.000
78.63750 293.000
78.65744 281.000
78.67739 297.000
78.69734 315.000
78.71728 298.000
78.73723 281.000
78.75718 294.000
78.77712 302.000
78.79707 272.000
78.81702 253.000
78.83697 286.000
78.85691 311.000
78.87686 261.000
78.89681 319.000
78.91675 301.000
78.93670 316.000
78.95665 302.000
78.97659 263.000
78.99654 263.000
79.01649 291.000
79.03643 286.000
79.05638 277.000
79.07633 272.000
79.09628 276.000
79.11622 318.000
79.13617 302.000
79.15612 275.000
79.17606 310.000
79.19601 325.000
79.21596 279.000
79.23590 289.000
79.25585 305.000
79.27580 297.000
79.29575 286.000
79.31569 297.000
79.33564 275.000
79.35559 272.000
79.37553 298.000
79.39548 304.000
79.41543 310.000
79.43537 268.000
79.45532 292.000
79.47527 327.000
79.49521 293.000
79.51516 302.000
79.53511 331.000
79.55506 298.000
79.57500 288.000
79.59495 293.000
79.61490 295.000
79.63484 296.000
79.65479 318.000
79.67474 266.000
79.69468 295.000
79.71463 296.000
79.73458 282.000
79.75453 319.000
79.77447 297.000
79.79442 302.000
79.81437 293.000
79.83431 287.000
79.85426 265.000
79.87421 289.000
79.89415 305.000
79.91410 290.000
79.93405 295.000
79.95399 303.000
79.97394 282.000
79.99389 306.000
80.01384 286.000
80.03378 306.000
80.05373 295.000
80.07368 303.000
80.09362 277.000
80.11357 301.000
80.13352 268.000
80.15346 284.000
80.17341 292.000
80.19336 311.000
80.21331 283.000
80.23325 315.000
80.25320 314.000
80.27315 305.000
80.29309 316.000
80.31304 269.000
80.33299 309.000
80.35293 296.000
80.37288 301.000
80.39283 266.000
80.41278 312.000
80.43272 315.000
80.45267 301.000
80.47262 301.000
80.49256 295.000
80.51251 308.000
80.53246 297.000
80.55240 332.000
80.57235 264.000
80.59230 296.000
80.61224 310.000
80.63219 296.000
80.65214 286.000
80.67209 282.000
80.69203 297.000
80.71198 333.000
80.73193 290.000
80.75187 336.000
80.77182 279.000
80.79177 291.000
80.81171 283.000
80.83166 319.000
80.85161 289.000
80.87156 292.000
80.89150 264.000
80.91145 297.000
80.93140 291.000
80.95134 297.000
80.97129 323.000
80.99124 292.000
81.01118 291.000
81.03113 270.000
81.05108 305.000
81.07102 283.000
81.09097 313.000
81.11092 295.000
81.13087 276.000
81.15081 290.000
81.17076 300.000
81.19071 307.000
81.21065 286.000
81.23060 281.000
81.25055 305.000
81.27049 301.000
81.29044 294.000
81.31039 277.000
81.33034 316.000
81.35028 337.000
81.37023 313.000
81.39018 315.000
81.41012 322.000
81.43007 294.000
81.45002 300.000
81.46996 290.000
81.48991 302.000
81.50986 282.000
81.52980 284.000
81.54975 285.000
81.56970 291.000
81.58965 286.000
81.60959 285.000
81.62954 351.000
81.64949 299.000
81.66943 294.000
81.68938 297.000
81.70933 320.000
81.72927 332.000
81.74922 294.000
81.76917 311.000
81.78912 303.000
81.80906 298.000
81.82901 319.000
81.84896 309.000
81.86890 297.000
81.88885 328.000
81.90880 296.000
81.92874 314.000
81.94869 333.000
81.96864 318.000
81.98859 297.000
82.00853 287.000
82.02848 295.000
82.04843 315.000
82.06837 318.000
82.08832 311.000
82.10827 283.000
82.12821 308.000
82.14816 338.000
82.16811 289.000
82.18805 303.000
82.20800 316.000
82.22795 274.000
82.24790 299.000
82.26784 297.000
82.28779 266.000
82.30774 296.000
82.32768 299.000
82.34763 287.000
82.36758 324.000
82.38752 274.000
82.40747 287.000
82.42742 325.000
82.44737 282.000
82.46731 287.000
82.48726 276.000
82.50721 298.000
82.52715 318.000
82.54710 302.000
82.56705 292.000
82.58699 319.000
82.60694 305.000
82.62689 301.000
82.64683 286.000
82.66678 300.000
82.68673 327.000
82.70668 331.000
82.72662 313.000
82.74657 298.000
82.76652 273.000
82.78646 278.000
82.80641 295.000
82.82636 316.000
82.84630 303.000
82.86625 315.000
82.88620 332.000
82.90615 298.000
82.92609 293.000
82.94604 291.000
82.96599 319.000
82.98593 293.000
83.00588 290.000
83.02583 258.000
83.04577 326.000
83.06572 302.000
83.08567 262.000
83.10561 308.000
83.12556 312.000
83.14551 297.000
83.16546 261.000
83.18540 285.000
83.20535 303.000
83.22530 272.000
83.24524 334.000
83.26519 283.000
83.28514 275.000
83.30508 277.000
83.32503 335.000
83.34498 316.000
83.36493 276.000
83.38487 296.000
83.40482 280.000
83.42477 296.000
83.44471 272.000
83.46466 325.000
83.48461 286.000
83.50455 323.000
83.52450 299.000
83.54445 328.000
83.56440 307.000
83.58434 296.000
83.60429 287.000
83.62424 276.000
83.64418 340.000
83.66413 335.000
83.68408 319.000
83.70402 311.000
83.72397 289.000
83.74392 301.000
83.76386 323.000
83.78381 298.000
83.80376 311.000
83.82371 268.000
83.84365 325.000
83.86360 295.000
83.88355 292.000
83.90349 299.000
83.92344 311.000
83.94339 317.000
83.96333 270.000
83.98328 331.000
84.00323 316.000
84.02318 310.000
84.04312 290.000
84.06307 318.000
84.08302 322.000
84.10296 304.000
84.12291 305.000
84.14286 295.000
84.16280 328.000
84.18275 307.000
84.20270 300.000
84.22264 298.000
84.24259 298.000
84.26254 326.000
84.28249 305.000
84.30243 289.000
84.32238 303.000
84.34233 267.000
84.36227 299.000
84.38222 304.000
84.40217 299.000
84.42211 295.000
84.44206 329.000
84.46201 308.000
84.48196 298.000
84.50190 293.000
84.52185 324.000
84.54180 282.000
84.56174 292.000
84.58169 310.000
84.60164 298.000
84.62158 305.000
84.64153 320.000
84.66148 316.000
84.68142 287.000
84.70137 308.000
84.72132 282.000
84.74127 320.000
84.76121 310.000
84.78116 297.000
84.80111 282.000
84.82105 300.000
84.84100 287.000
84.86095 294.000
84.88089 306.000
84.90084 319.000
84.92079 287.000
84.94074 286.000
84.96068 326.000
84.98063 312.000
85.00058 330.000
85.02052 314.000
85.04047 311.000
85.06042 296.000
85.08036 311.000
85.10031 275.000
85.12026 304.000
85.14021 324.000
85.16015 296.000
85.18010 284.000
85.20005 298.000
85.21999 275.000
85.23994 327.000
85.25989 286.000
85.27983 300.000
85.29978 328.000
85.31973 275.000
85.33967 350.000
85.35962 264.000
85.37957 275.000
85.39952 299.000
85.41946 287.000
85.43941 285.000
85.45936 307.000
85.47930 300.000
85.49925 290.000
85.51920 285.000
85.53914 308.000
85.55909 286.000
85.57904 287.000
85.59899 287.000
85.61893 294.000
85.63888 315.000
85.65883 281.000
85.67877 279.000
85.69872 300.000
85.71867 282.000
85.73861 298.000
85.75856 286.000
85.77851 284.000
85.79845 293.000
85.81840 293.000
85.83835 302.000
85.85830 311.000
85.87824 267.000
85.89819 330.000
85.91814 301.000
85.93808 309.000
85.95803 283.000
85.97798 300.000
85.99792 323.000
86.01787 272.000
86.03782 308.000
86.05777 310.000
86.07771 296.000
86.09766 314.000
86.11761 289.000
86.13755 287.000
86.15750 317.000
86.17745 295.000
86.19739 321.000
86.21734 291.000
86.23729 305.000
86.25723 301.000
86.27718 325.000
86.29713 298.000
86.31708 300.000
86.33702 340.000
86.35697 269.000
86.37692 296.000
86.39686 301.000
86.41681 329.000
86.43676 286.000
86.45670 295.000
86.47665 330.000
86.49660 313.000
86.51655 303.000
86.53649 273.000
86.55644 288.000
86.57639 317.000
86.59633 267.000
86.61628 300.000
86.63623 289.000
86.65617 297.000
86.67612 323.000
86.69607 279.000
86.71602 295.000
86.73596 309.000
86.75591 276.000
86.77586 283.000
86.79580 305.000
86.81575 279.000
86.83570 298.000
86.85564 316.000
86.87559 294.000
86.89554 280.000
86.91548 287.000
86.93543 327.000
86.95538 263.000
86.97533 293.000
86.99527 306.000
87.01522 285.000
87.03517 336.000
87.05511 299.000
87.07506 320.000
87.09501 330.000
87.11495 309.000
87.13490 293.000
87.15485 281.000
87.17480 309.000
87.19474 261.000
87.21469 279.000
87.23464 269.000
87.25458 276.000
87.27453 268.000
87.29448 290.000
87.31442 294.000
87.33437 311.000
87.35432 272.000
87.37426 307.000
87.39421 329.000
87.41416 329.000
87.43411 315.000
87.45405 283.000
87.47400 292.000
87.49395 299.000
87.51389 304.000
87.53384 288.000
87.55379 281.000
87.57373 285.000
87.59368 279.000
87.61363 331.000
87.63358 267.000
87.65352 321.000
87.67347 306.000
87.69342 310.000
87.71336 298.000
87.73331 309.000
87.75326 301.000
87.77320 292.000
87.79315 319.000
87.81310 320.000
87.83304 295.000
87.85299 300.000
87.87294 304.000
87.89289 316.000
87.91283 326.000
87.93278 297.000
87.95273 301.000
87.97267 301.000
87.99262 300.000
88.01257 298.000
88.03251 299.000
88.05246 273.000
88.07241 304.000
88.09236 315.000
88.11230 295.000
88.13225 277.000
88.15220 308.000
88.17214 281.000
88.19209 304.000
88.21204 291.000
88.23198 302.000
88.25193 287.000
88.27188 272.000
88.29183 289.000
88.31177 298.000
88.33172 294.000
88.35167 267.000
88.37161 292.000
88.39156 270.000
88.41151 269.000
88.43145 275.000
88.45140 289.000
88.47135 292.000
88.49129 300.000
88.51124 315.000
88.53119 278.000
88.55114 301.000
88.57108 303.000
88.59103 301.000
88.61098 293.000
88.63092 328.000
88.65087 293.000
88.67082 273.000
88.69076 269.000
88.71071 305.000
88.73066 274.000
88.75061 262.000
88.77055 289.000
88.79050 312.000
88.81045 307.000
88.83039 289.000
88.85034 276.000
88.87029 314.000
88.89023 257.000
88.91018 298.000
88.93013 280.000
88.95007 282.000
88.97002 279.000
88.98997 287.000
89.00992 317.000
89.02986 316.000
89.04981 279.000
89.06976 310.000
89.08970 249.000
89.10965 306.000
89.12960 303.000
89.14954 306.000
89.16949 284.000
89.18944 291.000
89.20939 276.000
89.22933 281.000
89.24928 305.000
89.26923 280.000
89.28917 275.000
89.30912 318.000
89.32907 284.000
89.34901 289.000
89.36896 286.000
89.38891 289.000
89.40885 283.000
89.42880 307.000
89.44875 321.000
89.46870 303.000
89.48864 300.000
89.50859 302.000
89.52854 315.000
89.54848 291.000
89.56843 313.000
89.58838 285.000
89.60832 263.000
89.62827 311.000
89.64822 299.000
89.66817 291.000
89.68811 271.000
89.70806 289.000
89.72801 313.000
89.74795 288.000
89.76790 333.000
89.78785 292.000
89.80779 295.000
89.82774 306.000
89.84769 314.000
89.86764 294.000
89.88758 294.000
89.90753 282.000
89.92748 267.000
89.94742 288.000
89.96737 274.000
89.98732 274.000
90.00726 275.000
