10.00000 273.000
10.01995 269.000
10.03989 265.000
10.05984 290.000
10.07979 274.000
10.09973 263.000
10.11968 276.000
10.13963 258.000
10.15958 255.000
10.17952 261.000
10.19947 262.000
10.21942 273.000
10.23936 236.000
10.25931 273.000
10.27926 249.000
10.29920 272.000
10.31915 251.000
10.33910 277.000
10.35905 264.000
10.37899 243.000
10.39894 273.000
10.41889 272.000
10.43883 243.000
10.45878 249.000
10.47873 268.000
10.49867 255.000
10.51862 265.000
10.53857 265.000
10.55851 290.000
10.57846 255.000
10.59841 269.000
10.61836 247.000
10.63830 251.000
10.65825 284.000
10.67820 227.000
10.69814 251.000
10.71809 248.000
10.73804 248.000
10.75798 276.000
10.77793 293.000
10.79788 270.000
10.81783 267.000
10.83777 283.000
10.85772 285.000
10.87767 250.000
10.89761 284.000
10.91756 277.000
10.93751 229.000
10.95745 247.000
10.97740 273.000
10.99735 262.000
11.01730 269.000
11.03724 250.000
11.05719 254.000
11.07714 291.000
11.09708 263.000
11.11703 234.000
11.13698 299.000
11.15692 231.000
11.17687 249.000
11.19682 226.000
11.21676 254.000
11.23671 271.000
11.25666 246.000
11.27661 281.000
11.29655 242.000
11.31650 291.000
11.33645 253.000
11.35639 261.000
11.37634 268.000
11.39629 263.000
11.41623 254.000
11.43618 230.000
11.45613 252.000
11.47608 237.000
11.49602 241.000
11.51597 269.000
11.53592 266.000
11.55586 251.000
11.57581 265.000
11.59576 267.000
11.61570 286.000
11.63565 247.000
11.65560 243.000
11.67554 291.000
11.69549 270.000
11.71544 243.000
11.73539 288.000
11.75533 241.000
11.77528 253.000
11.79523 254.000
11.81517 242.000
11.83512 274.000
11.85507 239.000
11.87501 268.000
11.89496 275.000
11.91491 273.000
11.93486 261.000
11.95480 254.000
11.97475 270.000
11.99470 293.000
12.01464 292.000
12.03459 269.000
12.05454 253.000
12.07448 264.000
12.09443 252.000
12.11438 256.000
12.13432 247.000
12.15427 287.000
12.17422 254.000
12.19417 249.000
12.21411 273.000
12.23406 247.000
12.25401 236.000
12.27395 261.000
12.29390 257.000
12.31385 258.000
12.33379 234.000
12.35374 249.000
12.37369 296.000
12.39364 282.000
12.41358 266.000
12.43353 262.000
12.45348 281.000
12.47342 254.000
12.49337 265.000
12.51332 255.000
12.53326 229.000
12.55321 274.000
12.57316 265.000
12.59311 285.000
12.61305 285.000
12.63300 250.000
12.65295 313.000
12.67289 251.000
12.69284 313.000
12.71279 276.000
12.73273 290.000
12.75268 267.000
12.77263 268.000
12.79257 304.000
12.81252 266.000
12.83247 295.000
12.85242 282.000
12.87236 271.000
12.89231 253.000
12.91226 287.000
12.93220 279.000
12.95215 271.000
12.97210 259.000
12.99204 264.000
13.01199 282.000
13.03194 278.000
13.05189 284.000
13.07183 270.000
13.09178 286.000
13.11173 284.000
13.13167 276.000
13.15162 261.000
13.17157 222.000
13.19151 265.000
13.21146 263.000
13.23141 251.000
13.25135 260.000
13.27130 261.000
13.29125 262.000
13.31120 303.000
13.33114 311.000
13.35109 283.000
13.37104 263.000
13.39098 271.000
13.41093 251.000
13.43088 273.000
13.45082 269.000
13.47077 276.000
13.49072 277.000
13.51067 290.000
13.53061 269.000
13.55056 277.000
13.57051 279.000
13.59045 278.000
13.61040 269.000
13.63035 249.000
13.65029 257.000
13.67024 260.000
13.69019 245.000
13.71013 280.000
13.73008 246.000
13.75003 267.000
13.76998 227.000
13.78992 291.000
13.80987 253.000
13.82982 298.000
13.84976 268.000
13.86971 265.000
13.88966 271.000
13.90960 286.000
13.92955 280.000
13.94950 281.000
13.96945 270.000
13.98939 279.000
14.00934 278.000
14.02929 267.000
14.04923 265.000
14.06918 276.000
14.08913 293.000
14.10907 270.000
14.12902 291.000
14.14897 273.000
14.16892 305.000
14.18886 310.000
14.20881 262.000
14.22876 277.000
14.24870 281.000
14.26865 268.000
14.28860 272.000
14.30854 262.000
14.32849 307.000
14.34844 268.000
14.36838 257.000
14.38833 288.000
14.40828 304.000
14.42823 289.000
14.44817 287.000
14.46812 271.000
14.48807 292.000
14.50801 275.000
14.52796 263.000
14.54791 299.000
14.56785 273.000
14.58780 261.000
14.60775 292.000
14.62770 314.000
14.64764 312.000
14.66759 320.000
14.68754 293.000
14.70748 305.000
14.72743 307.000
14.74738 277.000
14.76732 292.000
14.78727 272.000
14.80722 292.000
14.82716 288.000
14.84711 288.000
14.86706 298.000
14.88701 302.000
14.90695 289.000
14.92690 309.000
14.94685 307.000
14.96679 325.000
14.98674 336.000
15.00669 337.000
15.02663 362.000
15.04658 395.000
15.06653 402.000
15.08648 319.000
15.10642 376.000
15.12637 379.000
15.14632 362.000
15.16626 348.000
15.18621 366.000
15.20616 393.000
15.22610 411.000
15.24605 399.000
15.26600 378.000
15.28594 380.000
15.30589 411.000
15.32584 390.000
15.34579 421.000
15.36573 432.000
15.38568 396.000
15.40563 445.000
15.42557 449.000
15.44552 477.000
15.46547 482.000
15.48541 566.000
15.50536 565.000
15.52531 610.000
15.54526 660.000
15.56520 792.000
15.58515 926.000
15.60510 1223.000
15.62504 1656.000
15.64499 2297.000
15.66494 3496.000
15.68488 5205.000
15.70483 7912.000
15.72478 10723.000
15.74472 12721.000
15.76467 13178.000
15.78462 11784.000
15.80457 8905.000
15.82451 6118.000
15.84446 3732.000
15.86441 2165.000
15.88435 1312.000
15.90430 909.000
15.92425 633.000
15.94419 605.000
15.96414 552.000
15.98409 516.000
16.00404 432.000
16.02398 442.000
16.04393 423.000
16.06388 410.000
16.08382 421.000
16.10377 378.000
16.12372 378.000
16.14366 347.000
16.16361 326.000
16.18356 339.000
16.20351 311.000
16.22345 353.000
16.24340 333.000
16.26335 346.000
16.28329 321.000
16.30324 327.000
16.32319 335.000
16.34313 325.000
16.36308 310.000
16.38303 305.000
16.40297 344.000
16.42292 317.000
16.44287 299.000
16.46282 292.000
16.48276 281.000
16.50271 278.000
16.52266 307.000
16.54260 305.000
16.56255 309.000
16.58250 297.000
16.60244 285.000
16.62239 297.000
16.64234 296.000
16.66229 280.000
16.68223 317.000
16.70218 277.000
16.72213 323.000
16.74207 340.000
16.76202 339.000
16.78197 355.000
16.80191 412.000
16.82186 371.000
16.84181 365.000
16.86175 389.000
16.88170 353.000
16.90165 365.000
16.92160 292.000
16.94154 305.000
16.96149 265.000
16.98144 289.000
17.00138 279.000
17.02133 299.000
17.04128 294.000
17.06122 261.000
17.08117 295.000
17.10112 270.000
17.12107 263.000
17.14101 274.000
17.16096 268.000
17.18091 290.000
17.20085 246.000
17.22080 253.000
17.24075 265.000
17.26069 278.000
17.28064 241.000
17.30059 251.000
17.32053 297.000
17.34048 247.000
17.36043 308.000
17.38038 279.000
17.40032 277.000
17.42027 263.000
17.44022 264.000
17.46016 256.000
17.48011 273.000
17.50006 284.000
17.52000 272.000
17.53995 273.000
17.55990 249.000
17.57985 265.000
17.59979 277.000
17.61974 266.000
17.63969 280.000
17.65963 284.000
17.67958 253.000
17.69953 248.000
17.71947 245.000
17.73942 272.000
17.75937 264.000
17.77932 260.000
17.79926 252.000
17.81921 287.000
17.83916 264.000
17.85910 300.000
17.87905 252.000
17.89900 256.000
17.91894 274.000
17.93889 255.000
17.95884 290.000
17.97878 274.000
17.99873 263.000
18.01868 279.000
18.03863 253.000
18.05857 264.000
18.07852 242.000
18.09847 287.000
18.11841 265.000
18.13836 287.000
18.15831 253.000
18.17825 249.000
18.19820 267.000
18.21815 276.000
18.23810 288.000
18.25804 264.000
18.27799 302.000
18.29794 249.000
18.31788 269.000
18.33783 239.000
18.35778 283.000
18.37772 260.000
18.39767 288.000
18.41762 262.000
18.43756 236.000
18.45751 280.000
18.47746 275.000
18.49741 262.000
18.51735 273.000
18.53730 247.000
18.55725 278.000
18.57719 279.000
18.59714 247.000
18.61709 277.000
18.63703 278.000
18.65698 270.000
18.67693 245.000
18.69688 282.000
18.71682 260.000
18.73677 279.000
18.75672 263.000
18.77666 255.000
18.79661 254.000
18.81656 289.000
18.83650 254.000
18.85645 281.000
18.87640 237.000
18.89634 277.000
18.91629 273.000
18.93624 270.000
18.95619 253.000
18.97613 267.000
18.99608 232.000
19.01603 269.000
19.03597 279.000
19.05592 251.000
19.07587 258.000
19.09581 257.000
19.11576 257.000
19.13571 290.000
19.15566 287.000
19.17560 305.000
19.19555 265.000
19.21550 273.000
19.23544 265.000
19.25539 267.000
19.27534 256.000
19.29528 268.000
19.31523 246.000
19.33518 258.000
19.35513 255.000
19.37507 286.000
19.39502 272.000
19.41497 288.000
19.43491 295.000
19.45486 263.000
19.47481 264.000
19.49475 285.000
19.51470 266.000
19.53465 307.000
19.55459 274.000
19.57454 271.000
19.59449 304.000
19.61444 274.000
19.63438 249.000
19.65433 256.000
19.67428 270.000
19.69422 259.000
19.71417 254.000
19.73412 261.000
19.75406 264.000
19.77401 258.000
19.79396 240.000
19.81391 257.000
19.83385 294.000
19.85380 257.000
19.87375 286.000
19.89369 248.000
19.91364 271.000
19.93359 273.000
19.95353 260.000
19.97348 279.000
19.99343 268.000
20.01337 255.000
20.03332 275.000
20.05327 258.000
20.07322 261.000
20.09316 286.000
20.11311 270.000
20.13306 238.000
20.15300 261.000
20.17295 282.000
20.19290 269.000
20.21284 301.000
20.23279 247.000
20.25274 248.000
20.27269 293.000
20.29263 273.000
20.31258 250.000
20.33253 289.000
20.35247 262.000
20.37242 268.000
20.39237 259.000
20.41231 277.000
20.43226 284.000
20.45221 267.000
20.47215 274.000
20.49210 280.000
20.51205 287.000
20.53200 285.000
20.55194 274.000
20.57189 289.000
20.59184 276.000
20.61178 279.000
20.63173 263.000
20.65168 272.000
20.67162 283.000
20.69157 275.000
20.71152 264.000
20.73147 290.000
20.75141 284.000
20.77136 307.000
20.79131 284.000
20.81125 287.000
20.83120 318.000
20.85115 276.000
20.87109 294.000
20.89104 329.000
20.91099 378.000
20.93094 353.000
20.95088 358.000
20.97083 383.000
20.99078 447.000
21.01072 431.000
21.03067 477.000
21.05062 463.000
21.07056 450.000
21.09051 381.000
21.11046 423.000
21.13040 362.000
21.15035 314.000
21.17030 327.000
21.19025 295.000
21.21019 289.000
21.23014 285.000
21.25009 291.000
21.27003 304.000
21.28998 279.000
21.30993 267.000
21.32987 289.000
21.34982 306.000
21.36977 299.000
21.38972 249.000
21.40966 248.000
21.42961 260.000
21.44956 270.000
21.46950 265.000
21.48945 274.000
21.50940 274.000
21.52934 263.000
21.54929 298.000
21.56924 270.000
21.58918 270.000
21.60913 252.000
21.62908 242.000
21.64903 261.000
21.66897 274.000
21.68892 254.000
21.70887 267.000
21.72881 279.000
21.74876 292.000
21.76871 282.000
21.78865 288.000
21.80860 261.000
21.82855 270.000
21.84850 291.000
21.86844 296.000
21.88839 272.000
21.90834 271.000
21.92828 273.000
21.94823 257.000
21.96818 268.000
21.98812 283.000
22.00807 312.000
22.02802 284.000
22.04796 317.000
22.06791 278.000
22.08786 256.000
22.10781 291.000
22.12775 266.000
22.14770 247.000
22.16765 282.000
22.18759 296.000
22.20754 282.000
22.22749 289.000
22.24743 255.000
22.26738 246.000
22.28733 262.000
22.30728 272.000
22.32722 270.000
22.34717 245.000
22.36712 288.000
22.38706 267.000
22.40701 283.000
22.42696 260.000
22.44690 274.000
22.46685 266.000
22.48680 282.000
22.50675 272.000
22.52669 292.000
22.54664 273.000
22.56659 294.000
22.58653 234.000
22.60648 269.000
22.62643 289.000
22.64637 251.000
22.66632 249.000
22.68627 279.000
22.70621 240.000
22.72616 240.000
22.74611 258.000
22.76606 271.000
22.78600 281.000
22.80595 272.000
22.82590 248.000
22.84584 268.000
22.86579 271.000
22.88574 281.000
22.90568 288.000
22.92563 283.000
22.94558 282.000
22.96553 246.000
22.98547 301.000
23.00542 298.000
23.02537 300.000
23.04531 259.000
23.06526 259.000
23.08521 293.000
23.10515 270.000
23.12510 272.000
23.14505 304.000
23.16499 297.000
23.18494 282.000
23.20489 301.000
23.22484 252.000
23.24478 280.000
23.26473 283.000
23.28468 284.000
23.30462 245.000
23.32457 294.000
23.34452 258.000
23.36446 288.000
23.38441 273.000
23.40436 254.000
23.42431 290.000
23.44425 264.000
23.46420 260.000
23.48415 272.000
23.50409 240.000
23.52404 278.000
23.54399 311.000
23.56393 246.000
23.58388 293.000
23.60383 278.000
23.62377 293.000
23.64372 266.000
23.66367 283.000
23.68362 296.000
23.70356 292.000
23.72351 260.000
23.74346 284.000
23.76340 300.000
23.78335 297.000
23.80330 275.000
23.82324 269.000
23.84319 318.000
23.86314 266.000
23.88309 271.000
23.90303 301.000
23.92298 268.000
23.94293 272.000
23.96287 289.000
23.98282 302.000
24.00277 248.000
24.02271 270.000
24.04266 257.000
24.06261 261.000
24.08256 268.000
24.10250 267.000
24.12245 270.000
24.14240 278.000
24.16234 269.000
24.18229 283.000
24.20224 302.000
24.22218 283.000
24.24213 248.000
24.26208 271.000
24.28202 234.000
24.30197 272.000
24.32192 273.000
24.34187 269.000
24.36181 266.000
24.38176 257.000
24.40171 239.000
24.42165 280.000
24.44160 255.000
24.46155 281.000
24.48149 292.000
24.50144 276.000
24.52139 274.000
24.54134 274.000
24.56128 278.000
24.58123 262.000
24.60118 263.000
24.62112 259.000
24.64107 309.000
24.66102 266.000
24.68096 293.000
24.70091 274.000
24.72086 234.000
24.74080 290.000
24.76075 249.000
24.78070 280.000
24.80065 255.000
24.82059 275.000
24.84054 290.000
24.86049 316.000
24.88043 279.000
24.90038 312.000
24.92033 326.000
24.94027 312.000
24.96022 353.000
24.98017 351.000
25.00012 333.000
25.02006 361.000
25.04001 358.000
25.05996 313.000
25.07990 294.000
25.09985 302.000
25.11980 310.000
25.13974 300.000
25.15969 296.000
25.17964 302.000
25.19958 286.000
25.21953 316.000
25.23948 266.000
25.25943 291.000
25.27937 291.000
25.29932 310.000
25.31927 277.000
25.33921 279.000
25.35916 264.000
25.37911 278.000
25.39905 262.000
25.41900 264.000
25.43895 267.000
25.45890 278.000
25.47884 288.000
25.49879 255.000
25.51874 287.000
25.53868 262.000
25.55863 277.000
25.57858 260.000
25.59852 273.000
25.61847 267.000
25.63842 318.000
25.65837 284.000
25.67831 291.000
25.69826 284.000
25.71821 281.000
25.73815 300.000
25.75810 264.000
25.77805 283.000
25.79799 276.000
25.81794 284.000
25.83789 271.000
25.85783 275.000
25.87778 265.000
25.89773 283.000
25.91768 276.000
25.93762 265.000
25.95757 290.000
25.97752 284.000
25.99746 286.000
26.01741 288.000
26.03736 270.000
26.05730 285.000
26.07725 295.000
26.09720 245.000
26.11715 281.000
26.13709 278.000
26.15704 276.000
26.17699 268.000
26.19693 294.000
26.21688 253.000
26.23683 294.000
26.25677 303.000
26.27672 268.000
26.29667 255.000
26.31661 279.000
26.33656 316.000
26.35651 299.000
26.37646 273.000
26.39640 294.000
26.41635 269.000
26.43630 273.000
26.45624 266.000
26.47619 249.000
26.49614 266.000
26.51608 294.000
26.53603 273.000
26.55598 301.000
26.57593 272.000
26.59587 286.000
26.61582 302.000
26.63577 299.000
26.65571 290.000
26.67566 278.000
26.69561 302.000
26.71555 294.000
26.73550 269.000
26.75545 287.000
26.77539 282.000
26.79534 269.000
26.81529 290.000
26.83524 274.000
26.85518 254.000
26.87513 322.000
26.89508 268.000
26.91502 262.000
26.93497 275.000
26.95492 273.000
26.97486 287.000
26.99481 291.000
27.01476 327.000
27.03471 266.000
27.05465 259.000
27.07460 279.000
27.09455 304.000
27.11449 312.000
27.13444 323.000
27.15439 321.000
27.17433 300.000
27.19428 302.000
27.21423 304.000
27.23417 304.000
27.25412 266.000
27.27407 279.000
27.29402 292.000
27.31396 255.000
27.33391 263.000
27.35386 272.000
27.37380 270.000
27.39375 295.000
27.41370 278.000
27.43364 284.000
27.45359 304.000
27.47354 272.000
27.49349 268.000
27.51343 265.000
27.53338 303.000
27.55333 270.000
27.57327 280.000
27.59322 298.000
27.61317 302.000
27.63311 297.000
27.65306 292.000
27.67301 280.000
27.69296 286.000
27.71290 303.000
27.73285 282.000
27.75280 315.000
27.77274 280.000
27.79269 279.000
27.81264 278.000
27.83258 300.000
27.85253 300.000
27.87248 264.000
27.89242 287.000
27.91237 269.000
27.93232 272.000
27.95227 253.000
27.97221 293.000
27.99216 337.000
28.01211 270.000
28.03205 271.000
28.05200 289.000
28.07195 295.000
28.09189 271.000
28.11184 271.000
28.13179 293.000
28.15174 291.000
28.17168 307.000
28.19163 308.000
28.21158 307.000
28.23152 275.000
28.25147 284.000
28.27142 306.000
28.29136 276.000
28.31131 301.000
28.33126 322.000
28.35120 273.000
28.37115 297.000
28.39110 288.000
28.41105 282.000
28.43099 283.000
28.45094 287.000
28.47089 301.000
28.49083 322.000
28.51078 291.000
28.53073 315.000
28.55067 299.000
28.57062 275.000
28.59057 274.000
28.61052 295.000
28.63046 325.000
28.65041 308.000
28.67036 291.000
28.69030 269.000
28.71025 304.000
28.73020 288.000
28.75014 304.000
28.77009 299.000
28.79004 311.000
28.80998 330.000
28.82993 282.000
28.84988 287.000
28.86983 271.000
28.88977 320.000
28.90972 290.000
28.92967 294.000
28.94961 285.000
28.96956 281.000
28.98951 289.000
29.00945 288.000
29.02940 298.000
29.04935 306.000
29.06930 267.000
29.08924 274.000
29.10919 288.000
29.12914 318.000
29.14908 288.000
29.16903 294.000
29.18898 325.000
29.20892 362.000
29.22887 350.000
29.24882 344.000
29.26877 387.000
29.28871 414.000
29.30866 496.000
29.32861 539.000
29.34855 559.000
29.36850 589.000
29.38845 526.000
29.40839 531.000
29.42834 464.000
29.44829 436.000
29.46823 464.000
29.48818 377.000
29.50813 360.000
29.52808 340.000
29.54802 374.000
29.56797 312.000
29.58792 322.000
29.60786 318.000
29.62781 305.000
29.64776 307.000
29.66770 346.000
29.68765 302.000
29.70760 299.000
29.72755 268.000
29.74749 308.000
29.76744 283.000
29.78739 326.000
29.80733 293.000
29.82728 276.000
29.84723 273.000
29.86717 315.000
29.88712 332.000
29.90707 292.000
29.92701 314.000
29.94696 291.000
29.96691 321.000
29.98686 294.000
30.00680 282.000
30.02675 316.000
30.04670 290.000
30.06664 303.000
30.08659 305.000
30.10654 342.000
30.12648 333.000
30.14643 305.000
30.16638 331.000
30.18633 300.000
30.20627 288.000
30.22622 269.000
30.24617 307.000
30.26611 305.000
30.28606 272.000
30.30601 282.000
30.32595 278.000
30.34590 339.000
30.36585 273.000
30.38579 280.000
30.40574 268.000
30.42569 306.000
30.44564 282.000
30.46558 295.000
30.48553 293.000
30.50548 296.000
30.52542 319.000
30.54537 309.000
30.56532 295.000
30.58526 291.000
30.60521 314.000
30.62516 318.000
30.64511 284.000
30.66505 275.000
30.68500 289.000
30.70495 298.000
30.72489 273.000
30.74484 277.000
30.76479 287.000
30.78473 312.000
30.80468 294.000
30.82463 289.000
30.84458 300.000
30.86452 312.000
30.88447 275.000
30.90442 298.000
30.92436 310.000
30.94431 305.000
30.96426 326.000
30.98420 299.000
31.00415 310.000
31.02410 314.000
31.04404 291.000
31.06399 319.000
31.08394 292.000
31.10389 298.000
31.12383 291.000
31.14378 263.000
31.16373 272.000
31.18367 286.000
31.20362 323.000
31.22357 295.000
31.24351 286.000
31.26346 274.000
31.28341 288.000
31.30336 285.000
31.32330 268.000
31.34325 293.000
31.36320 309.000
31.38314 274.000
31.40309 326.000
31.42304 289.000
31.44298 307.000
31.46293 293.000
31.48288 298.000
31.50282 307.000
31.52277 313.000
31.54272 313.000
31.56267 310.000
31.58261 348.000
31.60256 329.000
31.62251 353.000
31.64245 382.000
31.66240 333.000
31.68235 419.000
31.70229 475.000
31.72224 541.000
31.74219 603.000
31.76214 756.000
31.78208 894.000
31.80203 900.000
31.82198 1061.000
31.84192 1059.000
31.86187 1139.000
31.88182 1098.000
31.90176 978.000
31.92171 948.000
31.94166 859.000
31.96160 744.000
31.98155 651.000
32.00150 631.000
32.02145 500.000
32.04139 414.000
32.06134 379.000
32.08129 352.000
32.10123 345.000
32.12118 365.000
32.14113 313.000
32.16107 303.000
32.18102 318.000
32.20097 304.000
32.22092 310.000
32.24086 336.000
32.26081 293.000
32.28076 297.000
32.30070 297.000
32.32065 325.000
32.34060 314.000
32.36054 313.000
32.38049 314.000
32.40044 350.000
32.42039 343.000
32.44033 366.000
32.46028 391.000
32.48023 441.000
32.50017 445.000
32.52012 506.000
32.54007 454.000
32.56001 450.000
32.57996 429.000
32.59991 412.000
32.61985 394.000
32.63980 324.000
32.65975 334.000
32.67970 333.000
32.69964 267.000
32.71959 316.000
32.73954 288.000
32.75948 277.000
32.77943 309.000
32.79938 312.000
32.81932 276.000
32.83927 270.000
32.85922 304.000
32.87917 306.000
32.89911 271.000
32.91906 291.000
32.93901 307.000
32.95895 282.000
32.97890 286.000
32.99885 304.000
33.01879 278.000
33.03874 308.000
33.05869 270.000
33.07863 326.000
33.09858 319.000
33.11853 317.000
33.13848 302.000
33.15842 293.000
33.17837 294.000
33.19832 339.000
33.21826 297.000
33.23821 276.000
33.25816 274.000
33.27810 282.000
33.29805 298.000
33.31800 286.000
33.33795 337.000
33.35789 275.000
33.37784 304.000
33.39779 305.000
33.41773 270.000
33.43768 286.000
33.45763 305.000
33.47757 280.000
33.49752 272.000
33.51747 289.000
33.53741 362.000
33.55736 307.000
33.57731 281.000
33.59726 287.000
33.61720 283.000
33.63715 322.000
33.65710 293.000
33.67704 325.000
33.69699 288.000
33.71694 322.000
33.73688 317.000
33.75683 264.000
33.77678 319.000
33.79673 302.000
33.81667 313.000
33.83662 278.000
33.85657 287.000
33.87651 291.000
33.89646 317.000
33.91641 277.000
33.93635 299.000
33.95630 309.000
33.97625 322.000
33.99620 318.000
34.01614 307.000
34.03609 315.000
34.05604 318.000
34.07598 289.000
34.09593 321.000
34.11588 309.000
34.13582 313.000
34.15577 321.000
34.17572 314.000
34.19566 302.000
34.21561 306.000
34.23556 296.000
34.25551 265.000
34.27545 301.000
34.29540 296.000
34.31535 297.000
34.33529 324.000
34.35524 307.000
34.37519 328.000
34.39513 317.000
34.41508 305.000
34.43503 317.000
34.45498 322.000
34.47492 357.000
34.49487 340.000
34.51482 384.000
34.53476 379.000
34.55471 385.000
34.57466 415.000
34.59460 394.000
34.61455 446.000
34.63450 456.000
34.65444 444.000
34.67439 419.000
34.69434 462.000
34.71429 473.000
34.73423 501.000
34.75418 511.000
34.77413 496.000
34.79407 519.000
34.81402 535.000
34.83397 517.000
34.85391 485.000
34.87386 435.000
34.89381 459.000
34.91376 440.000
34.93370 445.000
34.95365 413.000
34.97360 390.000
34.99354 380.000
35.01349 347.000
35.03344 369.000
35.05338 334.000
35.07333 321.000
35.09328 385.000
35.11322 328.000
35.13317 382.000
35.15312 366.000
35.17307 376.000
35.19301 375.000
35.21296 413.000
35.23291 416.000
35.25285 437.000
35.27280 425.000
35.29275 424.000
35.31269 510.000
35.33264 535.000
35.35259 631.000
35.37254 724.000
35.39248 904.000
35.41243 1216.000
35.43238 1247.000
35.45232 1409.000
35.47227 1485.000
35.49222 1807.000
35.51216 2079.000
35.53211 2265.000
35.55206 2069.000
35.57201 1747.000
35.59195 1595.000
35.61190 1476.000
35.63185 1340.000
35.65179 1125.000
35.67174 945.000
35.69169 758.000
35.71163 754.000
35.73158 789.000
35.75153 834.000
35.77147 847.000
35.79142 860.000
35.81137 912.000
35.83132 967.000
35.85126 1071.000
35.87121 1079.000
35.89116 1098.000
35.91110 1033.000
35.93105 889.000
35.95100 823.000
35.97094 806.000
35.99089 695.000
36.01084 650.000
36.03079 578.000
36.05073 526.000
36.07068 462.000
36.09063 396.000
36.11057 399.000
36.13052 399.000
36.15047 355.000
36.17041 355.000
36.19036 375.000
36.21031 359.000
36.23025 346.000
36.25020 349.000
36.27015 350.000
36.29010 328.000
36.31004 397.000
36.32999 350.000
36.34994 349.000
36.36988 374.000
36.38983 350.000
36.40978 377.000
36.42972 327.000
36.44967 359.000
36.46962 382.000
36.48957 345.000
36.50951 318.000
36.52946 360.000
36.54941 374.000
36.56935 359.000
36.58930 368.000
36.60925 364.000
36.62919 352.000
36.64914 387.000
36.66909 388.000
36.68903 375.000
36.70898 384.000
36.72893 374.000
36.74888 381.000
36.76882 376.000
36.78877 413.000
36.80872 350.000
36.82866 345.000
36.84861 395.000
36.86856 382.000
36.88850 378.000
36.90845 353.000
36.92840 368.000
36.94835 333.000
36.96829 331.000
36.98824 339.000
37.00819 350.000
37.02813 343.000
37.04808 323.000
37.06803 351.000
37.08797 365.000
37.10792 367.000
37.12787 393.000
37.14781 368.000
37.16776 399.000
37.18771 382.000
37.20766 428.000
37.22760 378.000
37.24755 384.000
37.26750 358.000
37.28744 409.000
37.30739 358.000
37.32734 350.000
37.34728 336.000
37.36723 328.000
37.38718 327.000
37.40713 325.000
37.42707 330.000
37.44702 351.000
37.46697 329.000
37.48691 319.000
37.50686 287.000
37.52681 329.000
37.54675 324.000
37.56670 333.000
37.58665 332.000
37.60660 337.000
37.62654 330.000
37.64649 336.000
37.66644 314.000
37.68638 342.000
37.70633 350.000
37.72628 359.000
37.74622 301.000
37.76617 308.000
37.78612 346.000
37.80606 269.000
37.82601 315.000
37.84596 353.000
37.86591 370.000
37.88585 315.000
37.90580 322.000
37.92575 312.000
37.94569 337.000
37.96564 343.000
37.98559 335.000
38.00553 337.000
38.02548 326.000
38.04543 334.000
38.06538 340.000
38.08532 358.000
38.10527 342.000
38.12522 382.000
38.14516 354.000
38.16511 327.000
38.18506 361.000
38.20500 371.000
38.22495 377.000
38.24490 393.000
38.26484 404.000
38.28479 364.000
38.30474 401.000
38.32469 348.000
38.34463 375.000
38.36458 375.000
38.38453 394.000
38.40447 414.000
38.42442 400.000
38.44437 428.000
38.46431 471.000
38.48426 454.000
38.50421 465.000
38.52416 525.000
38.54410 553.000
38.56405 570.000
38.58400 663.000
38.60394 710.000
38.62389 779.000
38.64384 1004.000
38.66378 1204.000
38.68373 1507.000
38.70368 1761.000
38.72362 1989.000
38.74357 2151.000
38.76352 2011.000
38.78347 1683.000
38.80341 1720.000
38.82336 1729.000
38.84331 1610.000
38.86325 1556.000
38.88320 1371.000
38.90315 1299.000
38.92309 1033.000
38.94304 910.000
38.96299 835.000
38.98294 851.000
39.00288 809.000
39.02283 701.000
39.04278 637.000
39.06272 601.000
39.08267 588.000
39.10262 524.000
39.12256 536.000
39.14251 594.000
39.16246 572.000
39.18241 593.000
39.20235 592.000
39.22230 681.000
39.24225 745.000
39.26219 826.000
39.28214 866.000
39.30209 1145.000
39.32203 1193.000
39.34198 1360.000
39.36193 1484.000
39.38187 1612.000
39.40182 1675.000
39.42177 1650.000
39.44172 1606.000
39.46166 1523.000
39.48161 1467.000
39.50156 1248.000
39.52150 1095.000
39.54145 974.000
39.56140 857.000
39.58134 746.000
39.60129 708.000
39.62124 572.000
39.64119 529.000
39.66113 503.000
39.68108 455.000
39.70103 435.000
39.72097 387.000
39.74092 421.000
39.76087 392.000
39.78081 356.000
39.80076 415.000
39.82071 366.000
39.84065 351.000
39.86060 399.000
39.88055 355.000
39.90050 373.000
39.92044 339.000
39.94039 363.000
39.96034 350.000
39.98028 339.000
40.00023 332.000
40.02018 344.000
40.04012 333.000
40.06007 319.000
40.08002 313.000
40.09997 311.000
40.11991 323.000
40.13986 322.000
40.15981 319.000
40.17975 339.000
40.19970 303.000
40.21965 322.000
40.23959 311.000
40.25954 294.000
40.27949 329.000
40.29943 292.000
40.31938 287.000
40.33933 314.000
40.35928 260.000
40.37922 294.000
40.39917 299.000
40.41912 312.000
40.43906 276.000
40.45901 295.000
40.47896 284.000
40.49890 284.000
40.51885 318.000
40.53880 271.000
40.55875 317.000
40.57869 307.000
40.59864 274.000
40.61859 328.000
40.63853 310.000
40.65848 300.000
40.67843 275.000
40.69837 304.000
40.71832 300.000
40.73827 298.000
40.75822 312.000
40.77816 337.000
40.79811 318.000
40.81806 299.000
40.83800 293.000
40.85795 294.000
40.87790 298.000
40.89784 312.000
40.91779 312.000
40.93774 299.000
40.95768 303.000
40.97763 261.000
40.99758 274.000
41.01753 291.000
41.03747 294.000
41.05742 301.000
41.07737 299.000
41.09731 312.000
41.11726 297.000
41.13721 289.000
41.15715 292.000
41.17710 304.000
41.19705 289.000
41.21700 305.000
41.23694 299.000
41.25689 292.000
41.27684 275.000
41.29678 282.000
41.31673 297.000
41.33668 287.000
41.35662 277.000
41.37657 318.000
41.39652 305.000
41.41646 279.000
41.43641 296.000
41.45636 319.000
41.47631 319.000
41.49625 300.000
41.51620 312.000
41.53615 311.000
41.55609 283.000
41.57604 318.000
41.59599 301.000
41.61593 307.000
41.63588 311.000
41.65583 304.000
41.67578 301.000
41.69572 308.000
41.71567 306.000
41.73562 294.000
41.75556 319.000
41.77551 297.000
41.79546 304.000
41.81540 317.000
41.83535 324.000
41.85530 273.000
41.87524 312.000
41.89519 303.000
41.91514 295.000
41.93509 280.000
41.95503 264.000
41.97498 296.000
41.99493 343.000
42.01487 292.000
42.03482 298.000
42.05477 310.000
42.07471 265.000
42.09466 306.000
42.11461 274.000
42.13456 288.000
42.15450 287.000
42.17445 288.000
42.19440 313.000
42.21434 292.000
42.23429 322.000
42.25424 282.000
42.27418 292.000
42.29413 305.000
42.31408 318.000
42.33403 317.000
42.35397 300.000
42.37392 321.000
42.39387 305.000
42.41381 317.000
42.43376 277.000
42.45371 279.000
42.47365 311.000
42.49360 303.000
42.51355 319.000
42.53349 287.000
42.55344 295.000
42.57339 366.000
42.59334 333.000
42.61328 302.000
42.63323 299.000
42.65318 293.000
42.67312 274.000
42.69307 303.000
42.71302 336.000
42.73296 282.000
42.75291 316.000
42.77286 285.000
42.79281 299.000
42.81275 305.000
42.83270 296.000
42.85265 314.000
42.87259 309.000
42.89254 318.000
42.91249 303.000
42.93243 349.000
42.95238 329.000
42.97233 273.000
42.99227 325.000
43.01222 331.000
43.03217 319.000
43.05212 305.000
43.07206 333.000
43.09201 326.000
43.11196 346.000
43.13190 329.000
43.15185 328.000
43.17180 375.000
43.19174 339.000
43.21169 361.000
43.23164 360.000
43.25159 351.000
43.27153 399.000
43.29148 385.000
43.31143 429.000
43.33137 489.000
43.35132 432.000
43.37127 521.000
43.39121 572.000
43.41116 629.000
43.43111 743.000
43.45105 711.000
43.47100 789.000
43.49095 758.000
43.51090 748.000
43.53084 736.000
43.55079 647.000
43.57074 647.000
43.59068 639.000
43.61063 536.000
43.63058 504.000
43.65052 465.000
43.67047 448.000
43.69042 428.000
43.71037 392.000
43.73031 396.000
43.75026 375.000
43.77021 355.000
43.79015 345.000
43.81010 307.000
43.83005 320.000
43.84999 318.000
43.86994 336.000
43.88989 337.000
43.90984 336.000
43.92978 289.000
43.94973 308.000
43.96968 310.000
43.98962 293.000
44.00957 315.000
44.02952 296.000
44.04946 276.000
44.06941 310.000
44.08936 321.000
44.10930 292.000
44.12925 307.000
44.14920 324.000
44.16915 264.000
44.18909 303.000
44.20904 292.000
44.22899 313.000
44.24893 313.000
44.26888 273.000
44.28883 287.000
44.30877 295.000
44.32872 306.000
44.34867 271.000
44.36862 296.000
44.38856 297.000
44.40851 304.000
44.42846 278.000
44.44840 325.000
44.46835 326.000
44.48830 308.000
44.50824 293.000
44.52819 293.000
44.54814 299.000
44.56808 288.000
44.58803 296.000
44.60798 273.000
44.62793 306.000
44.64787 294.000
44.66782 314.000
44.68777 273.000
44.70771 284.000
44.72766 331.000
44.74761 277.000
44.76755 302.000
44.78750 288.000
44.80745 274.000
44.82740 276.000
44.84734 313.000
44.86729 291.000
44.88724 272.000
44.90718 271.000
44.92713 277.000
44.94708 302.000
44.96702 280.000
44.98697 302.000
45.00692 297.000
45.02686 326.000
45.04681 259.000
45.06676 284.000
45.08671 307.000
45.10665 292.000
45.12660 303.000
45.14655 305.000
45.16649 280.000
45.18644 311.000
45.20639 302.000
45.22633 295.000
45.24628 285.000
45.26623 292.000
45.28618 247.000
45.30612 287.000
45.32607 284.000
45.34602 293.000
45.36596 276.000
45.38591 291.000
45.40586 301.000
45.42580 321.000
45.44575 301.000
45.46570 293.000
45.48565 268.000
45.50559 300.000
45.52554 259.000
45.54549 273.000
45.56543 311.000
45.58538 310.000
45.60533 297.000
45.62527 300.000
45.64522 311.000
45.66517 329.000
45.68511 340.000
45.70506 352.000
45.72501 315.000
45.74496 279.000
45.76490 298.000
45.78485 263.000
45.80480 288.000
45.82474 297.000
45.84469 271.000
45.86464 313.000
45.88458 298.000
45.90453 295.000
45.92448 299.000
45.94443 295.000
45.96437 268.000
45.98432 277.000
46.00427 269.000
46.02421 285.000
46.04416 292.000
46.06411 299.000
46.08405 311.000
46.10400 292.000
46.12395 289.000
46.14389 281.000
46.16384 322.000
46.18379 320.000
46.20374 322.000
46.22368 334.000
46.24363 350.000
46.26358 348.000
46.28352 320.000
46.30347 319.000
46.32342 317.000
46.34336 283.000
46.36331 322.000
46.38326 312.000
46.40321 287.000
46.42315 317.000
46.44310 332.000
46.46305 291.000
46.48299 293.000
46.50294 282.000
46.52289 321.000
46.54283 285.000
46.56278 290.000
46.58273 307.000
46.60267 270.000
46.62262 287.000
46.64257 309.000
46.66252 307.000
46.68246 301.000
46.70241 320.000
46.72236 333.000
46.74230 288.000
46.76225 325.000
46.78220 265.000
46.80214 323.000
46.82209 301.000
46.84204 291.000
46.86199 295.000
46.88193 310.000
46.90188 310.000
46.92183 290.000
46.94177 267.000
46.96172 273.000
46.98167 305.000
47.00161 284.000
47.02156 268.000
47.04151 309.000
47.06146 270.000
47.08140 279.000
47.10135 295.000
47.12130 307.000
47.14124 317.000
47.16119 281.000
47.18114 282.000
47.20108 309.000
47.22103 282.000
47.24098 277.000
47.26092 268.000
47.28087 298.000
47.30082 302.000
47.32077 301.000
47.34071 322.000
47.36066 294.000
47.38061 313.000
47.40055 294.000
47.42050 291.000
47.44045 270.000
47.46039 321.000
47.48034 269.000
47.50029 285.000
47.52024 282.000
47.54018 290.000
47.56013 302.000
47.58008 322.000
47.60002 283.000
47.61997 281.000
47.63992 307.000
47.65986 305.000
47.67981 303.000
47.69976 307.000
47.71970 307.000
47.73965 308.000
47.75960 314.000
47.77955 315.000
47.79949 321.000
47.81944 335.000
47.83939 282.000
47.85933 333.000
47.87928 349.000
47.89923 314.000
47.91917 340.000
47.93912 364.000
47.95907 308.000
47.97902 400.000
47.99896 317.000
48.01891 363.000
48.03886 389.000
48.05880 382.000
48.07875 412.000
48.09870 371.000
48.11864 415.000
48.13859 375.000
48.15854 373.000
48.17848 381.000
48.19843 404.000
48.21838 417.000
48.23833 360.000
48.25827 393.000
48.27822 418.000
48.29817 421.000
48.31811 388.000
48.33806 425.000
48.35801 396.000
48.37795 396.000
48.39790 449.000
48.41785 436.000
48.43780 488.000
48.45774 528.000
48.47769 529.000
48.49764 647.000
48.51758 662.000
48.53753 743.000
48.55748 799.000
48.57742 974.000
48.59737 1129.000
48.61732 1277.000
48.63726 1489.000
48.65721 1585.000
48.67716 1771.000
48.69711 1799.000
48.71705 1805.000
48.73700 1708.000
48.75695 1710.000
48.77689 1630.000
48.79684 1578.000
48.81679 1417.000
48.83673 1309.000
48.85668 1120.000
48.87663 1103.000
48.89658 931.000
48.91652 834.000
48.93647 703.000
48.95642 670.000
48.97636 555.000
48.99631 527.000
49.01626 532.000
49.03620 467.000
49.05615 451.000
49.07610 445.000
49.09605 415.000
49.11599 415.000
49.13594 425.000
49.15589 400.000
49.17583 367.000
49.19578 373.000
49.21573 359.000
49.23567 326.000
49.25562 371.000
49.27557 397.000
49.29551 357.000
49.31546 359.000
49.33541 341.000
49.35536 310.000
49.37530 365.000
49.39525 338.000
49.41520 336.000
49.43514 345.000
49.45509 333.000
49.47504 347.000
49.49498 364.000
49.51493 373.000
49.53488 344.000
49.55483 341.000
49.57477 328.000
49.59472 335.000
49.61467 327.000
49.63461 352.000
49.65456 334.000
49.67451 322.000
49.69445 345.000
49.71440 325.000
49.73435 316.000
49.75429 304.000
49.77424 330.000
49.79419 296.000
49.81414 313.000
49.83408 332.000
49.85403 321.000
49.87398 280.000
49.89392 281.000
49.91387 296.000
49.93382 339.000
49.95376 309.000
49.97371 291.000
49.99366 310.000
50.01361 295.000
50.03355 311.000
50.05350 293.000
50.07345 322.000
50.09339 278.000
50.11334 286.000
50.13329 272.000
50.15323 293.000
50.17318 290.000
50.19313 298.000
50.21307 293.000
50.23302 310.000
50.25297 305.000
50.27292 273.000
50.29286 274.000
50.31281 300.000
50.33276 321.000
50.35270 285.000
50.37265 269.000
50.39260 337.000
50.41254 311.000
50.43249 282.000
50.45244 279.000
50.47239 293.000
50.49233 275.000
50.51228 264.000
50.53223 259.000
50.55217 307.000
50.57212 297.000
50.59207 292.000
50.61201 266.000
50.63196 308.000
50.65191 290.000
50.67186 279.000
50.69180 285.000
50.71175 292.000
50.73170 297.000
50.75164 277.000
50.77159 263.000
50.79154 321.000
50.81148 311.000
50.83143 288.000
50.85138 301.000
50.87132 311.000
50.89127 292.000
50.91122 304.000
50.93117 299.000
50.95111 299.000
50.97106 286.000
50.99101 291.000
51.01095 271.000
51.03090 282.000
51.05085 293.000
51.07079 297.000
51.09074 287.000
51.11069 258.000
51.13064 231.000
51.15058 277.000
51.17053 285.000
51.19048 273.000
51.21042 293.000
51.23037 264.000
51.25032 298.000
51.27026 289.000
51.29021 295.000
51.31016 289.000
51.33010 313.000
51.35005 338.000
51.37000 297.000
51.38995 299.000
51.40989 295.000
51.42984 314.000
51.44979 304.000
51.46973 294.000
51.48968 309.000
51.50963 336.000
51.52957 259.000
51.54952 316.000
51.56947 274.000
51.58942 274.000
51.60936 310.000
51.62931 283.000
51.64926 260.000
51.66920 301.000
51.68915 278.000
51.70910 264.000
51.72904 266.000
51.74899 262.000
51.76894 286.000
51.78888 309.000
51.80883 277.000
51.82878 267.000
51.84873 284.000
51.86867 285.000
51.88862 316.000
51.90857 299.000
51.92851 320.000
51.94846 360.000
51.96841 331.000
51.98835 318.000
52.00830 382.000
52.02825 355.000
52.04820 359.000
52.06814 358.000
52.08809 369.000
52.10804 360.000
52.12798 348.000
52.14793 325.000
52.16788 344.000
52.18782 359.000
52.20777 367.000
52.22772 348.000
52.24767 306.000
52.26761 308.000
52.28756 348.000
52.30751 308.000
52.32745 296.000
52.34740 290.000
52.36735 286.000
52.38729 290.000
52.40724 274.000
52.42719 306.000
52.44713 272.000
52.46708 295.000
52.48703 268.000
52.50698 281.000
52.52692 305.000
52.54687 288.000
52.56682 264.000
52.58676 307.000
52.60671 277.000
52.62666 270.000
52.64660 287.000
52.66655 290.000
52.68650 306.000
52.70645 306.000
52.72639 292.000
52.74634 288.000
52.76629 297.000
52.78623 292.000
52.80618 284.000
52.82613 287.000
52.84607 258.000
52.86602 272.000
52.88597 279.000
52.90591 307.000
52.92586 268.000
52.94581 290.000
52.96576 296.000
52.98570 268.000
53.00565 283.000
53.02560 266.000
53.04554 264.000
53.06549 285.000
53.08544 306.000
53.10538 261.000
53.12533 324.000
53.14528 297.000
53.16523 300.000
53.18517 293.000
53.20512 275.000
53.22507 287.000
53.24501 293.000
53.26496 283.000
53.28491 304.000
53.30485 262.000
53.32480 304.000
53.34475 321.000
53.36469 287.000
53.38464 323.000
53.40459 329.000
53.42454 340.000
53.44448 341.000
53.46443 326.000
53.48438 373.000
53.50432 398.000
53.52427 387.000
53.54422 409.000
53.56416 410.000
53.58411 363.000
53.60406 387.000
53.62401 393.000
53.64395 391.000
53.66390 356.000
53.68385 361.000
53.70379 345.000
53.72374 316.000
53.74369 369.000
53.76363 330.000
53.78358 321.000
53.80353 313.000
53.82348 280.000
53.84342 313.000
53.86337 299.000
53.88332 309.000
53.90326 307.000
53.92321 287.000
53.94316 281.000
53.96310 314.000
53.98305 288.000
54.00300 309.000
54.02294 275.000
54.04289 240.000
54.06284 284.000
54.08279 269.000
54.10273 292.000
54.12268 291.000
54.14263 287.000
54.16257 292.000
54.18252 296.000
54.20247 280.000
54.22241 287.000
54.24236 274.000
54.26231 248.000
54.28226 286.000
54.30220 242.000
54.32215 265.000
54.34210 258.000
54.36204 296.000
54.38199 269.000
54.40194 296.000
54.42188 283.000
54.44183 303.000
54.46178 317.000
54.48172 262.000
54.50167 277.000
54.52162 302.000
54.54157 282.000
54.56151 283.000
54.58146 280.000
54.60141 291.000
54.62135 276.000
54.64130 299.000
54.66125 296.000
54.68119 297.000
54.70114 257.000
54.72109 328.000
54.74104 263.000
54.76098 309.000
54.78093 322.000
54.80088 290.000
54.82082 302.000
54.84077 287.000
54.86072 281.000
54.88066 325.000
54.90061 336.000
54.92056 323.000
54.94050 286.000
54.96045 259.000
54.98040 277.000
55.00035 312.000
55.02029 306.000
55.04024 277.000
55.06019 269.000
55.08013 305.000
55.10008 313.000
55.12003 308.000
55.13997 253.000
55.15992 286.000
55.17987 256.000
55.19982 288.000
55.21976 297.000
55.23971 264.000
55.25966 279.000
55.27960 275.000
55.29955 304.000
55.31950 299.000
55.33944 314.000
55.35939 255.000
55.37934 297.000
55.39929 261.000
55.41923 270.000
55.43918 291.000
55.45913 280.000
55.47907 260.000
55.49902 267.000
55.51897 309.000
55.53891 272.000
55.55886 280.000
55.57881 288.000
55.59875 278.000
55.61870 293.000
55.63865 259.000
55.65860 282.000
55.67854 285.000
55.69849 265.000
55.71844 299.000
55.73838 288.000
55.75833 289.000
55.77828 273.000
55.79822 277.000
55.81817 264.000
55.83812 295.000
55.85807 280.000
55.87801 276.000
55.89796 284.000
55.91791 277.000
55.93785 268.000
55.95780 277.000
55.97775 280.000
55.99769 289.000
56.01764 267.000
56.03759 278.000
56.05753 284.000
56.07748 282.000
56.09743 308.000
56.11738 285.000
56.13732 271.000
56.15727 285.000
56.17722 268.000
56.19716 281.000
56.21711 272.000
56.23706 278.000
56.25700 293.000
56.27695 266.000
56.29690 262.000
56.31685 285.000
56.33679 252.000
56.35674 302.000
56.37669 282.000
56.39663 297.000
56.41658 296.000
56.43653 274.000
56.45647 275.000
56.47642 290.000
56.49637 282.000
56.51631 296.000
56.53626 279.000
56.55621 252.000
56.57616 284.000
56.59610 297.000
56.61605 283.000
56.63600 302.000
56.65594 294.000
56.67589 296.000
56.69584 302.000
56.71578 289.000
56.73573 278.000
56.75568 296.000
56.77563 328.000
56.79557 278.000
56.81552 279.000
56.83547 274.000
56.85541 298.000
56.87536 305.000
56.89531 318.000
56.91525 295.000
56.93520 290.000
56.95515 278.000
56.97510 301.000
56.99504 308.000
57.01499 287.000
57.03494 284.000
57.05488 279.000
57.07483 275.000
57.09478 279.000
57.11472 282.000
57.13467 289.000
57.15462 278.000
57.17456 292.000
57.19451 265.000
57.21446 298.000
57.23441 296.000
57.25435 259.000
57.27430 290.000
57.29425 271.000
57.31419 280.000
57.33414 266.000
57.35409 302.000
57.37403 288.000
57.39398 265.000
57.41393 299.000
57.43388 278.000
57.45382 285.000
57.47377 269.000
57.49372 298.000
57.51366 286.000
57.53361 311.000
57.55356 316.000
57.57350 273.000
57.59345 279.000
57.61340 288.000
57.63334 268.000
57.65329 299.000
57.67324 291.000
57.69319 281.000
57.71313 270.000
57.73308 281.000
57.75303 305.000
57.77297 295.000
57.79292 325.000
57.81287 284.000
57.83281 284.000
57.85276 292.000
57.87271 302.000
57.89266 278.000
57.91260 294.000
57.93255 306.000
57.95250 305.000
57.97244 297.000
57.99239 299.000
58.01234 314.000
58.03228 278.000
58.05223 312.000
58.07218 298.000
58.09212 327.000
58.11207 315.000
58.13202 320.000
58.15197 350.000
58.17191 310.000
58.19186 326.000
58.21181 397.000
58.23175 413.000
58.25170 431.000
58.27165 438.000
58.29159 453.000
58.31154 458.000
58.33149 443.000
58.35144 411.000
58.37138 435.000
58.39133 457.000
58.41128 411.000
58.43122 427.000
58.45117 390.000
58.47112 418.000
58.49106 411.000
58.51101 378.000
58.53096 318.000
58.55090 317.000
58.57085 331.000
58.59080 352.000
58.61075 318.000
58.63069 302.000
58.65064 303.000
58.67059 267.000
58.69053 266.000
58.71048 317.000
58.73043 293.000
58.75037 284.000
58.77032 291.000
58.79027 295.000
58.81022 275.000
58.83016 298.000
58.85011 286.000
58.87006 304.000
58.89000 302.000
58.90995 289.000
58.92990 292.000
58.94984 284.000
58.96979 269.000
58.98974 287.000
59.00969 266.000
59.02963 291.000
59.04958 286.000
59.06953 292.000
59.08947 325.000
59.10942 297.000
59.12937 304.000
59.14931 296.000
59.16926 297.000
59.18921 311.000
59.20915 320.000
59.22910 290.000
59.24905 294.000
59.26900 282.000
59.28894 236.000
59.30889 286.000
59.32884 293.000
59.34878 324.000
59.36873 316.000
59.38868 285.000
59.40862 301.000
59.42857 292.000
59.44852 304.000
59.46847 290.000
59.48841 272.000
59.50836 285.000
59.52831 285.000
59.54825 312.000
59.56820 276.000
59.58815 290.000
59.60809 281.000
59.62804 279.000
59.64799 280.000
59.66793 264.000
59.68788 269.000
59.70783 318.000
59.72778 308.000
59.74772 290.000
59.76767 314.000
59.78762 315.000
59.80756 289.000
59.82751 273.000
59.84746 288.000
59.86740 299.000
59.88735 308.000
59.90730 263.000
59.92725 273.000
59.94719 298.000
59.96714 293.000
59.98709 298.000
60.00703 286.000
60.02698 291.000
60.04693 266.000
60.06687 324.000
60.08682 282.000
60.10677 328.000
60.12671 325.000
60.14666 283.000
60.16661 320.000
60.18656 266.000
60.20650 316.000
60.22645 320.000
60.24640 278.000
60.26634 288.000
60.28629 297.000
60.30624 274.000
60.32618 295.000
60.34613 315.000
60.36608 323.000
60.38603 285.000
60.40597 291.000
60.42592 276.000
60.44587 296.000
60.46581 289.000
60.48576 284.000
60.50571 311.000
60.52565 280.000
60.54560 268.000
60.56555 333.000
60.58550 280.000
60.60544 315.000
60.62539 304.000
60.64534 300.000
60.66528 273.000
60.68523 305.000
60.70518 273.000
60.72512 294.000
60.74507 316.000
60.76502 298.000
60.78496 272.000
60.80491 310.000
60.82486 315.000
60.84481 288.000
60.86475 281.000
60.88470 286.000
60.90465 305.000
60.92459 284.000
60.94454 277.000
60.96449 305.000
60.98443 283.000
61.00438 292.000
61.02433 319.000
61.04428 299.000
61.06422 294.000
61.08417 309.000
61.10412 306.000
61.12406 315.000
61.14401 356.000
61.16396 316.000
61.18390 309.000
61.20385 318.000
61.22380 348.000
61.24374 322.000
61.26369 346.000
61.28364 346.000
61.30359 364.000
61.32353 356.000
61.34348 357.000
61.36343 385.000
61.38337 433.000
61.40332 425.000
61.42327 419.000
61.44321 498.000
61.46316 544.000
61.48311 602.000
61.50306 643.000
61.52300 621.000
61.54295 631.000
61.56290 622.000
61.58284 548.000
61.60279 577.000
61.62274 553.000
61.64268 586.000
61.66263 620.000
61.68258 596.000
61.70252 656.000
61.72247 669.000
61.74242 649.000
61.76237 685.000
61.78231 738.000
61.80226 706.000
61.82221 769.000
61.84215 707.000
61.86210 729.000
61.88205 756.000
61.90199 736.000
61.92194 740.000
61.94189 656.000
61.96184 723.000
61.98178 655.000
62.00173 637.000
62.02168 635.000
62.04162 610.000
62.06157 593.000
62.08152 523.000
62.10146 511.000
62.12141 481.000
62.14136 467.000
62.16131 437.000
62.18125 423.000
62.20120 415.000
62.22115 394.000
62.24109 381.000
62.26104 365.000
62.28099 370.000
62.30093 386.000
62.32088 393.000
62.34083 345.000
62.36077 338.000
62.38072 356.000
62.40067 324.000
62.42062 346.000
62.44056 320.000
62.46051 311.000
62.48046 315.000
62.50040 342.000
62.52035 358.000
62.54030 348.000
62.56024 310.000
62.58019 355.000
62.60014 332.000
62.62009 311.000
62.64003 297.000
62.65998 315.000
62.67993 310.000
62.69987 318.000
62.71982 280.000
62.73977 291.000
62.75971 276.000
62.77966 291.000
62.79961 306.000
62.81955 338.000
62.83950 275.000
62.85945 288.000
62.87940 309.000
62.89934 312.000
62.91929 297.000
62.93924 321.000
62.95918 313.000
62.97913 311.000
62.99908 301.000
63.01902 304.000
63.03897 314.000
63.05892 327.000
63.07887 291.000
63.09881 309.000
63.11876 327.000
63.13871 286.000
63.15865 307.000
63.17860 294.000
63.19855 300.000
63.21849 321.000
63.23844 302.000
63.25839 294.000
63.27833 297.000
63.29828 301.000
63.31823 275.000
63.33818 280.000
63.35812 290.000
63.37807 323.000
63.39802 284.000
63.41796 315.000
63.43791 283.000
63.45786 324.000
63.47780 321.000
63.49775 310.000
63.51770 300.000
63.53765 323.000
63.55759 289.000
63.57754 315.000
63.59749 292.000
63.61743 253.000
63.63738 314.000
63.65733 307.000
63.67727 292.000
63.69722 330.000
63.71717 299.000
63.73712 331.000
63.75706 309.000
63.77701 282.000
63.79696 304.000
63.81690 299.000
63.83685 336.000
63.85680 321.000
63.87674 279.000
63.89669 338.000
63.91664 285.000
63.93658 299.000
63.95653 284.000
63.97648 295.000
63.99643 336.000
64.01637 310.000
64.03632 330.000
64.05627 344.000
64.07621 339.000
64.09616 348.000
64.11611 341.000
64.13605 317.000
64.15600 367.000
64.17595 383.000
64.19590 367.000
64.21584 369.000
64.23579 413.000
64.25574 389.000
64.27568 411.000
64.29563 426.000
64.31558 410.000
64.33552 440.000
64.35547 463.000
64.37542 498.000
64.39536 507.000
64.41531 537.000
64.43526 528.000
64.45521 589.000
64.47515 605.000
64.49510 606.000
64.51505 577.000
64.53499 575.000
64.55494 567.000
64.57489 582.000
64.59483 538.000
64.61478 503.000
64.63473 498.000
64.65468 478.000
64.67462 491.000
64.69457 476.000
64.71452 485.000
64.73446 435.000
64.75441 422.000
64.77436 406.000
64.79430 384.000
64.81425 372.000
64.83420 301.000
64.85414 353.000
64.87409 345.000
64.89404 346.000
64.91399 306.000
64.93393 347.000
64.95388 331.000
64.97383 368.000
64.99377 368.000
65.01372 327.000
65.03367 320.000
65.05361 343.000
65.07356 352.000
65.09351 357.000
65.11346 317.000
65.13340 330.000
65.15335 334.000
65.17330 347.000
65.19324 332.000
65.21319 289.000
65.23314 331.000
65.25308 331.000
65.27303 315.000
65.29298 311.000
65.31293 324.000
65.33287 295.000
65.35282 323.000
65.37277 337.000
65.39271 339.000
65.41266 343.000
65.43261 327.000
65.45255 350.000
65.47250 347.000
65.49245 320.000
65.51239 358.000
65.53234 343.000
65.55229 372.000
65.57224 350.000
65.59218 371.000
65.61213 377.000
65.63208 371.000
65.65202 387.000
65.67197 398.000
65.69192 400.000
65.71186 430.000
65.73181 391.000
65.75176 452.000
65.77171 465.000
65.79165 468.000
65.81160 482.000
65.83155 521.000
65.85149 424.000
65.87144 520.000
65.89139 451.000
65.91133 488.000
65.93128 451.000
65.95123 449.000
65.97117 453.000
65.99112 482.000
66.01107 474.000
66.03102 453.000
66.05096 455.000
66.07091 466.000
66.09086 456.000
66.11080 468.000
66.13075 542.000
66.15070 534.000
66.17064 635.000
66.19059 570.000
66.21054 548.000
66.23049 501.000
66.25043 530.000
66.27038 451.000
66.29033 433.000
66.31027 490.000
66.33022 519.000
66.35017 486.000
66.37011 490.000
66.39006 497.000
66.41001 464.000
66.42995 437.000
66.44990 459.000
66.46985 432.000
66.48980 451.000
66.50974 464.000
66.52969 446.000
66.54964 427.000
66.56958 441.000
66.58953 464.000
66.60948 445.000
66.62942 459.000
66.64937 449.000
66.66932 449.000
66.68927 491.000
66.70921 529.000
66.72916 493.000
66.74911 491.000
66.76905 540.000
66.78900 522.000
66.80895 583.000
66.82889 579.000
66.84884 479.000
66.86879 563.000
66.88874 509.000
66.90868 518.000
66.92863 470.000
66.94858 508.000
66.96852 486.000
66.98847 453.000
67.00842 456.000
67.02836 459.000
67.04831 403.000
67.06826 435.000
67.08820 402.000
67.10815 390.000
67.12810 394.000
67.14805 334.000
67.16799 364.000
67.18794 369.000
67.20789 367.000
67.22783 339.000
67.24778 338.000
67.26773 348.000
67.28767 326.000
67.30762 341.000
67.32757 321.000
67.34752 314.000
67.36746 373.000
67.38741 351.000
67.40736 337.000
67.42730 283.000
67.44725 319.000
67.46720 296.000
67.48714 333.000
67.50709 291.000
67.52704 327.000
67.54698 309.000
67.56693 304.000
67.58688 322.000
67.60683 338.000
67.62677 302.000
67.64672 308.000
67.66667 350.000
67.68661 338.000
67.70656 325.000
67.72651 332.000
67.74645 320.000
67.76640 319.000
67.78635 330.000
67.80630 347.000
67.82624 386.000
67.84619 367.000
67.86614 374.000
67.88608 440.000
67.90603 410.000
67.92598 416.000
67.94592 404.000
67.96587 452.000
67.98582 430.000
68.00576 421.000
68.02571 421.000
68.04566 445.000
68.06561 489.000
68.08555 480.000
68.10550 484.000
68.12545 539.000
68.14539 513.000
68.16534 521.000
68.18529 463.000
68.20523 429.000
68.22518 404.000
68.24513 428.000
68.26508 388.000
68.28502 443.000
68.30497 412.000
68.32492 358.000
68.34486 395.000
68.36481 388.000
68.38476 392.000
68.40470 337.000
68.42465 343.000
68.44460 319.000
68.46455 323.000
68.48449 328.000
68.50444 322.000
68.52439 330.000
68.54433 301.000
68.56428 314.000
68.58423 296.000
68.60417 276.000
68.62412 307.000
68.64407 304.000
68.66401 273.000
68.68396 307.000
68.70391 290.000
68.72386 269.000
68.74380 276.000
68.76375 303.000
68.78370 301.000
68.80364 285.000
68.82359 300.000
68.84354 308.000
68.86348 298.000
68.88343 285.000
68.90338 292.000
68.92333 279.000
68.94327 323.000
68.96322 265.000
68.98317 299.000
69.00311 309.000
69.02306 272.000
69.04301 279.000
69.06295 307.000
69.08290 264.000
69.10285 309.000
69.12279 278.000
69.14274 268.000
69.16269 294.000
69.18264 293.000
69.20258 286.000
69.22253 302.000
69.24248 289.000
69.26242 290.000
69.28237 308.000
69.30232 290.000
69.32226 275.000
69.34221 271.000
69.36216 269.000
69.38211 267.000
69.40205 261.000
69.42200 306.000
69.44195 298.000
69.46189 268.000
69.48184 296.000
69.50179 318.000
69.52173 259.000
69.54168 287.000
69.56163 288.000
69.58157 298.000
69.60152 263.000
69.62147 303.000
69.64142 289.000
69.66136 297.000
69.68131 311.000
69.70126 293.000
69.72120 320.000
69.74115 288.000
69.76110 290.000
69.78104 318.000
69.80099 278.000
69.82094 305.000
69.84089 291.000
69.86083 279.000
69.88078 268.000
69.90073 294.000
69.92067 287.000
69.94062 275.000
69.96057 290.000
69.98051 295.000
70.00046 280.000
70.02041 314.000
70.04035 298.000
70.06030 267.000
70.08025 300.000
70.10020 278.000
70.12014 279.000
70.14009 298.000
70.16004 287.000
70.17998 307.000
70.19993 271.000
70.21988 273.000
70.23982 275.000
70.25977 283.000
70.27972 261.000
70.29967 265.000
70.31961 268.000
70.33956 276.000
70.35951 269.000
70.37945 262.000
70.39940 288.000
70.41935 302.000
70.43929 263.000
70.45924 294.000
70.47919 301.000
70.49914 288.000
70.51908 254.000
70.53903 282.000
70.55898 313.000
70.57892 273.000
70.59887 279.000
70.61882 303.000
70.63876 288.000
70.65871 292.000
70.67866 275.000
70.69860 266.000
70.71855 304.000
70.73850 281.000
70.75845 297.000
70.77839 264.000
70.79834 287.000
70.81829 282.000
70.83823 261.000
70.85818 291.000
70.87813 350.000
70.89807 294.000
70.91802 277.000
70.93797 283.000
70.95792 285.000
70.97786 291.000
70.99781 295.000
71.01776 272.000
71.03770 262.000
71.05765 300.000
71.07760 258.000
71.09754 266.000
71.11749 256.000
71.13744 300.000
71.15738 295.000
71.17733 296.000
71.19728 280.000
71.21723 267.000
71.23717 277.000
71.25712 308.000
71.27707 289.000
71.29701 276.000
71.31696 289.000
71.33691 284.000
71.35685 247.000
71.37680 308.000
71.39675 262.000
71.41670 298.000
71.43664 264.000
71.45659 274.000
71.47654 284.000
71.49648 297.000
71.51643 273.000
71.53638 277.000
71.55632 283.000
71.57627 273.000
71.59622 281.000
71.61616 306.000
71.63611 296.000
71.65606 275.000
71.67601 276.000
71.69595 297.000
71.71590 304.000
71.73585 334.000
71.75579 294.000
71.77574 293.000
71.79569 298.000
71.81563 322.000
71.83558 290.000
71.85553 279.000
71.87548 272.000
71.89542 284.000
71.91537 286.000
71.93532 279.000
71.95526 321.000
71.97521 289.000
71.99516 261.000
72.01510 273.000
72.03505 278.000
72.05500 260.000
72.07495 287.000
72.09489 307.000
72.11484 291.000
72.13479 309.000
72.15473 272.000
72.17468 302.000
72.19463 319.000
72.21457 288.000
72.23452 323.000
72.25447 289.000
72.27441 351.000
72.29436 298.000
72.31431 339.000
72.33426 331.000
72.35420 355.000
72.37415 352.000
72.39410 412.000
72.41404 355.000
72.43399 365.000
72.45394 353.000
72.47388 326.000
72.49383 356.000
72.51378 339.000
72.53373 345.000
72.55367 344.000
72.57362 330.000
72.59357 348.000
72.61351 365.000
72.63346 333.000
72.65341 302.000
72.67335 328.000
72.69330 320.000
72.71325 312.000
72.73319 286.000
72.75314 300.000
72.77309 296.000
72.79304 292.000
72.81298 307.000
72.83293 293.000
72.85288 290.000
72.87282 286.000
72.89277 294.000
72.91272 314.000
72.93266 293.000
72.95261 299.000
72.97256 271.000
72.99251 292.000
73.01245 322.000
73.03240 312.000
73.05235 290.000
73.07229 281.000
73.09224 283.000
73.11219 273.000
73.13213 285.000
73.15208 291.000
73.17203 304.000
73.19197 274.000
73.21192 291.000
73.23187 286.000
73.25182 308.000
73.27176 286.000
73.29171 309.000
73.31166 294.000
73.33160 285.000
73.35155 291.000
73.37150 290.000
73.39144 325.000
73.41139 290.000
73.43134 310.000
73.45129 319.000
73.47123 327.000
73.49118 315.000
73.51113 303.000
73.53107 319.000
73.55102 291.000
73.57097 329.000
73.59091 343.000
73.61086 322.000
73.63081 361.000
73.65076 324.000
73.67070 380.000
73.69065 356.000
73.71060 368.000
73.73054 376.000
73.75049 389.000
73.77044 352.000
73.79038 368.000
73.81033 391.000
73.83028 342.000
73.85022 348.000
73.87017 328.000
73.89012 347.000
73.91007 359.000
73.93001 346.000
73.94996 349.000
73.96991 317.000
73.98985 323.000
74.00980 346.000
74.02975 337.000
74.04969 283.000
74.06964 300.000
74.08959 315.000
74.10954 258.000
74.12948 317.000
74.14943 281.000
74.16938 267.000
74.18932 301.000
74.20927 282.000
74.22922 305.000
74.24916 308.000
74.26911 300.000
74.28906 301.000
74.30900 310.000
74.32895 293.000
74.34890 276.000
74.36885 262.000
74.38879 311.000
74.40874 297.000
74.42869 268.000
74.44863 281.000
74.46858 307.000
74.48853 255.000
74.50847 292.000
74.52842 294.000
74.54837 281.000
74.56832 307.000
74.58826 291.000
74.60821 314.000
74.62816 306.000
74.64810 307.000
74.66805 281.000
74.68800 286.000
74.70794 299.000
74.72789 295.000
74.74784 274.000
74.76778 319.000
74.78773 299.000
74.80768 313.000
74.82763 295.000
74.84757 301.000
74.86752 315.000
74.88747 314.000
74.90741 320.000
74.92736 339.000
74.94731 333.000
74.96725 354.000
74.98720 406.000
75.00715 348.000
75.02710 367.000
75.04704 346.000
75.06699 351.000
75.08694 378.000
75.10688 331.000
75.12683 317.000
75.14678 352.000
75.16672 365.000
75.18667 359.000
75.20662 363.000
75.22657 340.000
75.24651 389.000
75.26646 393.000
75.28641 387.000
75.30635 340.000
75.32630 346.000
75.34625 367.000
75.36619 334.000
75.38614 328.000
75.40609 315.000
75.42603 304.000
75.44598 338.000
75.46593 344.000
75.48588 345.000
75.50582 335.000
75.52577 318.000
75.54572 308.000
75.56566 328.000
75.58561 298.000
75.60556 316.000
75.62550 300.000
75.64545 305.000
75.66540 280.000
75.68535 278.000
75.70529 287.000
75.72524 315.000
75.74519 282.000
75.76513 289.000
75.78508 303.000
75.80503 312.000
75.82497 305.000
75.84492 265.000
75.86487 310.000
75.88481 286.000
75.90476 295.000
75.92471 309.000
75.94466 322.000
75.96460 327.000
75.98455 307.000
76.00450 358.000
76.02444 287.000
76.04439 312.000
76.06434 360.000
76.08428 272.000
76.10423 297.000
76.12418 325.000
76.14413 290.000
76.16407 291.000
76.18402 333.000
76.20397 289.000
76.22391 319.000
76.24386 290.000
76.26381 313.000
76.28375 297.000
76.30370 299.000
76.32365 301.000
76.34359 300.000
76.36354 311.000
76.38349 290.000
76.40344 272.000
76.42338 301.000
76.44333 266.000
76.46328 315.000
76.48322 309.000
76.50317 292.000
76.52312 299.000
76.54306 310.000
76.56301 280.000
76.58296 309.000
76.60291 279.000
76.62285 290.000
76.64280 271.000
76.66275 308.000
76.68269 312.000
76.70264 281.000
76.72259 300.000
76.74253 287.000
76.76248 268.000
76.78243 277.000
76.80238 262.000
76.82232 272.000
76.84227 313.000
76.86222 279.000
76.88216 275.000
76.90211 272.000
76.92206 297.000
76.94200 280.000
76.96195 277.000
76.98190 297.000
77.00184 294.000
77.02179 299.000
77.04174 311.000
77.06169 295.000
77.08163 263.000
77.10158 279.000
77.12153 269.000
77.14147 307.000
77.16142 272.000
77.18137 327.000
77.20131 271.000
77.22126 293.000
77.24121 272.000
77.26116 293.000
77.28110 283.000
77.30105 337.000
77.32100 312.000
77.34094 316.000
77.36089 320.000
77.38084 299.000
77.40078 310.000
77.42073 287.000
77.44068 280.000
77.46062 282.000
77.48057 316.000
77.50052 294.000
77.52047 294.000
77.54041 342.000
77.56036 321.000
77.58031 291.000
77.60025 294.000
77.62020 311.000
77.64015 295.000
77.66009 307.000
77.68004 341.000
77.69999 334.000
77.71994 328.000
77.73988 320.000
77.75983 329.000
77.77978 359.000
77.79972 348.000
77.81967 328.000
77.83962 353.000
77.85956 347.000
77.87951 385.000
77.89946 401.000
77.91940 425.000
77.93935 382.000
77.95930 392.000
77.97925 405.000
77.99919 413.000
78.01914 383.000
78.03909 372.000
78.05903 439.000
78.07898 367.000
78.09893 389.000
78.11887 394.000
78.13882 404.000
78.15877 416.000
78.17872 424.000
78.19866 421.000
78.21861 441.000
78.23856 410.000
78.25850 380.000
78.27845 385.000
78.29840 368.000
78.31834 400.000
78.33829 427.000
78.35824 414.000
78.37819 402.000
78.39813 401.000
78.41808 370.000
78.43803 352.000
78.45797 386.000
78.47792 357.000
78.49787 373.000
78.51781 333.000
78.53776 309.000
78.55771 348.000
78.57765 324.000
78.59760 300.000
78.61755 293.000
78.63750 318.000
78.65744 309.000
78.67739 330.000
78.69734 318.000
78.71728 319.000
78.73723 324.000
78.75718 288.000
78.77712 300.000
78.79707 295.000
78.81702 310.000
78.83697 294.000
78.85691 287.000
78.87686 296.000
78.89681 288.000
78.91675 272.000
78.93670 257.000
78.95665 302.000
78.97659 304.000
78.99654 287.000
79.01649 291.000
79.03643 310.000
79.05638 289.000
79.07633 295.000
79.09628 269.000
79.11622 300.000
79.13617 258.000
79.15612 270.000
79.17606 293.000
79.19601 271.000
79.21596 278.000
79.23590 294.000
79.25585 309.000
79.27580 288.000
79.29575 282.000
79.31569 275.000
79.33564 292.000
79.35559 293.000
79.37553 286.000
79.39548 303.000
79.41543 276.000
79.43537 283.000
79.45532 300.000
79.47527 283.000
79.49521 268.000
79.51516 285.000
79.53511 278.000
79.55506 277.000
79.57500 288.000
79.59495 297.000
79.61490 261.000
79.63484 271.000
79.65479 294.000
79.67474 279.000
79.69468 293.000
79.71463 271.000
79.73458 341.000
79.75453 291.000
79.77447 298.000
79.79442 283.000
79.81437 279.000
79.83431 301.000
79.85426 268.000
79.87421 332.000
79.89415 283.000
79.91410 277.000
79.93405 254.000
79.95399 297.000
79.97394 320.000
79.99389 280.000
80.01384 296.000
80.03378 300.000
80.05373 292.000
80.07368 339.000
80.09362 322.000
80.11357 309.000
80.13352 330.000
80.15346 309.000
80.17341 288.000
80.19336 314.000
80.21331 289.000
80.23325 260.000
80.25320 300.000
80.27315 282.000
80.29309 326.000
80.31304 297.000
80.33299 323.000
80.35293 299.000
80.37288 318.000
80.39283 305.000
80.41278 283.000
80.43272 282.000
80.45267 312.000
80.47262 281.000
80.49256 314.000
80.51251 307.000
80.53246 291.000
80.55240 284.000
80.57235 320.000
80.59230 312.000
80.61224 280.000
80.63219 333.000
80.65214 265.000
80.67209 308.000
80.69203 271.000
80.71198 285.000
80.73193 247.000
80.75187 294.000
80.77182 287.000
80.79177 274.000
80.81171 247.000
80.83166 303.000
80.85161 296.000
80.87156 301.000
80.89150 285.000
80.91145 299.000
80.93140 290.000
80.95134 304.000
80.97129 276.000
80.99124 277.000
81.01118 257.000
81.03113 271.000
81.05108 300.000
81.07102 255.000
81.09097 310.000
81.11092 318.000
81.13087 273.000
81.15081 274.000
81.17076 299.000
81.19071 297.000
81.21065 285.000
81.23060 275.000
81.25055 304.000
81.27049 313.000
81.29044 285.000
81.31039 302.000
81.33034 273.000
81.35028 285.000
81.37023 304.000
81.39018 278.000
81.41012 292.000
81.43007 289.000
81.45002 280.000
81.46996 283.000
81.48991 277.000
81.50986 263.000
81.52980 260.000
81.54975 292.000
81.56970 257.000
81.58965 271.000
81.60959 286.000
81.62954 282.000
81.64949 284.000
81.66943 285.000
81.68938 293.000
81.70933 283.000
81.72927 279.000
81.74922 297.000
81.76917 274.000
81.78912 270.000
81.80906 279.000
81.82901 271.000
81.84896 296.000
81.86890 302.000
81.88885 272.000
81.90880 273.000
81.92874 275.000
81.94869 296.000
81.96864 318.000
81.98859 264.000
82.00853 311.000
82.02848 281.000
82.04843 280.000
82.06837 294.000
82.08832 279.000
82.10827 318.000
82.12821 307.000
82.14816 281.000
82.16811 341.000
82.18805 328.000
82.20800 302.000
82.22795 327.000
82.24790 320.000
82.26784 324.000
82.28779 355.000
82.30774 314.000
82.32768 331.000
82.34763 321.000
82.36758 326.000
82.38752 307.000
82.40747 309.000
82.42742 329.000
82.44737 313.000
82.46731 310.000
82.48726 330.000
82.50721 322.000
82.52715 345.000
82.54710 324.000
82.56705 320.000
82.58699 315.000
82.60694 340.000
82.62689 286.000
82.64683 315.000
82.66678 317.000
82.68673 296.000
82.70668 300.000
82.72662 323.000
82.74657 303.000
82.76652 298.000
82.78646 301.000
82.80641 311.000
82.82636 264.000
82.84630 299.000
82.86625 273.000
82.88620 316.000
82.90615 287.000
82.92609 313.000
82.94604 278.000
82.96599 279.000
82.98593 302.000
83.00588 301.000
83.02583 308.000
83.04577 328.000
83.06572 299.000
83.08567 299.000
83.10561 339.000
83.12556 348.000
83.14551 293.000
83.16546 298.000
83.18540 320.000
83.20535 318.000
83.22530 326.000
83.24524 289.000
83.26519 323.000
83.28514 362.000
83.30508 340.000
83.32503 333.000
83.34498 321.000
83.36493 289.000
83.38487 342.000
83.40482 317.000
83.42477 300.000
83.44471 318.000
83.46466 325.000
83.48461 331.000
83.50455 364.000
83.52450 353.000
83.54445 317.000
83.56440 346.000
83.58434 357.000
83.60429 325.000
83.62424 344.000
83.64418 335.000
83.66413 335.000
83.68408 319.000
83.70402 314.000
83.72397 336.000
83.74392 329.000
83.76386 327.000
83.78381 328.000
83.80376 291.000
83.82371 308.000
83.84365 291.000
83.86360 301.000
83.88355 299.000
83.90349 293.000
83.92344 285.000
83.94339 305.000
83.96333 308.000
83.98328 309.000
84.00323 267.000
84.02318 333.000
84.04312 328.000
84.06307 296.000
84.08302 315.000
84.10296 299.000
84.12291 302.000
84.14286 274.000
84.16280 285.000
84.18275 329.000
84.20270 301.000
84.22264 302.000
84.24259 287.000
84.26254 290.000
84.28249 306.000
84.30243 314.000
84.32238 296.000
84.34233 314.000
84.36227 289.000
84.38222 297.000
84.40217 291.000
84.42211 330.000
84.44206 288.000
84.46201 308.000
84.48196 306.000
84.50190 299.000
84.52185 289.000
84.54180 332.000
84.56174 320.000
84.58169 323.000
84.60164 338.000
84.62158 305.000
84.64153 340.000
84.66148 331.000
84.68142 334.000
84.70137 360.000
84.72132 347.000
84.74127 378.000
84.76121 359.000
84.78116 369.000
84.80111 364.000
84.82105 396.000
84.84100 370.000
84.86095 397.000
84.88089 342.000
84.90084 388.000
84.92079 377.000
84.94074 372.000
84.96068 338.000
84.98063 375.000
85.00058 341.000
85.02052 366.000
85.04047 317.000
85.06042 336.000
85.08036 349.000
85.10031 306.000
85.12026 316.000
85.14021 323.000
85.16015 324.000
85.18010 338.000
85.20005 329.000
85.21999 326.000
85.23994 320.000
85.25989 301.000
85.27983 304.000
85.29978 278.000
85.31973 317.000
85.33967 326.000
85.35962 280.000
85.37957 296.000
85.39952 285.000
85.41946 267.000
85.43941 285.000
85.45936 288.000
85.47930 268.000
85.49925 292.000
85.51920 274.000
85.53914 303.000
85.55909 277.000
85.57904 324.000
85.59899 269.000
85.61893 311.000
85.63888 312.000
85.65883 297.000
85.67877 252.000
85.69872 309.000
85.71867 343.000
85.73861 284.000
85.75856 292.000
85.77851 263.000
85.79845 308.000
85.81840 284.000
85.83835 286.000
85.85830 280.000
85.87824 292.000
85.89819 295.000
85.91814 278.000
85.93808 303.000
85.95803 267.000
85.97798 286.000
85.99792 263.000
86.01787 298.000
86.03782 286.000
86.05777 260.000
86.07771 308.000
86.09766 267.000
86.11761 277.000
86.13755 290.000
86.15750 282.000
86.17745 261.000
86.19739 290.000
86.21734 280.000
86.23729 290.000
86.25723 281.000
86.27718 287.000
86.29713 271.000
86.31708 303.000
86.33702 280.000
86.35697 304.000
86.37692 279.000
86.39686 293.000
86.41681 288.000
86.43676 296.000
86.45670 331.000
86.47665 289.000
86.49660 293.000
86.51655 332.000
86.53649 295.000
86.55644 301.000
86.57639 280.000
86.59633 276.000
86.61628 319.000
86.63623 311.000
86.65617 286.000
86.67612 311.000
86.69607 318.000
86.71602 332.000
86.73596 280.000
86.75591 312.000
86.77586 275.000
86.79580 298.000
86.81575 332.000
86.83570 310.000
86.85564 317.000
86.87559 298.000
86.89554 320.000
86.91548 282.000
86.93543 316.000
86.95538 281.000
86.97533 333.000
86.99527 318.000
87.01522 293.000
87.03517 301.000
87.05511 312.000
87.07506 302.000
87.09501 315.000
87.11495 312.000
87.13490 295.000
87.15485 323.000
87.17480 350.000
87.19474 275.000
87.21469 318.000
87.23464 313.000
87.25458 302.000
87.27453 313.000
87.29448 332.000
87.31442 327.000
87.33437 286.000
87.35432 327.000
87.37426 288.000
87.39421 306.000
87.41416 295.000
87.43411 300.000
87.45405 307.000
87.47400 299.000
87.49395 290.000
87.51389 287.000
87.53384 276.000
87.55379 310.000
87.57373 295.000
87.59368 317.000
87.61363 297.000
87.63358 301.000
87.65352 279.000
87.67347 281.000
87.69342 289.000
87.71336 260.000
87.73331 274.000
87.75326 263.000
87.77320 274.000
87.79315 301.000
87.81310 271.000
87.83304 299.000
87.85299 274.000
87.87294 285.000
87.89289 295.000
87.91283 275.000
87.93278 289.000
87.95273 287.000
87.97267 287.000
87.99262 253.000
88.01257 262.000
88.03251 286.000
88.05246 291.000
88.07241 265.000
88.09236 277.000
88.11230 312.000
88.13225 274.000
88.15220 276.000
88.17214 285.000
88.19209 260.000
88.21204 281.000
88.23198 275.000
88.25193 291.000
88.27188 325.000
88.29183 267.000
88.31177 263.000
88.33172 265.000
88.35167 288.000
88.37161 287.000
88.39156 288.000
88.41151 290.000
88.43145 279.000
88.45140 308.000
88.47135 283.000
88.49129 274.000
88.51124 279.000
88.53119 286.000
88.55114 282.000
88.57108 248.000
88.59103 287.000
88.61098 272.000
88.63092 313.000
88.65087 285.000
88.67082 300.000
88.69076 240.000
88.71071 297.000
88.73066 277.000
88.75061 268.000
88.77055 270.000
88.79050 267.000
88.81045 263.000
88.83039 297.000
88.85034 291.000
88.87029 272.000
88.89023 266.000
88.91018 290.000
88.93013 276.000
88.95007 284.000
88.97002 273.000
88.98997 292.000
89.00992 288.000
89.02986 280.000
89.04981 252.000
89.06976 268.000
89.08970 249.000
89.10965 285.000
89.12960 296.000
89.14954 299.000
89.16949 277.000
89.18944 314.000
89.20939 268.000
89.22933 283.000
89.24928 303.000
89.26923 269.000
89.28917 298.000
89.30912 255.000
89.32907 277.000
89.34901 308.000
89.36896 260.000
89.38891 315.000
89.40885 271.000
89.42880 275.000
89.44875 282.000
89.46870 292.000
89.48864 264.000
89.50859 307.000
89.52854 270.000
89.54848 284.000
89.56843 276.000
89.58838 288.000
89.60832 282.000
89.62827 317.000
89.64822 304.000
89.66817 295.000
89.68811 285.000
89.70806 280.000
89.72801 299.000
89.74795 311.000
89.76790 298.000
89.78785 297.000
89.80779 314.000
89.82774 317.000
89.84769 330.000
89.86764 292.000
89.88758 295.000
89.90753 327.000
89.92748 313.000
89.94742 318.000
89.96737 306.000
89.98732 284.000
90.00726 298.000
