10.00000 24.000
10.01995 37.000
10.03989 41.000
10.05984 38.000
10.07979 45.000
10.09973 36.000
10.11968 33.000
10.13963 38.000
10.15958 43.000
10.17952 36.000
10.19947 32.000
10.21942 30.000
10.23936 42.000
10.25931 48.000
10.27926 38.000
10.29920 21.000
10.31915 32.000
10.33910 50.000
10.35905 34.000
10.37899 32.000
10.39894 34.000
10.41889 31.000
10.43883 38.000
10.45878 34.000
10.47873 38.000
10.49867 35.000
10.51862 36.000
10.53857 34.000
10.55851 42.000
10.57846 39.000
10.59841 35.000
10.61836 39.000
10.63830 43.000
10.65825 38.000
10.67820 35.000
10.69814 29.000
10.71809 23.000
10.73804 29.000
10.75798 30.000
10.77793 28.000
10.79788 30.000
10.81783 34.000
10.83777 36.000
10.85772 36.000
10.87767 25.000
10.89761 32.000
10.91756 43.000
10.93751 30.000
10.95745 43.000
10.97740 39.000
10.99735 32.000
11.01730 53.000
11.03724 45.000
11.05719 34.000
11.07714 27.000
11.09708 28.000
11.11703 40.000
11.13698 25.000
11.15692 24.000
11.17687 33.000
11.19682 32.000
11.21676 31.000
11.23671 40.000
11.25666 35.000
11.27661 31.000
11.29655 27.000
11.31650 36.000
11.33645 34.000
11.35639 30.000
11.37634 37.000
11.39629 38.000
11.41623 42.000
11.43618 41.000
11.45613 30.000
11.47608 35.000
11.49602 23.000
11.51597 33.000
11.53592 38.000
11.55586 23.000
11.57581 32.000
11.59576 38.000
11.61570 35.000
11.63565 37.000
11.65560 43.000
11.67554 36.000
11.69549 34.000
11.71544 31.000
11.73539 30.000
11.75533 30.000
11.77528 55.000
11.79523 32.000
11.81517 34.000
11.83512 28.000
11.85507 40.000
11.87501 44.000
11.89496 30.000
11.91491 32.000
11.93486 39.000
11.95480 38.000
11.97475 42.000
11.99470 34.000
12.01464 37.000
12.03459 27.000
12.05454 39.000
12.07448 30.000
12.09443 35.000
12.11438 43.000
12.13432 44.000
12.15427 33.000
12.17422 37.000
12.19417 40.000
12.21411 38.000
12.23406 50.000
12.25401 41.000
12.27395 34.000
12.29390 40.000
12.31385 39.000
12.33379 30.000
12.35374 33.000
12.37369 33.000
12.39364 44.000
12.41358 46.000
12.43353 39.000
12.45348 30.000
12.47342 40.000
12.49337 38.000
12.51332 39.000
12.53326 43.000
12.55321 51.000
12.57316 51.000
12.59311 41.000
12.61305 52.000
12.63300 53.000
12.65295 58.000
12.67289 60.000
12.69284 52.000
12.71279 55.000
12.73273 48.000
12.75268 31.000
12.77263 40.000
12.79257 52.000
12.81252 39.000
12.83247 45.000
12.85242 64.000
12.87236 45.000
12.89231 48.000
12.91226 60.000
12.93220 36.000
12.95215 58.000
12.97210 41.000
12.99204 40.000
13.01199 53.000
13.03194 45.000
13.05189 53.000
13.07183 43.000
13.09178 50.000
13.11173 41.000
13.13167 55.000
13.15162 38.000
13.17157 59.000
13.19151 48.000
13.21146 48.000
13.23141 39.000
13.25135 39.000
13.27130 37.000
13.29125 56.000
13.31120 45.000
13.33114 68.000
13.35109 56.000
13.37104 59.000
13.39098 49.000
13.41093 66.000
13.43088 56.000
13.45082 39.000
13.47077 73.000
13.49072 49.000
13.51067 54.000
13.53061 46.000
13.55056 62.000
13.57051 50.000
13.59045 57.000
13.61040 66.000
13.63035 57.000
13.65029 59.000
13.67024 56.000
13.69019 50.000
13.71013 57.000
13.73008 53.000
13.75003 66.000
13.76998 64.000
13.78992 56.000
13.80987 73.000
13.82982 70.000
13.84976 63.000
13.86971 73.000
13.88966 73.000
13.90960 56.000
13.92955 80.000
13.94950 69.000
13.96945 79.000
13.98939 74.000
14.00934 73.000
14.02929 72.000
14.04923 83.000
14.06918 99.000
14.08913 89.000
14.10907 99.000
14.12902 100.000
14.14897 85.000
14.16892 89.000
14.18886 80.000
14.20881 79.000
14.22876 76.000
14.24870 96.000
14.26865 90.000
14.28860 93.000
14.30854 99.000
14.32849 77.000
14.34844 95.000
14.36838 109.000
14.38833 87.000
14.40828 81.000
14.42823 113.000
14.44817 76.000
14.46812 104.000
14.48807 124.000
14.50801 110.000
14.52796 101.000
14.54791 109.000
14.56785 113.000
14.58780 108.000
14.60775 117.000
14.62770 110.000
14.64764 103.000
14.66759 125.000
14.68754 100.000
14.70748 121.000
14.72743 109.000
14.74738 128.000
14.76732 132.000
14.78727 123.000
14.80722 131.000
14.82716 131.000
14.84711 144.000
14.86706 137.000
14.88701 144.000
14.90695 178.000
14.92690 179.000
14.94685 211.000
14.96679 197.000
14.98674 199.000
15.00669 212.000
15.02663 224.000
15.04658 186.000
15.06653 200.000
15.08648 194.000
15.10642 194.000
15.12637 217.000
15.14632 203.000
15.16626 207.000
15.18621 224.000
15.20616 249.000
15.22610 227.000
15.24605 243.000
15.26600 282.000
15.28594 273.000
15.30589 279.000
15.32584 298.000
15.34579 317.000
15.36573 331.000
15.38568 389.000
15.40563 380.000
15.42557 453.000
15.44552 498.000
15.46547 596.000
15.48541 702.000
15.50536 735.000
15.52531 1004.000
15.54526 1315.000
15.56520 1765.000
15.58515 2588.000
15.60510 3934.000
15.62504 5906.000
15.64499 8493.000
15.66494 11327.000
15.68488 11414.000
15.70483 8673.000
15.72478 5283.000
15.74472 2687.000
15.76467 1124.000
15.78462 627.000
15.80457 486.000
15.82451 382.000
15.84446 327.000
15.86441 282.000
15.88435 234.000
15.90430 239.000
15.92425 187.000
15.94419 186.000
15.96414 174.000
15.98409 173.000
16.00404 163.000
16.02398 154.000
16.04393 151.000
16.06388 154.000
16.08382 149.000
16.10377 124.000
16.12372 124.000
16.14366 123.000
16.16361 105.000
16.18356 126.000
16.20351 103.000
16.22345 102.000
16.24340 98.000
16.26335 99.000
16.28329 92.000
16.30324 84.000
16.32319 81.000
16.34313 79.000
16.36308 80.000
16.38303 70.000
16.40297 70.000
16.42292 64.000
16.44287 78.000
16.46282 64.000
16.48276 70.000
16.50271 60.000
16.52266 54.000
16.54260 64.000
16.56255 63.000
16.58250 48.000
16.60244 50.000
16.62239 61.000
16.64234 51.000
16.66229 55.000
16.68223 43.000
16.70218 45.000
16.72213 42.000
16.74207 47.000
16.76202 46.000
16.78197 43.000
16.80191 44.000
16.82186 48.000
16.84181 45.000
16.86175 47.000
16.88170 42.000
16.90165 44.000
16.92160 33.000
16.94154 24.000
16.96149 40.000
16.98144 39.000
17.00138 31.000
17.02133 32.000
17.04128 32.000
17.06122 38.000
17.08117 37.000
17.10112 38.000
17.12107 29.000
17.14101 30.000
17.16096 44.000
17.18091 31.000
17.20085 45.000
17.22080 33.000
17.24075 28.000
17.26069 37.000
17.28064 38.000
17.30059 42.000
17.32053 41.000
17.34048 33.000
17.36043 32.000
17.38038 40.000
17.40032 27.000
17.42027 37.000
17.44022 39.000
17.46016 35.000
17.48011 39.000
17.50006 33.000
17.52000 33.000
17.53995 29.000
17.55990 46.000
17.57985 44.000
17.59979 27.000
17.61974 34.000
17.63969 27.000
17.65963 28.000
17.67958 31.000
17.69953 37.000
17.71947 26.000
17.73942 40.000
17.75937 40.000
17.77932 42.000
17.79926 35.000
17.81921 36.000
17.83916 44.000
17.85910 35.000
17.87905 48.000
17.89900 47.000
17.91894 51.000
17.93889 62.000
17.95884 88.000
17.97878 125.000
17.99873 157.000
18.01868 199.000
18.03863 169.000
18.05857 149.000
18.07852 98.000
18.09847 74.000
18.11841 52.000
18.13836 45.000
18.15831 34.000
18.17825 36.000
18.19820 26.000
18.21815 31.000
18.23810 35.000
18.25804 38.000
18.27799 30.000
18.29794 36.000
18.31788 32.000
18.33783 29.000
18.35778 31.000
18.37772 24.000
18.39767 32.000
18.41762 34.000
18.43756 35.000
18.45751 26.000
18.47746 21.000
18.49741 29.000
18.51735 36.000
18.53730 34.000
18.55725 37.000
18.57719 23.000
18.59714 35.000
18.61709 28.000
18.63703 26.000
18.65698 33.000
18.67693 25.000
18.69688 29.000
18.71682 37.000
18.73677 24.000
18.75672 29.000
18.77666 29.000
18.79661 26.000
18.81656 41.000
18.83650 34.000
18.85645 30.000
18.87640 40.000
18.89634 30.000
18.91629 29.000
18.93624 27.000
18.95619 37.000
18.97613 29.000
18.99608 24.000
19.01603 25.000
19.03597 19.000
19.05592 28.000
19.07587 26.000
19.09581 20.000
19.11576 31.000
19.13571 29.000
19.15566 30.000
19.17560 30.000
19.19555 30.000
19.21550 30.000
19.23544 25.000
19.25539 22.000
19.27534 23.000
19.29528 21.000
19.31523 20.000
19.33518 23.000
19.35513 21.000
19.37507 33.000
19.39502 22.000
19.41497 27.000
19.43491 43.000
19.45486 35.000
19.47481 22.000
19.49475 37.000
19.51470 33.000
19.53465 28.000
19.55459 36.000
19.57454 34.000
19.59449 31.000
19.61444 38.000
19.63438 32.000
19.65433 29.000
19.67428 35.000
19.69422 26.000
19.71417 37.000
19.73412 21.000
19.75406 38.000
19.77401 17.000
19.79396 22.000
19.81391 33.000
19.83385 29.000
19.85380 25.000
19.87375 28.000
19.89369 27.000
19.91364 28.000
19.93359 23.000
19.95353 21.000
19.97348 34.000
19.99343 30.000
20.01337 24.000
20.03332 28.000
20.05327 29.000
20.07322 26.000
20.09316 36.000
20.11311 28.000
20.13306 28.000
20.15300 38.000
20.17295 31.000
20.19290 19.000
20.21284 34.000
20.23279 32.000
20.25274 29.000
20.27269 28.000
20.29263 27.000
20.31258 50.000
20.33253 35.000
20.35247 27.000
20.37242 27.000
20.39237 21.000
20.41231 29.000
20.43226 40.000
20.45221 29.000
20.47215 20.000
20.49210 28.000
20.51205 30.000
20.53200 37.000
20.55194 23.000
20.57189 36.000
20.59184 33.000
20.61178 38.000
20.63173 39.000
20.65168 36.000
20.67162 35.000
20.69157 34.000
20.71152 35.000
20.73147 29.000
20.75141 38.000
20.77136 34.000
20.79131 38.000
20.81125 41.000
20.83120 39.000
20.85115 41.000
20.87109 40.000
20.89104 40.000
20.91099 35.000
20.93094 35.000
20.95088 25.000
20.97083 43.000
20.99078 39.000
21.01072 28.000
21.03067 41.000
21.05062 29.000
21.07056 28.000
21.09051 29.000
21.11046 31.000
21.13040 38.000
21.15035 29.000
21.17030 30.000
21.19025 34.000
21.21019 27.000
21.23014 30.000
21.25009 31.000
21.27003 22.000
21.28998 25.000
21.30993 21.000
21.32987 29.000
21.34982 34.000
21.36977 27.000
21.38972 19.000
21.40966 47.000
21.42961 30.000
21.44956 32.000
21.46950 23.000
21.48945 20.000
21.50940 24.000
21.52934 28.000
21.54929 28.000
21.56924 29.000
21.58918 33.000
21.60913 23.000
21.62908 26.000
21.64903 23.000
21.66897 27.000
21.68892 29.000
21.70887 30.000
21.72881 24.000
21.74876 19.000
21.76871 28.000
21.78865 27.000
21.80860 25.000
21.82855 23.000
21.84850 44.000
21.86844 25.000
21.88839 34.000
21.90834 29.000
21.92828 38.000
21.94823 32.000
21.96818 24.000
21.98812 36.000
22.00807 26.000
22.02802 30.000
22.04796 36.000
22.06791 23.000
22.08786 19.000
22.10781 38.000
22.12775 25.000
22.14770 24.000
22.16765 20.000
22.18759 32.000
22.20754 37.000
22.22749 27.000
22.24743 34.000
22.26738 21.000
22.28733 31.000
22.30728 26.000
22.32722 34.000
22.34717 29.000
22.36712 24.000
22.38706 29.000
22.40701 30.000
22.42696 25.000
22.44690 36.000
22.46685 26.000
22.48680 34.000
22.50675 30.000
22.52669 32.000
22.54664 32.000
22.56659 32.000
22.58653 37.000
22.60648 25.000
22.62643 27.000
22.64637 27.000
22.66632 34.000
22.68627 38.000
22.70621 19.000
22.72616 29.000
22.74611 37.000
22.76606 30.000
22.78600 41.000
22.80595 37.000
22.82590 30.000
22.84584 37.000
22.86579 38.000
22.88574 16.000
22.90568 27.000
22.92563 28.000
22.94558 41.000
22.96553 32.000
22.98547 40.000
23.00542 47.000
23.02537 34.000
23.04531 32.000
23.06526 31.000
23.08521 36.000
23.10515 36.000
23.12510 38.000
23.14505 29.000
23.16499 28.000
23.18494 25.000
23.20489 31.000
23.22484 32.000
23.24478 30.000
23.26473 33.000
23.28468 35.000
23.30462 30.000
23.32457 27.000
23.34452 33.000
23.36446 30.000
23.38441 26.000
23.40436 36.000
23.42431 31.000
23.44425 38.000
23.46420 41.000
23.48415 26.000
23.50409 31.000
23.52404 33.000
23.54399 37.000
23.56393 31.000
23.58388 35.000
23.60383 27.000
23.62377 28.000
23.64372 23.000
23.66367 23.000
23.68362 32.000
23.70356 35.000
23.72351 23.000
23.74346 36.000
23.76340 27.000
23.78335 29.000
23.80330 31.000
23.82324 43.000
23.84319 32.000
23.86314 32.000
23.88309 32.000
23.90303 28.000
23.92298 33.000
23.94293 30.000
23.96287 33.000
23.98282 43.000
24.00277 33.000
24.02271 33.000
24.04266 27.000
24.06261 30.000
24.08256 32.000
24.10250 40.000
24.12245 37.000
24.14240 30.000
24.16234 34.000
24.18229 34.000
24.20224 37.000
24.22218 23.000
24.24213 28.000
24.26208 36.000
24.28202 35.000
24.30197 33.000
24.32192 23.000
24.34187 41.000
24.36181 36.000
24.38176 43.000
24.40171 31.000
24.42165 37.000
24.44160 24.000
24.46155 31.000
24.48149 37.000
24.50144 31.000
24.52139 27.000
24.54134 44.000
24.56128 25.000
24.58123 34.000
24.60118 34.000
24.62112 38.000
24.64107 34.000
24.66102 25.000
24.68096 40.000
24.70091 34.000
24.72086 43.000
24.74080 36.000
24.76075 28.000
24.78070 30.000
24.80065 25.000
24.82059 42.000
24.84054 32.000
24.86049 39.000
24.88043 39.000
24.90038 35.000
24.92033 27.000
24.94027 25.000
24.96022 36.000
24.98017 37.000
25.00012 36.000
25.02006 32.000
25.04001 31.000
25.05996 32.000
25.07990 34.000
25.09985 32.000
25.11980 33.000
25.13974 41.000
25.15969 32.000
25.17964 28.000
25.19958 39.000
25.21953 53.000
25.23948 45.000
25.25943 34.000
25.27937 28.000
25.29932 37.000
25.31927 41.000
25.33921 32.000
25.35916 45.000
25.37911 41.000
25.39905 47.000
25.41900 35.000
25.43895 41.000
25.45890 34.000
25.47884 40.000
25.49879 39.000
25.51874 33.000
25.53868 37.000
25.55863 41.000
25.57858 25.000
25.59852 33.000
25.61847 31.000
25.63842 32.000
25.65837 39.000
25.67831 37.000
25.69826 33.000
25.71821 41.000
25.73815 34.000
25.75810 49.000
25.77805 42.000
25.79799 31.000
25.81794 35.000
25.83789 37.000
25.85783 30.000
25.87778 35.000
25.89773 38.000
25.91768 30.000
25.93762 31.000
25.95757 31.000
25.97752 36.000
25.99746 37.000
26.01741 35.000
26.03736 43.000
26.05730 40.000
26.07725 42.000
26.09720 38.000
26.11715 42.000
26.13709 43.000
26.15704 39.000
26.17699 48.000
26.19693 29.000
26.21688 34.000
26.23683 26.000
26.25677 29.000
26.27672 42.000
26.29667 24.000
26.31661 40.000
26.33656 36.000
26.35651 38.000
26.37646 35.000
26.39640 25.000
26.41635 32.000
26.43630 50.000
26.45624 36.000
26.47619 42.000
26.49614 38.000
26.51608 37.000
26.53603 36.000
26.55598 44.000
26.57593 28.000
26.59587 36.000
26.61582 42.000
26.63577 33.000
26.65571 46.000
26.67566 36.000
26.69561 38.000
26.71555 33.000
26.73550 44.000
26.75545 29.000
26.77539 32.000
26.79534 46.000
26.81529 32.000
26.83524 39.000
26.85518 42.000
26.87513 36.000
26.89508 38.000
26.91502 41.000
26.93497 44.000
26.95492 40.000
26.97486 41.000
26.99481 30.000
27.01476 46.000
27.03471 39.000
27.05465 29.000
27.07460 37.000
27.09455 38.000
27.11449 42.000
27.13444 49.000
27.15439 35.000
27.17433 33.000
27.19428 47.000
27.21423 45.000
27.23417 34.000
27.25412 46.000
27.27407 42.000
27.29402 37.000
27.31396 40.000
27.33391 48.000
27.35386 35.000
27.37380 53.000
27.39375 43.000
27.41370 44.000
27.43364 44.000
27.45359 40.000
27.47354 34.000
27.49349 42.000
27.51343 38.000
27.53338 48.000
27.55333 38.000
27.57327 38.000
27.59322 42.000
27.61317 42.000
27.63311 39.000
27.65306 33.000
27.67301 46.000
27.69296 44.000
27.71290 44.000
27.73285 46.000
27.75280 46.000
27.77274 33.000
27.79269 38.000
27.81264 28.000
27.83258 48.000
27.85253 58.000
27.87248 51.000
27.89242 40.000
27.91237 31.000
27.93232 46.000
27.95227 37.000
27.97221 54.000
27.99216 45.000
28.01211 45.000
28.03205 32.000
28.05200 51.000
28.07195 36.000
28.09189 56.000
28.11184 45.000
28.13179 43.000
28.15174 39.000
28.17168 35.000
28.19163 41.000
28.21158 37.000
28.23152 39.000
28.25147 49.000
28.27142 41.000
28.29136 39.000
28.31131 48.000
28.33126 47.000
28.35120 48.000
28.37115 40.000
28.39110 34.000
28.41105 39.000
28.43099 45.000
28.45094 42.000
28.47089 42.000
28.49083 55.000
28.51078 38.000
28.53073 38.000
28.55067 43.000
28.57062 52.000
28.59057 44.000
28.61052 38.000
28.63046 34.000
28.65041 42.000
28.67036 51.000
28.69030 35.000
28.71025 47.000
28.73020 53.000
28.75014 46.000
28.77009 54.000
28.79004 42.000
28.80998 52.000
28.82993 41.000
28.84988 62.000
28.86983 45.000
28.88977 56.000
28.90972 41.000
28.92967 47.000
28.94961 53.000
28.96956 40.000
28.98951 37.000
29.00945 36.000
29.02940 44.000
29.04935 50.000
29.06930 49.000
29.08924 46.000
29.10919 33.000
29.12914 43.000
29.14908 37.000
29.16903 56.000
29.18898 37.000
29.20892 49.000
29.22887 33.000
29.24882 56.000
29.26877 26.000
29.28871 44.000
29.30866 40.000
29.32861 62.000
29.34855 44.000
29.36850 54.000
29.38845 50.000
29.40839 53.000
29.42834 49.000
29.44829 60.000
29.46823 54.000
29.48818 69.000
29.50813 60.000
29.52808 64.000
29.54802 93.000
29.56797 74.000
29.58792 106.000
29.60786 112.000
29.62781 147.000
29.64776 138.000
29.66770 149.000
29.68765 127.000
29.70760 125.000
29.72755 91.000
29.74749 91.000
29.76744 70.000
29.78739 66.000
29.80733 63.000
29.82728 64.000
29.84723 54.000
29.86717 44.000
29.88712 54.000
29.90707 47.000
29.92701 59.000
29.94696 51.000
29.96691 70.000
29.98686 44.000
30.00680 53.000
30.02675 72.000
30.04670 44.000
30.06664 53.000
30.08659 71.000
30.10654 72.000
30.12648 68.000
30.14643 72.000
30.16638 73.000
30.18633 85.000
30.20627 72.000
30.22622 60.000
30.24617 57.000
30.26611 48.000
30.28606 52.000
30.30601 54.000
30.32595 46.000
30.34590 55.000
30.36585 68.000
30.38579 49.000
30.40574 52.000
30.42569 64.000
30.44564 54.000
30.46558 47.000
30.48553 52.000
30.50548 57.000
30.52542 48.000
30.54537 42.000
30.56532 48.000
30.58526 38.000
30.60521 40.000
30.62516 63.000
30.64511 44.000
30.66505 53.000
30.68500 59.000
30.70495 44.000
30.72489 44.000
30.74484 46.000
30.76479 44.000
30.78473 55.000
30.80468 59.000
30.82463 54.000
30.84458 59.000
30.86452 55.000
30.88447 62.000
30.90442 53.000
30.92436 58.000
30.94431 54.000
30.96426 57.000
30.98420 52.000
31.00415 58.000
31.02410 52.000
31.04404 59.000
31.06399 71.000
31.08394 51.000
31.10389 51.000
31.12383 49.000
31.14378 53.000
31.16373 69.000
31.18367 66.000
31.20362 67.000
31.22357 48.000
31.24351 52.000
31.26346 66.000
31.28341 56.000
31.30336 67.000
31.32330 75.000
31.34325 59.000
31.36320 93.000
31.38314 69.000
31.40309 66.000
31.42304 100.000
31.44298 100.000
31.46293 102.000
31.48288 107.000
31.50282 122.000
31.52277 142.000
31.54272 196.000
31.56267 249.000
31.58261 305.000
31.60256 422.000
31.62251 566.000
31.64245 713.000
31.66240 853.000
31.68235 831.000
31.70229 689.000
31.72224 469.000
31.74219 438.000
31.76214 396.000
31.78208 321.000
31.80203 180.000
31.82198 104.000
31.84192 101.000
31.86187 92.000
31.88182 71.000
31.90176 72.000
31.92171 59.000
31.94166 64.000
31.96160 56.000
31.98155 56.000
32.00150 38.000
32.02145 52.000
32.04139 57.000
32.06134 67.000
32.08129 53.000
32.10123 64.000
32.12118 52.000
32.14113 42.000
32.16107 55.000
32.18102 56.000
32.20097 56.000
32.22092 45.000
32.24086 45.000
32.26081 49.000
32.28076 53.000
32.30070 34.000
32.32065 43.000
32.34060 50.000
32.36054 53.000
32.38049 51.000
32.40044 55.000
32.42039 41.000
32.44033 49.000
32.46028 52.000
32.48023 52.000
32.50017 35.000
32.52012 47.000
32.54007 50.000
32.56001 45.000
32.57996 58.000
32.59991 55.000
32.61985 59.000
32.63980 58.000
32.65975 36.000
32.67970 49.000
32.69964 54.000
32.71959 51.000
32.73954 49.000
32.75948 50.000
32.77943 36.000
32.79938 32.000
32.81932 57.000
32.83927 44.000
32.85922 45.000
32.87917 46.000
32.89911 44.000
32.91906 55.000
32.93901 45.000
32.95895 52.000
32.97890 52.000
32.99885 51.000
33.01879 46.000
33.03874 45.000
33.05869 37.000
33.07863 46.000
33.09858 45.000
33.11853 53.000
33.13848 39.000
33.15842 36.000
33.17837 54.000
33.19832 57.000
33.21826 35.000
33.23821 42.000
33.25816 42.000
33.27810 54.000
33.29805 37.000
33.31800 39.000
33.33795 45.000
33.35789 46.000
33.37784 30.000
33.39779 44.000
33.41773 59.000
33.43768 41.000
33.45763 36.000
33.47757 35.000
33.49752 46.000
33.51747 46.000
33.53741 44.000
33.55736 31.000
33.57731 44.000
33.59726 44.000
33.61720 33.000
33.63715 45.000
33.65710 37.000
33.67704 47.000
33.69699 46.000
33.71694 38.000
33.73688 42.000
33.75683 44.000
33.77678 24.000
33.79673 43.000
33.81667 53.000
33.83662 44.000
33.85657 47.000
33.87651 47.000
33.89646 57.000
33.91641 45.000
33.93635 27.000
33.95630 47.000
33.97625 51.000
33.99620 39.000
34.01614 49.000
34.03609 51.000
34.05604 48.000
34.07598 54.000
34.09593 46.000
34.11588 64.000
34.13582 75.000
34.15577 54.000
34.17572 63.000
34.19566 61.000
34.21561 76.000
34.23556 62.000
34.25551 62.000
34.27545 68.000
34.29540 69.000
34.31535 66.000
34.33529 64.000
34.35524 54.000
34.37519 58.000
34.39513 69.000
34.41508 71.000
34.43503 73.000
34.45498 70.000
34.47492 55.000
34.49487 66.000
34.51482 68.000
34.53476 77.000
34.55471 57.000
34.57466 63.000
34.59460 67.000
34.61455 89.000
34.63450 62.000
34.65444 71.000
34.67439 94.000
34.69434 70.000
34.71429 80.000
34.73423 95.000
34.75418 112.000
34.77413 112.000
34.79407 144.000
34.81402 159.000
34.83397 188.000
34.85391 269.000
34.87386 300.000
34.89381 379.000
34.91376 359.000
34.93370 316.000
34.95365 318.000
34.97360 278.000
34.99354 271.000
35.01349 214.000
35.03344 194.000
35.05338 141.000
35.07333 142.000
35.09328 121.000
35.11322 130.000
35.13317 114.000
35.15312 86.000
35.17307 110.000
35.19301 103.000
35.21296 100.000
35.23291 92.000
35.25285 117.000
35.27280 108.000
35.29275 124.000
35.31269 138.000
35.33264 170.000
35.35259 198.000
35.37254 260.000
35.39248 374.000
35.41243 491.000
35.43238 653.000
35.45232 669.000
35.47227 643.000
35.49222 637.000
35.51216 596.000
35.53211 571.000
35.55206 473.000
35.57201 377.000
35.59195 333.000
35.61190 242.000
35.63185 182.000
35.65179 147.000
35.67174 115.000
35.69169 116.000
35.71163 98.000
35.73158 90.000
35.75153 59.000
35.77147 85.000
35.79142 81.000
35.81137 63.000
35.83132 55.000
35.85126 60.000
35.87121 64.000
35.89116 44.000
35.91110 67.000
35.93105 64.000
35.95100 53.000
35.97094 65.000
35.99089 64.000
36.01084 66.000
36.03079 50.000
36.05073 55.000
36.07068 56.000
36.09063 51.000
36.11057 62.000
36.13052 69.000
36.15047 55.000
36.17041 55.000
36.19036 55.000
36.21031 54.000
36.23025 68.000
36.25020 67.000
36.27015 69.000
36.29010 73.000
36.31004 87.000
36.32999 100.000
36.34994 117.000
36.36988 111.000
36.38983 108.000
36.40978 121.000
36.42972 113.000
36.44967 124.000
36.46962 118.000
36.48957 124.000
36.50951 107.000
36.52946 103.000
36.54941 100.000
36.56935 77.000
36.58930 82.000
36.60925 78.000
36.62919 59.000
36.64914 58.000
36.66909 48.000
36.68903 61.000
36.70898 57.000
36.72893 36.000
36.74888 45.000
36.76882 48.000
36.78877 53.000
36.80872 33.000
36.82866 46.000
36.84861 59.000
36.86856 62.000
36.88850 54.000
36.90845 51.000
36.92840 30.000
36.94835 51.000
36.96829 48.000
36.98824 43.000
37.00819 42.000
37.02813 30.000
37.04808 44.000
37.06803 43.000
37.08797 46.000
37.10792 51.000
37.12787 55.000
37.14781 47.000
37.16776 44.000
37.18771 53.000
37.20766 50.000
37.22760 59.000
37.24755 64.000
37.26750 53.000
37.28744 43.000
37.30739 49.000
37.32734 31.000
37.34728 30.000
37.36723 50.000
37.38718 43.000
37.40713 52.000
37.42707 42.000
37.44702 48.000
37.46697 51.000
37.48691 38.000
37.50686 40.000
37.52681 49.000
37.54675 56.000
37.56670 45.000
37.58665 48.000
37.60660 37.000
37.62654 51.000
37.64649 56.000
37.66644 62.000
37.68638 50.000
37.70633 53.000
37.72628 42.000
37.74622 52.000
37.76617 60.000
37.78612 55.000
37.80606 62.000
37.82601 50.000
37.84596 66.000
37.86591 74.000
37.88585 75.000
37.90580 53.000
37.92575 81.000
37.94569 77.000
37.96564 65.000
37.98559 73.000
38.00553 72.000
38.02548 64.000
38.04543 54.000
38.06538 65.000
38.08532 71.000
38.10527 59.000
38.12522 101.000
38.14516 63.000
38.16511 75.000
38.18506 77.000
38.20500 67.000
38.22495 75.000
38.24490 61.000
38.26484 76.000
38.28479 79.000
38.30474 72.000
38.32469 87.000
38.34463 62.000
38.36458 87.000
38.38453 68.000
38.40447 92.000
38.42442 81.000
38.44437 90.000
38.46431 84.000
38.48426 87.000
38.50421 102.000
38.52416 90.000
38.54410 98.000
38.56405 119.000
38.58400 104.000
38.60394 116.000
38.62389 105.000
38.64384 136.000
38.66378 125.000
38.68373 141.000
38.70368 128.000
38.72362 148.000
38.74357 165.000
38.76352 161.000
38.78347 182.000
38.80341 202.000
38.82336 301.000
38.84331 303.000
38.86325 321.000
38.88320 411.000
38.90315 606.000
38.92309 813.000
38.94304 1092.000
38.96299 1168.000
38.98294 1271.000
39.00288 1165.000
39.02283 996.000
39.04278 952.000
39.06272 964.000
39.08267 795.000
39.10262 658.000
39.12256 529.000
39.14251 452.000
39.16246 363.000
39.18241 269.000
39.20235 231.000
39.22230 168.000
39.24225 153.000
39.26219 143.000
39.28214 136.000
39.30209 127.000
39.32203 109.000
39.34198 104.000
39.36193 81.000
39.38187 66.000
39.40182 83.000
39.42177 78.000
39.44172 82.000
39.46166 71.000
39.48161 59.000
39.50156 69.000
39.52150 81.000
39.54145 67.000
39.56140 70.000
39.58134 58.000
39.60129 53.000
39.62124 56.000
39.64119 55.000
39.66113 56.000
39.68108 44.000
39.70103 39.000
39.72097 54.000
39.74092 53.000
39.76087 53.000
39.78081 62.000
39.80076 59.000
39.82071 43.000
39.84065 52.000
39.86060 63.000
39.88055 57.000
39.90050 44.000
39.92044 55.000
39.94039 58.000
39.96034 51.000
39.98028 53.000
40.00023 58.000
40.02018 51.000
40.04012 49.000
40.06007 40.000
40.08002 42.000
40.09997 45.000
40.11991 50.000
40.13986 34.000
40.15981 39.000
40.17975 39.000
40.19970 46.000
40.21965 45.000
40.23959 49.000
40.25954 41.000
40.27949 32.000
40.29943 48.000
40.31938 39.000
40.33933 40.000
40.35928 35.000
40.37922 43.000
40.39917 28.000
40.41912 47.000
40.43906 38.000
40.45901 53.000
40.47896 41.000
40.49890 43.000
40.51885 43.000
40.53880 39.000
40.55875 35.000
40.57869 51.000
40.59864 34.000
40.61859 49.000
40.63853 44.000
40.65848 39.000
40.67843 33.000
40.69837 38.000
40.71832 34.000
40.73827 50.000
40.75822 30.000
40.77816 36.000
40.79811 37.000
40.81806 29.000
40.83800 31.000
40.85795 32.000
40.87790 35.000
40.89784 37.000
40.91779 31.000
40.93774 43.000
40.95768 43.000
40.97763 35.000
40.99758 42.000
41.01753 48.000
41.03747 37.000
41.05742 46.000
41.07737 54.000
41.09731 49.000
41.11726 61.000
41.13721 41.000
41.15715 58.000
41.17710 56.000
41.19705 60.000
41.21700 51.000
41.23694 53.000
41.25689 58.000
41.27684 67.000
41.29678 52.000
41.31673 58.000
41.33668 70.000
41.35662 58.000
41.37657 60.000
41.39652 55.000
41.41646 58.000
41.43641 51.000
41.45636 60.000
41.47631 71.000
41.49625 59.000
41.51620 69.000
41.53615 60.000
41.55609 46.000
41.57604 51.000
41.59599 49.000
41.61593 52.000
41.63588 35.000
41.65583 35.000
41.67578 51.000
41.69572 37.000
41.71567 42.000
41.73562 46.000
41.75556 28.000
41.77551 38.000
41.79546 43.000
41.81540 47.000
41.83535 43.000
41.85530 41.000
41.87524 40.000
41.89519 36.000
41.91514 50.000
41.93509 39.000
41.95503 40.000
41.97498 44.000
41.99493 35.000
42.01487 45.000
42.03482 44.000
42.05477 50.000
42.07471 46.000
42.09466 45.000
42.11461 44.000
42.13456 53.000
42.15450 43.000
42.17445 47.000
42.19440 55.000
42.21434 52.000
42.23429 54.000
42.25424 58.000
42.27418 66.000
42.29413 71.000
42.31408 60.000
42.33403 88.000
42.35397 90.000
42.37392 105.000
42.39387 101.000
42.41381 101.000
42.43376 120.000
42.45371 121.000
42.47365 101.000
42.49360 109.000
42.51355 90.000
42.53349 102.000
42.55344 97.000
42.57339 84.000
42.59334 75.000
42.61328 73.000
42.63323 82.000
42.65318 93.000
42.67312 65.000
42.69307 65.000
42.71302 72.000
42.73296 71.000
42.75291 62.000
42.77286 66.000
42.79281 72.000
42.81275 95.000
42.83270 85.000
42.85265 105.000
42.87259 117.000
42.89254 116.000
42.91249 148.000
42.93243 150.000
42.95238 202.000
42.97233 259.000
42.99227 331.000
43.01222 393.000
43.03217 512.000
43.05212 520.000
43.07206 461.000
43.09201 398.000
43.11196 359.000
43.13190 373.000
43.15185 361.000
43.17180 303.000
43.19174 215.000
43.21169 196.000
43.23164 140.000
43.25159 120.000
43.27153 109.000
43.29148 106.000
43.31143 89.000
43.33137 83.000
43.35132 58.000
43.37127 68.000
43.39121 60.000
43.41116 63.000
43.43111 52.000
43.45105 59.000
43.47100 49.000
43.49095 62.000
43.51090 51.000
43.53084 55.000
43.55079 40.000
43.57074 61.000
43.59068 57.000
43.61063 43.000
43.63058 31.000
43.65052 50.000
43.67047 38.000
43.69042 37.000
43.71037 46.000
43.73031 29.000
43.75026 44.000
43.77021 28.000
43.79015 37.000
43.81010 32.000
43.83005 47.000
43.84999 38.000
43.86994 48.000
43.88989 39.000
43.90984 35.000
43.92978 37.000
43.94973 46.000
43.96968 43.000
43.98962 42.000
44.00957 51.000
44.02952 43.000
44.04946 44.000
44.06941 52.000
44.08936 38.000
44.10930 40.000
44.12925 45.000
44.14920 38.000
44.16915 31.000
44.18909 39.000
44.20904 36.000
44.22899 34.000
44.24893 33.000
44.26888 41.000
44.28883 31.000
44.30877 34.000
44.32872 33.000
44.34867 42.000
44.36862 40.000
44.38856 31.000
44.40851 37.000
44.42846 28.000
44.44840 32.000
44.46835 52.000
44.48830 21.000
44.50824 33.000
44.52819 41.000
44.54814 28.000
44.56808 30.000
44.58803 38.000
44.60798 39.000
44.62793 63.000
44.64787 33.000
44.66782 38.000
44.68777 42.000
44.70771 46.000
44.72766 40.000
44.74761 47.000
44.76755 38.000
44.78750 50.000
44.80745 39.000
44.82740 36.000
44.84734 33.000
44.86729 34.000
44.88724 33.000
44.90718 38.000
44.92713 41.000
44.94708 28.000
44.96702 28.000
44.98697 39.000
45.00692 31.000
45.02686 32.000
45.04681 28.000
45.06676 36.000
45.08671 46.000
45.10665 40.000
45.12660 33.000
45.14655 38.000
45.16649 27.000
45.18644 26.000
45.20639 37.000
45.22633 34.000
45.24628 22.000
45.26623 33.000
45.28618 32.000
45.30612 37.000
45.32607 40.000
45.34602 28.000
45.36596 33.000
45.38591 21.000
45.40586 26.000
45.42580 31.000
45.44575 27.000
45.46570 32.000
45.48565 33.000
45.50559 31.000
45.52554 29.000
45.54549 32.000
45.56543 38.000
45.58538 27.000
45.60533 34.000
45.62527 33.000
45.64522 35.000
45.66517 24.000
45.68511 39.000
45.70506 31.000
45.72501 28.000
45.74496 47.000
45.76490 29.000
45.78485 48.000
45.80480 36.000
45.82474 45.000
45.84469 34.000
45.86464 31.000
45.88458 29.000
45.90453 37.000
45.92448 36.000
45.94443 24.000
45.96437 40.000
45.98432 36.000
46.00427 38.000
46.02421 39.000
46.04416 37.000
46.06411 44.000
46.08405 40.000
46.10400 41.000
46.12395 34.000
46.14389 58.000
46.16384 36.000
46.18379 41.000
46.20374 33.000
46.22368 35.000
46.24363 32.000
46.26358 34.000
46.28352 32.000
46.30347 24.000
46.32342 42.000
46.34336 43.000
46.36331 40.000
46.38326 47.000
46.40321 44.000
46.42315 46.000
46.44310 40.000
46.46305 42.000
46.48299 60.000
46.50294 57.000
46.52289 61.000
46.54283 57.000
46.56278 41.000
46.58273 46.000
46.60267 50.000
46.62262 37.000
46.64257 40.000
46.66252 49.000
46.68246 37.000
46.70241 40.000
46.72236 48.000
46.74230 32.000
46.76225 51.000
46.78220 43.000
46.80214 41.000
46.82209 30.000
46.84204 46.000
46.86199 54.000
46.88193 45.000
46.90188 46.000
46.92183 30.000
46.94177 36.000
46.96172 48.000
46.98167 43.000
47.00161 46.000
47.02156 43.000
47.04151 36.000
47.06146 39.000
47.08140 50.000
47.10135 45.000
47.12130 38.000
47.14124 54.000
47.16119 35.000
47.18114 42.000
47.20108 43.000
47.22103 52.000
47.24098 48.000
47.26092 45.000
47.28087 49.000
47.30082 47.000
47.32077 45.000
47.34071 53.000
47.36066 43.000
47.38061 51.000
47.40055 60.000
47.42050 49.000
47.44045 47.000
47.46039 54.000
47.48034 58.000
47.50029 53.000
47.52024 54.000
47.54018 43.000
47.56013 54.000
47.58008 66.000
47.60002 82.000
47.61997 66.000
47.63992 61.000
47.65986 75.000
47.67981 61.000
47.69976 67.000
47.71970 78.000
47.73965 69.000
47.75960 72.000
47.77955 70.000
47.79949 77.000
47.81944 101.000
47.83939 74.000
47.85933 98.000
47.87928 115.000
47.89923 116.000
47.91917 94.000
47.93912 97.000
47.95907 128.000
47.97902 121.000
47.99896 147.000
48.01891 151.000
48.03886 177.000
48.05880 186.000
48.07875 198.000
48.09870 256.000
48.11864 309.000
48.13859 351.000
48.15854 409.000
48.17848 498.000
48.19843 655.000
48.21838 847.000
48.23833 1017.000
48.25827 1145.000
48.27822 1132.000
48.29817 970.000
48.31811 855.000
48.33806 768.000
48.35801 807.000
48.37795 737.000
48.39790 715.000
48.41785 586.000
48.43780 470.000
48.45774 410.000
48.47769 324.000
48.49764 251.000
48.51758 200.000
48.53753 173.000
48.55748 187.000
48.57742 131.000
48.59737 142.000
48.61732 134.000
48.63726 124.000
48.65721 90.000
48.67716 99.000
48.69711 91.000
48.71705 93.000
48.73700 80.000
48.75695 72.000
48.77689 81.000
48.79684 73.000
48.81679 65.000
48.83673 55.000
48.85668 57.000
48.87663 60.000
48.89658 59.000
48.91652 66.000
48.93647 51.000
48.95642 66.000
48.97636 66.000
48.99631 50.000
49.01626 57.000
49.03620 56.000
49.05615 48.000
49.07610 55.000
49.09605 46.000
49.11599 53.000
49.13594 49.000
49.15589 50.000
49.17583 48.000
49.19578 39.000
49.21573 39.000
49.23567 46.000
49.25562 51.000
49.27557 42.000
49.29551 51.000
49.31546 42.000
49.33541 52.000
49.35536 34.000
49.37530 39.000
49.39525 52.000
49.41520 43.000
49.43514 41.000
49.45509 33.000
49.47504 41.000
49.49498 50.000
49.51493 38.000
49.53488 38.000
49.55483 49.000
49.57477 37.000
49.59472 30.000
49.61467 38.000
49.63461 37.000
49.65456 39.000
49.67451 40.000
49.69445 33.000
49.71440 36.000
49.73435 34.000
49.75429 46.000
49.77424 33.000
49.79419 40.000
49.81414 37.000
49.83408 39.000
49.85403 32.000
49.87398 34.000
49.89392 35.000
49.91387 37.000
49.93382 25.000
49.95376 23.000
49.97371 38.000
49.99366 32.000
50.01361 37.000
50.03355 41.000
50.05350 26.000
50.07345 23.000
50.09339 28.000
50.11334 30.000
50.13329 38.000
50.15323 28.000
50.17318 23.000
50.19313 27.000
50.21307 26.000
50.23302 47.000
50.25297 27.000
50.27292 31.000
50.29286 20.000
50.31281 33.000
50.33276 29.000
50.35270 28.000
50.37265 28.000
50.39260 33.000
50.41254 29.000
50.43249 26.000
50.45244 32.000
50.47239 30.000
50.49233 33.000
50.51228 40.000
50.53223 38.000
50.55217 37.000
50.57212 26.000
50.59207 20.000
50.61201 39.000
50.63196 35.000
50.65191 32.000
50.67186 30.000
50.69180 25.000
50.71175 50.000
50.73170 29.000
50.75164 29.000
50.77159 28.000
50.79154 33.000
50.81148 28.000
50.83143 28.000
50.85138 23.000
50.87132 32.000
50.89127 33.000
50.91122 30.000
50.93117 35.000
50.95111 31.000
50.97106 28.000
50.99101 30.000
51.01095 26.000
51.03090 25.000
51.05085 33.000
51.07079 32.000
51.09074 32.000
51.11069 29.000
51.13064 17.000
51.15058 36.000
51.17053 28.000
51.19048 30.000
51.21042 24.000
51.23037 32.000
51.25032 27.000
51.27026 21.000
51.29021 32.000
51.31016 27.000
51.33010 17.000
51.35005 30.000
51.37000 29.000
51.38995 38.000
51.40989 32.000
51.42984 26.000
51.44979 25.000
51.46973 31.000
51.48968 27.000
51.50963 31.000
51.52957 22.000
51.54952 37.000
51.56947 31.000
51.58942 23.000
51.60936 31.000
51.62931 23.000
51.64926 28.000
51.66920 28.000
51.68915 27.000
51.70910 21.000
51.72904 32.000
51.74899 39.000
51.76894 26.000
51.78888 22.000
51.80883 22.000
51.82878 25.000
51.84873 26.000
51.86867 21.000
51.88862 29.000
51.90857 23.000
51.92851 33.000
51.94846 22.000
51.96841 21.000
51.98835 24.000
52.00830 25.000
52.02825 24.000
52.04820 27.000
52.06814 32.000
52.08809 22.000
52.10804 32.000
52.12798 26.000
52.14793 23.000
52.16788 25.000
52.18782 23.000
52.20777 26.000
52.22772 23.000
52.24767 22.000
52.26761 25.000
52.28756 30.000
52.30751 36.000
52.32745 40.000
52.34740 25.000
52.36735 28.000
52.38729 21.000
52.40724 24.000
52.42719 36.000
52.44713 34.000
52.46708 39.000
52.48703 34.000
52.50698 33.000
52.52692 43.000
52.54687 38.000
52.56682 41.000
52.58676 50.000
52.60671 33.000
52.62666 38.000
52.64660 36.000
52.66655 49.000
52.68650 40.000
52.70645 40.000
52.72639 36.000
52.74634 40.000
52.76629 46.000
52.78623 29.000
52.80618 37.000
52.82613 32.000
52.84607 28.000
52.86602 28.000
52.88597 42.000
52.90591 28.000
52.92586 31.000
52.94581 32.000
52.96576 26.000
52.98570 29.000
53.00565 32.000
53.02560 35.000
53.04554 22.000
53.06549 27.000
53.08544 15.000
53.10538 27.000
53.12533 31.000
53.14528 31.000
53.16523 22.000
53.18517 31.000
53.20512 30.000
53.22507 20.000
53.24501 22.000
53.26496 24.000
53.28491 24.000
53.30485 31.000
53.32480 24.000
53.34475 19.000
53.36469 21.000
53.38464 25.000
53.40459 24.000
53.42454 31.000
53.44448 31.000
53.46443 38.000
53.48438 33.000
53.50432 36.000
53.52427 26.000
53.54422 29.000
53.56416 28.000
53.58411 30.000
53.60406 25.000
53.62401 33.000
53.64395 38.000
53.66390 24.000
53.68385 24.000
53.70379 35.000
53.72374 14.000
53.74369 25.000
53.76363 17.000
53.78358 32.000
53.80353 24.000
53.82348 25.000
53.84342 27.000
53.86337 27.000
53.88332 32.000
53.90326 17.000
53.92321 25.000
53.94316 26.000
53.96310 20.000
53.98305 28.000
54.00300 25.000
54.02294 33.000
54.04289 38.000
54.06284 21.000
54.08279 35.000
54.10273 27.000
54.12268 26.000
54.14263 26.000
54.16257 21.000
54.18252 26.000
54.20247 31.000
54.22241 31.000
54.24236 33.000
54.26231 39.000
54.28226 28.000
54.30220 23.000
54.32215 24.000
54.34210 21.000
54.36204 20.000
54.38199 22.000
54.40194 22.000
54.42188 27.000
54.44183 30.000
54.46178 27.000
54.48172 24.000
54.50167 28.000
54.52162 13.000
54.54157 22.000
54.56151 26.000
54.58146 21.000
54.60141 30.000
54.62135 24.000
54.64130 23.000
54.66125 17.000
54.68119 33.000
54.70114 24.000
54.72109 28.000
54.74104 31.000
54.76098 26.000
54.78093 17.000
54.80088 23.000
54.82082 27.000
54.84077 16.000
54.86072 26.000
54.88066 26.000
54.90061 28.000
54.92056 27.000
54.94050 15.000
54.96045 16.000
54.98040 23.000
55.00035 34.000
55.02029 29.000
55.04024 22.000
55.06019 24.000
55.08013 20.000
55.10008 22.000
55.12003 20.000
55.13997 19.000
55.15992 21.000
55.17987 26.000
55.19982 17.000
55.21976 29.000
55.23971 21.000
55.25966 28.000
55.27960 19.000
55.29955 22.000
55.31950 23.000
55.33944 22.000
55.35939 26.000
55.37934 22.000
55.39929 28.000
55.41923 25.000
55.43918 32.000
55.45913 33.000
55.47907 24.000
55.49902 33.000
55.51897 27.000
55.53891 26.000
55.55886 36.000
55.57881 34.000
55.59875 30.000
55.61870 34.000
55.63865 30.000
55.65860 25.000
55.67854 37.000
55.69849 28.000
55.71844 33.000
55.73838 32.000
55.75833 33.000
55.77828 37.000
55.79822 22.000
55.81817 40.000
55.83812 34.000
55.85807 29.000
55.87801 32.000
55.89796 32.000
55.91791 50.000
55.93785 47.000
55.95780 56.000
55.97775 56.000
55.99769 61.000
56.01764 77.000
56.03759 84.000
56.05753 91.000
56.07748 88.000
56.09743 101.000
56.11738 79.000
56.13732 94.000
56.15727 79.000
56.17722 82.000
56.19716 75.000
56.21711 75.000
56.23706 61.000
56.25700 54.000
56.27695 57.000
56.29690 53.000
56.31685 45.000
56.33679 45.000
56.35674 48.000
56.37669 40.000
56.39663 39.000
56.41658 41.000
56.43653 35.000
56.45647 33.000
56.47642 29.000
56.49637 42.000
56.51631 36.000
56.53626 23.000
56.55621 27.000
56.57616 22.000
56.59610 27.000
56.61605 28.000
56.63600 17.000
56.65594 26.000
56.67589 31.000
56.69584 18.000
56.71578 21.000
56.73573 24.000
56.75568 19.000
56.77563 24.000
56.79557 22.000
56.81552 23.000
56.83547 23.000
56.85541 31.000
56.87536 22.000
56.89531 27.000
56.91525 29.000
56.93520 26.000
56.95515 20.000
56.97510 30.000
56.99504 20.000
57.01499 25.000
57.03494 30.000
57.05488 32.000
57.07483 23.000
57.09478 28.000
57.11472 23.000
57.13467 28.000
57.15462 24.000
57.17456 30.000
57.19451 23.000
57.21446 31.000
57.23441 31.000
57.25435 23.000
57.27430 31.000
57.29425 28.000
57.31419 28.000
57.33414 26.000
57.35409 28.000
57.37403 28.000
57.39398 26.000
57.41393 35.000
57.43388 19.000
57.45382 13.000
57.47377 25.000
57.49372 31.000
57.51366 28.000
57.53361 29.000
57.55356 25.000
57.57350 26.000
57.59345 30.000
57.61340 34.000
57.63334 24.000
57.65329 22.000
57.67324 26.000
57.69319 27.000
57.71313 25.000
57.73308 27.000
57.75303 18.000
57.77297 16.000
57.79292 27.000
57.81287 27.000
57.83281 21.000
57.85276 22.000
57.87271 25.000
57.89266 27.000
57.91260 23.000
57.93255 21.000
57.95250 16.000
57.97244 25.000
57.99239 35.000
58.01234 22.000
58.03228 27.000
58.05223 24.000
58.07218 18.000
58.09212 23.000
58.11207 26.000
58.13202 22.000
58.15197 23.000
58.17191 19.000
58.19186 24.000
58.21181 25.000
58.23175 17.000
58.25170 26.000
58.27165 16.000
58.29159 34.000
58.31154 23.000
58.33149 28.000
58.35144 29.000
58.37138 22.000
58.39133 24.000
58.41128 29.000
58.43122 23.000
58.45117 28.000
58.47112 29.000
58.49106 29.000
58.51101 32.000
58.53096 29.000
58.55090 29.000
58.57085 25.000
58.59080 29.000
58.61075 24.000
58.63069 37.000
58.65064 26.000
58.67059 27.000
58.69053 34.000
58.71048 21.000
58.73043 29.000
58.75037 35.000
58.77032 23.000
58.79027 34.000
58.81022 25.000
58.83016 24.000
58.85011 37.000
58.87006 30.000
58.89000 32.000
58.90995 27.000
58.92990 21.000
58.94984 28.000
58.96979 17.000
58.98974 31.000
59.00969 25.000
59.02963 43.000
59.04958 23.000
59.06953 18.000
59.08947 34.000
59.10942 30.000
59.12937 29.000
59.14931 28.000
59.16926 30.000
59.18921 26.000
59.20915 35.000
59.22910 27.000
59.24905 29.000
59.26900 23.000
59.28894 20.000
59.30889 29.000
59.32884 25.000
59.34878 27.000
59.36873 31.000
59.38868 21.000
59.40862 26.000
59.42857 34.000
59.44852 23.000
59.46847 19.000
59.48841 21.000
59.50836 31.000
59.52831 28.000
59.54825 17.000
59.56820 20.000
59.58815 33.000
59.60809 26.000
59.62804 25.000
59.64799 26.000
59.66793 22.000
59.68788 30.000
59.70783 32.000
59.72778 20.000
59.74772 37.000
59.76767 25.000
59.78762 26.000
59.80756 32.000
59.82751 33.000
59.84746 25.000
59.86740 27.000
59.88735 22.000
59.90730 40.000
59.92725 34.000
59.94719 31.000
59.96714 26.000
59.98709 21.000
60.00703 29.000
60.02698 27.000
60.04693 31.000
60.06687 26.000
60.08682 25.000
60.10677 33.000
60.12671 33.000
60.14666 25.000
60.16661 26.000
60.18656 27.000
60.20650 29.000
60.22645 38.000
60.24640 29.000
60.26634 31.000
60.28629 29.000
60.30624 26.000
60.32618 30.000
60.34613 29.000
60.36608 34.000
60.38603 26.000
60.40597 36.000
60.42592 32.000
60.44587 34.000
60.46581 28.000
60.48576 46.000
60.50571 35.000
60.52565 34.000
60.54560 39.000
60.56555 42.000
60.58550 42.000
60.60544 38.000
60.62539 36.000
60.64534 42.000
60.66528 31.000
60.68523 42.000
60.70518 45.000
60.72512 33.000
60.74507 28.000
60.76502 59.000
60.78496 48.000
60.80491 35.000
60.82486 55.000
60.84481 51.000
60.86475 51.000
60.88470 50.000
60.90465 52.000
60.92459 59.000
60.94454 77.000
60.96449 72.000
60.98443 70.000
61.00438 70.000
61.02433 84.000
61.04428 81.000
61.06422 97.000
61.08417 80.000
61.10412 109.000
61.12406 111.000
61.14401 134.000
61.16396 152.000
61.18390 179.000
61.20385 177.000
61.22380 172.000
61.24374 209.000
61.26369 301.000
61.28364 330.000
61.30359 367.000
61.32353 430.000
61.34348 509.000
61.36343 506.000
61.38337 428.000
61.40332 417.000
61.42327 397.000
61.44321 345.000
61.46316 387.000
61.48311 346.000
61.50306 374.000
61.52300 362.000
61.54295 332.000
61.56290 289.000
61.58284 253.000
61.60279 230.000
61.62274 225.000
61.64268 203.000
61.66263 137.000
61.68258 162.000
61.70252 168.000
61.72247 121.000
61.74242 131.000
61.76237 109.000
61.78231 119.000
61.80226 94.000
61.82221 90.000
61.84215 80.000
61.86210 89.000
61.88205 66.000
61.90199 68.000
61.92194 58.000
61.94189 60.000
61.96184 52.000
61.98178 49.000
62.00173 69.000
62.02168 49.000
62.04162 50.000
62.06157 49.000
62.08152 43.000
62.10146 53.000
62.12141 40.000
62.14136 39.000
62.16131 53.000
62.18125 37.000
62.20120 53.000
62.22115 35.000
62.24109 49.000
62.26104 25.000
62.28099 49.000
62.30093 43.000
62.32088 35.000
62.34083 44.000
62.36077 46.000
62.38072 47.000
62.40067 47.000
62.42062 34.000
62.44056 45.000
62.46051 35.000
62.48046 35.000
62.50040 39.000
62.52035 37.000
62.54030 32.000
62.56024 45.000
62.58019 40.000
62.60014 41.000
62.62009 43.000
62.64003 46.000
62.65998 38.000
62.67993 32.000
62.69987 39.000
62.71982 38.000
62.73977 42.000
62.75971 34.000
62.77966 38.000
62.79961 35.000
62.81955 31.000
62.83950 39.000
62.85945 30.000
62.87940 35.000
62.89934 36.000
62.91929 43.000
62.93924 40.000
62.95918 40.000
62.97913 48.000
62.99908 41.000
63.01902 33.000
63.03897 37.000
63.05892 32.000
63.07887 36.000
63.09881 27.000
63.11876 56.000
63.13871 50.000
63.15865 34.000
63.17860 42.000
63.19855 38.000
63.21849 47.000
63.23844 42.000
63.25839 33.000
63.27833 46.000
63.29828 50.000
63.31823 63.000
63.33818 53.000
63.35812 42.000
63.37807 65.000
63.39802 72.000
63.41796 71.000
63.43791 71.000
63.45786 67.000
63.47780 85.000
63.49775 98.000
63.51770 123.000
63.53765 156.000
63.55759 165.000
63.57754 205.000
63.59749 254.000
63.61743 282.000
63.63738 327.000
63.65733 309.000
63.67727 303.000
63.69722 278.000
63.71717 280.000
63.73712 278.000
63.75706 245.000
63.77701 298.000
63.79696 279.000
63.81690 241.000
63.83685 202.000
63.85680 197.000
63.87674 190.000
63.89669 180.000
63.91664 157.000
63.93658 128.000
63.95653 117.000
63.97648 118.000
63.99643 107.000
64.01637 82.000
64.03632 79.000
64.05627 61.000
64.07621 61.000
64.09616 54.000
64.11611 63.000
64.13605 49.000
64.15600 50.000
64.17595 44.000
64.19590 33.000
64.21584 47.000
64.23579 42.000
64.25574 44.000
64.27568 47.000
64.29563 36.000
64.31558 41.000
64.33552 41.000
64.35547 33.000
64.37542 36.000
64.39536 42.000
64.41531 31.000
64.43526 42.000
64.45521 46.000
64.47515 44.000
64.49510 34.000
64.51505 37.000
64.53499 45.000
64.55494 40.000
64.57489 38.000
64.59483 27.000
64.61478 28.000
64.63473 34.000
64.65468 34.000
64.67462 37.000
64.69457 34.000
64.71452 39.000
64.73446 33.000
64.75441 29.000
64.77436 29.000
64.79430 34.000
64.81425 39.000
64.83420 30.000
64.85414 36.000
64.87409 31.000
64.89404 42.000
64.91399 32.000
64.93393 45.000
64.95388 32.000
64.97383 29.000
64.99377 31.000
65.01372 41.000
65.03367 41.000
65.05361 44.000
65.07356 29.000
65.09351 33.000
65.11346 27.000
65.13340 30.000
65.15335 33.000
65.17330 27.000
65.19324 30.000
65.21319 28.000
65.23314 32.000
65.25308 28.000
65.27303 39.000
65.29298 34.000
65.31293 26.000
65.33287 31.000
65.35282 31.000
65.37277 24.000
65.39271 32.000
65.41266 33.000
65.43261 53.000
65.45255 44.000
65.47250 45.000
65.49245 38.000
65.51239 47.000
65.53234 33.000
65.55229 49.000
65.57224 38.000
65.59218 35.000
65.61213 43.000
65.63208 52.000
65.65202 47.000
65.67197 52.000
65.69192 56.000
65.71186 60.000
65.73181 52.000
65.75176 70.000
65.77171 54.000
65.79165 64.000
65.81160 77.000
65.83155 84.000
65.85149 80.000
65.87144 94.000
65.89139 119.000
65.91133 168.000
65.93128 188.000
65.95123 189.000
65.97117 230.000
65.99112 250.000
66.01107 242.000
66.03102 248.000
66.05096 240.000
66.07091 243.000
66.09086 240.000
66.11080 239.000
66.13075 221.000
66.15070 237.000
66.17064 230.000
66.19059 244.000
66.21054 240.000
66.23049 197.000
66.25043 182.000
66.27038 149.000
66.29033 143.000
66.31027 122.000
66.33022 111.000
66.35017 112.000
66.37011 111.000
66.39006 84.000
66.41001 67.000
66.42995 72.000
66.44990 47.000
66.46985 51.000
66.48980 57.000
66.50974 43.000
66.52969 45.000
66.54964 41.000
66.56958 33.000
66.58953 39.000
66.60948 29.000
66.62942 40.000
66.64937 31.000
66.66932 33.000
66.68927 30.000
66.70921 24.000
66.72916 29.000
66.74911 26.000
66.76905 27.000
66.78900 25.000
66.80895 26.000
66.82889 23.000
66.84884 23.000
66.86879 20.000
66.88874 31.000
66.90868 31.000
66.92863 25.000
66.94858 19.000
66.96852 20.000
66.98847 24.000
67.00842 29.000
67.02836 23.000
67.04831 25.000
67.06826 26.000
67.08820 33.000
67.10815 20.000
67.12810 23.000
67.14805 21.000
67.16799 22.000
67.18794 24.000
67.20789 24.000
67.22783 19.000
67.24778 23.000
67.26773 25.000
67.28767 28.000
67.30762 33.000
67.32757 19.000
67.34752 29.000
67.36746 30.000
67.38741 32.000
67.40736 23.000
67.42730 21.000
67.44725 29.000
67.46720 20.000
67.48714 24.000
67.50709 22.000
67.52704 32.000
67.54698 21.000
67.56693 25.000
67.58688 19.000
67.60683 21.000
67.62677 30.000
67.64672 19.000
67.66667 20.000
67.68661 24.000
67.70656 16.000
67.72651 16.000
67.74645 19.000
67.76640 23.000
67.78635 14.000
67.80630 25.000
67.82624 29.000
67.84619 24.000
67.86614 22.000
67.88608 18.000
67.90603 27.000
67.92598 23.000
67.94592 13.000
67.96587 18.000
67.98582 23.000
68.00576 21.000
68.02571 17.000
68.04566 17.000
68.06561 17.000
68.08555 27.000
68.10550 23.000
68.12545 22.000
68.14539 16.000
68.16534 20.000
68.18529 22.000
68.20523 21.000
68.22518 28.000
68.24513 20.000
68.26508 13.000
68.28502 19.000
68.30497 17.000
68.32492 21.000
68.34486 18.000
68.36481 26.000
68.38476 14.000
68.40470 20.000
68.42465 18.000
68.44460 24.000
68.46455 21.000
68.48449 19.000
68.50444 19.000
68.52439 24.000
68.54433 16.000
68.56428 27.000
68.58423 17.000
68.60417 15.000
68.62412 24.000
68.64407 19.000
68.66401 25.000
68.68396 14.000
68.70391 24.000
68.72386 29.000
68.74380 13.000
68.76375 32.000
68.78370 23.000
68.80364 27.000
68.82359 33.000
68.84354 17.000
68.86348 21.000
68.88343 29.000
68.90338 25.000
68.92333 34.000
68.94327 23.000
68.96322 33.000
68.98317 20.000
69.00311 27.000
69.02306 22.000
69.04301 33.000
69.06295 25.000
69.08290 29.000
69.10285 18.000
69.12279 20.000
69.14274 25.000
69.16269 23.000
69.18264 24.000
69.20258 20.000
69.22253 27.000
69.24248 27.000
69.26242 18.000
69.28237 32.000
69.30232 24.000
69.32226 17.000
69.34221 23.000
69.36216 24.000
69.38211 24.000
69.40205 24.000
69.42200 23.000
69.44195 17.000
69.46189 22.000
69.48184 12.000
69.50179 15.000
69.52173 19.000
69.54168 29.000
69.56163 19.000
69.58157 10.000
69.60152 9.000
69.62147 22.000
69.64142 22.000
69.66136 18.000
69.68131 17.000
69.70126 21.000
69.72120 18.000
69.74115 23.000
69.76110 23.000
69.78104 17.000
69.80099 28.000
69.82094 24.000
69.84089 25.000
69.86083 21.000
69.88078 24.000
69.90073 24.000
69.92067 31.000
69.94062 22.000
69.96057 18.000
69.98051 30.000
70.00046 27.000
70.02041 25.000
70.04035 22.000
70.06030 12.000
70.08025 20.000
70.10020 31.000
70.12014 21.000
70.14009 25.000
70.16004 16.000
70.17998 22.000
70.19993 19.000
70.21988 18.000
70.23982 11.000
70.25977 22.000
70.27972 15.000
70.29967 24.000
70.31961 22.000
70.33956 15.000
70.35951 25.000
70.37945 23.000
70.39940 6.000
70.41935 22.000
70.43929 18.000
70.45924 17.000
70.47919 18.000
70.49914 23.000
70.51908 15.000
70.53903 23.000
70.55898 24.000
70.57892 11.000
70.59887 18.000
70.61882 7.000
70.63876 21.000
70.65871 14.000
70.67866 21.000
70.69860 20.000
70.71855 14.000
70.73850 20.000
70.75845 15.000
70.77839 19.000
70.79834 20.000
70.81829 22.000
70.83823 11.000
70.85818 16.000
70.87813 18.000
70.89807 16.000
70.91802 21.000
70.93797 19.000
70.95792 12.000
70.97786 21.000
70.99781 24.000
71.01776 20.000
71.03770 13.000
71.05765 15.000
71.07760 30.000
71.09754 18.000
71.11749 18.000
71.13744 14.000
71.15738 17.000
71.17733 22.000
71.19728 17.000
71.21723 21.000
71.23717 14.000
71.25712 17.000
71.27707 25.000
71.29701 15.000
71.31696 19.000
71.33691 18.000
71.35685 29.000
71.37680 19.000
71.39675 9.000
71.41670 23.000
71.43664 21.000
71.45659 25.000
71.47654 24.000
71.49648 16.000
71.51643 16.000
71.53638 21.000
71.55632 20.000
71.57627 17.000
71.59622 18.000
71.61616 24.000
71.63611 16.000
71.65606 13.000
71.67601 20.000
71.69595 30.000
71.71590 21.000
71.73585 16.000
71.75579 16.000
71.77574 11.000
71.79569 14.000
71.81563 33.000
71.83558 21.000
71.85553 23.000
71.87548 21.000
71.89542 19.000
71.91537 13.000
71.93532 21.000
71.95526 17.000
71.97521 20.000
71.99516 25.000
72.01510 19.000
72.03505 20.000
72.05500 23.000
72.07495 26.000
72.09489 23.000
72.11484 21.000
72.13479 20.000
72.15473 15.000
72.17468 18.000
72.19463 26.000
72.21457 29.000
72.23452 28.000
72.25447 25.000
72.27441 20.000
72.29436 31.000
72.31431 19.000
72.33426 26.000
72.35420 35.000
72.37415 23.000
72.39410 23.000
72.41404 29.000
72.43399 28.000
72.45394 18.000
72.47388 37.000
72.49383 31.000
72.51378 32.000
72.53373 45.000
72.55367 46.000
72.57362 37.000
72.59357 47.000
72.61351 43.000
72.63346 51.000
72.65341 38.000
72.67335 62.000
72.69330 54.000
72.71325 68.000
72.73319 75.000
72.75314 93.000
72.77309 84.000
72.79304 119.000
72.81298 97.000
72.83293 103.000
72.85288 91.000
72.87282 123.000
72.89277 98.000
72.91272 104.000
72.93266 96.000
72.95261 71.000
72.97256 81.000
72.99251 89.000
73.01245 91.000
73.03240 89.000
73.05235 84.000
73.07229 77.000
73.09224 68.000
73.11219 64.000
73.13213 66.000
73.15208 54.000
73.17203 74.000
73.19197 43.000
73.21192 47.000
73.23187 38.000
73.25182 35.000
73.27176 32.000
73.29171 24.000
73.31166 29.000
73.33160 23.000
73.35155 28.000
73.37150 35.000
73.39144 24.000
73.41139 35.000
73.43134 34.000
73.45129 25.000
73.47123 35.000
73.49118 28.000
73.51113 28.000
73.53107 27.000
73.55102 20.000
73.57097 36.000
73.59091 18.000
73.61086 21.000
73.63081 22.000
73.65076 25.000
73.67070 34.000
73.69065 25.000
73.71060 24.000
73.73054 26.000
73.75049 29.000
73.77044 29.000
73.79038 24.000
73.81033 29.000
73.83028 31.000
73.85022 25.000
73.87017 27.000
73.89012 25.000
73.91007 18.000
73.93001 20.000
73.94996 29.000
73.96991 22.000
73.98985 29.000
74.00980 20.000
74.02975 24.000
74.04969 22.000
74.06964 15.000
74.08959 25.000
74.10954 24.000
74.12948 23.000
74.14943 23.000
74.16938 17.000
74.18932 26.000
74.20927 17.000
74.22922 25.000
74.24916 18.000
74.26911 34.000
74.28906 22.000
74.30900 25.000
74.32895 18.000
74.34890 15.000
74.36885 16.000
74.38879 22.000
74.40874 19.000
74.42869 24.000
74.44863 18.000
74.46858 14.000
74.48853 27.000
74.50847 19.000
74.52842 26.000
74.54837 27.000
74.56832 20.000
74.58826 24.000
74.60821 19.000
74.62816 16.000
74.64810 24.000
74.66805 26.000
74.68800 26.000
74.70794 24.000
74.72789 23.000
74.74784 20.000
74.76778 24.000
74.78773 35.000
74.80768 21.000
74.82763 28.000
74.84757 29.000
74.86752 32.000
74.88747 27.000
74.90741 34.000
74.92736 46.000
74.94731 43.000
74.96725 61.000
74.98720 53.000
75.00715 51.000
75.02710 40.000
75.04704 36.000
75.06699 36.000
75.08694 39.000
75.10688 40.000
75.12683 59.000
75.14678 44.000
75.16672 37.000
75.18667 45.000
75.20662 45.000
75.22657 40.000
75.24651 42.000
75.26646 39.000
75.28641 33.000
75.30635 27.000
75.32630 37.000
75.34625 31.000
75.36619 38.000
75.38614 30.000
75.40609 36.000
75.42603 28.000
75.44598 26.000
75.46593 32.000
75.48588 26.000
75.50582 25.000
75.52577 23.000
75.54572 20.000
75.56566 26.000
75.58561 26.000
75.60556 23.000
75.62550 17.000
75.64545 17.000
75.66540 21.000
75.68535 22.000
75.70529 20.000
75.72524 25.000
75.74519 23.000
75.76513 33.000
75.78508 20.000
75.80503 19.000
75.82497 18.000
75.84492 18.000
75.86487 18.000
75.88481 20.000
75.90476 20.000
75.92471 17.000
75.94466 20.000
75.96460 22.000
75.98455 20.000
76.00450 20.000
76.02444 19.000
76.04439 17.000
76.06434 26.000
76.08428 12.000
76.10423 16.000
76.12418 20.000
76.14413 21.000
76.16407 24.000
76.18402 23.000
76.20397 12.000
76.22391 18.000
76.24386 23.000
76.26381 21.000
76.28375 22.000
76.30370 29.000
76.32365 23.000
76.34359 28.000
76.36354 20.000
76.38349 19.000
76.40344 26.000
76.42338 31.000
76.44333 22.000
76.46328 26.000
76.48322 26.000
76.50317 21.000
76.52312 21.000
76.54306 26.000
76.56301 26.000
76.58296 33.000
76.60291 24.000
76.62285 28.000
76.64280 26.000
76.66275 31.000
76.68269 31.000
76.70264 28.000
76.72259 30.000
76.74253 34.000
76.76248 30.000
76.78243 35.000
76.80238 27.000
76.82232 34.000
76.84227 30.000
76.86222 46.000
76.88216 51.000
76.90211 34.000
76.92206 32.000
76.94200 49.000
76.96195 37.000
76.98190 38.000
77.00184 54.000
77.02179 62.000
77.04174 66.000
77.06169 79.000
77.08163 79.000
77.10158 108.000
77.12153 90.000
77.14147 99.000
77.16142 121.000
77.18137 122.000
77.20131 164.000
77.22126 127.000
77.24121 148.000
77.26116 163.000
77.28110 177.000
77.30105 160.000
77.32100 182.000
77.34094 172.000
77.36089 216.000
77.38084 180.000
77.40078 196.000
77.42073 179.000
77.44068 169.000
77.46062 158.000
77.48057 166.000
77.50052 133.000
77.52047 130.000
77.54041 125.000
77.56036 114.000
77.58031 103.000
77.60025 123.000
77.62020 113.000
77.64015 96.000
77.66009 93.000
77.68004 64.000
77.69999 75.000
77.71994 74.000
77.73988 60.000
77.75983 62.000
77.77978 49.000
77.79972 40.000
77.81967 41.000
77.83962 48.000
77.85956 37.000
77.87951 32.000
77.89946 41.000
77.91940 47.000
77.93935 35.000
77.95930 35.000
77.97925 24.000
77.99919 37.000
78.01914 33.000
78.03909 24.000
78.05903 24.000
78.07898 24.000
78.09893 37.000
78.11887 29.000
78.13882 21.000
78.15877 25.000
78.17872 26.000
78.19866 21.000
78.21861 26.000
78.23856 23.000
78.25850 19.000
78.27845 17.000
78.29840 23.000
78.31834 18.000
78.33829 13.000
78.35824 20.000
78.37819 18.000
78.39813 23.000
78.41808 22.000
78.43803 18.000
78.45797 19.000
78.47792 18.000
78.49787 19.000
78.51781 18.000
78.53776 23.000
78.55771 21.000
78.57765 19.000
78.59760 9.000
78.61755 18.000
78.63750 29.000
78.65744 21.000
78.67739 23.000
78.69734 14.000
78.71728 18.000
78.73723 15.000
78.75718 26.000
78.77712 22.000
78.79707 15.000
78.81702 21.000
78.83697 16.000
78.85691 19.000
78.87686 21.000
78.89681 16.000
78.91675 26.000
78.93670 18.000
78.95665 20.000
78.97659 19.000
78.99654 20.000
79.01649 14.000
79.03643 17.000
79.05638 20.000
79.07633 16.000
79.09628 23.000
79.11622 22.000
79.13617 17.000
79.15612 22.000
79.17606 18.000
79.19601 22.000
79.21596 11.000
79.23590 19.000
79.25585 16.000
79.27580 23.000
79.29575 18.000
79.31569 9.000
79.33564 19.000
79.35559 19.000
79.37553 17.000
79.39548 22.000
79.41543 20.000
79.43537 15.000
79.45532 16.000
79.47527 19.000
79.49521 18.000
79.51516 15.000
79.53511 25.000
79.55506 18.000
79.57500 18.000
79.59495 21.000
79.61490 15.000
79.63484 18.000
79.65479 25.000
79.67474 17.000
79.69468 26.000
79.71463 26.000
79.73458 15.000
79.75453 18.000
79.77447 24.000
79.79442 20.000
79.81437 32.000
79.83431 25.000
79.85426 26.000
79.87421 19.000
79.89415 26.000
79.91410 32.000
79.93405 32.000
79.95399 26.000
79.97394 20.000
79.99389 36.000
80.01384 19.000
80.03378 35.000
80.05373 33.000
80.07368 32.000
80.09362 24.000
80.11357 26.000
80.13352 28.000
80.15346 27.000
80.17341 31.000
80.19336 27.000
80.21331 32.000
80.23325 27.000
80.25320 31.000
80.27315 24.000
80.29309 20.000
80.31304 20.000
80.33299 23.000
80.35293 26.000
80.37288 26.000
80.39283 28.000
80.41278 21.000
80.43272 13.000
80.45267 18.000
80.47262 31.000
80.49256 24.000
80.51251 27.000
80.53246 17.000
80.55240 31.000
80.57235 17.000
80.59230 22.000
80.61224 20.000
80.63219 14.000
80.65214 24.000
80.67209 20.000
80.69203 23.000
80.71198 32.000
80.73193 17.000
80.75187 20.000
80.77182 19.000
80.79177 14.000
80.81171 17.000
80.83166 17.000
80.85161 20.000
80.87156 19.000
80.89150 14.000
80.91145 16.000
80.93140 17.000
80.95134 21.000
80.97129 15.000
80.99124 17.000
81.01118 14.000
81.03113 14.000
81.05108 20.000
81.07102 18.000
81.09097 21.000
81.11092 17.000
81.13087 19.000
81.15081 16.000
81.17076 21.000
81.19071 12.000
81.21065 23.000
81.23060 14.000
81.25055 21.000
81.27049 16.000
81.29044 13.000
81.31039 11.000
81.33034 11.000
81.35028 11.000
81.37023 15.000
81.39018 19.000
81.41012 11.000
81.43007 16.000
81.45002 13.000
81.46996 19.000
81.48991 20.000
81.50986 14.000
81.52980 12.000
81.54975 25.000
81.56970 13.000
81.58965 20.000
81.60959 19.000
81.62954 14.000
81.64949 26.000
81.66943 17.000
81.68938 16.000
81.70933 21.000
81.72927 14.000
81.74922 14.000
81.76917 18.000
81.78912 17.000
81.80906 17.000
81.82901 13.000
81.84896 18.000
81.86890 19.000
81.88885 15.000
81.90880 15.000
81.92874 13.000
81.94869 9.000
81.96864 15.000
81.98859 20.000
82.00853 20.000
82.02848 16.000
82.04843 22.000
82.06837 16.000
82.08832 15.000
82.10827 19.000
82.12821 14.000
82.14816 13.000
82.16811 20.000
82.18805 14.000
82.20800 16.000
82.22795 20.000
82.24790 14.000
82.26784 6.000
82.28779 19.000
82.30774 27.000
82.32768 14.000
82.34763 11.000
82.36758 23.000
82.38752 10.000
82.40747 15.000
82.42742 16.000
82.44737 18.000
82.46731 16.000
82.48726 13.000
82.50721 19.000
82.52715 16.000
82.54710 20.000
82.56705 19.000
82.58699 13.000
82.60694 27.000
82.62689 18.000
82.64683 17.000
82.66678 17.000
82.68673 15.000
82.70668 14.000
82.72662 17.000
82.74657 17.000
82.76652 19.000
82.78646 20.000
82.80641 31.000
82.82636 16.000
82.84630 20.000
82.86625 15.000
82.88620 22.000
82.90615 25.000
82.92609 16.000
82.94604 20.000
82.96599 17.000
82.98593 17.000
83.00588 15.000
83.02583 24.000
83.04577 17.000
83.06572 15.000
83.08567 26.000
83.10561 25.000
83.12556 25.000
83.14551 22.000
83.16546 22.000
83.18540 21.000
83.20535 30.000
83.22530 20.000
83.24524 21.000
83.26519 24.000
83.28514 38.000
83.30508 24.000
83.32503 26.000
83.34498 25.000
83.36493 30.000
83.38487 34.000
83.40482 27.000
83.42477 28.000
83.44471 34.000
83.46466 47.000
83.48461 39.000
83.50455 32.000
83.52450 37.000
83.54445 48.000
83.56440 49.000
83.58434 45.000
83.60429 67.000
83.62424 58.000
83.64418 85.000
83.66413 126.000
83.68408 84.000
83.70402 128.000
83.72397 117.000
83.74392 113.000
83.76386 100.000
83.78381 89.000
83.80376 99.000
83.82371 87.000
83.84365 85.000
83.86360 83.000
83.88355 92.000
83.90349 88.000
83.92344 115.000
83.94339 98.000
83.96333 96.000
83.98328 78.000
84.00323 73.000
84.02318 77.000
84.04312 74.000
84.06307 65.000
84.08302 60.000
84.10296 37.000
84.12291 46.000
84.14286 44.000
84.16280 42.000
84.18275 32.000
84.20270 41.000
84.22264 35.000
84.24259 35.000
84.26254 34.000
84.28249 33.000
84.30243 26.000
84.32238 21.000
84.34233 25.000
84.36227 34.000
84.38222 30.000
84.40217 18.000
84.42211 21.000
84.44206 24.000
84.46201 25.000
84.48196 27.000
84.50190 33.000
84.52185 18.000
84.54180 18.000
84.56174 18.000
84.58169 11.000
84.60164 21.000
84.62158 20.000
84.64153 16.000
84.66148 16.000
84.68142 29.000
84.70137 13.000
84.72132 20.000
84.74127 23.000
84.76121 19.000
84.78116 18.000
84.80111 17.000
84.82105 25.000
84.84100 24.000
84.86095 28.000
84.88089 29.000
84.90084 17.000
84.92079 19.000
84.94074 20.000
84.96068 20.000
84.98063 20.000
85.00058 16.000
85.02052 18.000
85.04047 13.000
85.06042 25.000
85.08036 27.000
85.10031 24.000
85.12026 14.000
85.14021 16.000
85.16015 17.000
85.18010 25.000
85.20005 20.000
85.21999 19.000
85.23994 25.000
85.25989 19.000
85.27983 18.000
85.29978 31.000
85.31973 18.000
85.33967 22.000
85.35962 17.000
85.37957 24.000
85.39952 29.000
85.41946 18.000
85.43941 26.000
85.45936 23.000
85.47930 23.000
85.49925 19.000
85.51920 23.000
85.53914 21.000
85.55909 20.000
85.57904 19.000
85.59899 28.000
85.61893 17.000
85.63888 13.000
85.65883 32.000
85.67877 22.000
85.69872 25.000
85.71867 17.000
85.73861 26.000
85.75856 18.000
85.77851 29.000
85.79845 29.000
85.81840 25.000
85.83835 25.000
85.85830 36.000
85.87824 30.000
85.89819 29.000
85.91814 28.000
85.93808 35.000
85.95803 26.000
85.97798 26.000
85.99792 33.000
86.01787 36.000
86.03782 36.000
86.05777 36.000
86.07771 36.000
86.09766 36.000
86.11761 22.000
86.13755 35.000
86.15750 35.000
86.17745 28.000
86.19739 37.000
86.21734 24.000
86.23729 28.000
86.25723 27.000
86.27718 27.000
86.29713 32.000
86.31708 44.000
86.33702 35.000
86.35697 26.000
86.37692 35.000
86.39686 27.000
86.41681 35.000
86.43676 34.000
86.45670 37.000
86.47665 24.000
86.49660 31.000
86.51655 29.000
86.53649 37.000
86.55644 32.000
86.57639 26.000
86.59633 31.000
86.61628 25.000
86.63623 30.000
86.65617 26.000
86.67612 26.000
86.69607 31.000
86.71602 33.000
86.73596 29.000
86.75591 19.000
86.77586 34.000
86.79580 30.000
86.81575 26.000
86.83570 24.000
86.85564 23.000
86.87559 18.000
86.89554 21.000
86.91548 24.000
86.93543 25.000
86.95538 22.000
86.97533 18.000
86.99527 15.000
87.01522 23.000
87.03517 24.000
87.05511 22.000
87.07506 18.000
87.09501 18.000
87.11495 17.000
87.13490 22.000
87.15485 16.000
87.17480 21.000
87.19474 20.000
87.21469 18.000
87.23464 12.000
87.25458 23.000
87.27453 18.000
87.29448 22.000
87.31442 17.000
87.33437 21.000
87.35432 23.000
87.37426 19.000
87.39421 20.000
87.41416 16.000
87.43411 14.000
87.45405 19.000
87.47400 9.000
87.49395 18.000
87.51389 26.000
87.53384 18.000
87.55379 15.000
87.57373 14.000
87.59368 15.000
87.61363 19.000
87.63358 24.000
87.65352 19.000
87.67347 23.000
87.69342 27.000
87.71336 25.000
87.73331 21.000
87.75326 11.000
87.77320 16.000
87.79315 17.000
87.81310 29.000
87.83304 18.000
87.85299 17.000
87.87294 20.000
87.89289 31.000
87.91283 30.000
87.93278 36.000
87.95273 31.000
87.97267 20.000
87.99262 21.000
88.01257 25.000
88.03251 27.000
88.05246 31.000
88.07241 29.000
88.09236 41.000
88.11230 29.000
88.13225 14.000
88.15220 37.000
88.17214 33.000
88.19209 26.000
88.21204 29.000
88.23198 22.000
88.25193 30.000
88.27188 30.000
88.29183 24.000
88.31177 18.000
88.33172 24.000
88.35167 29.000
88.37161 30.000
88.39156 27.000
88.41151 25.000
88.43145 20.000
88.45140 27.000
88.47135 21.000
88.49129 17.000
88.51124 23.000
88.53119 21.000
88.55114 18.000
88.57108 18.000
88.59103 19.000
88.61098 21.000
88.63092 9.000
88.65087 13.000
88.67082 18.000
88.69076 16.000
88.71071 22.000
88.73066 23.000
88.75061 10.000
88.77055 20.000
88.79050 11.000
88.81045 22.000
88.83039 16.000
88.85034 18.000
88.87029 20.000
88.89023 11.000
88.91018 15.000
88.93013 11.000
88.95007 9.000
88.97002 19.000
88.98997 17.000
89.00992 10.000
89.02986 13.000
89.04981 12.000
89.06976 18.000
89.08970 12.000
89.10965 8.000
89.12960 16.000
89.14954 5.000
89.16949 11.000
89.18944 16.000
89.20939 11.000
89.22933 14.000
89.24928 16.000
89.26923 14.000
89.28917 23.000
89.30912 11.000
89.32907 15.000
89.34901 23.000
89.36896 20.000
89.38891 21.000
89.40885 9.000
89.42880 11.000
89.44875 12.000
89.46870 19.000
89.48864 14.000
89.50859 15.000
89.52854 17.000
89.54848 15.000
89.56843 19.000
89.58838 18.000
89.60832 14.000
89.62827 15.000
89.64822 17.000
89.66817 9.000
89.68811 9.000
89.70806 10.000
89.72801 13.000
89.74795 16.000
89.76790 9.000
89.78785 17.000
89.80779 19.000
89.82774 9.000
89.84769 16.000
89.86764 13.000
89.88758 15.000
89.90753 16.000
89.92748 20.000
89.94742 15.000
89.96737 13.000
89.98732 22.000
90.00726 18.000
