10.00000 234.000
10.01995 220.000
10.03989 233.000
10.05984 246.000
10.07979 253.000
10.09973 241.000
10.11968 224.000
10.13963 245.000
10.15958 249.000
10.17952 254.000
10.19947 236.000
10.21942 255.000
10.23936 246.000
10.25931 223.000
10.27926 233.000
10.29920 216.000
10.31915 239.000
10.33910 275.000
10.35905 230.000
10.37899 261.000
10.39894 226.000
10.41889 236.000
10.43883 216.000
10.45878 234.000
10.47873 233.000
10.49867 232.000
10.51862 227.000
10.53857 256.000
10.55851 251.000
10.57846 234.000
10.59841 227.000
10.61836 246.000
10.63830 255.000
10.65825 231.000
10.67820 242.000
10.69814 269.000
10.71809 258.000
10.73804 248.000
10.75798 248.000
10.77793 232.000
10.79788 217.000
10.81783 241.000
10.83777 239.000
10.85772 237.000
10.87767 213.000
10.89761 247.000
10.91756 254.000
10.93751 233.000
10.95745 241.000
10.97740 268.000
10.99735 235.000
11.01730 237.000
11.03724 232.000
11.05719 243.000
11.07714 269.000
11.09708 241.000
11.11703 244.000
11.13698 258.000
11.15692 253.000
11.17687 235.000
11.19682 236.000
11.21676 239.000
11.23671 220.000
11.25666 261.000
11.27661 219.000
11.29655 256.000
11.31650 230.000
11.33645 213.000
11.35639 226.000
11.37634 244.000
11.39629 245.000
11.41623 246.000
11.43618 244.000
11.45613 256.000
11.47608 214.000
11.49602 269.000
11.51597 273.000
11.53592 256.000
11.55586 223.000
11.57581 191.000
11.59576 218.000
11.61570 225.000
11.63565 252.000
11.65560 236.000
11.67554 240.000
11.69549 239.000
11.71544 219.000
11.73539 235.000
11.75533 256.000
11.77528 238.000
11.79523 234.000
11.81517 227.000
11.83512 248.000
11.85507 239.000
11.87501 244.000
11.89496 227.000
11.91491 255.000
11.93486 255.000
11.95480 276.000
11.97475 247.000
11.99470 243.000
12.01464 253.000
12.03459 253.000
12.05454 241.000
12.07448 238.000
12.09443 225.000
12.11438 259.000
12.13432 210.000
12.15427 243.000
12.17422 232.000
12.19417 267.000
12.21411 226.000
12.23406 253.000
12.25401 246.000
12.27395 243.000
12.29390 272.000
12.31385 250.000
12.33379 236.000
12.35374 234.000
12.37369 231.000
12.39364 262.000
12.41358 270.000
12.43353 255.000
12.45348 263.000
12.47342 248.000
12.49337 252.000
12.51332 249.000
12.53326 236.000
12.55321 258.000
12.57316 254.000
12.59311 279.000
12.61305 257.000
12.63300 240.000
12.65295 257.000
12.67289 243.000
12.69284 262.000
12.71279 234.000
12.73273 294.000
12.75268 288.000
12.77263 263.000
12.79257 242.000
12.81252 282.000
12.83247 311.000
12.85242 279.000
12.87236 272.000
12.89231 273.000
12.91226 255.000
12.93220 319.000
12.95215 287.000
12.97210 268.000
12.99204 264.000
13.01199 306.000
13.03194 272.000
13.05189 321.000
13.07183 293.000
13.09178 290.000
13.11173 283.000
13.13167 322.000
13.15162 320.000
13.17157 364.000
13.19151 365.000
13.21146 405.000
13.23141 444.000
13.25135 433.000
13.27130 492.000
13.29125 551.000
13.31120 597.000
13.33114 681.000
13.35109 721.000
13.37104 738.000
13.39098 824.000
13.41093 816.000
13.43088 828.000
13.45082 762.000
13.47077 841.000
13.49072 769.000
13.51067 713.000
13.53061 680.000
13.55056 725.000
13.57051 694.000
13.59045 642.000
13.61040 626.000
13.63035 623.000
13.65029 614.000
13.67024 618.000
13.69019 594.000
13.71013 608.000
13.73008 530.000
13.75003 524.000
13.76998 568.000
13.78992 539.000
13.80987 523.000
13.82982 467.000
13.84976 413.000
13.86971 418.000
13.88966 354.000
13.90960 339.000
13.92955 320.000
13.94950 292.000
13.96945 303.000
13.98939 308.000
14.00934 271.000
14.02929 288.000
14.04923 236.000
14.06918 260.000
14.08913 277.000
14.10907 262.000
14.12902 255.000
14.14897 268.000
14.16892 246.000
14.18886 292.000
14.20881 278.000
14.22876 255.000
14.24870 261.000
14.26865 253.000
14.28860 259.000
14.30854 286.000
14.32849 265.000
14.34844 249.000
14.36838 235.000
14.38833 245.000
14.40828 264.000
14.42823 228.000
14.44817 265.000
14.46812 248.000
14.48807 266.000
14.50801 232.000
14.52796 286.000
14.54791 244.000
14.56785 261.000
14.58780 277.000
14.60775 263.000
14.62770 246.000
14.64764 259.000
14.66759 247.000
14.68754 271.000
14.70748 252.000
14.72743 287.000
14.74738 257.000
14.76732 254.000
14.78727 255.000
14.80722 262.000
14.82716 267.000
14.84711 270.000
14.86706 266.000
14.88701 293.000
14.90695 295.000
14.92690 256.000
14.94685 267.000
14.96679 239.000
14.98674 250.000
15.00669 260.000
15.02663 252.000
15.04658 257.000
15.06653 262.000
15.08648 275.000
15.10642 284.000
15.12637 286.000
15.14632 316.000
15.16626 313.000
15.18621 284.000
15.20616 294.000
15.22610 312.000
15.24605 266.000
15.26600 326.000
15.28594 279.000
15.30589 268.000
15.32584 272.000
15.34579 299.000
15.36573 322.000
15.38568 333.000
15.40563 349.000
15.42557 335.000
15.44552 340.000
15.46547 375.000
15.48541 350.000
15.50536 364.000
15.52531 385.000
15.54526 439.000
15.56520 486.000
15.58515 542.000
15.60510 632.000
15.62504 763.000
15.64499 879.000
15.66494 1072.000
15.68488 1524.000
15.70483 2151.000
15.72478 2874.000
15.74472 3878.000
15.76467 5040.000
15.78462 6206.000
15.80457 7314.000
15.82451 7983.000
15.84446 8219.000
15.86441 7480.000
15.88435 6016.000
15.90430 4378.000
15.92425 2760.000
15.94419 1755.000
15.96414 1075.000
15.98409 752.000
16.00404 562.000
16.02398 476.000
16.04393 430.000
16.06388 420.000
16.08382 367.000
16.10377 374.000
16.12372 354.000
16.14366 328.000
16.16361 288.000
16.18356 315.000
16.20351 296.000
16.22345 332.000
16.24340 284.000
16.26335 300.000
16.28329 278.000
16.30324 297.000
16.32319 280.000
16.34313 297.000
16.36308 280.000
16.38303 283.000
16.40297 280.000
16.42292 275.000
16.44287 275.000
16.46282 307.000
16.48276 308.000
16.50271 278.000
16.52266 260.000
16.54260 284.000
16.56255 255.000
16.58250 291.000
16.60244 249.000
16.62239 246.000
16.64234 276.000
16.66229 252.000
16.68223 246.000
16.70218 287.000
16.72213 287.000
16.74207 242.000
16.76202 281.000
16.78197 258.000
16.80191 261.000
16.82186 335.000
16.84181 285.000
16.86175 295.000
16.88170 291.000
16.90165 271.000
16.92160 287.000
16.94154 267.000
16.96149 248.000
16.98144 266.000
17.00138 250.000
17.02133 262.000
17.04128 247.000
17.06122 248.000
17.08117 263.000
17.10112 281.000
17.12107 261.000
17.14101 242.000
17.16096 235.000
17.18091 253.000
17.20085 236.000
17.22080 257.000
17.24075 248.000
17.26069 258.000
17.28064 259.000
17.30059 267.000
17.32053 270.000
17.34048 260.000
17.36043 214.000
17.38038 238.000
17.40032 264.000
17.42027 253.000
17.44022 255.000
17.46016 238.000
17.48011 262.000
17.50006 238.000
17.52000 251.000
17.53995 231.000
17.55990 240.000
17.57985 241.000
17.59979 250.000
17.61974 247.000
17.63969 243.000
17.65963 225.000
17.67958 236.000
17.69953 228.000
17.71947 272.000
17.73942 244.000
17.75937 255.000
17.77932 221.000
17.79926 234.000
17.81921 229.000
17.83916 249.000
17.85910 250.000
17.87905 279.000
17.89900 258.000
17.91894 263.000
17.93889 255.000
17.95884 250.000
17.97878 247.000
17.99873 264.000
18.01868 247.000
18.03863 219.000
18.05857 240.000
18.07852 273.000
18.09847 244.000
18.11841 248.000
18.13836 258.000
18.15831 207.000
18.17825 287.000
18.19820 263.000
18.21815 261.000
18.23810 265.000
18.25804 269.000
18.27799 231.000
18.29794 254.000
18.31788 240.000
18.33783 265.000
18.35778 254.000
18.37772 239.000
18.39767 252.000
18.41762 254.000
18.43756 238.000
18.45751 264.000
18.47746 258.000
18.49741 244.000
18.51735 238.000
18.53730 221.000
18.55725 261.000
18.57719 255.000
18.59714 265.000
18.61709 217.000
18.63703 223.000
18.65698 240.000
18.67693 251.000
18.69688 264.000
18.71682 229.000
18.73677 224.000
18.75672 232.000
18.77666 271.000
18.79661 211.000
18.81656 235.000
18.83650 247.000
18.85645 260.000
18.87640 264.000
18.89634 237.000
18.91629 279.000
18.93624 235.000
18.95619 241.000
18.97613 257.000
18.99608 278.000
19.01603 281.000
19.03597 249.000
19.05592 262.000
19.07587 250.000
19.09581 226.000
19.11576 231.000
19.13571 252.000
19.15566 253.000
19.17560 241.000
19.19555 246.000
19.21550 221.000
19.23544 237.000
19.25539 230.000
19.27534 274.000
19.29528 215.000
19.31523 257.000
19.33518 250.000
19.35513 251.000
19.37507 247.000
19.39502 234.000
19.41497 289.000
19.43491 245.000
19.45486 277.000
19.47481 269.000
19.49475 208.000
19.51470 238.000
19.53465 238.000
19.55459 276.000
19.57454 270.000
19.59449 219.000
19.61444 219.000
19.63438 303.000
19.65433 255.000
19.67428 258.000
19.69422 264.000
19.71417 268.000
19.73412 242.000
19.75406 257.000
19.77401 259.000
19.79396 245.000
19.81391 212.000
19.83385 230.000
19.85380 260.000
19.87375 251.000
19.89369 259.000
19.91364 279.000
19.93359 284.000
19.95353 271.000
19.97348 269.000
19.99343 251.000
20.01337 258.000
20.03332 267.000
20.05327 234.000
20.07322 247.000
20.09316 272.000
20.11311 267.000
20.13306 236.000
20.15300 259.000
20.17295 253.000
20.19290 279.000
20.21284 255.000
20.23279 286.000
20.25274 258.000
20.27269 207.000
20.29263 234.000
20.31258 252.000
20.33253 241.000
20.35247 248.000
20.37242 258.000
20.39237 272.000
20.41231 237.000
20.43226 271.000
20.45221 267.000
20.47215 263.000
20.49210 244.000
20.51205 278.000
20.53200 268.000
20.55194 246.000
20.57189 239.000
20.59184 264.000
20.61178 229.000
20.63173 253.000
20.65168 226.000
20.67162 260.000
20.69157 254.000
20.71152 287.000
20.73147 273.000
20.75141 275.000
20.77136 252.000
20.79131 277.000
20.81125 290.000
20.83120 269.000
20.85115 307.000
20.87109 280.000
20.89104 300.000
20.91099 297.000
20.93094 247.000
20.95088 256.000
20.97083 250.000
20.99078 318.000
21.01072 282.000
21.03067 275.000
21.05062 280.000
21.07056 272.000
21.09051 266.000
21.11046 252.000
21.13040 262.000
21.15035 271.000
21.17030 268.000
21.19025 255.000
21.21019 299.000
21.23014 229.000
21.25009 232.000
21.27003 252.000
21.28998 260.000
21.30993 236.000
21.32987 255.000
21.34982 228.000
21.36977 221.000
21.38972 234.000
21.40966 229.000
21.42961 261.000
21.44956 224.000
21.46950 236.000
21.48945 252.000
21.50940 244.000
21.52934 286.000
21.54929 262.000
21.56924 273.000
21.58918 251.000
21.60913 238.000
21.62908 257.000
21.64903 230.000
21.66897 281.000
21.68892 269.000
21.70887 289.000
21.72881 242.000
21.74876 258.000
21.76871 251.000
21.78865 268.000
21.80860 281.000
21.82855 247.000
21.84850 270.000
21.86844 256.000
21.88839 269.000
21.90834 236.000
21.92828 261.000
21.94823 246.000
21.96818 231.000
21.98812 236.000
22.00807 261.000
22.02802 251.000
22.04796 240.000
22.06791 262.000
22.08786 256.000
22.10781 239.000
22.12775 239.000
22.14770 251.000
22.16765 244.000
22.18759 256.000
22.20754 247.000
22.22749 237.000
22.24743 238.000
22.26738 245.000
22.28733 266.000
22.30728 225.000
22.32722 231.000
22.34717 240.000
22.36712 250.000
22.38706 252.000
22.40701 246.000
22.42696 241.000
22.44690 217.000
22.46685 248.000
22.48680 266.000
22.50675 253.000
22.52669 226.000
22.54664 269.000
22.56659 269.000
22.58653 251.000
22.60648 252.000
22.62643 236.000
22.64637 242.000
22.66632 242.000
22.68627 247.000
22.70621 264.000
22.72616 262.000
22.74611 241.000
22.76606 224.000
22.78600 285.000
22.80595 243.000
22.82590 255.000
22.84584 250.000
22.86579 246.000
22.88574 249.000
22.90568 279.000
22.92563 265.000
22.94558 254.000
22.96553 263.000
22.98547 251.000
23.00542 250.000
23.02537 287.000
23.04531 255.000
23.06526 230.000
23.08521 248.000
23.10515 261.000
23.12510 287.000
23.14505 259.000
23.16499 239.000
23.18494 252.000
23.20489 248.000
23.22484 262.000
23.24478 274.000
23.26473 242.000
23.28468 242.000
23.30462 268.000
23.32457 276.000
23.34452 255.000
23.36446 251.000
23.38441 266.000
23.40436 295.000
23.42431 233.000
23.44425 218.000
23.46420 234.000
23.48415 252.000
23.50409 267.000
23.52404 266.000
23.54399 264.000
23.56393 322.000
23.58388 293.000
23.60383 283.000
23.62377 307.000
23.64372 340.000
23.66367 356.000
23.68362 396.000
23.70356 410.000
23.72351 444.000
23.74346 494.000
23.76340 450.000
23.78335 466.000
23.80330 516.000
23.82324 517.000
23.84319 512.000
23.86314 478.000
23.88309 511.000
23.90303 473.000
23.92298 439.000
23.94293 433.000
23.96287 393.000
23.98282 412.000
24.00277 361.000
24.02271 308.000
24.04266 351.000
24.06261 341.000
24.08256 305.000
24.10250 341.000
24.12245 308.000
24.14240 286.000
24.16234 286.000
24.18229 316.000
24.20224 295.000
24.22218 295.000
24.24213 293.000
24.26208 256.000
24.28202 260.000
24.30197 268.000
24.32192 263.000
24.34187 256.000
24.36181 257.000
24.38176 257.000
24.40171 257.000
24.42165 261.000
24.44160 317.000
24.46155 250.000
24.48149 266.000
24.50144 270.000
24.52139 263.000
24.54134 246.000
24.56128 267.000
24.58123 291.000
24.60118 282.000
24.62112 239.000
24.64107 270.000
24.66102 267.000
24.68096 270.000
24.70091 235.000
24.72086 265.000
24.74080 250.000
24.76075 266.000
24.78070 286.000
24.80065 244.000
24.82059 260.000
24.84054 290.000
24.86049 247.000
24.88043 270.000
24.90038 279.000
24.92033 277.000
24.94027 282.000
24.96022 281.000
24.98017 267.000
25.00012 288.000
25.02006 299.000
25.04001 291.000
25.05996 285.000
25.07990 301.000
25.09985 262.000
25.11980 249.000
25.13974 258.000
25.15969 297.000
25.17964 294.000
25.19958 267.000
25.21953 256.000
25.23948 244.000
25.25943 241.000
25.27937 256.000
25.29932 250.000
25.31927 268.000
25.33921 275.000
25.35916 248.000
25.37911 232.000
25.39905 255.000
25.41900 235.000
25.43895 238.000
25.45890 259.000
25.47884 268.000
25.49879 269.000
25.51874 251.000
25.53868 220.000
25.55863 256.000
25.57858 272.000
25.59852 236.000
25.61847 265.000
25.63842 289.000
25.65837 260.000
25.67831 264.000
25.69826 262.000
25.71821 251.000
25.73815 277.000
25.75810 271.000
25.77805 270.000
25.79799 226.000
25.81794 260.000
25.83789 230.000
25.85783 235.000
25.87778 288.000
25.89773 263.000
25.91768 281.000
25.93762 233.000
25.95757 270.000
25.97752 282.000
25.99746 261.000
26.01741 265.000
26.03736 248.000
26.05730 252.000
26.07725 260.000
26.09720 251.000
26.11715 276.000
26.13709 273.000
26.15704 258.000
26.17699 263.000
26.19693 258.000
26.21688 290.000
26.23683 258.000
26.25677 254.000
26.27672 247.000
26.29667 248.000
26.31661 260.000
26.33656 257.000
26.35651 272.000
26.37646 245.000
26.39640 245.000
26.41635 257.000
26.43630 241.000
26.45624 261.000
26.47619 272.000
26.49614 272.000
26.51608 255.000
26.53603 268.000
26.55598 258.000
26.57593 261.000
26.59587 243.000
26.61582 265.000
26.63577 258.000
26.65571 270.000
26.67566 239.000
26.69561 259.000
26.71555 264.000
26.73550 250.000
26.75545 264.000
26.77539 251.000
26.79534 281.000
26.81529 251.000
26.83524 254.000
26.85518 271.000
26.87513 244.000
26.89508 258.000
26.91502 254.000
26.93497 248.000
26.95492 271.000
26.97486 240.000
26.99481 262.000
27.01476 242.000
27.03471 269.000
27.05465 274.000
27.07460 290.000
27.09455 294.000
27.11449 303.000
27.13444 306.000
27.15439 305.000
27.17433 307.000
27.19428 270.000
27.21423 281.000
27.23417 267.000
27.25412 273.000
27.27407 254.000
27.29402 260.000
27.31396 269.000
27.33391 256.000
27.35386 274.000
27.37380 235.000
27.39375 254.000
27.41370 256.000
27.43364 256.000
27.45359 268.000
27.47354 236.000
27.49349 268.000
27.51343 252.000
27.53338 265.000
27.55333 271.000
27.57327 286.000
27.59322 276.000
27.61317 281.000
27.63311 294.000
27.65306 275.000
27.67301 285.000
27.69296 265.000
27.71290 270.000
27.73285 257.000
27.75280 257.000
27.77274 260.000
27.79269 247.000
27.81264 282.000
27.83258 275.000
27.85253 263.000
27.87248 261.000
27.89242 253.000
27.91237 264.000
27.93232 268.000
27.95227 249.000
27.97221 262.000
27.99216 269.000
28.01211 251.000
28.03205 273.000
28.05200 259.000
28.07195 275.000
28.09189 272.000
28.11184 254.000
28.13179 279.000
28.15174 264.000
28.17168 273.000
28.19163 279.000
28.21158 264.000
28.23152 281.000
28.25147 295.000
28.27142 311.000
28.29136 303.000
28.31131 279.000
28.33126 323.000
28.35120 262.000
28.37115 287.000
28.39110 270.000
28.41105 283.000
28.43099 263.000
28.45094 272.000
28.47089 261.000
28.49083 244.000
28.51078 232.000
28.53073 259.000
28.55067 240.000
28.57062 273.000
28.59057 261.000
28.61052 273.000
28.63046 257.000
28.65041 253.000
28.67036 285.000
28.69030 277.000
28.71025 278.000
28.73020 254.000
28.75014 268.000
28.77009 254.000
28.79004 270.000
28.80998 252.000
28.82993 277.000
28.84988 249.000
28.86983 262.000
28.88977 276.000
28.90972 240.000
28.92967 226.000
28.94961 247.000
28.96956 268.000
28.98951 271.000
29.00945 252.000
29.02940 276.000
29.04935 252.000
29.06930 240.000
29.08924 249.000
29.10919 266.000
29.12914 287.000
29.14908 267.000
29.16903 288.000
29.18898 248.000
29.20892 244.000
29.22887 285.000
29.24882 235.000
29.26877 268.000
29.28871 314.000
29.30866 312.000
29.32861 350.000
29.34855 328.000
29.36850 345.000
29.38845 344.000
29.40839 356.000
29.42834 347.000
29.44829 342.000
29.46823 348.000
29.48818 295.000
29.50813 302.000
29.52808 322.000
29.54802 274.000
29.56797 298.000
29.58792 278.000
29.60786 258.000
29.62781 264.000
29.64776 262.000
29.66770 262.000
29.68765 261.000
29.70760 261.000
29.72755 284.000
29.74749 276.000
29.76744 251.000
29.78739 243.000
29.80733 289.000
29.82728 260.000
29.84723 266.000
29.86717 265.000
29.88712 281.000
29.90707 272.000
29.92701 265.000
29.94696 303.000
29.96691 274.000
29.98686 265.000
30.00680 275.000
30.02675 317.000
30.04670 306.000
30.06664 317.000
30.08659 310.000
30.10654 318.000
30.12648 328.000
30.14643 336.000
30.16638 326.000
30.18633 303.000
30.20627 302.000
30.22622 278.000
30.24617 284.000
30.26611 272.000
30.28606 277.000
30.30601 261.000
30.32595 268.000
30.34590 287.000
30.36585 272.000
30.38579 262.000
30.40574 254.000
30.42569 277.000
30.44564 233.000
30.46558 265.000
30.48553 242.000
30.50548 285.000
30.52542 283.000
30.54537 260.000
30.56532 287.000
30.58526 257.000
30.60521 235.000
30.62516 251.000
30.64511 273.000
30.66505 279.000
30.68500 289.000
30.70495 282.000
30.72489 292.000
30.74484 279.000
30.76479 300.000
30.78473 271.000
30.80468 289.000
30.82463 298.000
30.84458 261.000
30.86452 304.000
30.88447 268.000
30.90442 278.000
30.92436 296.000
30.94431 303.000
30.96426 271.000
30.98420 290.000
31.00415 268.000
31.02410 254.000
31.04404 265.000
31.06399 279.000
31.08394 286.000
31.10389 291.000
31.12383 269.000
31.14378 247.000
31.16373 266.000
31.18367 272.000
31.20362 300.000
31.22357 272.000
31.24351 319.000
31.26346 266.000
31.28341 291.000
31.30336 303.000
31.32330 257.000
31.34325 277.000
31.36320 273.000
31.38314 270.000
31.40309 279.000
31.42304 274.000
31.44298 268.000
31.46293 285.000
31.48288 278.000
31.50282 304.000
31.52277 281.000
31.54272 312.000
31.56267 293.000
31.58261 279.000
31.60256 290.000
31.62251 314.000
31.64245 344.000
31.66240 315.000
31.68235 338.000
31.70229 323.000
31.72224 346.000
31.74219 340.000
31.76214 364.000
31.78208 432.000
31.80203 436.000
31.82198 470.000
31.84192 527.000
31.86187 591.000
31.88182 575.000
31.90176 618.000
31.92171 641.000
31.94166 695.000
31.96160 762.000
31.98155 756.000
32.00150 801.000
32.02145 801.000
32.04139 819.000
32.06134 770.000
32.08129 635.000
32.10123 565.000
32.12118 544.000
32.14113 416.000
32.16107 413.000
32.18102 390.000
32.20097 318.000
32.22092 301.000
32.24086 281.000
32.26081 297.000
32.28076 279.000
32.30070 292.000
32.32065 285.000
32.34060 267.000
32.36054 269.000
32.38049 290.000
32.40044 276.000
32.42039 323.000
32.44033 299.000
32.46028 324.000
32.48023 392.000
32.50017 415.000
32.52012 425.000
32.54007 449.000
32.56001 413.000
32.57996 424.000
32.59991 410.000
32.61985 364.000
32.63980 330.000
32.65975 307.000
32.67970 305.000
32.69964 307.000
32.71959 279.000
32.73954 309.000
32.75948 261.000
32.77943 284.000
32.79938 278.000
32.81932 272.000
32.83927 295.000
32.85922 284.000
32.87917 301.000
32.89911 286.000
32.91906 288.000
32.93901 288.000
32.95895 279.000
32.97890 287.000
32.99885 294.000
33.01879 295.000
33.03874 268.000
33.05869 255.000
33.07863 306.000
33.09858 286.000
33.11853 285.000
33.13848 312.000
33.15842 258.000
33.17837 308.000
33.19832 260.000
33.21826 288.000
33.23821 320.000
33.25816 306.000
33.27810 273.000
33.29805 281.000
33.31800 274.000
33.33795 297.000
33.35789 297.000
33.37784 289.000
33.39779 280.000
33.41773 310.000
33.43768 280.000
33.45763 303.000
33.47757 310.000
33.49752 341.000
33.51747 331.000
33.53741 354.000
33.55736 404.000
33.57731 432.000
33.59726 429.000
33.61720 479.000
33.63715 468.000
33.65710 438.000
33.67704 459.000
33.69699 426.000
33.71694 420.000
33.73688 490.000
33.75683 412.000
33.77678 453.000
33.79673 404.000
33.81667 418.000
33.83662 420.000
33.85657 411.000
33.87651 384.000
33.89646 414.000
33.91641 416.000
33.93635 414.000
33.95630 381.000
33.97625 411.000
33.99620 352.000
34.01614 355.000
34.03609 394.000
34.05604 349.000
34.07598 348.000
34.09593 368.000
34.11588 337.000
34.13582 329.000
34.15577 364.000
34.17572 335.000
34.19566 329.000
34.21561 359.000
34.23556 343.000
34.25551 341.000
34.27545 313.000
34.29540 340.000
34.31535 355.000
34.33529 338.000
34.35524 349.000
34.37519 312.000
34.39513 346.000
34.41508 388.000
34.43503 362.000
34.45498 366.000
34.47492 383.000
34.49487 348.000
34.51482 383.000
34.53476 332.000
34.55471 358.000
34.57466 356.000
34.59460 346.000
34.61455 335.000
34.63450 335.000
34.65444 337.000
34.67439 300.000
34.69434 311.000
34.71429 336.000
34.73423 348.000
34.75418 319.000
34.77413 302.000
34.79407 353.000
34.81402 282.000
34.83397 334.000
34.85391 339.000
34.87386 339.000
34.89381 346.000
34.91376 320.000
34.93370 366.000
34.95365 325.000
34.97360 313.000
34.99354 293.000
35.01349 319.000
35.03344 311.000
35.05338 317.000
35.07333 311.000
35.09328 295.000
35.11322 334.000
35.13317 325.000
35.15312 334.000
35.17307 328.000
35.19301 345.000
35.21296 342.000
35.23291 318.000
35.25285 360.000
35.27280 340.000
35.29275 389.000
35.31269 349.000
35.33264 430.000
35.35259 457.000
35.37254 514.000
35.39248 621.000
35.41243 849.000
35.43238 1037.000
35.45232 1083.000
35.47227 1157.000
35.49222 1439.000
35.51216 1852.000
35.53211 2104.000
35.55206 2110.000
35.57201 1754.000
35.59195 1607.000
35.61190 1566.000
35.63185 1536.000
35.65179 1240.000
35.67174 1123.000
35.69169 915.000
35.71163 819.000
35.73158 795.000
35.75153 758.000
35.77147 752.000
35.79142 802.000
35.81137 803.000
35.83132 843.000
35.85126 785.000
35.87121 740.000
35.89116 748.000
35.91110 696.000
35.93105 630.000
35.95100 609.000
35.97094 568.000
35.99089 513.000
36.01084 414.000
36.03079 406.000
36.05073 427.000
36.07068 406.000
36.09063 357.000
36.11057 327.000
36.13052 330.000
36.15047 346.000
36.17041 356.000
36.19036 356.000
36.21031 347.000
36.23025 327.000
36.25020 330.000
36.27015 338.000
36.29010 389.000
36.31004 409.000
36.32999 343.000
36.34994 393.000
36.36988 396.000
36.38983 378.000
36.40978 410.000
36.42972 426.000
36.44967 413.000
36.46962 424.000
36.48957 449.000
36.50951 421.000
36.52946 407.000
36.54941 417.000
36.56935 428.000
36.58930 421.000
36.60925 440.000
36.62919 469.000
36.64914 434.000
36.66909 418.000
36.68903 433.000
36.70898 430.000
36.72893 420.000
36.74888 403.000
36.76882 408.000
36.78877 378.000
36.80872 340.000
36.82866 353.000
36.84861 330.000
36.86856 356.000
36.88850 326.000
36.90845 304.000
36.92840 336.000
36.94835 348.000
36.96829 339.000
36.98824 341.000
37.00819 361.000
37.02813 348.000
37.04808 378.000
37.06803 392.000
37.08797 379.000
37.10792 380.000
37.12787 404.000
37.14781 357.000
37.16776 361.000
37.18771 411.000
37.20766 421.000
37.22760 383.000
37.24755 403.000
37.26750 393.000
37.28744 384.000
37.30739 373.000
37.32734 358.000
37.34728 361.000
37.36723 377.000
37.38718 358.000
37.40713 399.000
37.42707 375.000
37.44702 377.000
37.46697 428.000
37.48691 371.000
37.50686 390.000
37.52681 400.000
37.54675 372.000
37.56670 394.000
37.58665 370.000
37.60660 355.000
37.62654 396.000
37.64649 379.000
37.66644 371.000
37.68638 332.000
37.70633 367.000
37.72628 335.000
37.74622 328.000
37.76617 317.000
37.78612 333.000
37.80606 357.000
37.82601 357.000
37.84596 347.000
37.86591 299.000
37.88585 350.000
37.90580 334.000
37.92575 323.000
37.94569 348.000
37.96564 340.000
37.98559 354.000
38.00553 365.000
38.02548 342.000
38.04543 338.000
38.06538 332.000
38.08532 372.000
38.10527 335.000
38.12522 325.000
38.14516 314.000
38.16511 300.000
38.18506 344.000
38.20500 332.000
38.22495 326.000
38.24490 349.000
38.26484 330.000
38.28479 328.000
38.30474 345.000
38.32469 336.000
38.34463 333.000
38.36458 355.000
38.38453 337.000
38.40447 317.000
38.42442 344.000
38.44437 371.000
38.46431 356.000
38.48426 373.000
38.50421 401.000
38.52416 407.000
38.54410 465.000
38.56405 461.000
38.58400 471.000
38.60394 548.000
38.62389 628.000
38.64384 826.000
38.66378 1002.000
38.68373 1273.000
38.70368 1564.000
38.72362 1949.000
38.74357 2120.000
38.76352 1918.000
38.78347 1754.000
38.80341 1723.000
38.82336 1804.000
38.84331 1674.000
38.86325 1487.000
38.88320 1328.000
38.90315 1236.000
38.92309 1054.000
38.94304 927.000
38.96299 871.000
38.98294 787.000
39.00288 738.000
39.02283 700.000
39.04278 651.000
39.06272 581.000
39.08267 537.000
39.10262 491.000
39.12256 443.000
39.14251 484.000
39.16246 521.000
39.18241 529.000
39.20235 589.000
39.22230 623.000
39.24225 731.000
39.26219 866.000
39.28214 905.000
39.30209 978.000
39.32203 1094.000
39.34198 1181.000
39.36193 1275.000
39.38187 1318.000
39.40182 1299.000
39.42177 1203.000
39.44172 1102.000
39.46166 1111.000
39.48161 1038.000
39.50156 957.000
39.52150 839.000
39.54145 688.000
39.56140 705.000
39.58134 585.000
39.60129 535.000
39.62124 508.000
39.64119 472.000
39.66113 426.000
39.68108 419.000
39.70103 401.000
39.72097 424.000
39.74092 402.000
39.76087 428.000
39.78081 417.000
39.80076 421.000
39.82071 433.000
39.84065 414.000
39.86060 403.000
39.88055 407.000
39.90050 404.000
39.92044 410.000
39.94039 386.000
39.96034 411.000
39.98028 380.000
40.00023 396.000
40.02018 384.000
40.04012 349.000
40.06007 353.000
40.08002 396.000
40.09997 364.000
40.11991 344.000
40.13986 365.000
40.15981 391.000
40.17975 349.000
40.19970 333.000
40.21965 337.000
40.23959 336.000
40.25954 332.000
40.27949 323.000
40.29943 347.000
40.31938 352.000
40.33933 328.000
40.35928 321.000
40.37922 307.000
40.39917 336.000
40.41912 304.000
40.43906 318.000
40.45901 318.000
40.47896 290.000
40.49890 325.000
40.51885 304.000
40.53880 312.000
40.55875 304.000
40.57869 305.000
40.59864 280.000
40.61859 302.000
40.63853 285.000
40.65848 269.000
40.67843 280.000
40.69837 322.000
40.71832 281.000
40.73827 280.000
40.75822 279.000
40.77816 311.000
40.79811 334.000
40.81806 303.000
40.83800 286.000
40.85795 273.000
40.87790 292.000
40.89784 256.000
40.91779 302.000
40.93774 294.000
40.95768 261.000
40.97763 296.000
40.99758 283.000
41.01753 291.000
41.03747 314.000
41.05742 320.000
41.07737 311.000
41.09731 297.000
41.11726 306.000
41.13721 314.000
41.15715 317.000
41.17710 298.000
41.19705 315.000
41.21700 288.000
41.23694 329.000
41.25689 296.000
41.27684 306.000
41.29678 290.000
41.31673 292.000
41.33668 321.000
41.35662 319.000
41.37657 282.000
41.39652 308.000
41.41646 299.000
41.43641 306.000
41.45636 313.000
41.47631 334.000
41.49625 338.000
41.51620 357.000
41.53615 308.000
41.55609 338.000
41.57604 311.000
41.59599 323.000
41.61593 287.000
41.63588 335.000
41.65583 312.000
41.67578 297.000
41.69572 378.000
41.71567 324.000
41.73562 324.000
41.75556 329.000
41.77551 344.000
41.79546 320.000
41.81540 343.000
41.83535 296.000
41.85530 339.000
41.87524 364.000
41.89519 379.000
41.91514 394.000
41.93509 403.000
41.95503 400.000
41.97498 381.000
41.99493 418.000
42.01487 436.000
42.03482 425.000
42.05477 461.000
42.07471 454.000
42.09466 451.000
42.11461 477.000
42.13456 438.000
42.15450 471.000
42.17445 471.000
42.19440 471.000
42.21434 433.000
42.23429 488.000
42.25424 441.000
42.27418 432.000
42.29413 463.000
42.31408 442.000
42.33403 393.000
42.35397 465.000
42.37392 462.000
42.39387 444.000
42.41381 452.000
42.43376 434.000
42.45371 403.000
42.47365 438.000
42.49360 430.000
42.51355 374.000
42.53349 383.000
42.55344 356.000
42.57339 356.000
42.59334 311.000
42.61328 321.000
42.63323 351.000
42.65318 303.000
42.67312 325.000
42.69307 273.000
42.71302 357.000
42.73296 304.000
42.75291 361.000
42.77286 283.000
42.79281 329.000
42.81275 298.000
42.83270 276.000
42.85265 306.000
42.87259 310.000
42.89254 301.000
42.91249 306.000
42.93243 298.000
42.95238 307.000
42.97233 290.000
42.99227 289.000
43.01222 283.000
43.03217 303.000
43.05212 293.000
43.07206 295.000
43.09201 323.000
43.11196 298.000
43.13190 330.000
43.15185 325.000
43.17180 311.000
43.19174 334.000
43.21169 321.000
43.23164 351.000
43.25159 362.000
43.27153 362.000
43.29148 365.000
43.31143 391.000
43.33137 435.000
43.35132 464.000
43.37127 511.000
43.39121 526.000
43.41116 618.000
43.43111 587.000
43.45105 659.000
43.47100 721.000
43.49095 736.000
43.51090 668.000
43.53084 664.000
43.55079 650.000
43.57074 591.000
43.59068 513.000
43.61063 535.000
43.63058 505.000
43.65052 432.000
43.67047 481.000
43.69042 388.000
43.71037 362.000
43.73031 374.000
43.75026 328.000
43.77021 328.000
43.79015 325.000
43.81010 326.000
43.83005 309.000
43.84999 312.000
43.86994 309.000
43.88989 286.000
43.90984 311.000
43.92978 281.000
43.94973 303.000
43.96968 294.000
43.98962 315.000
44.00957 313.000
44.02952 266.000
44.04946 323.000
44.06941 313.000
44.08936 300.000
44.10930 313.000
44.12925 296.000
44.14920 304.000
44.16915 312.000
44.18909 319.000
44.20904 298.000
44.22899 351.000
44.24893 322.000
44.26888 332.000
44.28883 323.000
44.30877 316.000
44.32872 377.000
44.34867 348.000
44.36862 360.000
44.38856 349.000
44.40851 341.000
44.42846 345.000
44.44840 347.000
44.46835 365.000
44.48830 357.000
44.50824 338.000
44.52819 354.000
44.54814 367.000
44.56808 324.000
44.58803 340.000
44.60798 351.000
44.62793 359.000
44.64787 329.000
44.66782 323.000
44.68777 346.000
44.70771 344.000
44.72766 335.000
44.74761 338.000
44.76755 299.000
44.78750 328.000
44.80745 313.000
44.82740 313.000
44.84734 317.000
44.86729 322.000
44.88724 286.000
44.90718 311.000
44.92713 287.000
44.94708 317.000
44.96702 337.000
44.98697 300.000
45.00692 297.000
45.02686 307.000
45.04681 321.000
45.06676 318.000
45.08671 300.000
45.10665 318.000
45.12660 291.000
45.14655 286.000
45.16649 275.000
45.18644 295.000
45.20639 357.000
45.22633 315.000
45.24628 299.000
45.26623 317.000
45.28618 308.000
45.30612 307.000
45.32607 294.000
45.34602 339.000
45.36596 322.000
45.38591 307.000
45.40586 333.000
45.42580 325.000
45.44575 317.000
45.46570 299.000
45.48565 327.000
45.50559 330.000
45.52554 341.000
45.54549 310.000
45.56543 339.000
45.58538 308.000
45.60533 343.000
45.62527 329.000
45.64522 328.000
45.66517 303.000
45.68511 317.000
45.70506 304.000
45.72501 307.000
45.74496 279.000
45.76490 307.000
45.78485 272.000
45.80480 297.000
45.82474 309.000
45.84469 296.000
45.86464 311.000
45.88458 303.000
45.90453 314.000
45.92448 331.000
45.94443 281.000
45.96437 308.000
45.98432 322.000
46.00427 283.000
46.02421 300.000
46.04416 271.000
46.06411 311.000
46.08405 254.000
46.10400 304.000
46.12395 264.000
46.14389 282.000
46.16384 316.000
46.18379 319.000
46.20374 325.000
46.22368 308.000
46.24363 321.000
46.26358 316.000
46.28352 301.000
46.30347 325.000
46.32342 322.000
46.34336 292.000
46.36331 285.000
46.38326 286.000
46.40321 327.000
46.42315 291.000
46.44310 272.000
46.46305 308.000
46.48299 304.000
46.50294 275.000
46.52289 323.000
46.54283 327.000
46.56278 276.000
46.58273 287.000
46.60267 306.000
46.62262 298.000
46.64257 271.000
46.66252 281.000
46.68246 301.000
46.70241 293.000
46.72236 266.000
46.74230 329.000
46.76225 292.000
46.78220 294.000
46.80214 285.000
46.82209 309.000
46.84204 296.000
46.86199 286.000
46.88193 302.000
46.90188 291.000
46.92183 283.000
46.94177 294.000
46.96172 288.000
46.98167 305.000
47.00161 302.000
47.02156 254.000
47.04151 287.000
47.06146 268.000
47.08140 276.000
47.10135 267.000
47.12130 289.000
47.14124 286.000
47.16119 266.000
47.18114 286.000
47.20108 261.000
47.22103 267.000
47.24098 303.000
47.26092 290.000
47.28087 278.000
47.30082 238.000
47.32077 290.000
47.34071 296.000
47.36066 267.000
47.38061 287.000
47.40055 286.000
47.42050 285.000
47.44045 279.000
47.46039 271.000
47.48034 271.000
47.50029 272.000
47.52024 250.000
47.54018 289.000
47.56013 309.000
47.58008 270.000
47.60002 313.000
47.61997 243.000
47.63992 284.000
47.65986 269.000
47.67981 263.000
47.69976 287.000
47.71970 286.000
47.73965 291.000
47.75960 290.000
47.77955 275.000
47.79949 286.000
47.81944 285.000
47.83939 279.000
47.85933 289.000
47.87928 305.000
47.89923 303.000
47.91917 301.000
47.93912 305.000
47.95907 310.000
47.97902 287.000
47.99896 302.000
48.01891 302.000
48.03886 323.000
48.05880 320.000
48.07875 309.000
48.09870 369.000
48.11864 302.000
48.13859 309.000
48.15854 299.000
48.17848 358.000
48.19843 322.000
48.21838 322.000
48.23833 353.000
48.25827 348.000
48.27822 316.000
48.29817 344.000
48.31811 359.000
48.33806 308.000
48.35801 368.000
48.37795 332.000
48.39790 384.000
48.41785 410.000
48.43780 383.000
48.45774 394.000
48.47769 421.000
48.49764 441.000
48.51758 498.000
48.53753 528.000
48.55748 582.000
48.57742 655.000
48.59737 721.000
48.61732 795.000
48.63726 1029.000
48.65721 1161.000
48.67716 1355.000
48.69711 1482.000
48.71705 1499.000
48.73700 1473.000
48.75695 1409.000
48.77689 1419.000
48.79684 1366.000
48.81679 1351.000
48.83673 1258.000
48.85668 1107.000
48.87663 1022.000
48.89658 853.000
48.91652 803.000
48.93647 721.000
48.95642 608.000
48.97636 558.000
48.99631 459.000
49.01626 468.000
49.03620 412.000
49.05615 410.000
49.07610 362.000
49.09605 364.000
49.11599 345.000
49.13594 368.000
49.15589 313.000
49.17583 335.000
49.19578 322.000
49.21573 301.000
49.23567 310.000
49.25562 333.000
49.27557 306.000
49.29551 304.000
49.31546 301.000
49.33541 305.000
49.35536 301.000
49.37530 287.000
49.39525 299.000
49.41520 276.000
49.43514 299.000
49.45509 317.000
49.47504 322.000
49.49498 280.000
49.51493 292.000
49.53488 282.000
49.55483 297.000
49.57477 300.000
49.59472 305.000
49.61467 317.000
49.63461 305.000
49.65456 288.000
49.67451 313.000
49.69445 324.000
49.71440 298.000
49.73435 301.000
49.75429 261.000
49.77424 261.000
49.79419 316.000
49.81414 250.000
49.83408 270.000
49.85403 287.000
49.87398 268.000
49.89392 284.000
49.91387 274.000
49.93382 316.000
49.95376 322.000
49.97371 304.000
49.99366 275.000
50.01361 244.000
50.03355 280.000
50.05350 302.000
50.07345 263.000
50.09339 277.000
50.11334 298.000
50.13329 264.000
50.15323 257.000
50.17318 258.000
50.19313 279.000
50.21307 287.000
50.23302 277.000
50.25297 263.000
50.27292 280.000
50.29286 258.000
50.31281 256.000
50.33276 278.000
50.35270 251.000
50.37265 294.000
50.39260 269.000
50.41254 271.000
50.43249 254.000
50.45244 261.000
50.47239 284.000
50.49233 261.000
50.51228 277.000
50.53223 299.000
50.55217 269.000
50.57212 299.000
50.59207 299.000
50.61201 251.000
50.63196 271.000
50.65191 271.000
50.67186 270.000
50.69180 291.000
50.71175 284.000
50.73170 243.000
50.75164 273.000
50.77159 287.000
50.79154 303.000
50.81148 282.000
50.83143 286.000
50.85138 270.000
50.87132 290.000
50.89127 265.000
50.91122 302.000
50.93117 281.000
50.95111 281.000
50.97106 276.000
50.99101 267.000
51.01095 271.000
51.03090 257.000
51.05085 257.000
51.07079 270.000
51.09074 283.000
51.11069 283.000
51.13064 298.000
51.15058 255.000
51.17053 274.000
51.19048 279.000
51.21042 260.000
51.23037 277.000
51.25032 289.000
51.27026 266.000
51.29021 327.000
51.31016 276.000
51.33010 295.000
51.35005 308.000
51.37000 328.000
51.38995 297.000
51.40989 324.000
51.42984 302.000
51.44979 289.000
51.46973 237.000
51.48968 303.000
51.50963 284.000
51.52957 284.000
51.54952 281.000
51.56947 284.000
51.58942 321.000
51.60936 262.000
51.62931 252.000
51.64926 267.000
51.66920 263.000
51.68915 266.000
51.70910 276.000
51.72904 237.000
51.74899 280.000
51.76894 295.000
51.78888 305.000
51.80883 297.000
51.82878 284.000
51.84873 239.000
51.86867 303.000
51.88862 277.000
51.90857 283.000
51.92851 289.000
51.94846 276.000
51.96841 285.000
51.98835 277.000
52.00830 273.000
52.02825 294.000
52.04820 296.000
52.06814 323.000
52.08809 287.000
52.10804 320.000
52.12798 281.000
52.14793 313.000
52.16788 320.000
52.18782 326.000
52.20777 279.000
52.22772 313.000
52.24767 316.000
52.26761 308.000
52.28756 329.000
52.30751 297.000
52.32745 321.000
52.34740 274.000
52.36735 310.000
52.38729 292.000
52.40724 332.000
52.42719 306.000
52.44713 287.000
52.46708 297.000
52.48703 283.000
52.50698 317.000
52.52692 289.000
52.54687 283.000
52.56682 286.000
52.58676 286.000
52.60671 302.000
52.62666 288.000
52.64660 272.000
52.66655 313.000
52.68650 293.000
52.70645 286.000
52.72639 331.000
52.74634 279.000
52.76629 319.000
52.78623 293.000
52.80618 288.000
52.82613 285.000
52.84607 317.000
52.86602 318.000
52.88597 313.000
52.90591 304.000
52.92586 295.000
52.94581 323.000
52.96576 270.000
52.98570 306.000
53.00565 289.000
53.02560 286.000
53.04554 287.000
53.06549 282.000
53.08544 298.000
53.10538 301.000
53.12533 280.000
53.14528 304.000
53.16523 295.000
53.18517 295.000
53.20512 328.000
53.22507 289.000
53.24501 302.000
53.26496 308.000
53.28491 314.000
53.30485 315.000
53.32480 340.000
53.34475 303.000
53.36469 343.000
53.38464 354.000
53.40459 337.000
53.42454 336.000
53.44448 339.000
53.46443 380.000
53.48438 395.000
53.50432 434.000
53.52427 395.000
53.54422 421.000
53.56416 399.000
53.58411 388.000
53.60406 365.000
53.62401 392.000
53.64395 401.000
53.66390 365.000
53.68385 368.000
53.70379 358.000
53.72374 346.000
53.74369 338.000
53.76363 307.000
53.78358 329.000
53.80353 326.000
53.82348 329.000
53.84342 306.000
53.86337 339.000
53.88332 331.000
53.90326 297.000
53.92321 281.000
53.94316 323.000
53.96310 297.000
53.98305 298.000
54.00300 302.000
54.02294 266.000
54.04289 275.000
54.06284 277.000
54.08279 279.000
54.10273 284.000
54.12268 289.000
54.14263 306.000
54.16257 284.000
54.18252 288.000
54.20247 277.000
54.22241 284.000
54.24236 288.000
54.26231 292.000
54.28226 300.000
54.30220 298.000
54.32215 292.000
54.34210 273.000
54.36204 256.000
54.38199 283.000
54.40194 296.000
54.42188 285.000
54.44183 267.000
54.46178 284.000
54.48172 276.000
54.50167 294.000
54.52162 263.000
54.54157 314.000
54.56151 261.000
54.58146 268.000
54.60141 298.000
54.62135 247.000
54.64130 278.000
54.66125 286.000
54.68119 276.000
54.70114 300.000
54.72109 305.000
54.74104 294.000
54.76098 292.000
54.78093 284.000
54.80088 287.000
54.82082 339.000
54.84077 275.000
54.86072 316.000
54.88066 331.000
54.90061 304.000
54.92056 289.000
54.94050 313.000
54.96045 308.000
54.98040 306.000
55.00035 287.000
55.02029 315.000
55.04024 300.000
55.06019 285.000
55.08013 291.000
55.10008 321.000
55.12003 281.000
55.13997 288.000
55.15992 312.000
55.17987 307.000
55.19982 302.000
55.21976 294.000
55.23971 274.000
55.25966 278.000
55.27960 303.000
55.29955 288.000
55.31950 316.000
55.33944 272.000
55.35939 311.000
55.37934 283.000
55.39929 295.000
55.41923 276.000
55.43918 270.000
55.45913 306.000
55.47907 280.000
55.49902 276.000
55.51897 289.000
55.53891 284.000
55.55886 298.000
55.57881 302.000
55.59875 287.000
55.61870 283.000
55.63865 261.000
55.65860 275.000
55.67854 287.000
55.69849 285.000
55.71844 286.000
55.73838 292.000
55.75833 293.000
55.77828 302.000
55.79822 277.000
55.81817 295.000
55.83812 294.000
55.85807 274.000
55.87801 253.000
55.89796 294.000
55.91791 287.000
55.93785 297.000
55.95780 290.000
55.97775 278.000
55.99769 301.000
56.01764 277.000
56.03759 293.000
56.05753 288.000
56.07748 291.000
56.09743 291.000
56.11738 283.000
56.13732 295.000
56.15727 287.000
56.17722 277.000
56.19716 303.000
56.21711 318.000
56.23706 313.000
56.25700 300.000
56.27695 321.000
56.29690 298.000
56.31685 293.000
56.33679 322.000
56.35674 317.000
56.37669 310.000
56.39663 281.000
56.41658 299.000
56.43653 321.000
56.45647 311.000
56.47642 337.000
56.49637 321.000
56.51631 335.000
56.53626 341.000
56.55621 329.000
56.57616 343.000
56.59610 332.000
56.61605 296.000
56.63600 287.000
56.65594 320.000
56.67589 312.000
56.69584 368.000
56.71578 334.000
56.73573 332.000
56.75568 304.000
56.77563 342.000
56.79557 334.000
56.81552 352.000
56.83547 334.000
56.85541 325.000
56.87536 312.000
56.89531 320.000
56.91525 332.000
56.93520 292.000
56.95515 337.000
56.97510 306.000
56.99504 300.000
57.01499 281.000
57.03494 274.000
57.05488 322.000
57.07483 264.000
57.09478 297.000
57.11472 305.000
57.13467 311.000
57.15462 247.000
57.17456 293.000
57.19451 319.000
57.21446 292.000
57.23441 295.000
57.25435 279.000
57.27430 317.000
57.29425 287.000
57.31419 320.000
57.33414 316.000
57.35409 290.000
57.37403 300.000
57.39398 289.000
57.41393 284.000
57.43388 284.000
57.45382 311.000
57.47377 277.000
57.49372 263.000
57.51366 272.000
57.53361 292.000
57.55356 300.000
57.57350 323.000
57.59345 284.000
57.61340 311.000
57.63334 268.000
57.65329 313.000
57.67324 267.000
57.69319 315.000
57.71313 286.000
57.73308 275.000
57.75303 290.000
57.77297 294.000
57.79292 283.000
57.81287 263.000
57.83281 293.000
57.85276 278.000
57.87271 292.000
57.89266 286.000
57.91260 291.000
57.93255 293.000
57.95250 254.000
57.97244 261.000
57.99239 280.000
58.01234 258.000
58.03228 267.000
58.05223 292.000
58.07218 326.000
58.09212 315.000
58.11207 299.000
58.13202 294.000
58.15197 341.000
58.17191 321.000
58.19186 371.000
58.21181 377.000
58.23175 389.000
58.25170 379.000
58.27165 428.000
58.29159 485.000
58.31154 488.000
58.33149 498.000
58.35144 464.000
58.37138 496.000
58.39133 391.000
58.41128 408.000
58.43122 425.000
58.45117 398.000
58.47112 392.000
58.49106 394.000
58.51101 401.000
58.53096 326.000
58.55090 345.000
58.57085 313.000
58.59080 297.000
58.61075 308.000
58.63069 280.000
58.65064 285.000
58.67059 302.000
58.69053 297.000
58.71048 303.000
58.73043 301.000
58.75037 305.000
58.77032 300.000
58.79027 298.000
58.81022 323.000
58.83016 291.000
58.85011 298.000
58.87006 302.000
58.89000 313.000
58.90995 310.000
58.92990 321.000
58.94984 300.000
58.96979 339.000
58.98974 346.000
59.00969 317.000
59.02963 352.000
59.04958 311.000
59.06953 346.000
59.08947 361.000
59.10942 332.000
59.12937 333.000
59.14931 339.000
59.16926 331.000
59.18921 332.000
59.20915 340.000
59.22910 351.000
59.24905 320.000
59.26900 363.000
59.28894 337.000
59.30889 402.000
59.32884 339.000
59.34878 339.000
59.36873 326.000
59.38868 323.000
59.40862 352.000
59.42857 371.000
59.44852 327.000
59.46847 333.000
59.48841 289.000
59.50836 316.000
59.52831 349.000
59.54825 326.000
59.56820 345.000
59.58815 311.000
59.60809 297.000
59.62804 278.000
59.64799 305.000
59.66793 333.000
59.68788 306.000
59.70783 282.000
59.72778 325.000
59.74772 277.000
59.76767 310.000
59.78762 286.000
59.80756 287.000
59.82751 317.000
59.84746 284.000
59.86740 304.000
59.88735 269.000
59.90730 293.000
59.92725 274.000
59.94719 309.000
59.96714 287.000
59.98709 307.000
60.00703 307.000
60.02698 307.000
60.04693 303.000
60.06687 280.000
60.08682 263.000
60.10677 282.000
60.12671 278.000
60.14666 252.000
60.16661 275.000
60.18656 245.000
60.20650 287.000
60.22645 290.000
60.24640 240.000
60.26634 290.000
60.28629 290.000
60.30624 278.000
60.32618 321.000
60.34613 281.000
60.36608 269.000
60.38603 261.000
60.40597 281.000
60.42592 269.000
60.44587 283.000
60.46581 282.000
60.48576 280.000
60.50571 291.000
60.52565 291.000
60.54560 284.000
60.56555 287.000
60.58550 291.000
60.60544 257.000
60.62539 285.000
60.64534 264.000
60.66528 313.000
60.68523 277.000
60.70518 298.000
60.72512 293.000
60.74507 276.000
60.76502 274.000
60.78496 283.000
60.80491 299.000
60.82486 292.000
60.84481 291.000
60.86475 289.000
60.88470 304.000
60.90465 272.000
60.92459 321.000
60.94454 272.000
60.96449 308.000
60.98443 292.000
61.00438 285.000
61.02433 280.000
61.04428 323.000
61.06422 294.000
61.08417 303.000
61.10412 305.000
61.12406 324.000
61.14401 302.000
61.16396 279.000
61.18390 301.000
61.20385 301.000
61.22380 304.000
61.24374 287.000
61.26369 312.000
61.28364 288.000
61.30359 308.000
61.32353 351.000
61.34348 317.000
61.36343 314.000
61.38337 337.000
61.40332 337.000
61.42327 426.000
61.44321 381.000
61.46316 442.000
61.48311 487.000
61.50306 567.000
61.52300 635.000
61.54295 603.000
61.56290 573.000
61.58284 522.000
61.60279 549.000
61.62274 513.000
61.64268 504.000
61.66263 511.000
61.68258 504.000
61.70252 550.000
61.72247 506.000
61.74242 505.000
61.76237 533.000
61.78231 506.000
61.80226 498.000
61.82221 536.000
61.84215 541.000
61.86210 570.000
61.88205 553.000
61.90199 578.000
61.92194 506.000
61.94189 563.000
61.96184 555.000
61.98178 566.000
62.00173 562.000
62.02168 553.000
62.04162 561.000
62.06157 525.000
62.08152 523.000
62.10146 541.000
62.12141 450.000
62.14136 481.000
62.16131 413.000
62.18125 437.000
62.20120 449.000
62.22115 416.000
62.24109 378.000
62.26104 372.000
62.28099 328.000
62.30093 311.000
62.32088 321.000
62.34083 319.000
62.36077 315.000
62.38072 326.000
62.40067 298.000
62.42062 308.000
62.44056 333.000
62.46051 258.000
62.48046 274.000
62.50040 291.000
62.52035 284.000
62.54030 309.000
62.56024 301.000
62.58019 286.000
62.60014 299.000
62.62009 298.000
62.64003 290.000
62.65998 316.000
62.67993 305.000
62.69987 310.000
62.71982 304.000
62.73977 299.000
62.75971 292.000
62.77966 312.000
62.79961 284.000
62.81955 294.000
62.83950 280.000
62.85945 284.000
62.87940 322.000
62.89934 281.000
62.91929 283.000
62.93924 284.000
62.95918 312.000
62.97913 301.000
62.99908 287.000
63.01902 271.000
63.03897 288.000
63.05892 282.000
63.07887 300.000
63.09881 279.000
63.11876 279.000
63.13871 302.000
63.15865 296.000
63.17860 255.000
63.19855 296.000
63.21849 288.000
63.23844 288.000
63.25839 299.000
63.27833 295.000
63.29828 285.000
63.31823 288.000
63.33818 250.000
63.35812 258.000
63.37807 288.000
63.39802 294.000
63.41796 288.000
63.43791 301.000
63.45786 299.000
63.47780 282.000
63.49775 290.000
63.51770 274.000
63.53765 299.000
63.55759 304.000
63.57754 270.000
63.59749 282.000
63.61743 283.000
63.63738 271.000
63.65733 301.000
63.67727 302.000
63.69722 295.000
63.71717 287.000
63.73712 272.000
63.75706 285.000
63.77701 292.000
63.79696 277.000
63.81690 279.000
63.83685 275.000
63.85680 324.000
63.87674 314.000
63.89669 286.000
63.91664 283.000
63.93658 302.000
63.95653 267.000
63.97648 307.000
63.99643 297.000
64.01637 319.000
64.03632 335.000
64.05627 340.000
64.07621 312.000
64.09616 319.000
64.11611 337.000
64.13605 380.000
64.15600 358.000
64.17595 378.000
64.19590 400.000
64.21584 422.000
64.23579 416.000
64.25574 430.000
64.27568 439.000
64.29563 453.000
64.31558 475.000
64.33552 482.000
64.35547 472.000
64.37542 491.000
64.39536 498.000
64.41531 511.000
64.43526 473.000
64.45521 487.000
64.47515 500.000
64.49510 501.000
64.51505 479.000
64.53499 497.000
64.55494 469.000
64.57489 466.000
64.59483 494.000
64.61478 446.000
64.63473 440.000
64.65468 433.000
64.67462 425.000
64.69457 372.000
64.71452 432.000
64.73446 397.000
64.75441 389.000
64.77436 383.000
64.79430 358.000
64.81425 333.000
64.83420 407.000
64.85414 379.000
64.87409 362.000
64.89404 359.000
64.91399 364.000
64.93393 358.000
64.95388 360.000
64.97383 366.000
64.99377 351.000
65.01372 373.000
65.03367 327.000
65.05361 314.000
65.07356 348.000
65.09351 328.000
65.11346 304.000
65.13340 313.000
65.15335 354.000
65.17330 310.000
65.19324 340.000
65.21319 339.000
65.23314 310.000
65.25308 279.000
65.27303 308.000
65.29298 322.000
65.31293 303.000
65.33287 317.000
65.35282 330.000
65.37277 308.000
65.39271 293.000
65.41266 338.000
65.43261 312.000
65.45255 309.000
65.47250 319.000
65.49245 343.000
65.51239 326.000
65.53234 333.000
65.55229 338.000
65.57224 352.000
65.59218 354.000
65.61213 325.000
65.63208 338.000
65.65202 338.000
65.67197 338.000
65.69192 345.000
65.71186 366.000
65.73181 397.000
65.75176 421.000
65.77171 446.000
65.79165 458.000
65.81160 476.000
65.83155 445.000
65.85149 483.000
65.87144 480.000
65.89139 455.000
65.91133 464.000
65.93128 413.000
65.95123 446.000
65.97117 423.000
65.99112 444.000
66.01107 461.000
66.03102 449.000
66.05096 450.000
66.07091 448.000
66.09086 440.000
66.11080 467.000
66.13075 479.000
66.15070 497.000
66.17064 581.000
66.19059 570.000
66.21054 578.000
66.23049 538.000
66.25043 574.000
66.27038 466.000
66.29033 431.000
66.31027 432.000
66.33022 453.000
66.35017 486.000
66.37011 489.000
66.39006 443.000
66.41001 505.000
66.42995 456.000
66.44990 428.000
66.46985 407.000
66.48980 391.000
66.50974 378.000
66.52969 386.000
66.54964 379.000
66.56958 410.000
66.58953 378.000
66.60948 419.000
66.62942 398.000
66.64937 424.000
66.66932 428.000
66.68927 439.000
66.70921 478.000
66.72916 435.000
66.74911 444.000
66.76905 436.000
66.78900 431.000
66.80895 426.000
66.82889 474.000
66.84884 397.000
66.86879 439.000
66.88874 475.000
66.90868 453.000
66.92863 458.000
66.94858 429.000
66.96852 420.000
66.98847 415.000
67.00842 418.000
67.02836 415.000
67.04831 406.000
67.06826 369.000
67.08820 379.000
67.10815 373.000
67.12810 353.000
67.14805 342.000
67.16799 330.000
67.18794 334.000
67.20789 331.000
67.22783 291.000
67.24778 326.000
67.26773 310.000
67.28767 309.000
67.30762 311.000
67.32757 335.000
67.34752 331.000
67.36746 325.000
67.38741 303.000
67.40736 297.000
67.42730 308.000
67.44725 298.000
67.46720 293.000
67.48714 289.000
67.50709 287.000
67.52704 317.000
67.54698 308.000
67.56693 309.000
67.58688 325.000
67.60683 333.000
67.62677 317.000
67.64672 315.000
67.66667 341.000
67.68661 302.000
67.70656 312.000
67.72651 336.000
67.74645 338.000
67.76640 317.000
67.78635 339.000
67.80630 344.000
67.82624 350.000
67.84619 348.000
67.86614 354.000
67.88608 342.000
67.90603 399.000
67.92598 380.000
67.94592 441.000
67.96587 421.000
67.98582 426.000
68.00576 444.000
68.02571 395.000
68.04566 511.000
68.06561 502.000
68.08555 524.000
68.10550 562.000
68.12545 589.000
68.14539 557.000
68.16534 530.000
68.18529 470.000
68.20523 461.000
68.22518 398.000
68.24513 425.000
68.26508 425.000
68.28502 448.000
68.30497 415.000
68.32492 404.000
68.34486 411.000
68.36481 393.000
68.38476 376.000
68.40470 349.000
68.42465 348.000
68.44460 345.000
68.46455 303.000
68.48449 328.000
68.50444 293.000
68.52439 321.000
68.54433 317.000
68.56428 307.000
68.58423 295.000
68.60417 290.000
68.62412 302.000
68.64407 297.000
68.66401 287.000
68.68396 317.000
68.70391 270.000
68.72386 285.000
68.74380 314.000
68.76375 298.000
68.78370 300.000
68.80364 306.000
68.82359 301.000
68.84354 320.000
68.86348 311.000
68.88343 312.000
68.90338 282.000
68.92333 326.000
68.94327 314.000
68.96322 285.000
68.98317 279.000
69.00311 301.000
69.02306 320.000
69.04301 277.000
69.06295 271.000
69.08290 326.000
69.10285 318.000
69.12279 307.000
69.14274 327.000
69.16269 323.000
69.18264 267.000
69.20258 284.000
69.22253 278.000
69.24248 303.000
69.26242 305.000
69.28237 324.000
69.30232 285.000
69.32226 298.000
69.34221 340.000
69.36216 275.000
69.38211 307.000
69.40205 321.000
69.42200 259.000
69.44195 313.000
69.46189 314.000
69.48184 299.000
69.50179 290.000
69.52173 324.000
69.54168 324.000
69.56163 300.000
69.58157 329.000
69.60152 314.000
69.62147 293.000
69.64142 316.000
69.66136 326.000
69.68131 315.000
69.70126 321.000
69.72120 312.000
69.74115 304.000
69.76110 315.000
69.78104 280.000
69.80099 326.000
69.82094 297.000
69.84089 306.000
69.86083 294.000
69.88078 315.000
69.90073 294.000
69.92067 283.000
69.94062 297.000
69.96057 281.000
69.98051 301.000
70.00046 265.000
70.02041 307.000
70.04035 298.000
70.06030 281.000
70.08025 301.000
70.10020 295.000
70.12014 300.000
70.14009 275.000
70.16004 299.000
70.17998 282.000
70.19993 307.000
70.21988 300.000
70.23982 287.000
70.25977 271.000
70.27972 272.000
70.29967 287.000
70.31961 297.000
70.33956 308.000
70.35951 321.000
70.37945 315.000
70.39940 293.000
70.41935 304.000
70.43929 309.000
70.45924 298.000
70.47919 291.000
70.49914 303.000
70.51908 265.000
70.53903 276.000
70.55898 278.000
70.57892 315.000
70.59887 272.000
70.61882 317.000
70.63876 309.000
70.65871 276.000
70.67866 291.000
70.69860 288.000
70.71855 297.000
70.73850 297.000
70.75845 299.000
70.77839 307.000
70.79834 285.000
70.81829 283.000
70.83823 280.000
70.85818 309.000
70.87813 290.000
70.89807 298.000
70.91802 290.000
70.93797 299.000
70.95792 287.000
70.97786 299.000
70.99781 276.000
71.01776 300.000
71.03770 311.000
71.05765 342.000
71.07760 327.000
71.09754 308.000
71.11749 310.000
71.13744 320.000
71.15738 292.000
71.17733 312.000
71.19728 283.000
71.21723 308.000
71.23717 303.000
71.25712 316.000
71.27707 289.000
71.29701 315.000
71.31696 298.000
71.33691 295.000
71.35685 313.000
71.37680 283.000
71.39675 290.000
71.41670 309.000
71.43664 316.000
71.45659 292.000
71.47654 311.000
71.49648 316.000
71.51643 284.000
71.53638 310.000
71.55632 288.000
71.57627 280.000
71.59622 282.000
71.61616 308.000
71.63611 276.000
71.65606 281.000
71.67601 278.000
71.69595 314.000
71.71590 277.000
71.73585 286.000
71.75579 283.000
71.77574 302.000
71.79569 288.000
71.81563 287.000
71.83558 277.000
71.85553 306.000
71.87548 305.000
71.89542 252.000
71.91537 305.000
71.93532 252.000
71.95526 263.000
71.97521 276.000
71.99516 262.000
72.01510 290.000
72.03505 270.000
72.05500 287.000
72.07495 280.000
72.09489 313.000
72.11484 259.000
72.13479 280.000
72.15473 300.000
72.17468 286.000
72.19463 300.000
72.21457 313.000
72.23452 297.000
72.25447 307.000
72.27441 324.000
72.29436 328.000
72.31431 314.000
72.33426 294.000
72.35420 355.000
72.37415 372.000
72.39410 387.000
72.41404 388.000
72.43399 367.000
72.45394 314.000
72.47388 343.000
72.49383 309.000
72.51378 319.000
72.53373 323.000
72.55367 382.000
72.57362 347.000
72.59357 327.000
72.61351 283.000
72.63346 297.000
72.65341 313.000
72.67335 315.000
72.69330 278.000
72.71325 267.000
72.73319 315.000
72.75314 277.000
72.77309 293.000
72.79304 269.000
72.81298 277.000
72.83293 307.000
72.85288 261.000
72.87282 303.000
72.89277 291.000
72.91272 296.000
72.93266 269.000
72.95261 274.000
72.97256 259.000
72.99251 266.000
73.01245 322.000
73.03240 287.000
73.05235 314.000
73.07229 281.000
73.09224 283.000
73.11219 314.000
73.13213 302.000
73.15208 354.000
73.17203 278.000
73.19197 267.000
73.21192 233.000
73.23187 297.000
73.25182 281.000
73.27176 260.000
73.29171 292.000
73.31166 284.000
73.33160 291.000
73.35155 307.000
73.37150 278.000
73.39144 292.000
73.41139 338.000
73.43134 303.000
73.45129 301.000
73.47123 275.000
73.49118 295.000
73.51113 298.000
73.53107 277.000
73.55102 319.000
73.57097 317.000
73.59091 320.000
73.61086 372.000
73.63081 335.000
73.65076 315.000
73.67070 317.000
73.69065 320.000
73.71060 301.000
73.73054 318.000
73.75049 324.000
73.77044 304.000
73.79038 338.000
73.81033 320.000
73.83028 299.000
73.85022 291.000
73.87017 326.000
73.89012 312.000
73.91007 309.000
73.93001 304.000
73.94996 305.000
73.96991 347.000
73.98985 291.000
74.00980 314.000
74.02975 292.000
74.04969 280.000
74.06964 318.000
74.08959 307.000
74.10954 296.000
74.12948 288.000
74.14943 292.000
74.16938 295.000
74.18932 273.000
74.20927 284.000
74.22922 299.000
74.24916 266.000
74.26911 295.000
74.28906 287.000
74.30900 269.000
74.32895 287.000
74.34890 267.000
74.36885 293.000
74.38879 283.000
74.40874 273.000
74.42869 245.000
74.44863 279.000
74.46858 269.000
74.48853 286.000
74.50847 314.000
74.52842 286.000
74.54837 264.000
74.56832 272.000
74.58826 264.000
74.60821 276.000
74.62816 267.000
74.64810 308.000
74.66805 293.000
74.68800 274.000
74.70794 284.000
74.72789 278.000
74.74784 301.000
74.76778 312.000
74.78773 296.000
74.80768 243.000
74.82763 294.000
74.84757 265.000
74.86752 298.000
74.88747 257.000
74.90741 289.000
74.92736 315.000
74.94731 297.000
74.96725 335.000
74.98720 341.000
75.00715 351.000
75.02710 351.000
75.04704 363.000
75.06699 347.000
75.08694 335.000
75.10688 333.000
75.12683 341.000
75.14678 296.000
75.16672 342.000
75.18667 378.000
75.20662 431.000
75.22657 424.000
75.24651 373.000
75.26646 377.000
75.28641 354.000
75.30635 389.000
75.32630 325.000
75.34625 353.000
75.36619 376.000
75.38614 312.000
75.40609 320.000
75.42603 322.000
75.44598 327.000
75.46593 367.000
75.48588 332.000
75.50582 336.000
75.52577 368.000
75.54572 342.000
75.56566 306.000
75.58561 295.000
75.60556 321.000
75.62550 284.000
75.64545 310.000
75.66540 301.000
75.68535 326.000
75.70529 291.000
75.72524 306.000
75.74519 310.000
75.76513 295.000
75.78508 282.000
75.80503 295.000
75.82497 285.000
75.84492 301.000
75.86487 311.000
75.88481 258.000
75.90476 333.000
75.92471 317.000
75.94466 338.000
75.96460 326.000
75.98455 309.000
76.00450 296.000
76.02444 299.000
76.04439 286.000
76.06434 309.000
76.08428 307.000
76.10423 332.000
76.12418 325.000
76.14413 350.000
76.16407 299.000
76.18402 312.000
76.20397 327.000
76.22391 323.000
76.24386 270.000
76.26381 340.000
76.28375 348.000
76.30370 352.000
76.32365 339.000
76.34359 319.000
76.36354 300.000
76.38349 312.000
76.40344 307.000
76.42338 293.000
76.44333 292.000
76.46328 306.000
76.48322 284.000
76.50317 272.000
76.52312 314.000
76.54306 307.000
76.56301 305.000
76.58296 259.000
76.60291 291.000
76.62285 312.000
76.64280 283.000
76.66275 321.000
76.68269 271.000
76.70264 257.000
76.72259 274.000
76.74253 291.000
76.76248 270.000
76.78243 278.000
76.80238 276.000
76.82232 292.000
76.84227 274.000
76.86222 275.000
76.88216 274.000
76.90211 284.000
76.92206 253.000
76.94200 261.000
76.96195 240.000
76.98190 276.000
77.00184 294.000
77.02179 268.000
77.04174 269.000
77.06169 302.000
77.08163 264.000
77.10158 305.000
77.12153 276.000
77.14147 298.000
77.16142 289.000
77.18137 295.000
77.20131 282.000
77.22126 282.000
77.24121 268.000
77.26116 279.000
77.28110 290.000
77.30105 292.000
77.32100 319.000
77.34094 279.000
77.36089 264.000
77.38084 302.000
77.40078 292.000
77.42073 274.000
77.44068 315.000
77.46062 284.000
77.48057 271.000
77.50052 276.000
77.52047 276.000
77.54041 305.000
77.56036 304.000
77.58031 279.000
77.60025 291.000
77.62020 315.000
77.64015 283.000
77.66009 323.000
77.68004 296.000
77.69999 295.000
77.71994 302.000
77.73988 298.000
77.75983 312.000
77.77978 300.000
77.79972 302.000
77.81967 323.000
77.83962 339.000
77.85956 317.000
77.87951 322.000
77.89946 285.000
77.91940 325.000
77.93935 338.000
77.95930 378.000
77.97925 325.000
77.99919 346.000
78.01914 292.000
78.03909 346.000
78.05903 357.000
78.07898 350.000
78.09893 372.000
78.11887 385.000
78.13882 418.000
78.15877 391.000
78.17872 419.000
78.19866 401.000
78.21861 392.000
78.23856 417.000
78.25850 425.000
78.27845 382.000
78.29840 365.000
78.31834 389.000
78.33829 355.000
78.35824 374.000
78.37819 370.000
78.39813 341.000
78.41808 350.000
78.43803 349.000
78.45797 351.000
78.47792 340.000
78.49787 333.000
78.51781 333.000
78.53776 310.000
78.55771 316.000
78.57765 341.000
78.59760 315.000
78.61755 282.000
78.63750 295.000
78.65744 289.000
78.67739 321.000
78.69734 303.000
78.71728 316.000
78.73723 251.000
78.75718 269.000
78.77712 286.000
78.79707 296.000
78.81702 298.000
78.83697 283.000
78.85691 281.000
78.87686 317.000
78.89681 301.000
78.91675 305.000
78.93670 281.000
78.95665 279.000
78.97659 309.000
78.99654 290.000
79.01649 278.000
79.03643 280.000
79.05638 300.000
79.07633 278.000
79.09628 295.000
79.11622 287.000
79.13617 278.000
79.15612 285.000
79.17606 307.000
79.19601 282.000
79.21596 285.000
79.23590 270.000
79.25585 290.000
79.27580 286.000
79.29575 266.000
79.31569 269.000
79.33564 292.000
79.35559 276.000
79.37553 303.000
79.39548 268.000
79.41543 280.000
79.43537 277.000
79.45532 268.000
79.47527 309.000
79.49521 297.000
79.51516 312.000
79.53511 266.000
79.55506 273.000
79.57500 268.000
79.59495 288.000
79.61490 269.000
79.63484 272.000
79.65479 304.000
79.67474 261.000
79.69468 285.000
79.71463 255.000
79.73458 282.000
79.75453 259.000
79.77447 284.000
79.79442 297.000
79.81437 330.000
79.83431 291.000
79.85426 270.000
79.87421 296.000
79.89415 270.000
79.91410 273.000
79.93405 275.000
79.95399 268.000
79.97394 265.000
79.99389 273.000
80.01384 294.000
80.03378 299.000
80.05373 319.000
80.07368 303.000
80.09362 302.000
80.11357 322.000
80.13352 313.000
80.15346 325.000
80.17341 314.000
80.19336 286.000
80.21331 290.000
80.23325 287.000
80.25320 298.000
80.27315 308.000
80.29309 307.000
80.31304 291.000
80.33299 289.000
80.35293 330.000
80.37288 338.000
80.39283 306.000
80.41278 321.000
80.43272 296.000
80.45267 311.000
80.47262 297.000
80.49256 297.000
80.51251 305.000
80.53246 326.000
80.55240 305.000
80.57235 285.000
80.59230 299.000
80.61224 314.000
80.63219 292.000
80.65214 314.000
80.67209 305.000
80.69203 303.000
80.71198 314.000
80.73193 330.000
80.75187 300.000
80.77182 301.000
80.79177 321.000
80.81171 251.000
80.83166 280.000
80.85161 318.000
80.87156 273.000
80.89150 296.000
80.91145 283.000
80.93140 280.000
80.95134 276.000
80.97129 276.000
80.99124 288.000
81.01118 294.000
81.03113 275.000
81.05108 288.000
81.07102 267.000
81.09097 261.000
81.11092 295.000
81.13087 282.000
81.15081 267.000
81.17076 320.000
81.19071 284.000
81.21065 287.000
81.23060 301.000
81.25055 322.000
81.27049 282.000
81.29044 337.000
81.31039 287.000
81.33034 267.000
81.35028 344.000
81.37023 284.000
81.39018 265.000
81.41012 281.000
81.43007 285.000
81.45002 276.000
81.46996 233.000
81.48991 302.000
81.50986 278.000
81.52980 295.000
81.54975 248.000
81.56970 262.000
81.58965 272.000
81.60959 269.000
81.62954 281.000
81.64949 268.000
81.66943 278.000
81.68938 274.000
81.70933 281.000
81.72927 265.000
81.74922 274.000
81.76917 333.000
81.78912 262.000
81.80906 280.000
81.82901 289.000
81.84896 305.000
81.86890 274.000
81.88885 291.000
81.90880 251.000
81.92874 271.000
81.94869 260.000
81.96864 283.000
81.98859 229.000
82.00853 288.000
82.02848 259.000
82.04843 298.000
82.06837 262.000
82.08832 302.000
82.10827 260.000
82.12821 281.000
82.14816 284.000
82.16811 296.000
82.18805 290.000
82.20800 333.000
82.22795 287.000
82.24790 297.000
82.26784 305.000
82.28779 342.000
82.30774 373.000
82.32768 304.000
82.34763 384.000
82.36758 312.000
82.38752 334.000
82.40747 290.000
82.42742 292.000
82.44737 295.000
82.46731 280.000
82.48726 313.000
82.50721 292.000
82.52715 319.000
82.54710 328.000
82.56705 306.000
82.58699 305.000
82.60694 302.000
82.62689 270.000
82.64683 283.000
82.66678 285.000
82.68673 255.000
82.70668 298.000
82.72662 280.000
82.74657 302.000
82.76652 306.000
82.78646 275.000
82.80641 285.000
82.82636 287.000
82.84630 273.000
82.86625 284.000
82.88620 268.000
82.90615 265.000
82.92609 274.000
82.94604 311.000
82.96599 300.000
82.98593 304.000
83.00588 283.000
83.02583 331.000
83.04577 287.000
83.06572 316.000
83.08567 338.000
83.10561 368.000
83.12556 312.000
83.14551 316.000
83.16546 347.000
83.18540 323.000
83.20535 327.000
83.22530 292.000
83.24524 315.000
83.26519 315.000
83.28514 298.000
83.30508 338.000
83.32503 320.000
83.34498 331.000
83.36493 329.000
83.38487 346.000
83.40482 292.000
83.42477 344.000
83.44471 346.000
83.46466 317.000
83.48461 338.000
83.50455 357.000
83.52450 321.000
83.54445 339.000
83.56440 308.000
83.58434 314.000
83.60429 299.000
83.62424 321.000
83.64418 348.000
83.66413 314.000
83.68408 305.000
83.70402 296.000
83.72397 315.000
83.74392 306.000
83.76386 297.000
83.78381 337.000
83.80376 311.000
83.82371 321.000
83.84365 319.000
83.86360 304.000
83.88355 314.000
83.90349 277.000
83.92344 319.000
83.94339 277.000
83.96333 278.000
83.98328 255.000
84.00323 273.000
84.02318 283.000
84.04312 297.000
84.06307 287.000
84.08302 308.000
84.10296 316.000
84.12291 263.000
84.14286 283.000
84.16280 265.000
84.18275 267.000
84.20270 270.000
84.22264 294.000
84.24259 315.000
84.26254 286.000
84.28249 305.000
84.30243 289.000
84.32238 260.000
84.34233 292.000
84.36227 285.000
84.38222 289.000
84.40217 302.000
84.42211 317.000
84.44206 339.000
84.46201 314.000
84.48196 307.000
84.50190 297.000
84.52185 313.000
84.54180 306.000
84.56174 333.000
84.58169 317.000
84.60164 316.000
84.62158 337.000
84.64153 331.000
84.66148 283.000
84.68142 317.000
84.70137 337.000
84.72132 320.000
84.74127 327.000
84.76121 310.000
84.78116 307.000
84.80111 351.000
84.82105 359.000
84.84100 346.000
84.86095 360.000
84.88089 326.000
84.90084 347.000
84.92079 320.000
84.94074 343.000
84.96068 286.000
84.98063 330.000
85.00058 293.000
85.02052 322.000
85.04047 336.000
85.06042 299.000
85.08036 314.000
85.10031 333.000
85.12026 327.000
85.14021 278.000
85.16015 292.000
85.18010 309.000
85.20005 300.000
85.21999 290.000
85.23994 298.000
85.25989 269.000
85.27983 288.000
85.29978 292.000
85.31973 283.000
85.33967 288.000
85.35962 273.000
85.37957 317.000
85.39952 277.000
85.41946 322.000
85.43941 275.000
85.45936 265.000
85.47930 305.000
85.49925 264.000
85.51920 304.000
85.53914 292.000
85.55909 278.000
85.57904 277.000
85.59899 287.000
85.61893 284.000
85.63888 285.000
85.65883 275.000
85.67877 302.000
85.69872 274.000
85.71867 318.000
85.73861 297.000
85.75856 279.000
85.77851 280.000
85.79845 316.000
85.81840 288.000
85.83835 294.000
85.85830 291.000
85.87824 285.000
85.89819 267.000
85.91814 254.000
85.93808 283.000
85.95803 274.000
85.97798 270.000
85.99792 276.000
86.01787 277.000
86.03782 276.000
86.05777 294.000
86.07771 251.000
86.09766 265.000
86.11761 277.000
86.13755 291.000
86.15750 296.000
86.17745 302.000
86.19739 264.000
86.21734 279.000
86.23729 302.000
86.25723 259.000
86.27718 297.000
86.29713 272.000
86.31708 284.000
86.33702 261.000
86.35697 282.000
86.37692 314.000
86.39686 312.000
86.41681 271.000
86.43676 323.000
86.45670 314.000
86.47665 314.000
86.49660 275.000
86.51655 291.000
86.53649 313.000
86.55644 302.000
86.57639 268.000
86.59633 305.000
86.61628 289.000
86.63623 273.000
86.65617 274.000
86.67612 310.000
86.69607 285.000
86.71602 290.000
86.73596 290.000
86.75591 303.000
86.77586 332.000
86.79580 303.000
86.81575 299.000
86.83570 292.000
86.85564 304.000
86.87559 265.000
86.89554 296.000
86.91548 248.000
86.93543 309.000
86.95538 298.000
86.97533 305.000
86.99527 277.000
87.01522 282.000
87.03517 312.000
87.05511 310.000
87.07506 286.000
87.09501 296.000
87.11495 276.000
87.13490 285.000
87.15485 300.000
87.17480 282.000
87.19474 287.000
87.21469 269.000
87.23464 291.000
87.25458 298.000
87.27453 274.000
87.29448 310.000
87.31442 299.000
87.33437 300.000
87.35432 265.000
87.37426 312.000
87.39421 312.000
87.41416 308.000
87.43411 303.000
87.45405 308.000
87.47400 302.000
87.49395 290.000
87.51389 310.000
87.53384 276.000
87.55379 250.000
87.57373 287.000
87.59368 300.000
87.61363 300.000
87.63358 292.000
87.65352 259.000
87.67347 272.000
87.69342 268.000
87.71336 276.000
87.73331 265.000
87.75326 289.000
87.77320 324.000
87.79315 306.000
87.81310 309.000
87.83304 291.000
87.85299 270.000
87.87294 274.000
87.89289 269.000
87.91283 273.000
87.93278 274.000
87.95273 272.000
87.97267 261.000
87.99262 254.000
88.01257 291.000
88.03251 300.000
88.05246 291.000
88.07241 277.000
88.09236 257.000
88.11230 255.000
88.13225 282.000
88.15220 285.000
88.17214 280.000
88.19209 293.000
88.21204 288.000
88.23198 301.000
88.25193 271.000
88.27188 247.000
88.29183 291.000
88.31177 294.000
88.33172 275.000
88.35167 287.000
88.37161 282.000
88.39156 288.000
88.41151 254.000
88.43145 283.000
88.45140 267.000
88.47135 262.000
88.49129 267.000
88.51124 280.000
88.53119 284.000
88.55114 253.000
88.57108 266.000
88.59103 289.000
88.61098 262.000
88.63092 280.000
88.65087 290.000
88.67082 246.000
88.69076 270.000
88.71071 282.000
88.73066 275.000
88.75061 298.000
88.77055 276.000
88.79050 250.000
88.81045 282.000
88.83039 270.000
88.85034 291.000
88.87029 263.000
88.89023 307.000
88.91018 279.000
88.93013 270.000
88.95007 317.000
88.97002 260.000
88.98997 304.000
89.00992 258.000
89.02986 252.000
89.04981 287.000
89.06976 275.000
89.08970 287.000
89.10965 306.000
89.12960 266.000
89.14954 295.000
89.16949 282.000
89.18944 283.000
89.20939 313.000
89.22933 271.000
89.24928 276.000
89.26923 273.000
89.28917 283.000
89.30912 292.000
89.32907 312.000
89.34901 270.000
89.36896 243.000
89.38891 291.000
89.40885 309.000
89.42880 298.000
89.44875 334.000
89.46870 287.000
89.48864 291.000
89.50859 268.000
89.52854 295.000
89.54848 289.000
89.56843 312.000
89.58838 273.000
89.60832 295.000
89.62827 271.000
89.64822 276.000
89.66817 288.000
89.68811 281.000
89.70806 316.000
89.72801 297.000
89.74795 329.000
89.76790 350.000
89.78785 328.000
89.80779 323.000
89.82774 327.000
89.84769 359.000
89.86764 320.000
89.88758 349.000
89.90753 288.000
89.92748 297.000
89.94742 305.000
89.96737 315.000
89.98732 297.000
90.00726 312.000
