10.00000 96.000
10.01995 127.000
10.03989 84.000
10.05984 84.000
10.07979 92.000
10.09973 110.000
10.11968 94.000
10.13963 86.000
10.15958 115.000
10.17952 98.000
10.19947 94.000
10.21942 89.000
10.23936 74.000
10.25931 91.000
10.27926 88.000
10.29920 89.000
10.31915 104.000
10.33910 102.000
10.35905 98.000
10.37899 101.000
10.39894 92.000
10.41889 90.000
10.43883 82.000
10.45878 82.000
10.47873 98.000
10.49867 97.000
10.51862 113.000
10.53857 119.000
10.55851 92.000
10.57846 79.000
10.59841 95.000
10.61836 117.000
10.63830 97.000
10.65825 107.000
10.67820 102.000
10.69814 96.000
10.71809 94.000
10.73804 89.000
10.75798 101.000
10.77793 97.000
10.79788 96.000
10.81783 106.000
10.83777 111.000
10.85772 112.000
10.87767 101.000
10.89761 108.000
10.91756 87.000
10.93751 113.000
10.95745 95.000
10.97740 94.000
10.99735 110.000
11.01730 97.000
11.03724 99.000
11.05719 108.000
11.07714 126.000
11.09708 120.000
11.11703 117.000
11.13698 81.000
11.15692 107.000
11.17687 97.000
11.19682 108.000
11.21676 97.000
11.23671 113.000
11.25666 107.000
11.27661 93.000
11.29655 109.000
11.31650 104.000
11.33645 109.000
11.35639 128.000
11.37634 112.000
11.39629 110.000
11.41623 91.000
11.43618 110.000
11.45613 105.000
11.47608 104.000
11.49602 117.000
11.51597 108.000
11.53592 112.000
11.55586 95.000
11.57581 111.000
11.59576 115.000
11.61570 111.000
11.63565 102.000
11.65560 122.000
11.67554 100.000
11.69549 135.000
11.71544 130.000
11.73539 121.000
11.75533 128.000
11.77528 90.000
11.79523 138.000
11.81517 115.000
11.83512 120.000
11.85507 106.000
11.87501 108.000
11.89496 119.000
11.91491 120.000
11.93486 139.000
11.95480 116.000
11.97475 110.000
11.99470 128.000
12.01464 143.000
12.03459 118.000
12.05454 130.000
12.07448 118.000
12.09443 134.000
12.11438 108.000
12.13432 112.000
12.15427 129.000
12.17422 119.000
12.19417 145.000
12.21411 132.000
12.23406 110.000
12.25401 119.000
12.27395 121.000
12.29390 124.000
12.31385 131.000
12.33379 129.000
12.35374 127.000
12.37369 124.000
12.39364 139.000
12.41358 136.000
12.43353 139.000
12.45348 133.000
12.47342 134.000
12.49337 144.000
12.51332 112.000
12.53326 119.000
12.55321 152.000
12.57316 129.000
12.59311 127.000
12.61305 128.000
12.63300 137.000
12.65295 121.000
12.67289 136.000
12.69284 143.000
12.71279 129.000
12.73273 151.000
12.75268 134.000
12.77263 128.000
12.79257 147.000
12.81252 125.000
12.83247 137.000
12.85242 136.000
12.87236 149.000
12.89231 144.000
12.91226 134.000
12.93220 145.000
12.95215 174.000
12.97210 163.000
12.99204 140.000
13.01199 148.000
13.03194 146.000
13.05189 145.000
13.07183 150.000
13.09178 131.000
13.11173 149.000
13.13167 133.000
13.15162 147.000
13.17157 137.000
13.19151 141.000
13.21146 133.000
13.23141 146.000
13.25135 142.000
13.27130 115.000
13.29125 143.000
13.31120 134.000
13.33114 143.000
13.35109 139.000
13.37104 142.000
13.39098 137.000
13.41093 141.000
13.43088 122.000
13.45082 158.000
13.47077 152.000
13.49072 163.000
13.51067 139.000
13.53061 153.000
13.55056 140.000
13.57051 161.000
13.59045 128.000
13.61040 157.000
13.63035 158.000
13.65029 148.000
13.67024 134.000
13.69019 141.000
13.71013 140.000
13.73008 164.000
13.75003 134.000
13.76998 137.000
13.78992 134.000
13.80987 147.000
13.82982 143.000
13.84976 142.000
13.86971 129.000
13.88966 147.000
13.90960 146.000
13.92955 149.000
13.94950 170.000
13.96945 152.000
13.98939 160.000
14.00934 138.000
14.02929 151.000
14.04923 158.000
14.06918 149.000
14.08913 139.000
14.10907 146.000
14.12902 165.000
14.14897 159.000
14.16892 155.000
14.18886 173.000
14.20881 153.000
14.22876 144.000
14.24870 166.000
14.26865 173.000
14.28860 156.000
14.30854 144.000
14.32849 160.000
14.34844 176.000
14.36838 175.000
14.38833 158.000
14.40828 142.000
14.42823 160.000
14.44817 161.000
14.46812 143.000
14.48807 150.000
14.50801 156.000
14.52796 154.000
14.54791 174.000
14.56785 153.000
14.58780 146.000
14.60775 142.000
14.62770 155.000
14.64764 159.000
14.66759 148.000
14.68754 148.000
14.70748 172.000
14.72743 160.000
14.74738 159.000
14.76732 119.000
14.78727 169.000
14.80722 151.000
14.82716 162.000
14.84711 145.000
14.86706 143.000
14.88701 159.000
14.90695 135.000
14.92690 153.000
14.94685 167.000
14.96679 165.000
14.98674 159.000
15.00669 176.000
15.02663 173.000
15.04658 178.000
15.06653 153.000
15.08648 175.000
15.10642 154.000
15.12637 156.000
15.14632 170.000
15.16626 166.000
15.18621 152.000
15.20616 171.000
15.22610 172.000
15.24605 178.000
15.26600 180.000
15.28594 173.000
15.30589 157.000
15.32584 158.000
15.34579 154.000
15.36573 187.000
15.38568 165.000
15.40563 177.000
15.42557 169.000
15.44552 152.000
15.46547 167.000
15.48541 201.000
15.50536 162.000
15.52531 177.000
15.54526 172.000
15.56520 195.000
15.58515 178.000
15.60510 171.000
15.62504 173.000
15.64499 185.000
15.66494 159.000
15.68488 173.000
15.70483 172.000
15.72478 175.000
15.74472 159.000
15.76467 186.000
15.78462 184.000
15.80457 178.000
15.82451 202.000
15.84446 201.000
15.86441 197.000
15.88435 195.000
15.90430 174.000
15.92425 197.000
15.94419 172.000
15.96414 206.000
15.98409 194.000
16.00404 179.000
16.02398 166.000
16.04393 177.000
16.06388 208.000
16.08382 229.000
16.10377 199.000
16.12372 198.000
16.14366 207.000
16.16361 221.000
16.18356 191.000
16.20351 192.000
16.22345 189.000
16.24340 207.000
16.26335 197.000
16.28329 221.000
16.30324 203.000
16.32319 226.000
16.34313 193.000
16.36308 205.000
16.38303 227.000
16.40297 198.000
16.42292 225.000
16.44287 206.000
16.46282 213.000
16.48276 216.000
16.50271 202.000
16.52266 248.000
16.54260 217.000
16.56255 200.000
16.58250 233.000
16.60244 229.000
16.62239 219.000
16.64234 225.000
16.66229 218.000
16.68223 215.000
16.70218 225.000
16.72213 236.000
16.74207 225.000
16.76202 226.000
16.78197 250.000
16.80191 233.000
16.82186 257.000
16.84181 232.000
16.86175 230.000
16.88170 241.000
16.90165 240.000
16.92160 246.000
16.94154 232.000
16.96149 257.000
16.98144 255.000
17.00138 283.000
17.02133 257.000
17.04128 252.000
17.06122 254.000
17.08117 247.000
17.10112 277.000
17.12107 252.000
17.14101 271.000
17.16096 262.000
17.18091 262.000
17.20085 272.000
17.22080 251.000
17.24075 248.000
17.26069 252.000
17.28064 264.000
17.30059 256.000
17.32053 279.000
17.34048 288.000
17.36043 297.000
17.38038 266.000
17.40032 267.000
17.42027 273.000
17.44022 318.000
17.46016 282.000
17.48011 285.000
17.50006 292.000
17.52000 312.000
17.53995 275.000
17.55990 301.000
17.57985 285.000
17.59979 294.000
17.61974 293.000
17.63969 298.000
17.65963 290.000
17.67958 288.000
17.69953 303.000
17.71947 303.000
17.73942 271.000
17.75937 309.000
17.77932 317.000
17.79926 325.000
17.81921 298.000
17.83916 332.000
17.85910 313.000
17.87905 320.000
17.89900 329.000
17.91894 326.000
17.93889 318.000
17.95884 305.000
17.97878 328.000
17.99873 335.000
18.01868 304.000
18.03863 319.000
18.05857 342.000
18.07852 363.000
18.09847 337.000
18.11841 339.000
18.13836 342.000
18.15831 350.000
18.17825 313.000
18.19820 359.000
18.21815 347.000
18.23810 307.000
18.25804 351.000
18.27799 354.000
18.29794 359.000
18.31788 349.000
18.33783 366.000
18.35778 385.000
18.37772 399.000
18.39767 347.000
18.41762 389.000
18.43756 367.000
18.45751 376.000
18.47746 360.000
18.49741 346.000
18.51735 355.000
18.53730 387.000
18.55725 335.000
18.57719 390.000
18.59714 398.000
18.61709 396.000
18.63703 341.000
18.65698 387.000
18.67693 345.000
18.69688 392.000
18.71682 374.000
18.73677 416.000
18.75672 401.000
18.77666 373.000
18.79661 411.000
18.81656 420.000
18.83650 386.000
18.85645 407.000
18.87640 420.000
18.89634 422.000
18.91629 413.000
18.93624 409.000
18.95619 386.000
18.97613 427.000
18.99608 413.000
19.01603 440.000
19.03597 392.000
19.05592 430.000
19.07587 442.000
19.09581 406.000
19.11576 419.000
19.13571 403.000
19.15566 462.000
19.17560 419.000
19.19555 427.000
19.21550 446.000
19.23544 435.000
19.25539 441.000
19.27534 424.000
19.29528 405.000
19.31523 443.000
19.33518 413.000
19.35513 473.000
19.37507 457.000
19.39502 436.000
19.41497 395.000
19.43491 444.000
19.45486 398.000
19.47481 459.000
19.49475 447.000
19.51470 481.000
19.53465 448.000
19.55459 455.000
19.57454 445.000
19.59449 447.000
19.61444 450.000
19.63438 424.000
19.65433 468.000
19.67428 441.000
19.69422 410.000
19.71417 437.000
19.73412 477.000
19.75406 452.000
19.77401 428.000
19.79396 481.000
19.81391 449.000
19.83385 492.000
19.85380 480.000
19.87375 481.000
19.89369 497.000
19.91364 454.000
19.93359 494.000
19.95353 467.000
19.97348 457.000
19.99343 477.000
20.01337 519.000
20.03332 511.000
20.05327 500.000
20.07322 495.000
20.09316 477.000
20.11311 515.000
20.13306 481.000
20.15300 500.000
20.17295 508.000
20.19290 513.000
20.21284 516.000
20.23279 515.000
20.25274 549.000
20.27269 452.000
20.29263 492.000
20.31258 508.000
20.33253 474.000
20.35247 474.000
20.37242 488.000
20.39237 549.000
20.41231 497.000
20.43226 504.000
20.45221 492.000
20.47215 465.000
20.49210 510.000
20.51205 500.000
20.53200 529.000
20.55194 519.000
20.57189 522.000
20.59184 487.000
20.61178 563.000
20.63173 523.000
20.65168 474.000
20.67162 530.000
20.69157 527.000
20.71152 554.000
20.73147 494.000
20.75141 508.000
20.77136 573.000
20.79131 548.000
20.81125 536.000
20.83120 525.000
20.85115 510.000
20.87109 509.000
20.89104 530.000
20.91099 572.000
20.93094 544.000
20.95088 523.000
20.97083 494.000
20.99078 588.000
21.01072 561.000
21.03067 539.000
21.05062 533.000
21.07056 564.000
21.09051 552.000
21.11046 565.000
21.13040 536.000
21.15035 559.000
21.17030 538.000
21.19025 578.000
21.21019 540.000
21.23014 541.000
21.25009 568.000
21.27003 532.000
21.28998 492.000
21.30993 549.000
21.32987 586.000
21.34982 574.000
21.36977 535.000
21.38972 547.000
21.40966 557.000
21.42961 549.000
21.44956 570.000
21.46950 568.000
21.48945 553.000
21.50940 558.000
21.52934 600.000
21.54929 558.000
21.56924 551.000
21.58918 560.000
21.60913 570.000
21.62908 551.000
21.64903 574.000
21.66897 531.000
21.68892 567.000
21.70887 575.000
21.72881 552.000
21.74876 636.000
21.76871 573.000
21.78865 553.000
21.80860 574.000
21.82855 553.000
21.84850 576.000
21.86844 533.000
21.88839 539.000
21.90834 560.000
21.92828 568.000
21.94823 598.000
21.96818 587.000
21.98812 599.000
22.00807 611.000
22.02802 600.000
22.04796 604.000
22.06791 564.000
22.08786 632.000
22.10781 613.000
22.12775 610.000
22.14770 591.000
22.16765 569.000
22.18759 628.000
22.20754 612.000
22.22749 587.000
22.24743 617.000
22.26738 590.000
22.28733 630.000
22.30728 588.000
22.32722 604.000
22.34717 600.000
22.36712 552.000
22.38706 568.000
22.40701 593.000
22.42696 610.000
22.44690 604.000
22.46685 599.000
22.48680 611.000
22.50675 622.000
22.52669 594.000
22.54664 578.000
22.56659 600.000
22.58653 623.000
22.60648 618.000
22.62643 613.000
22.64637 548.000
22.66632 609.000
22.68627 630.000
22.70621 633.000
22.72616 625.000
22.74611 659.000
22.76606 688.000
22.78600 641.000
22.80595 617.000
22.82590 637.000
22.84584 657.000
22.86579 622.000
22.88574 641.000
22.90568 629.000
22.92563 645.000
22.94558 585.000
22.96553 651.000
22.98547 645.000
23.00542 597.000
23.02537 638.000
23.04531 647.000
23.06526 625.000
23.08521 640.000
23.10515 638.000
23.12510 653.000
23.14505 655.000
23.16499 690.000
23.18494 662.000
23.20489 683.000
23.22484 721.000
23.24478 674.000
23.26473 639.000
23.28468 642.000
23.30462 670.000
23.32457 620.000
23.34452 660.000
23.36446 668.000
23.38441 655.000
23.40436 682.000
23.42431 645.000
23.44425 690.000
23.46420 665.000
23.48415 684.000
23.50409 701.000
23.52404 687.000
23.54399 719.000
23.56393 720.000
23.58388 654.000
23.60383 740.000
23.62377 667.000
23.64372 715.000
23.66367 670.000
23.68362 689.000
23.70356 679.000
23.72351 678.000
23.74346 721.000
23.76340 701.000
23.78335 716.000
23.80330 736.000
23.82324 700.000
23.84319 700.000
23.86314 714.000
23.88309 730.000
23.90303 660.000
23.92298 683.000
23.94293 721.000
23.96287 751.000
23.98282 671.000
24.00277 771.000
24.02271 765.000
24.04266 714.000
24.06261 719.000
24.08256 750.000
24.10250 768.000
24.12245 710.000
24.14240 732.000
24.16234 735.000
24.18229 703.000
24.20224 774.000
24.22218 727.000
24.24213 719.000
24.26208 745.000
24.28202 753.000
24.30197 767.000
24.32192 801.000
24.34187 810.000
24.36181 750.000
24.38176 761.000
24.40171 727.000
24.42165 781.000
24.44160 767.000
24.46155 818.000
24.48149 789.000
24.50144 760.000
24.52139 763.000
24.54134 774.000
24.56128 805.000
24.58123 767.000
24.60118 804.000
24.62112 785.000
24.64107 722.000
24.66102 753.000
24.68096 818.000
24.70091 750.000
24.72086 773.000
24.74080 789.000
24.76075 788.000
24.78070 842.000
24.80065 798.000
24.82059 834.000
24.84054 834.000
24.86049 852.000
24.88043 809.000
24.90038 761.000
24.92033 826.000
24.94027 831.000
24.96022 816.000
24.98017 817.000
25.00012 847.000
25.02006 817.000
25.04001 804.000
25.05996 857.000
25.07990 870.000
25.09985 843.000
25.11980 847.000
25.13974 869.000
25.15969 834.000
25.17964 865.000
25.19958 830.000
25.21953 874.000
25.23948 811.000
25.25943 873.000
25.27937 912.000
25.29932 843.000
25.31927 912.000
25.33921 835.000
25.35916 833.000
25.37911 886.000
25.39905 893.000
25.41900 887.000
25.43895 868.000
25.45890 823.000
25.47884 905.000
25.49879 895.000
25.51874 892.000
25.53868 936.000
25.55863 856.000
25.57858 894.000
25.59852 932.000
25.61847 895.000
25.63842 915.000
25.65837 893.000
25.67831 962.000
25.69826 926.000
25.71821 1024.000
25.73815 931.000
25.75810 937.000
25.77805 949.000
25.79799 932.000
25.81794 936.000
25.83789 975.000
25.85783 933.000
25.87778 932.000
25.89773 981.000
25.91768 974.000
25.93762 990.000
25.95757 1032.000
25.97752 982.000
25.99746 976.000
26.01741 981.000
26.03736 993.000
26.05730 957.000
26.07725 996.000
26.09720 941.000
26.11715 961.000
26.13709 948.000
26.15704 1024.000
26.17699 1039.000
26.19693 1010.000
26.21688 1025.000
26.23683 1066.000
26.25677 1004.000
26.27672 1024.000
26.29667 1041.000
26.31661 1034.000
26.33656 982.000
26.35651 1063.000
26.37646 1003.000
26.39640 1086.000
26.41635 998.000
26.43630 1077.000
26.45624 1022.000
26.47619 1140.000
26.49614 1106.000
26.51608 1032.000
26.53603 1042.000
26.55598 1034.000
26.57593 1040.000
26.59587 1108.000
26.61582 1067.000
26.63577 1053.000
26.65571 1099.000
26.67566 1058.000
26.69561 1068.000
26.71555 1085.000
26.73550 1105.000
26.75545 1045.000
26.77539 1060.000
26.79534 1109.000
26.81529 1147.000
26.83524 1048.000
26.85518 1155.000
26.87513 1134.000
26.89508 1175.000
26.91502 1024.000
26.93497 1138.000
26.95492 1163.000
26.97486 1140.000
26.99481 1138.000
27.01476 1120.000
27.03471 1118.000
27.05465 1061.000
27.07460 1206.000
27.09455 1076.000
27.11449 1183.000
27.13444 1164.000
27.15439 1181.000
27.17433 1180.000
27.19428 1148.000
27.21423 1121.000
27.23417 1185.000
27.25412 1219.000
27.27407 1073.000
27.29402 1226.000
27.31396 1129.000
27.33391 1183.000
27.35386 1175.000
27.37380 1139.000
27.39375 1193.000
27.41370 1246.000
27.43364 1161.000
27.45359 1177.000
27.47354 1234.000
27.49349 1221.000
27.51343 1204.000
27.53338 1166.000
27.55333 1176.000
27.57327 1293.000
27.59322 1224.000
27.61317 1224.000
27.63311 1193.000
27.65306 1155.000
27.67301 1306.000
27.69296 1292.000
27.71290 1266.000
27.73285 1255.000
27.75280 1198.000
27.77274 1255.000
27.79269 1209.000
27.81264 1256.000
27.83258 1302.000
27.85253 1256.000
27.87248 1290.000
27.89242 1234.000
27.91237 1232.000
27.93232 1207.000
27.95227 1204.000
27.97221 1256.000
27.99216 1261.000
28.01211 1205.000
28.03205 1301.000
28.05200 1292.000
28.07195 1315.000
28.09189 1276.000
28.11184 1224.000
28.13179 1275.000
28.15174 1284.000
28.17168 1247.000
28.19163 1288.000
28.21158 1272.000
28.23152 1285.000
28.25147 1267.000
28.27142 1285.000
28.29136 1255.000
28.31131 1256.000
28.33126 1310.000
28.35120 1324.000
28.37115 1294.000
28.39110 1334.000
28.41105 1321.000
28.43099 1268.000
28.45094 1289.000
28.47089 1326.000
28.49083 1266.000
28.51078 1323.000
28.53073 1261.000
28.55067 1330.000
28.57062 1211.000
28.59057 1278.000
28.61052 1329.000
28.63046 1303.000
28.65041 1317.000
28.67036 1295.000
28.69030 1287.000
28.71025 1356.000
28.73020 1402.000
28.75014 1275.000
28.77009 1323.000
28.79004 1281.000
28.80998 1325.000
28.82993 1296.000
28.84988 1247.000
28.86983 1339.000
28.88977 1378.000
28.90972 1409.000
28.92967 1337.000
28.94961 1341.000
28.96956 1359.000
28.98951 1372.000
29.00945 1372.000
29.02940 1380.000
29.04935 1379.000
29.06930 1354.000
29.08924 1306.000
29.10919 1363.000
29.12914 1375.000
29.14908 1354.000
29.16903 1401.000
29.18898 1302.000
29.20892 1348.000
29.22887 1359.000
29.24882 1408.000
29.26877 1362.000
29.28871 1279.000
29.30866 1285.000
29.32861 1299.000
29.34855 1419.000
29.36850 1321.000
29.38845 1356.000
29.40839 1315.000
29.42834 1342.000
29.44829 1346.000
29.46823 1323.000
29.48818 1352.000
29.50813 1350.000
29.52808 1376.000
29.54802 1343.000
29.56797 1355.000
29.58792 1370.000
29.60786 1323.000
29.62781 1366.000
29.64776 1304.000
29.66770 1371.000
29.68765 1364.000
29.70760 1360.000
29.72755 1374.000
29.74749 1345.000
29.76744 1346.000
29.78739 1359.000
29.80733 1346.000
29.82728 1309.000
29.84723 1333.000
29.86717 1355.000
29.88712 1347.000
29.90707 1400.000
29.92701 1350.000
29.94696 1339.000
29.96691 1388.000
29.98686 1367.000
30.00680 1395.000
30.02675 1319.000
30.04670 1323.000
30.06664 1377.000
30.08659 1341.000
30.10654 1334.000
30.12648 1305.000
30.14643 1351.000
30.16638 1316.000
30.18633 1358.000
30.20627 1383.000
30.22622 1363.000
30.24617 1353.000
30.26611 1391.000
30.28606 1279.000
30.30601 1348.000
30.32595 1406.000
30.34590 1349.000
30.36585 1326.000
30.38579 1314.000
30.40574 1324.000
30.42569 1403.000
30.44564 1324.000
30.46558 1359.000
30.48553 1347.000
30.50548 1363.000
30.52542 1403.000
30.54537 1375.000
30.56532 1397.000
30.58526 1334.000
30.60521 1333.000
30.62516 1387.000
30.64511 1262.000
30.66505 1311.000
30.68500 1282.000
30.70495 1308.000
30.72489 1304.000
30.74484 1376.000
30.76479 1314.000
30.78473 1312.000
30.80468 1353.000
30.82463 1261.000
30.84458 1309.000
30.86452 1342.000
30.88447 1280.000
30.90442 1282.000
30.92436 1264.000
30.94431 1279.000
30.96426 1255.000
30.98420 1341.000
31.00415 1339.000
31.02410 1391.000
31.04404 1305.000
31.06399 1272.000
31.08394 1276.000
31.10389 1271.000
31.12383 1287.000
31.14378 1290.000
31.16373 1231.000
31.18367 1289.000
31.20362 1257.000
31.22357 1302.000
31.24351 1299.000
31.26346 1285.000
31.28341 1196.000
31.30336 1250.000
31.32330 1267.000
31.34325 1310.000
31.36320 1233.000
31.38314 1275.000
31.40309 1269.000
31.42304 1226.000
31.44298 1241.000
31.46293 1277.000
31.48288 1234.000
31.50282 1222.000
31.52277 1220.000
31.54272 1234.000
31.56267 1225.000
31.58261 1255.000
31.60256 1249.000
31.62251 1251.000
31.64245 1278.000
31.66240 1289.000
31.68235 1222.000
31.70229 1209.000
31.72224 1312.000
31.74219 1253.000
31.76214 1228.000
31.78208 1202.000
31.80203 1196.000
31.82198 1244.000
31.84192 1240.000
31.86187 1209.000
31.88182 1163.000
31.90176 1277.000
31.92171 1222.000
31.94166 1267.000
31.96160 1309.000
31.98155 1231.000
32.00150 1182.000
32.02145 1183.000
32.04139 1151.000
32.06134 1214.000
32.08129 1207.000
32.10123 1238.000
32.12118 1219.000
32.14113 1244.000
32.16107 1216.000
32.18102 1150.000
32.20097 1208.000
32.22092 1203.000
32.24086 1165.000
32.26081 1190.000
32.28076 1150.000
32.30070 1223.000
32.32065 1178.000
32.34060 1143.000
32.36054 1138.000
32.38049 1163.000
32.40044 1208.000
32.42039 1218.000
32.44033 1175.000
32.46028 1170.000
32.48023 1134.000
32.50017 1192.000
32.52012 1146.000
32.54007 1166.000
32.56001 1159.000
32.57996 1180.000
32.59991 1095.000
32.61985 1134.000
32.63980 1203.000
32.65975 1135.000
32.67970 1177.000
32.69964 1132.000
32.71959 1109.000
32.73954 1125.000
32.75948 1083.000
32.77943 1146.000
32.79938 1157.000
32.81932 1136.000
32.83927 1122.000
32.85922 1115.000
32.87917 1136.000
32.89911 1143.000
32.91906 1172.000
32.93901 1153.000
32.95895 1166.000
32.97890 1138.000
32.99885 1035.000
33.01879 1097.000
33.03874 1072.000
33.05869 1130.000
33.07863 1090.000
33.09858 1068.000
33.11853 1075.000
33.13848 1033.000
33.15842 1110.000
33.17837 1081.000
33.19832 1068.000
33.21826 1040.000
33.23821 1079.000
33.25816 1062.000
33.27810 1077.000
33.29805 1079.000
33.31800 1139.000
33.33795 1038.000
33.35789 1066.000
33.37784 1075.000
33.39779 1070.000
33.41773 1107.000
33.43768 950.000
33.45763 1045.000
33.47757 1012.000
33.49752 1071.000
33.51747 1048.000
33.53741 1050.000
33.55736 1057.000
33.57731 1057.000
33.59726 1005.000
33.61720 1014.000
33.63715 992.000
33.65710 1051.000
33.67704 1059.000
33.69699 954.000
33.71694 1033.000
33.73688 1053.000
33.75683 1011.000
33.77678 1015.000
33.79673 984.000
33.81667 984.000
33.83662 1090.000
33.85657 997.000
33.87651 1037.000
33.89646 986.000
33.91641 1028.000
33.93635 999.000
33.95630 1001.000
33.97625 1011.000
33.99620 1014.000
34.01614 1014.000
34.03609 955.000
34.05604 959.000
34.07598 991.000
34.09593 951.000
34.11588 1030.000
34.13582 968.000
34.15577 1031.000
34.17572 1022.000
34.19566 913.000
34.21561 938.000
34.23556 956.000
34.25551 915.000
34.27545 983.000
34.29540 982.000
34.31535 961.000
34.33529 975.000
34.35524 937.000
34.37519 1025.000
34.39513 880.000
34.41508 894.000
34.43503 985.000
34.45498 1003.000
34.47492 1019.000
34.49487 969.000
34.51482 977.000
34.53476 959.000
34.55471 972.000
34.57466 991.000
34.59460 979.000
34.61455 990.000
34.63450 1031.000
34.65444 983.000
34.67439 1005.000
34.69434 975.000
34.71429 950.000
34.73423 955.000
34.75418 984.000
34.77413 970.000
34.79407 968.000
34.81402 961.000
34.83397 940.000
34.85391 1018.000
34.87386 1011.000
34.89381 993.000
34.91376 984.000
34.93370 963.000
34.95365 984.000
34.97360 949.000
34.99354 1016.000
35.01349 952.000
35.03344 960.000
35.05338 957.000
35.07333 908.000
35.09328 898.000
35.11322 861.000
35.13317 902.000
35.15312 957.000
35.17307 854.000
35.19301 862.000
35.21296 889.000
35.23291 896.000
35.25285 936.000
35.27280 848.000
35.29275 897.000
35.31269 869.000
35.33264 834.000
35.35259 866.000
35.37254 890.000
35.39248 870.000
35.41243 874.000
35.43238 863.000
35.45232 809.000
35.47227 881.000
35.49222 882.000
35.51216 839.000
35.53211 844.000
35.55206 881.000
35.57201 835.000
35.59195 862.000
35.61190 819.000
35.63185 865.000
35.65179 832.000
35.67174 846.000
35.69169 882.000
35.71163 880.000
35.73158 815.000
35.75153 863.000
35.77147 884.000
35.79142 838.000
35.81137 806.000
35.83132 863.000
35.85126 863.000
35.87121 817.000
35.89116 799.000
35.91110 858.000
35.93105 878.000
35.95100 888.000
35.97094 833.000
35.99089 860.000
36.01084 789.000
36.03079 873.000
36.05073 815.000
36.07068 861.000
36.09063 828.000
36.11057 851.000
36.13052 817.000
36.15047 750.000
36.17041 809.000
36.19036 842.000
36.21031 801.000
36.23025 841.000
36.25020 844.000
36.27015 813.000
36.29010 796.000
36.31004 815.000
36.32999 829.000
36.34994 776.000
36.36988 818.000
36.38983 817.000
36.40978 751.000
36.42972 761.000
36.44967 810.000
36.46962 816.000
36.48957 752.000
36.50951 808.000
36.52946 810.000
36.54941 795.000
36.56935 807.000
36.58930 771.000
36.60925 824.000
36.62919 801.000
36.64914 804.000
36.66909 781.000
36.68903 777.000
36.70898 821.000
36.72893 791.000
36.74888 725.000
36.76882 772.000
36.78877 813.000
36.80872 825.000
36.82866 801.000
36.84861 789.000
36.86856 775.000
36.88850 800.000
36.90845 719.000
36.92840 773.000
36.94835 767.000
36.96829 811.000
36.98824 812.000
37.00819 795.000
37.02813 780.000
37.04808 775.000
37.06803 830.000
37.08797 809.000
37.10792 805.000
37.12787 781.000
37.14781 769.000
37.16776 793.000
37.18771 752.000
37.20766 765.000
37.22760 796.000
37.24755 797.000
37.26750 839.000
37.28744 795.000
37.30739 807.000
37.32734 771.000
37.34728 786.000
37.36723 782.000
37.38718 811.000
37.40713 834.000
37.42707 796.000
37.44702 791.000
37.46697 755.000
37.48691 743.000
37.50686 848.000
37.52681 846.000
37.54675 774.000
37.56670 830.000
37.58665 827.000
37.60660 820.000
37.62654 786.000
37.64649 814.000
37.66644 847.000
37.68638 851.000
37.70633 854.000
37.72628 825.000
37.74622 795.000
37.76617 766.000
37.78612 835.000
37.80606 804.000
37.82601 821.000
37.84596 814.000
37.86591 818.000
37.88585 859.000
37.90580 860.000
37.92575 810.000
37.94569 858.000
37.96564 850.000
37.98559 800.000
38.00553 865.000
38.02548 881.000
38.04543 829.000
38.06538 916.000
38.08532 905.000
38.10527 875.000
38.12522 925.000
38.14516 899.000
38.16511 882.000
38.18506 941.000
38.20500 922.000
38.22495 895.000
38.24490 862.000
38.26484 853.000
38.28479 837.000
38.30474 869.000
38.32469 892.000
38.34463 837.000
38.36458 827.000
38.38453 826.000
38.40447 836.000
38.42442 820.000
38.44437 824.000
38.46431 792.000
38.48426 823.000
38.50421 846.000
38.52416 807.000
38.54410 851.000
38.56405 818.000
38.58400 822.000
38.60394 734.000
38.62389 768.000
38.64384 805.000
38.66378 789.000
38.68373 786.000
38.70368 776.000
38.72362 778.000
38.74357 794.000
38.76352 754.000
38.78347 816.000
38.80341 784.000
38.82336 797.000
38.84331 791.000
38.86325 740.000
38.88320 846.000
38.90315 779.000
38.92309 885.000
38.94304 824.000
38.96299 712.000
38.98294 810.000
39.00288 815.000
39.02283 824.000
39.04278 776.000
39.06272 817.000
39.08267 776.000
39.10262 816.000
39.12256 800.000
39.14251 780.000
39.16246 791.000
39.18241 770.000
39.20235 832.000
39.22230 846.000
39.24225 856.000
39.26219 805.000
39.28214 831.000
39.30209 770.000
39.32203 790.000
39.34198 806.000
39.36193 837.000
39.38187 787.000
39.40182 796.000
39.42177 813.000
39.44172 821.000
39.46166 844.000
39.48161 806.000
39.50156 775.000
39.52150 769.000
39.54145 803.000
39.56140 823.000
39.58134 805.000
39.60129 788.000
39.62124 784.000
39.64119 800.000
39.66113 838.000
39.68108 819.000
39.70103 775.000
39.72097 787.000
39.74092 770.000
39.76087 772.000
39.78081 801.000
39.80076 730.000
39.82071 742.000
39.84065 817.000
39.86060 790.000
39.88055 802.000
39.90050 790.000
39.92044 804.000
39.94039 782.000
39.96034 784.000
39.98028 853.000
40.00023 774.000
40.02018 753.000
40.04012 798.000
40.06007 806.000
40.08002 799.000
40.09997 758.000
40.11991 791.000
40.13986 786.000
40.15981 833.000
40.17975 747.000
40.19970 756.000
40.21965 844.000
40.23959 753.000
40.25954 768.000
40.27949 769.000
40.29943 705.000
40.31938 876.000
40.33933 836.000
40.35928 786.000
40.37922 832.000
40.39917 782.000
40.41912 818.000
40.43906 788.000
40.45901 750.000
40.47896 807.000
40.49890 799.000
40.51885 744.000
40.53880 816.000
40.55875 815.000
40.57869 766.000
40.59864 792.000
40.61859 803.000
40.63853 822.000
40.65848 755.000
40.67843 763.000
40.69837 790.000
40.71832 741.000
40.73827 761.000
40.75822 786.000
40.77816 753.000
40.79811 831.000
40.81806 761.000
40.83800 765.000
40.85795 809.000
40.87790 793.000
40.89784 792.000
40.91779 807.000
40.93774 837.000
40.95768 819.000
40.97763 773.000
40.99758 778.000
41.01753 836.000
41.03747 790.000
41.05742 783.000
41.07737 807.000
41.09731 782.000
41.11726 786.000
41.13721 784.000
41.15715 785.000
41.17710 792.000
41.19705 784.000
41.21700 766.000
41.23694 752.000
41.25689 787.000
41.27684 789.000
41.29678 780.000
41.31673 785.000
41.33668 797.000
41.35662 799.000
41.37657 797.000
41.39652 768.000
41.41646 778.000
41.43641 800.000
41.45636 805.000
41.47631 776.000
41.49625 827.000
41.51620 811.000
41.53615 748.000
41.55609 748.000
41.57604 821.000
41.59599 720.000
41.61593 815.000
41.63588 744.000
41.65583 774.000
41.67578 771.000
41.69572 742.000
41.71567 797.000
41.73562 742.000
41.75556 764.000
41.77551 797.000
41.79546 762.000
41.81540 767.000
41.83535 774.000
41.85530 801.000
41.87524 749.000
41.89519 786.000
41.91514 742.000
41.93509 785.000
41.95503 780.000
41.97498 781.000
41.99493 784.000
42.01487 768.000
42.03482 761.000
42.05477 790.000
42.07471 762.000
42.09466 756.000
42.11461 807.000
42.13456 830.000
42.15450 783.000
42.17445 787.000
42.19440 783.000
42.21434 720.000
42.23429 742.000
42.25424 795.000
42.27418 799.000
42.29413 765.000
42.31408 780.000
42.33403 769.000
42.35397 769.000
42.37392 762.000
42.39387 761.000
42.41381 763.000
42.43376 782.000
42.45371 731.000
42.47365 759.000
42.49360 757.000
42.51355 734.000
42.53349 804.000
42.55344 735.000
42.57339 729.000
42.59334 745.000
42.61328 716.000
42.63323 793.000
42.65318 739.000
42.67312 760.000
42.69307 781.000
42.71302 713.000
42.73296 710.000
42.75291 753.000
42.77286 724.000
42.79281 729.000
42.81275 780.000
42.83270 716.000
42.85265 811.000
42.87259 744.000
42.89254 782.000
42.91249 725.000
42.93243 747.000
42.95238 743.000
42.97233 737.000
42.99227 766.000
43.01222 760.000
43.03217 787.000
43.05212 749.000
43.07206 651.000
43.09201 763.000
43.11196 725.000
43.13190 738.000
43.15185 753.000
43.17180 734.000
43.19174 778.000
43.21169 732.000
43.23164 724.000
43.25159 749.000
43.27153 688.000
43.29148 738.000
43.31143 751.000
43.33137 716.000
43.35132 713.000
43.37127 695.000
43.39121 716.000
43.41116 710.000
43.43111 679.000
43.45105 726.000
43.47100 705.000
43.49095 711.000
43.51090 711.000
43.53084 752.000
43.55079 684.000
43.57074 726.000
43.59068 679.000
43.61063 697.000
43.63058 736.000
43.65052 716.000
43.67047 669.000
43.69042 684.000
43.71037 690.000
43.73031 711.000
43.75026 716.000
43.77021 709.000
43.79015 697.000
43.81010 683.000
43.83005 657.000
43.84999 701.000
43.86994 707.000
43.88989 720.000
43.90984 700.000
43.92978 688.000
43.94973 726.000
43.96968 665.000
43.98962 696.000
44.00957 695.000
44.02952 711.000
44.04946 670.000
44.06941 683.000
44.08936 670.000
44.10930 679.000
44.12925 677.000
44.14920 687.000
44.16915 721.000
44.18909 695.000
44.20904 669.000
44.22899 698.000
44.24893 709.000
44.26888 652.000
44.28883 702.000
44.30877 666.000
44.32872 718.000
44.34867 705.000
44.36862 678.000
44.38856 634.000
44.40851 685.000
44.42846 603.000
44.44840 663.000
44.46835 710.000
44.48830 667.000
44.50824 670.000
44.52819 680.000
44.54814 642.000
44.56808 664.000
44.58803 634.000
44.60798 619.000
44.62793 635.000
44.64787 635.000
44.66782 638.000
44.68777 667.000
44.70771 660.000
44.72766 627.000
44.74761 606.000
44.76755 655.000
44.78750 661.000
44.80745 611.000
44.82740 661.000
44.84734 656.000
44.86729 597.000
44.88724 664.000
44.90718 641.000
44.92713 613.000
44.94708 593.000
44.96702 677.000
44.98697 585.000
45.00692 677.000
45.02686 650.000
45.04681 638.000
45.06676 647.000
45.08671 679.000
45.10665 635.000
45.12660 650.000
45.14655 651.000
45.16649 618.000
45.18644 614.000
45.20639 581.000
45.22633 624.000
45.24628 634.000
45.26623 618.000
45.28618 635.000
45.30612 651.000
45.32607 618.000
45.34602 616.000
45.36596 622.000
45.38591 632.000
45.40586 656.000
45.42580 604.000
45.44575 615.000
45.46570 650.000
45.48565 615.000
45.50559 652.000
45.52554 633.000
45.54549 592.000
45.56543 606.000
45.58538 576.000
45.60533 574.000
45.62527 626.000
45.64522 634.000
45.66517 576.000
45.68511 590.000
45.70506 589.000
45.72501 580.000
45.74496 615.000
45.76490 568.000
45.78485 572.000
45.80480 517.000
45.82474 578.000
45.84469 571.000
45.86464 569.000
45.88458 595.000
45.90453 593.000
45.92448 556.000
45.94443 614.000
45.96437 570.000
45.98432 576.000
46.00427 577.000
46.02421 652.000
46.04416 555.000
46.06411 595.000
46.08405 529.000
46.10400 570.000
46.12395 585.000
46.14389 571.000
46.16384 601.000
46.18379 596.000
46.20374 614.000
46.22368 572.000
46.24363 595.000
46.26358 567.000
46.28352 569.000
46.30347 569.000
46.32342 577.000
46.34336 601.000
46.36331 568.000
46.38326 545.000
46.40321 546.000
46.42315 558.000
46.44310 592.000
46.46305 620.000
46.48299 588.000
46.50294 569.000
46.52289 585.000
46.54283 541.000
46.56278 567.000
46.58273 530.000
46.60267 547.000
46.62262 571.000
46.64257 539.000
46.66252 579.000
46.68246 543.000
46.70241 524.000
46.72236 574.000
46.74230 549.000
46.76225 562.000
46.78220 535.000
46.80214 600.000
46.82209 553.000
46.84204 527.000
46.86199 544.000
46.88193 541.000
46.90188 532.000
46.92183 560.000
46.94177 584.000
46.96172 539.000
46.98167 567.000
47.00161 542.000
47.02156 560.000
47.04151 550.000
47.06146 539.000
47.08140 549.000
47.10135 540.000
47.12130 524.000
47.14124 564.000
47.16119 583.000
47.18114 550.000
47.20108 537.000
47.22103 515.000
47.24098 552.000
47.26092 507.000
47.28087 548.000
47.30082 595.000
47.32077 575.000
47.34071 545.000
47.36066 544.000
47.38061 521.000
47.40055 530.000
47.42050 570.000
47.44045 532.000
47.46039 523.000
47.48034 594.000
47.50029 524.000
47.52024 568.000
47.54018 527.000
47.56013 545.000
47.58008 530.000
47.60002 501.000
47.61997 545.000
47.63992 573.000
47.65986 546.000
47.67981 569.000
47.69976 596.000
47.71970 551.000
47.73965 524.000
47.75960 562.000
47.77955 551.000
47.79949 550.000
47.81944 567.000
47.83939 570.000
47.85933 555.000
47.87928 590.000
47.89923 561.000
47.91917 546.000
47.93912 557.000
47.95907 524.000
47.97902 536.000
47.99896 570.000
48.01891 559.000
48.03886 562.000
48.05880 562.000
48.07875 589.000
48.09870 570.000
48.11864 546.000
48.13859 566.000
48.15854 557.000
48.17848 556.000
48.19843 578.000
48.21838 556.000
48.23833 579.000
48.25827 552.000
48.27822 555.000
48.29817 531.000
48.31811 529.000
48.33806 498.000
48.35801 503.000
48.37795 499.000
48.39790 578.000
48.41785 532.000
48.43780 480.000
48.45774 500.000
48.47769 510.000
48.49764 519.000
48.51758 513.000
48.53753 509.000
48.55748 492.000
48.57742 501.000
48.59737 522.000
48.61732 481.000
48.63726 528.000
48.65721 490.000
48.67716 535.000
48.69711 484.000
48.71705 510.000
48.73700 446.000
48.75695 506.000
48.77689 514.000
48.79684 542.000
48.81679 526.000
48.83673 484.000
48.85668 502.000
48.87663 492.000
48.89658 513.000
48.91652 532.000
48.93647 512.000
48.95642 499.000
48.97636 483.000
48.99631 452.000
49.01626 465.000
49.03620 526.000
49.05615 534.000
49.07610 479.000
49.09605 496.000
49.11599 512.000
49.13594 475.000
49.15589 505.000
49.17583 510.000
49.19578 520.000
49.21573 471.000
49.23567 519.000
49.25562 482.000
49.27557 519.000
49.29551 484.000
49.31546 530.000
49.33541 477.000
49.35536 505.000
49.37530 460.000
49.39525 482.000
49.41520 536.000
49.43514 448.000
49.45509 491.000
49.47504 520.000
49.49498 485.000
49.51493 508.000
49.53488 467.000
49.55483 484.000
49.57477 463.000
49.59472 474.000
49.61467 511.000
49.63461 507.000
49.65456 510.000
49.67451 499.000
49.69445 493.000
49.71440 500.000
49.73435 506.000
49.75429 509.000
49.77424 530.000
49.79419 475.000
49.81414 531.000
49.83408 453.000
49.85403 468.000
49.87398 502.000
49.89392 508.000
49.91387 498.000
49.93382 505.000
49.95376 469.000
49.97371 501.000
49.99366 473.000
50.01361 504.000
50.03355 481.000
50.05350 505.000
50.07345 498.000
50.09339 500.000
50.11334 521.000
50.13329 448.000
50.15323 510.000
50.17318 491.000
50.19313 471.000
50.21307 448.000
50.23302 542.000
50.25297 444.000
50.27292 493.000
50.29286 487.000
50.31281 509.000
50.33276 468.000
50.35270 477.000
50.37265 415.000
50.39260 431.000
50.41254 488.000
50.43249 458.000
50.45244 453.000
50.47239 507.000
50.49233 511.000
50.51228 451.000
50.53223 470.000
50.55217 475.000
50.57212 469.000
50.59207 474.000
50.61201 468.000
50.63196 506.000
50.65191 484.000
50.67186 489.000
50.69180 470.000
50.71175 445.000
50.73170 471.000
50.75164 472.000
50.77159 453.000
50.79154 495.000
50.81148 475.000
50.83143 484.000
50.85138 530.000
50.87132 476.000
50.89127 520.000
50.91122 495.000
50.93117 482.000
50.95111 473.000
50.97106 496.000
50.99101 478.000
51.01095 481.000
51.03090 460.000
51.05085 453.000
51.07079 488.000
51.09074 472.000
51.11069 489.000
51.13064 467.000
51.15058 480.000
51.17053 504.000
51.19048 452.000
51.21042 453.000
51.23037 443.000
51.25032 440.000
51.27026 448.000
51.29021 466.000
51.31016 483.000
51.33010 449.000
51.35005 430.000
51.37000 463.000
51.38995 465.000
51.40989 484.000
51.42984 447.000
51.44979 481.000
51.46973 468.000
51.48968 437.000
51.50963 483.000
51.52957 453.000
51.54952 437.000
51.56947 524.000
51.58942 428.000
51.60936 459.000
51.62931 496.000
51.64926 448.000
51.66920 489.000
51.68915 481.000
51.70910 462.000
51.72904 423.000
51.74899 461.000
51.76894 455.000
51.78888 469.000
51.80883 473.000
51.82878 486.000
51.84873 517.000
51.86867 450.000
51.88862 479.000
51.90857 442.000
51.92851 437.000
51.94846 504.000
51.96841 462.000
51.98835 465.000
52.00830 457.000
52.02825 487.000
52.04820 458.000
52.06814 462.000
52.08809 468.000
52.10804 444.000
52.12798 425.000
52.14793 474.000
52.16788 468.000
52.18782 449.000
52.20777 476.000
52.22772 486.000
52.24767 507.000
52.26761 441.000
52.28756 484.000
52.30751 444.000
52.32745 455.000
52.34740 473.000
52.36735 457.000
52.38729 467.000
52.40724 498.000
52.42719 467.000
52.44713 463.000
52.46708 500.000
52.48703 470.000
52.50698 464.000
52.52692 448.000
52.54687 435.000
52.56682 500.000
52.58676 491.000
52.60671 456.000
52.62666 491.000
52.64660 478.000
52.66655 467.000
52.68650 468.000
52.70645 494.000
52.72639 432.000
52.74634 458.000
52.76629 463.000
52.78623 466.000
52.80618 474.000
52.82613 498.000
52.84607 457.000
52.86602 508.000
52.88597 454.000
52.90591 470.000
52.92586 459.000
52.94581 473.000
52.96576 429.000
52.98570 450.000
53.00565 437.000
53.02560 461.000
53.04554 474.000
53.06549 456.000
53.08544 467.000
53.10538 465.000
53.12533 451.000
53.14528 444.000
53.16523 412.000
53.18517 431.000
53.20512 459.000
53.22507 491.000
53.24501 439.000
53.26496 421.000
53.28491 426.000
53.30485 455.000
53.32480 460.000
53.34475 444.000
53.36469 449.000
53.38464 487.000
53.40459 442.000
53.42454 447.000
53.44448 475.000
53.46443 467.000
53.48438 469.000
53.50432 457.000
53.52427 464.000
53.54422 429.000
53.56416 446.000
53.58411 428.000
53.60406 454.000
53.62401 456.000
53.64395 417.000
53.66390 434.000
53.68385 447.000
53.70379 427.000
53.72374 433.000
53.74369 475.000
53.76363 484.000
53.78358 475.000
53.80353 438.000
53.82348 450.000
53.84342 459.000
53.86337 405.000
53.88332 470.000
53.90326 423.000
53.92321 450.000
53.94316 449.000
53.96310 439.000
53.98305 441.000
54.00300 433.000
54.02294 430.000
54.04289 470.000
54.06284 438.000
54.08279 487.000
54.10273 460.000
54.12268 441.000
54.14263 455.000
54.16257 441.000
54.18252 457.000
54.20247 430.000
54.22241 452.000
54.24236 450.000
54.26231 441.000
54.28226 443.000
54.30220 464.000
54.32215 451.000
54.34210 434.000
54.36204 413.000
54.38199 439.000
54.40194 399.000
54.42188 468.000
54.44183 450.000
54.46178 444.000
54.48172 482.000
54.50167 418.000
54.52162 455.000
54.54157 470.000
54.56151 432.000
54.58146 431.000
54.60141 401.000
54.62135 439.000
54.64130 411.000
54.66125 429.000
54.68119 457.000
54.70114 429.000
54.72109 436.000
54.74104 434.000
54.76098 394.000
54.78093 411.000
54.80088 414.000
54.82082 409.000
54.84077 423.000
54.86072 422.000
54.88066 453.000
54.90061 426.000
54.92056 379.000
54.94050 423.000
54.96045 434.000
54.98040 412.000
55.00035 432.000
55.02029 434.000
55.04024 424.000
55.06019 407.000
55.08013 403.000
55.10008 434.000
55.12003 444.000
55.13997 453.000
55.15992 454.000
55.17987 426.000
55.19982 442.000
55.21976 454.000
55.23971 449.000
55.25966 458.000
55.27960 447.000
55.29955 440.000
55.31950 419.000
55.33944 390.000
55.35939 438.000
55.37934 426.000
55.39929 459.000
55.41923 394.000
55.43918 396.000
55.45913 414.000
55.47907 411.000
55.49902 454.000
55.51897 398.000
55.53891 392.000
55.55886 427.000
55.57881 456.000
55.59875 410.000
55.61870 463.000
55.63865 434.000
55.65860 409.000
55.67854 411.000
55.69849 445.000
55.71844 393.000
55.73838 428.000
55.75833 454.000
55.77828 440.000
55.79822 386.000
55.81817 446.000
55.83812 432.000
55.85807 417.000
55.87801 445.000
55.89796 403.000
55.91791 419.000
55.93785 387.000
55.95780 434.000
55.97775 416.000
55.99769 408.000
56.01764 414.000
56.03759 395.000
56.05753 426.000
56.07748 441.000
56.09743 438.000
56.11738 425.000
56.13732 419.000
56.15727 412.000
56.17722 447.000
56.19716 378.000
56.21711 412.000
56.23706 404.000
56.25700 424.000
56.27695 404.000
56.29690 442.000
56.31685 412.000
56.33679 451.000
56.35674 383.000
56.37669 432.000
56.39663 399.000
56.41658 427.000
56.43653 428.000
56.45647 423.000
56.47642 413.000
56.49637 402.000
56.51631 446.000
56.53626 389.000
56.55621 423.000
56.57616 404.000
56.59610 392.000
56.61605 399.000
56.63600 433.000
56.65594 385.000
56.67589 419.000
56.69584 369.000
56.71578 418.000
56.73573 433.000
56.75568 453.000
56.77563 396.000
56.79557 412.000
56.81552 405.000
56.83547 444.000
56.85541 451.000
56.87536 409.000
56.89531 456.000
56.91525 399.000
56.93520 373.000
56.95515 387.000
56.97510 403.000
56.99504 404.000
57.01499 418.000
57.03494 401.000
57.05488 424.000
57.07483 419.000
57.09478 447.000
57.11472 446.000
57.13467 382.000
57.15462 414.000
57.17456 422.000
57.19451 398.000
57.21446 377.000
57.23441 418.000
57.25435 428.000
57.27430 440.000
57.29425 375.000
57.31419 424.000
57.33414 392.000
57.35409 425.000
57.37403 412.000
57.39398 431.000
57.41393 434.000
57.43388 420.000
57.45382 462.000
57.47377 441.000
57.49372 400.000
57.51366 435.000
57.53361 389.000
57.55356 442.000
57.57350 405.000
57.59345 445.000
57.61340 452.000
57.63334 474.000
57.65329 423.000
57.67324 496.000
57.69319 435.000
57.71313 457.000
57.73308 407.000
57.75303 468.000
57.77297 431.000
57.79292 449.000
57.81287 414.000
57.83281 405.000
57.85276 392.000
57.87271 413.000
57.89266 426.000
57.91260 422.000
57.93255 406.000
57.95250 400.000
57.97244 400.000
57.99239 423.000
58.01234 428.000
58.03228 382.000
58.05223 436.000
58.07218 413.000
58.09212 405.000
58.11207 392.000
58.13202 414.000
58.15197 392.000
58.17191 420.000
58.19186 399.000
58.21181 391.000
58.23175 418.000
58.25170 375.000
58.27165 379.000
58.29159 378.000
58.31154 395.000
58.33149 398.000
58.35144 416.000
58.37138 398.000
58.39133 399.000
58.41128 436.000
58.43122 399.000
58.45117 379.000
58.47112 406.000
58.49106 402.000
58.51101 371.000
58.53096 360.000
58.55090 386.000
58.57085 398.000
58.59080 404.000
58.61075 393.000
58.63069 421.000
58.65064 406.000
58.67059 412.000
58.69053 422.000
58.71048 381.000
58.73043 404.000
58.75037 395.000
58.77032 380.000
58.79027 373.000
58.81022 391.000
58.83016 381.000
58.85011 361.000
58.87006 397.000
58.89000 400.000
58.90995 386.000
58.92990 392.000
58.94984 413.000
58.96979 392.000
58.98974 383.000
59.00969 393.000
59.02963 380.000
59.04958 406.000
59.06953 422.000
59.08947 383.000
59.10942 368.000
59.12937 426.000
59.14931 418.000
59.16926 389.000
59.18921 368.000
59.20915 412.000
59.22910 399.000
59.24905 404.000
59.26900 409.000
59.28894 380.000
59.30889 405.000
59.32884 390.000
59.34878 399.000
59.36873 354.000
59.38868 380.000
59.40862 372.000
59.42857 397.000
59.44852 399.000
59.46847 394.000
59.48841 394.000
59.50836 426.000
59.52831 420.000
59.54825 373.000
59.56820 386.000
59.58815 403.000
59.60809 385.000
59.62804 437.000
59.64799 368.000
59.66793 397.000
59.68788 386.000
59.70783 369.000
59.72778 413.000
59.74772 375.000
59.76767 412.000
59.78762 413.000
59.80756 407.000
59.82751 392.000
59.84746 402.000
59.86740 435.000
59.88735 395.000
59.90730 402.000
59.92725 408.000
59.94719 375.000
59.96714 419.000
59.98709 363.000
60.00703 350.000
60.02698 374.000
60.04693 377.000
60.06687 422.000
60.08682 378.000
60.10677 395.000
60.12671 431.000
60.14666 366.000
60.16661 392.000
60.18656 397.000
60.20650 385.000
60.22645 433.000
60.24640 400.000
60.26634 390.000
60.28629 373.000
60.30624 405.000
60.32618 407.000
60.34613 391.000
60.36608 398.000
60.38603 404.000
60.40597 414.000
60.42592 429.000
60.44587 414.000
60.46581 438.000
60.48576 427.000
60.50571 428.000
60.52565 420.000
60.54560 382.000
60.56555 410.000
60.58550 404.000
60.60544 436.000
60.62539 398.000
60.64534 407.000
60.66528 409.000
60.68523 479.000
60.70518 430.000
60.72512 450.000
60.74507 431.000
60.76502 440.000
60.78496 483.000
60.80491 452.000
60.82486 459.000
60.84481 437.000
60.86475 476.000
60.88470 486.000
60.90465 496.000
60.92459 429.000
60.94454 474.000
60.96449 441.000
60.98443 405.000
61.00438 445.000
61.02433 467.000
61.04428 434.000
61.06422 437.000
61.08417 433.000
61.10412 388.000
61.12406 387.000
61.14401 402.000
61.16396 459.000
61.18390 366.000
61.20385 362.000
61.22380 398.000
61.24374 434.000
61.26369 361.000
61.28364 373.000
61.30359 432.000
61.32353 426.000
61.34348 370.000
61.36343 373.000
61.38337 409.000
61.40332 406.000
61.42327 377.000
61.44321 362.000
61.46316 408.000
61.48311 359.000
61.50306 387.000
61.52300 406.000
61.54295 383.000
61.56290 375.000
61.58284 388.000
61.60279 355.000
61.62274 384.000
61.64268 363.000
61.66263 401.000
61.68258 370.000
61.70252 393.000
61.72247 422.000
61.74242 391.000
61.76237 381.000
61.78231 340.000
61.80226 374.000
61.82221 371.000
61.84215 399.000
61.86210 354.000
61.88205 382.000
61.90199 403.000
61.92194 400.000
61.94189 374.000
61.96184 380.000
61.98178 374.000
62.00173 372.000
62.02168 431.000
62.04162 398.000
62.06157 395.000
62.08152 388.000
62.10146 401.000
62.12141 383.000
62.14136 350.000
62.16131 385.000
62.18125 370.000
62.20120 369.000
62.22115 364.000
62.24109 393.000
62.26104 406.000
62.28099 343.000
62.30093 365.000
62.32088 370.000
62.34083 358.000
62.36077 397.000
62.38072 342.000
62.40067 368.000
62.42062 398.000
62.44056 388.000
62.46051 374.000
62.48046 383.000
62.50040 399.000
62.52035 347.000
62.54030 408.000
62.56024 396.000
62.58019 407.000
62.60014 390.000
62.62009 401.000
62.64003 434.000
62.65998 359.000
62.67993 363.000
62.69987 364.000
62.71982 385.000
62.73977 397.000
62.75971 377.000
62.77966 374.000
62.79961 348.000
62.81955 400.000
62.83950 378.000
62.85945 408.000
62.87940 392.000
62.89934 382.000
62.91929 388.000
62.93924 382.000
62.95918 400.000
62.97913 363.000
62.99908 382.000
63.01902 350.000
63.03897 401.000
63.05892 395.000
63.07887 368.000
63.09881 369.000
63.11876 395.000
63.13871 384.000
63.15865 379.000
63.17860 390.000
63.19855 393.000
63.21849 364.000
63.23844 345.000
63.25839 381.000
63.27833 365.000
63.29828 405.000
63.31823 390.000
63.33818 355.000
63.35812 391.000
63.37807 388.000
63.39802 401.000
63.41796 391.000
63.43791 363.000
63.45786 369.000
63.47780 383.000
63.49775 354.000
63.51770 399.000
63.53765 370.000
63.55759 333.000
63.57754 378.000
63.59749 378.000
63.61743 388.000
63.63738 380.000
63.65733 352.000
63.67727 385.000
63.69722 388.000
63.71717 361.000
63.73712 414.000
63.75706 391.000
63.77701 408.000
63.79696 367.000
63.81690 367.000
63.83685 385.000
63.85680 385.000
63.87674 390.000
63.89669 347.000
63.91664 380.000
63.93658 413.000
63.95653 375.000
63.97648 415.000
63.99643 392.000
64.01637 378.000
64.03632 381.000
64.05627 392.000
64.07621 419.000
64.09616 384.000
64.11611 355.000
64.13605 403.000
64.15600 391.000
64.17595 408.000
64.19590 361.000
64.21584 383.000
64.23579 395.000
64.25574 364.000
64.27568 373.000
64.29563 390.000
64.31558 357.000
64.33552 405.000
64.35547 354.000
64.37542 371.000
64.39536 376.000
64.41531 387.000
64.43526 379.000
64.45521 366.000
64.47515 349.000
64.49510 405.000
64.51505 399.000
64.53499 438.000
64.55494 388.000
64.57489 403.000
64.59483 389.000
64.61478 390.000
64.63473 363.000
64.65468 398.000
64.67462 358.000
64.69457 380.000
64.71452 380.000
64.73446 405.000
64.75441 389.000
64.77436 390.000
64.79430 404.000
64.81425 363.000
64.83420 391.000
64.85414 381.000
64.87409 427.000
64.89404 361.000
64.91399 406.000
64.93393 385.000
64.95388 420.000
64.97383 445.000
64.99377 430.000
65.01372 413.000
65.03367 421.000
65.05361 417.000
65.07356 441.000
65.09351 420.000
65.11346 446.000
65.13340 459.000
65.15335 391.000
65.17330 465.000
65.19324 456.000
65.21319 398.000
65.23314 447.000
65.25308 449.000
65.27303 476.000
65.29298 457.000
65.31293 451.000
65.33287 459.000
65.35282 427.000
65.37277 419.000
65.39271 398.000
65.41266 462.000
65.43261 473.000
65.45255 468.000
65.47250 437.000
65.49245 445.000
65.51239 446.000
65.53234 499.000
65.55229 468.000
65.57224 478.000
65.59218 449.000
65.61213 468.000
65.63208 495.000
65.65202 443.000
65.67197 480.000
65.69192 478.000
65.71186 476.000
65.73181 450.000
65.75176 431.000
65.77171 408.000
65.79165 406.000
65.81160 443.000
65.83155 422.000
65.85149 425.000
65.87144 422.000
65.89139 441.000
65.91133 392.000
65.93128 417.000
65.95123 432.000
65.97117 397.000
65.99112 406.000
66.01107 426.000
66.03102 390.000
66.05096 351.000
66.07091 366.000
66.09086 377.000
66.11080 342.000
66.13075 402.000
66.15070 398.000
66.17064 350.000
66.19059 373.000
66.21054 402.000
66.23049 418.000
66.25043 424.000
66.27038 376.000
66.29033 392.000
66.31027 370.000
66.33022 371.000
66.35017 384.000
66.37011 394.000
66.39006 413.000
66.41001 380.000
66.42995 370.000
66.44990 375.000
66.46985 373.000
66.48980 372.000
66.50974 356.000
66.52969 376.000
66.54964 409.000
66.56958 389.000
66.58953 417.000
66.60948 376.000
66.62942 384.000
66.64937 341.000
66.66932 353.000
66.68927 363.000
66.70921 381.000
66.72916 399.000
66.74911 386.000
66.76905 419.000
66.78900 390.000
66.80895 379.000
66.82889 374.000
66.84884 372.000
66.86879 389.000
66.88874 376.000
66.90868 410.000
66.92863 367.000
66.94858 354.000
66.96852 378.000
66.98847 444.000
67.00842 389.000
67.02836 413.000
67.04831 406.000
67.06826 423.000
67.08820 440.000
67.10815 403.000
67.12810 398.000
67.14805 410.000
67.16799 472.000
67.18794 402.000
67.20789 420.000
67.22783 423.000
67.24778 423.000
67.26773 441.000
67.28767 469.000
67.30762 461.000
67.32757 466.000
67.34752 497.000
67.36746 485.000
67.38741 465.000
67.40736 448.000
67.42730 443.000
67.44725 470.000
67.46720 468.000
67.48714 502.000
67.50709 449.000
67.52704 442.000
67.54698 477.000
67.56693 467.000
67.58688 423.000
67.60683 461.000
67.62677 439.000
67.64672 422.000
67.66667 436.000
67.68661 444.000
67.70656 446.000
67.72651 444.000
67.74645 406.000
67.76640 380.000
67.78635 410.000
67.80630 396.000
67.82624 399.000
67.84619 452.000
67.86614 422.000
67.88608 373.000
67.90603 400.000
67.92598 393.000
67.94592 350.000
67.96587 384.000
67.98582 368.000
68.00576 356.000
68.02571 372.000
68.04566 411.000
68.06561 380.000
68.08555 383.000
68.10550 446.000
68.12545 381.000
68.14539 395.000
68.16534 406.000
68.18529 373.000
68.20523 394.000
68.22518 363.000
68.24513 379.000
68.26508 343.000
68.28502 378.000
68.30497 356.000
68.32492 346.000
68.34486 400.000
68.36481 396.000
68.38476 382.000
68.40470 365.000
68.42465 375.000
68.44460 377.000
68.46455 378.000
68.48449 404.000
68.50444 377.000
68.52439 374.000
68.54433 359.000
68.56428 362.000
68.58423 380.000
68.60417 369.000
68.62412 369.000
68.64407 357.000
68.66401 386.000
68.68396 389.000
68.70391 373.000
68.72386 363.000
68.74380 367.000
68.76375 378.000
68.78370 380.000
68.80364 382.000
68.82359 365.000
68.84354 371.000
68.86348 386.000
68.88343 368.000
68.90338 377.000
68.92333 387.000
68.94327 412.000
68.96322 396.000
68.98317 383.000
69.00311 401.000
69.02306 379.000
69.04301 355.000
69.06295 349.000
69.08290 392.000
69.10285 400.000
69.12279 398.000
69.14274 361.000
69.16269 394.000
69.18264 381.000
69.20258 384.000
69.22253 382.000
69.24248 365.000
69.26242 338.000
69.28237 353.000
69.30232 358.000
69.32226 358.000
69.34221 391.000
69.36216 356.000
69.38211 387.000
69.40205 363.000
69.42200 391.000
69.44195 376.000
69.46189 392.000
69.48184 367.000
69.50179 378.000
69.52173 337.000
69.54168 367.000
69.56163 348.000
69.58157 374.000
69.60152 380.000
69.62147 377.000
69.64142 391.000
69.66136 366.000
69.68131 368.000
69.70126 372.000
69.72120 359.000
69.74115 369.000
69.76110 401.000
69.78104 367.000
69.80099 373.000
69.82094 384.000
69.84089 370.000
69.86083 370.000
69.88078 380.000
69.90073 382.000
69.92067 339.000
69.94062 373.000
69.96057 364.000
69.98051 338.000
70.00046 367.000
70.02041 387.000
70.04035 367.000
70.06030 380.000
70.08025 333.000
70.10020 360.000
70.12014 366.000
70.14009 352.000
70.16004 381.000
70.17998 362.000
70.19993 365.000
70.21988 357.000
70.23982 391.000
70.25977 371.000
70.27972 385.000
70.29967 355.000
70.31961 398.000
70.33956 392.000
70.35951 356.000
70.37945 350.000
70.39940 402.000
70.41935 356.000
70.43929 363.000
70.45924 395.000
70.47919 360.000
70.49914 382.000
70.51908 386.000
70.53903 387.000
70.55898 353.000
70.57892 380.000
70.59887 349.000
70.61882 359.000
70.63876 358.000
70.65871 373.000
70.67866 385.000
70.69860 392.000
70.71855 380.000
70.73850 386.000
70.75845 363.000
70.77839 370.000
70.79834 348.000
70.81829 366.000
70.83823 391.000
70.85818 352.000
70.87813 408.000
70.89807 387.000
70.91802 368.000
70.93797 350.000
70.95792 364.000
70.97786 341.000
70.99781 404.000
71.01776 374.000
71.03770 332.000
71.05765 352.000
71.07760 371.000
71.09754 386.000
71.11749 391.000
71.13744 382.000
71.15738 381.000
71.17733 342.000
71.19728 373.000
71.21723 351.000
71.23717 332.000
71.25712 342.000
71.27707 379.000
71.29701 378.000
71.31696 371.000
71.33691 371.000
71.35685 356.000
71.37680 381.000
71.39675 373.000
71.41670 388.000
71.43664 373.000
71.45659 414.000
71.47654 387.000
71.49648 355.000
71.51643 376.000
71.53638 345.000
71.55632 371.000
71.57627 417.000
71.59622 401.000
71.61616 430.000
71.63611 406.000
71.65606 406.000
71.67601 421.000
71.69595 401.000
71.71590 416.000
71.73585 374.000
71.75579 403.000
71.77574 404.000
71.79569 428.000
71.81563 416.000
71.83558 402.000
71.85553 379.000
71.87548 394.000
71.89542 367.000
71.91537 373.000
71.93532 397.000
71.95526 415.000
71.97521 378.000
71.99516 404.000
72.01510 392.000
72.03505 397.000
72.05500 377.000
72.07495 414.000
72.09489 413.000
72.11484 381.000
72.13479 372.000
72.15473 395.000
72.17468 368.000
72.19463 388.000
72.21457 383.000
72.23452 368.000
72.25447 403.000
72.27441 399.000
72.29436 353.000
72.31431 350.000
72.33426 392.000
72.35420 400.000
72.37415 365.000
72.39410 390.000
72.41404 346.000
72.43399 353.000
72.45394 360.000
72.47388 370.000
72.49383 386.000
72.51378 357.000
72.53373 378.000
72.55367 351.000
72.57362 381.000
72.59357 368.000
72.61351 361.000
72.63346 367.000
72.65341 397.000
72.67335 360.000
72.69330 366.000
72.71325 362.000
72.73319 368.000
72.75314 329.000
72.77309 340.000
72.79304 407.000
72.81298 392.000
72.83293 353.000
72.85288 375.000
72.87282 372.000
72.89277 375.000
72.91272 389.000
72.93266 344.000
72.95261 398.000
72.97256 388.000
72.99251 334.000
73.01245 372.000
73.03240 378.000
73.05235 335.000
73.07229 336.000
73.09224 336.000
73.11219 373.000
73.13213 324.000
73.15208 340.000
73.17203 368.000
73.19197 351.000
73.21192 340.000
73.23187 371.000
73.25182 369.000
73.27176 360.000
73.29171 366.000
73.31166 356.000
73.33160 373.000
73.35155 340.000
73.37150 370.000
73.39144 334.000
73.41139 385.000
73.43134 389.000
73.45129 346.000
73.47123 397.000
73.49118 383.000
73.51113 368.000
73.53107 380.000
73.55102 354.000
73.57097 363.000
73.59091 381.000
73.61086 378.000
73.63081 373.000
73.65076 361.000
73.67070 370.000
73.69065 373.000
73.71060 410.000
73.73054 361.000
73.75049 348.000
73.77044 380.000
73.79038 354.000
73.81033 398.000
73.83028 356.000
73.85022 361.000
73.87017 362.000
73.89012 368.000
73.91007 378.000
73.93001 349.000
73.94996 360.000
73.96991 388.000
73.98985 367.000
74.00980 358.000
74.02975 344.000
74.04969 374.000
74.06964 414.000
74.08959 360.000
74.10954 419.000
74.12948 390.000
74.14943 373.000
74.16938 373.000
74.18932 401.000
74.20927 413.000
74.22922 413.000
74.24916 409.000
74.26911 419.000
74.28906 384.000
74.30900 408.000
74.32895 378.000
74.34890 416.000
74.36885 374.000
74.38879 391.000
74.40874 424.000
74.42869 448.000
74.44863 435.000
74.46858 405.000
74.48853 444.000
74.50847 403.000
74.52842 380.000
74.54837 472.000
74.56832 454.000
74.58826 419.000
74.60821 412.000
74.62816 422.000
74.64810 387.000
74.66805 434.000
74.68800 401.000
74.70794 388.000
74.72789 359.000
74.74784 425.000
74.76778 393.000
74.78773 405.000
74.80768 378.000
74.82763 405.000
74.84757 406.000
74.86752 377.000
74.88747 370.000
74.90741 388.000
74.92736 367.000
74.94731 380.000
74.96725 374.000
74.98720 330.000
75.00715 395.000
75.02710 357.000
75.04704 367.000
75.06699 364.000
75.08694 374.000
75.10688 396.000
75.12683 379.000
75.14678 332.000
75.16672 360.000
75.18667 365.000
75.20662 361.000
75.22657 386.000
75.24651 356.000
75.26646 360.000
75.28641 380.000
75.30635 383.000
75.32630 382.000
75.34625 377.000
75.36619 360.000
75.38614 376.000
75.40609 341.000
75.42603 395.000
75.44598 359.000
75.46593 353.000
75.48588 361.000
75.50582 371.000
75.52577 355.000
75.54572 372.000
75.56566 348.000
75.58561 406.000
75.60556 369.000
75.62550 371.000
75.64545 353.000
75.66540 378.000
75.68535 340.000
75.70529 381.000
75.72524 360.000
75.74519 375.000
75.76513 337.000
75.78508 361.000
75.80503 375.000
75.82497 366.000
75.84492 391.000
75.86487 370.000
75.88481 367.000
75.90476 362.000
75.92471 334.000
75.94466 353.000
75.96460 330.000
75.98455 354.000
76.00450 330.000
76.02444 395.000
76.04439 353.000
76.06434 371.000
76.08428 352.000
76.10423 338.000
76.12418 385.000
76.14413 353.000
76.16407 368.000
76.18402 353.000
76.20397 361.000
76.22391 363.000
76.24386 393.000
76.26381 353.000
76.28375 343.000
76.30370 354.000
76.32365 346.000
76.34359 393.000
76.36354 363.000
76.38349 382.000
76.40344 332.000
76.42338 385.000
76.44333 374.000
76.46328 336.000
76.48322 361.000
76.50317 332.000
76.52312 378.000
76.54306 370.000
76.56301 333.000
76.58296 341.000
76.60291 369.000
76.62285 364.000
76.64280 335.000
76.66275 381.000
76.68269 342.000
76.70264 382.000
76.72259 383.000
76.74253 336.000
76.76248 354.000
76.78243 349.000
76.80238 350.000
76.82232 353.000
76.84227 343.000
76.86222 344.000
76.88216 368.000
76.90211 348.000
76.92206 313.000
76.94200 374.000
76.96195 349.000
76.98190 367.000
77.00184 356.000
77.02179 332.000
77.04174 374.000
77.06169 341.000
77.08163 361.000
77.10158 389.000
77.12153 341.000
77.14147 359.000
77.16142 348.000
77.18137 376.000
77.20131 351.000
77.22126 362.000
77.24121 327.000
77.26116 357.000
77.28110 370.000
77.30105 331.000
77.32100 345.000
77.34094 357.000
77.36089 374.000
77.38084 339.000
77.40078 362.000
77.42073 342.000
77.44068 345.000
77.46062 371.000
77.48057 332.000
77.50052 390.000
77.52047 398.000
77.54041 352.000
77.56036 396.000
77.58031 362.000
77.60025 371.000
77.62020 368.000
77.64015 344.000
77.66009 373.000
77.68004 381.000
77.69999 345.000
77.71994 318.000
77.73988 363.000
77.75983 352.000
77.77978 365.000
77.79972 385.000
77.81967 355.000
77.83962 319.000
77.85956 340.000
77.87951 378.000
77.89946 349.000
77.91940 363.000
77.93935 364.000
77.95930 347.000
77.97925 371.000
77.99919 325.000
78.01914 370.000
78.03909 353.000
78.05903 391.000
78.07898 334.000
78.09893 335.000
78.11887 323.000
78.13882 349.000
78.15877 348.000
78.17872 329.000
78.19866 358.000
78.21861 323.000
78.23856 371.000
78.25850 330.000
78.27845 339.000
78.29840 356.000
78.31834 351.000
78.33829 336.000
78.35824 349.000
78.37819 320.000
78.39813 372.000
78.41808 352.000
78.43803 333.000
78.45797 368.000
78.47792 369.000
78.49787 354.000
78.51781 368.000
78.53776 360.000
78.55771 367.000
78.57765 348.000
78.59760 380.000
78.61755 361.000
78.63750 363.000
78.65744 351.000
78.67739 366.000
78.69734 366.000
78.71728 366.000
78.73723 358.000
78.75718 382.000
78.77712 373.000
78.79707 316.000
78.81702 345.000
78.83697 360.000
78.85691 348.000
78.87686 343.000
78.89681 354.000
78.91675 384.000
78.93670 356.000
78.95665 363.000
78.97659 314.000
78.99654 355.000
79.01649 368.000
79.03643 346.000
79.05638 348.000
79.07633 363.000
79.09628 335.000
79.11622 331.000
79.13617 381.000
79.15612 357.000
79.17606 370.000
79.19601 330.000
79.21596 350.000
79.23590 356.000
79.25585 314.000
79.27580 371.000
79.29575 365.000
79.31569 375.000
79.33564 373.000
79.35559 368.000
79.37553 351.000
79.39548 360.000
79.41543 368.000
79.43537 355.000
79.45532 375.000
79.47527 365.000
79.49521 357.000
79.51516 372.000
79.53511 380.000
79.55506 316.000
79.57500 348.000
79.59495 376.000
79.61490 358.000
79.63484 359.000
79.65479 372.000
79.67474 375.000
79.69468 376.000
79.71463 379.000
79.73458 373.000
79.75453 354.000
79.77447 386.000
79.79442 371.000
79.81437 362.000
79.83431 355.000
79.85426 344.000
79.87421 325.000
79.89415 361.000
79.91410 361.000
79.93405 367.000
79.95399 366.000
79.97394 356.000
79.99389 330.000
80.01384 383.000
80.03378 404.000
80.05373 321.000
80.07368 358.000
80.09362 368.000
80.11357 349.000
80.13352 335.000
80.15346 388.000
80.17341 382.000
80.19336 341.000
80.21331 384.000
80.23325 357.000
80.25320 355.000
80.27315 344.000
80.29309 344.000
80.31304 345.000
80.33299 345.000
80.35293 355.000
80.37288 346.000
80.39283 384.000
80.41278 362.000
80.43272 373.000
80.45267 350.000
80.47262 335.000
80.49256 345.000
80.51251 349.000
80.53246 374.000
80.55240 323.000
80.57235 370.000
80.59230 348.000
80.61224 389.000
80.63219 362.000
80.65214 354.000
80.67209 353.000
80.69203 392.000
80.71198 349.000
80.73193 302.000
80.75187 348.000
80.77182 342.000
80.79177 394.000
80.81171 375.000
80.83166 339.000
80.85161 357.000
80.87156 326.000
80.89150 334.000
80.91145 335.000
80.93140 331.000
80.95134 346.000
80.97129 324.000
80.99124 323.000
81.01118 338.000
81.03113 354.000
81.05108 366.000
81.07102 342.000
81.09097 356.000
81.11092 361.000
81.13087 352.000
81.15081 353.000
81.17076 351.000
81.19071 344.000
81.21065 348.000
81.23060 362.000
81.25055 359.000
81.27049 360.000
81.29044 371.000
81.31039 346.000
81.33034 337.000
81.35028 370.000
81.37023 406.000
81.39018 373.000
81.41012 357.000
81.43007 350.000
81.45002 362.000
81.46996 360.000
81.48991 342.000
81.50986 338.000
81.52980 314.000
81.54975 370.000
81.56970 384.000
81.58965 325.000
81.60959 334.000
81.62954 335.000
81.64949 391.000
81.66943 357.000
81.68938 380.000
81.70933 353.000
81.72927 406.000
81.74922 387.000
81.76917 382.000
81.78912 374.000
81.80906 397.000
81.82901 408.000
81.84896 380.000
81.86890 397.000
81.88885 394.000
81.90880 363.000
81.92874 390.000
81.94869 354.000
81.96864 384.000
81.98859 321.000
82.00853 361.000
82.02848 393.000
82.04843 345.000
82.06837 357.000
82.08832 397.000
82.10827 342.000
82.12821 368.000
82.14816 336.000
82.16811 393.000
82.18805 402.000
82.20800 372.000
82.22795 321.000
82.24790 354.000
82.26784 388.000
82.28779 378.000
82.30774 347.000
82.32768 377.000
82.34763 338.000
82.36758 345.000
82.38752 383.000
82.40747 398.000
82.42742 362.000
82.44737 326.000
82.46731 391.000
82.48726 365.000
82.50721 347.000
82.52715 361.000
82.54710 350.000
82.56705 338.000
82.58699 345.000
82.60694 374.000
82.62689 362.000
82.64683 374.000
82.66678 372.000
82.68673 327.000
82.70668 386.000
82.72662 384.000
82.74657 373.000
82.76652 360.000
82.78646 361.000
82.80641 356.000
82.82636 360.000
82.84630 362.000
82.86625 373.000
82.88620 394.000
82.90615 360.000
82.92609 350.000
82.94604 346.000
82.96599 382.000
82.98593 386.000
83.00588 370.000
83.02583 389.000
83.04577 357.000
83.06572 359.000
83.08567 370.000
83.10561 368.000
83.12556 364.000
83.14551 363.000
83.16546 367.000
83.18540 370.000
83.20535 378.000
83.22530 357.000
83.24524 350.000
83.26519 369.000
83.28514 384.000
83.30508 364.000
83.32503 376.000
83.34498 348.000
83.36493 335.000
83.38487 386.000
83.40482 367.000
83.42477 353.000
83.44471 366.000
83.46466 351.000
83.48461 338.000
83.50455 345.000
83.52450 328.000
83.54445 341.000
83.56440 352.000
83.58434 360.000
83.60429 337.000
83.62424 363.000
83.64418 365.000
83.66413 331.000
83.68408 333.000
83.70402 415.000
83.72397 336.000
83.74392 364.000
83.76386 342.000
83.78381 341.000
83.80376 336.000
83.82371 367.000
83.84365 397.000
83.86360 351.000
83.88355 357.000
83.90349 352.000
83.92344 369.000
83.94339 333.000
83.96333 343.000
83.98328 344.000
84.00323 338.000
84.02318 343.000
84.04312 308.000
84.06307 378.000
84.08302 360.000
84.10296 352.000
84.12291 340.000
84.14286 360.000
84.16280 344.000
84.18275 314.000
84.20270 326.000
84.22264 367.000
84.24259 329.000
84.26254 378.000
84.28249 380.000
84.30243 361.000
84.32238 348.000
84.34233 349.000
84.36227 344.000
84.38222 342.000
84.40217 359.000
84.42211 332.000
84.44206 356.000
84.46201 339.000
84.48196 343.000
84.50190 347.000
84.52185 333.000
84.54180 367.000
84.56174 336.000
84.58169 377.000
84.60164 350.000
84.62158 361.000
84.64153 371.000
84.66148 344.000
84.68142 356.000
84.70137 334.000
84.72132 330.000
84.74127 356.000
84.76121 368.000
84.78116 356.000
84.80111 357.000
84.82105 347.000
84.84100 370.000
84.86095 371.000
84.88089 349.000
84.90084 356.000
84.92079 353.000
84.94074 354.000
84.96068 353.000
84.98063 317.000
85.00058 337.000
85.02052 351.000
85.04047 345.000
85.06042 357.000
85.08036 349.000
85.10031 336.000
85.12026 325.000
85.14021 347.000
85.16015 354.000
85.18010 346.000
85.20005 326.000
85.21999 358.000
85.23994 334.000
85.25989 346.000
85.27983 352.000
85.29978 364.000
85.31973 354.000
85.33967 366.000
85.35962 315.000
85.37957 334.000
85.39952 354.000
85.41946 355.000
85.43941 395.000
85.45936 333.000
85.47930 365.000
85.49925 373.000
85.51920 333.000
85.53914 320.000
85.55909 352.000
85.57904 348.000
85.59899 337.000
85.61893 362.000
85.63888 336.000
85.65883 334.000
85.67877 360.000
85.69872 345.000
85.71867 386.000
85.73861 363.000
85.75856 350.000
85.77851 347.000
85.79845 323.000
85.81840 353.000
85.83835 307.000
85.85830 371.000
85.87824 353.000
85.89819 341.000
85.91814 389.000
85.93808 317.000
85.95803 348.000
85.97798 358.000
85.99792 355.000
86.01787 321.000
86.03782 359.000
86.05777 354.000
86.07771 306.000
86.09766 327.000
86.11761 353.000
86.13755 355.000
86.15750 372.000
86.17745 363.000
86.19739 345.000
86.21734 330.000
86.23729 361.000
86.25723 362.000
86.27718 395.000
86.29713 322.000
86.31708 350.000
86.33702 371.000
86.35697 309.000
86.37692 367.000
86.39686 363.000
86.41681 315.000
86.43676 335.000
86.45670 372.000
86.47665 371.000
86.49660 329.000
86.51655 374.000
86.53649 378.000
86.55644 351.000
86.57639 381.000
86.59633 347.000
86.61628 340.000
86.63623 351.000
86.65617 350.000
86.67612 324.000
86.69607 309.000
86.71602 337.000
86.73596 338.000
86.75591 348.000
86.77586 324.000
86.79580 368.000
86.81575 322.000
86.83570 321.000
86.85564 374.000
86.87559 334.000
86.89554 355.000
86.91548 362.000
86.93543 408.000
86.95538 334.000
86.97533 367.000
86.99527 327.000
87.01522 384.000
87.03517 345.000
87.05511 371.000
87.07506 372.000
87.09501 351.000
87.11495 328.000
87.13490 358.000
87.15485 353.000
87.17480 344.000
87.19474 352.000
87.21469 332.000
87.23464 368.000
87.25458 346.000
87.27453 330.000
87.29448 369.000
87.31442 331.000
87.33437 322.000
87.35432 373.000
87.37426 355.000
87.39421 331.000
87.41416 342.000
87.43411 349.000
87.45405 330.000
87.47400 330.000
87.49395 360.000
87.51389 343.000
87.53384 325.000
87.55379 330.000
87.57373 322.000
87.59368 298.000
87.61363 332.000
87.63358 352.000
87.65352 340.000
87.67347 301.000
87.69342 352.000
87.71336 318.000
87.73331 338.000
87.75326 312.000
87.77320 361.000
87.79315 370.000
87.81310 364.000
87.83304 342.000
87.85299 361.000
87.87294 322.000
87.89289 349.000
87.91283 343.000
87.93278 345.000
87.95273 364.000
87.97267 369.000
87.99262 309.000
88.01257 335.000
88.03251 331.000
88.05246 358.000
88.07241 369.000
88.09236 343.000
88.11230 315.000
88.13225 316.000
88.15220 369.000
88.17214 322.000
88.19209 340.000
88.21204 378.000
88.23198 329.000
88.25193 338.000
88.27188 311.000
88.29183 356.000
88.31177 360.000
88.33172 342.000
88.35167 349.000
88.37161 348.000
88.39156 340.000
88.41151 352.000
88.43145 333.000
88.45140 327.000
88.47135 354.000
88.49129 325.000
88.51124 328.000
88.53119 331.000
88.55114 341.000
88.57108 347.000
88.59103 368.000
88.61098 329.000
88.63092 370.000
88.65087 332.000
88.67082 404.000
88.69076 315.000
88.71071 324.000
88.73066 328.000
88.75061 358.000
88.77055 371.000
88.79050 341.000
88.81045 342.000
88.83039 339.000
88.85034 332.000
88.87029 384.000
88.89023 323.000
88.91018 352.000
88.93013 327.000
88.95007 358.000
88.97002 351.000
88.98997 338.000
89.00992 325.000
89.02986 341.000
89.04981 368.000
89.06976 368.000
89.08970 348.000
89.10965 372.000
89.12960 312.000
89.14954 373.000
89.16949 360.000
89.18944 379.000
89.20939 340.000
89.22933 379.000
89.24928 416.000
89.26923 346.000
89.28917 371.000
89.30912 365.000
89.32907 354.000
89.34901 352.000
89.36896 388.000
89.38891 352.000
89.40885 315.000
89.42880 345.000
89.44875 336.000
89.46870 340.000
89.48864 327.000
89.50859 369.000
89.52854 361.000
89.54848 354.000
89.56843 363.000
89.58838 353.000
89.60832 330.000
89.62827 340.000
89.64822 375.000
89.66817 347.000
89.68811 359.000
89.70806 359.000
89.72801 358.000
89.74795 341.000
89.76790 322.000
89.78785 338.000
89.80779 338.000
89.82774 356.000
89.84769 361.000
89.86764 336.000
89.88758 369.000
89.90753 328.000
89.92748 365.000
89.94742 317.000
89.96737 347.000
89.98732 345.000
90.00726 348.000
