10.00000 54.000
10.01995 63.000
10.03989 45.000
10.05984 58.000
10.07979 57.000
10.09973 66.000
10.11968 51.000
10.13963 49.000
10.15958 56.000
10.17952 64.000
10.19947 49.000
10.21942 50.000
10.23936 70.000
10.25931 64.000
10.27926 58.000
10.29920 55.000
10.31915 37.000
10.33910 64.000
10.35905 52.000
10.37899 55.000
10.39894 46.000
10.41889 51.000
10.43883 49.000
10.45878 55.000
10.47873 39.000
10.49867 70.000
10.51862 49.000
10.53857 49.000
10.55851 56.000
10.57846 50.000
10.59841 59.000
10.61836 61.000
10.63830 46.000
10.65825 46.000
10.67820 54.000
10.69814 53.000
10.71809 54.000
10.73804 49.000
10.75798 40.000
10.77793 62.000
10.79788 62.000
10.81783 58.000
10.83777 56.000
10.85772 51.000
10.87767 48.000
10.89761 60.000
10.91756 62.000
10.93751 51.000
10.95745 53.000
10.97740 46.000
10.99735 68.000
11.01730 46.000
11.03724 51.000
11.05719 48.000
11.07714 45.000
11.09708 48.000
11.11703 47.000
11.13698 57.000
11.15692 53.000
11.17687 46.000
11.19682 64.000
11.21676 46.000
11.23671 52.000
11.25666 41.000
11.27661 47.000
11.29655 43.000
11.31650 48.000
11.33645 59.000
11.35639 42.000
11.37634 52.000
11.39629 51.000
11.41623 44.000
11.43618 39.000
11.45613 47.000
11.47608 50.000
11.49602 50.000
11.51597 53.000
11.53592 49.000
11.55586 53.000
11.57581 63.000
11.59576 45.000
11.61570 55.000
11.63565 58.000
11.65560 51.000
11.67554 53.000
11.69549 49.000
11.71544 60.000
11.73539 54.000
11.75533 54.000
11.77528 51.000
11.79523 64.000
11.81517 52.000
11.83512 46.000
11.85507 59.000
11.87501 42.000
11.89496 54.000
11.91491 51.000
11.93486 45.000
11.95480 40.000
11.97475 50.000
11.99470 56.000
12.01464 62.000
12.03459 41.000
12.05454 56.000
12.07448 41.000
12.09443 49.000
12.11438 39.000
12.13432 49.000
12.15427 43.000
12.17422 42.000
12.19417 46.000
12.21411 50.000
12.23406 51.000
12.25401 63.000
12.27395 45.000
12.29390 48.000
12.31385 48.000
12.33379 56.000
12.35374 44.000
12.37369 49.000
12.39364 34.000
12.41358 45.000
12.43353 57.000
12.45348 59.000
12.47342 32.000
12.49337 43.000
12.51332 56.000
12.53326 53.000
12.55321 54.000
12.57316 57.000
12.59311 43.000
12.61305 46.000
12.63300 50.000
12.65295 48.000
12.67289 42.000
12.69284 40.000
12.71279 24.000
12.73273 44.000
12.75268 52.000
12.77263 53.000
12.79257 46.000
12.81252 36.000
12.83247 54.000
12.85242 46.000
12.87236 53.000
12.89231 47.000
12.91226 51.000
12.93220 47.000
12.95215 35.000
12.97210 51.000
12.99204 48.000
13.01199 39.000
13.03194 44.000
13.05189 52.000
13.07183 40.000
13.09178 49.000
13.11173 37.000
13.13167 41.000
13.15162 39.000
13.17157 44.000
13.19151 46.000
13.21146 44.000
13.23141 33.000
13.25135 39.000
13.27130 35.000
13.29125 45.000
13.31120 35.000
13.33114 48.000
13.35109 39.000
13.37104 43.000
13.39098 45.000
13.41093 42.000
13.43088 45.000
13.45082 44.000
13.47077 44.000
13.49072 40.000
13.51067 38.000
13.53061 42.000
13.55056 45.000
13.57051 49.000
13.59045 42.000
13.61040 43.000
13.63035 47.000
13.65029 36.000
13.67024 45.000
13.69019 45.000
13.71013 30.000
13.73008 46.000
13.75003 31.000
13.76998 38.000
13.78992 37.000
13.80987 44.000
13.82982 36.000
13.84976 32.000
13.86971 49.000
13.88966 50.000
13.90960 42.000
13.92955 47.000
13.94950 38.000
13.96945 33.000
13.98939 41.000
14.00934 38.000
14.02929 36.000
14.04923 33.000
14.06918 38.000
14.08913 32.000
14.10907 39.000
14.12902 41.000
14.14897 50.000
14.16892 45.000
14.18886 30.000
14.20881 38.000
14.22876 38.000
14.24870 39.000
14.26865 42.000
14.28860 40.000
14.30854 34.000
14.32849 52.000
14.34844 40.000
14.36838 41.000
14.38833 40.000
14.40828 25.000
14.42823 43.000
14.44817 36.000
14.46812 44.000
14.48807 36.000
14.50801 37.000
14.52796 37.000
14.54791 49.000
14.56785 32.000
14.58780 30.000
14.60775 32.000
14.62770 43.000
14.64764 35.000
14.66759 28.000
14.68754 44.000
14.70748 35.000
14.72743 49.000
14.74738 48.000
14.76732 42.000
14.78727 32.000
14.80722 39.000
14.82716 38.000
14.84711 25.000
14.86706 40.000
14.88701 26.000
14.90695 27.000
14.92690 41.000
14.94685 46.000
14.96679 36.000
14.98674 43.000
15.00669 32.000
15.02663 37.000
15.04658 32.000
15.06653 43.000
15.08648 42.000
15.10642 44.000
15.12637 35.000
15.14632 47.000
15.16626 33.000
15.18621 37.000
15.20616 30.000
15.22610 45.000
15.24605 47.000
15.26600 45.000
15.28594 45.000
15.30589 39.000
15.32584 42.000
15.34579 51.000
15.36573 38.000
15.38568 53.000
15.40563 48.000
15.42557 35.000
15.44552 36.000
15.46547 40.000
15.48541 31.000
15.50536 46.000
15.52531 32.000
15.54526 39.000
15.56520 28.000
15.58515 34.000
15.60510 45.000
15.62504 42.000
15.64499 45.000
15.66494 46.000
15.68488 46.000
15.70483 44.000
15.72478 39.000
15.74472 40.000
15.76467 37.000
15.78462 40.000
15.80457 40.000
15.82451 40.000
15.84446 45.000
15.86441 30.000
15.88435 32.000
15.90430 31.000
15.92425 31.000
15.94419 38.000
15.96414 35.000
15.98409 39.000
16.00404 47.000
16.02398 49.000
16.04393 38.000
16.06388 31.000
16.08382 45.000
16.10377 37.000
16.12372 35.000
16.14366 43.000
16.16361 40.000
16.18356 31.000
16.20351 43.000
16.22345 38.000
16.24340 38.000
16.26335 31.000
16.28329 37.000
16.30324 33.000
16.32319 46.000
16.34313 25.000
16.36308 34.000
16.38303 40.000
16.40297 33.000
16.42292 41.000
16.44287 36.000
16.46282 41.000
16.48276 47.000
16.50271 31.000
16.52266 51.000
16.54260 52.000
16.56255 47.000
16.58250 56.000
16.60244 58.000
16.62239 50.000
16.64234 58.000
16.66229 49.000
16.68223 56.000
16.70218 56.000
16.72213 57.000
16.74207 69.000
16.76202 72.000
16.78197 68.000
16.80191 52.000
16.82186 65.000
16.84181 44.000
16.86175 43.000
16.88170 49.000
16.90165 44.000
16.92160 37.000
16.94154 39.000
16.96149 41.000
16.98144 29.000
17.00138 50.000
17.02133 41.000
17.04128 37.000
17.06122 46.000
17.08117 31.000
17.10112 28.000
17.12107 42.000
17.14101 41.000
17.16096 39.000
17.18091 43.000
17.20085 37.000
17.22080 43.000
17.24075 52.000
17.26069 34.000
17.28064 43.000
17.30059 43.000
17.32053 45.000
17.34048 34.000
17.36043 42.000
17.38038 50.000
17.40032 35.000
17.42027 44.000
17.44022 47.000
17.46016 45.000
17.48011 44.000
17.50006 52.000
17.52000 40.000
17.53995 39.000
17.55990 48.000
17.57985 43.000
17.59979 37.000
17.61974 34.000
17.63969 32.000
17.65963 24.000
17.67958 32.000
17.69953 33.000
17.71947 33.000
17.73942 39.000
17.75937 40.000
17.77932 32.000
17.79926 40.000
17.81921 32.000
17.83916 45.000
17.85910 26.000
17.87905 33.000
17.89900 36.000
17.91894 46.000
17.93889 40.000
17.95884 30.000
17.97878 37.000
17.99873 27.000
18.01868 36.000
18.03863 35.000
18.05857 27.000
18.07852 27.000
18.09847 32.000
18.11841 31.000
18.13836 37.000
18.15831 26.000
18.17825 24.000
18.19820 30.000
18.21815 23.000
18.23810 40.000
18.25804 35.000
18.27799 40.000
18.29794 39.000
18.31788 33.000
18.33783 38.000
18.35778 46.000
18.37772 44.000
18.39767 35.000
18.41762 35.000
18.43756 28.000
18.45751 43.000
18.47746 37.000
18.49741 40.000
18.51735 37.000
18.53730 40.000
18.55725 40.000
18.57719 33.000
18.59714 29.000
18.61709 30.000
18.63703 29.000
18.65698 44.000
18.67693 27.000
18.69688 46.000
18.71682 35.000
18.73677 37.000
18.75672 50.000
18.77666 38.000
18.79661 37.000
18.81656 36.000
18.83650 35.000
18.85645 44.000
18.87640 33.000
18.89634 30.000
18.91629 32.000
18.93624 36.000
18.95619 40.000
18.97613 41.000
18.99608 37.000
19.01603 34.000
19.03597 30.000
19.05592 43.000
19.07587 32.000
19.09581 23.000
19.11576 32.000
19.13571 37.000
19.15566 38.000
19.17560 32.000
19.19555 21.000
19.21550 41.000
19.23544 21.000
19.25539 30.000
19.27534 39.000
19.29528 42.000
19.31523 39.000
19.33518 35.000
19.35513 48.000
19.37507 35.000
19.39502 53.000
19.41497 38.000
19.43491 35.000
19.45486 43.000
19.47481 50.000
19.49475 42.000
19.51470 46.000
19.53465 45.000
19.55459 45.000
19.57454 52.000
19.59449 43.000
19.61444 53.000
19.63438 40.000
19.65433 54.000
19.67428 49.000
19.69422 66.000
19.71417 46.000
19.73412 44.000
19.75406 66.000
19.77401 61.000
19.79396 62.000
19.81391 89.000
19.83385 109.000
19.85380 118.000
19.87375 119.000
19.89369 160.000
19.91364 144.000
19.93359 148.000
19.95353 136.000
19.97348 137.000
19.99343 95.000
20.01337 118.000
20.03332 115.000
20.05327 123.000
20.07322 117.000
20.09316 105.000
20.11311 120.000
20.13306 119.000
20.15300 124.000
20.17295 130.000
20.19290 150.000
20.21284 188.000
20.23279 212.000
20.25274 250.000
20.27269 289.000
20.29263 343.000
20.31258 394.000
20.33253 522.000
20.35247 607.000
20.37242 774.000
20.39237 918.000
20.41231 1048.000
20.43226 1255.000
20.45221 1313.000
20.47215 1452.000
20.49210 1412.000
20.51205 1492.000
20.53200 1425.000
20.55194 1309.000
20.57189 1270.000
20.59184 1099.000
20.61178 1057.000
20.63173 830.000
20.65168 691.000
20.67162 602.000
20.69157 528.000
20.71152 485.000
20.73147 390.000
20.75141 392.000
20.77136 329.000
20.79131 297.000
20.81125 247.000
20.83120 204.000
20.85115 180.000
20.87109 151.000
20.89104 111.000
20.91099 118.000
20.93094 106.000
20.95088 86.000
20.97083 83.000
20.99078 73.000
21.01072 64.000
21.03067 56.000
21.05062 64.000
21.07056 70.000
21.09051 45.000
21.11046 49.000
21.13040 42.000
21.15035 49.000
21.17030 40.000
21.19025 34.000
21.21019 37.000
21.23014 35.000
21.25009 38.000
21.27003 38.000
21.28998 33.000
21.30993 39.000
21.32987 39.000
21.34982 52.000
21.36977 34.000
21.38972 37.000
21.40966 45.000
21.42961 30.000
21.44956 29.000
21.46950 29.000
21.48945 33.000
21.50940 40.000
21.52934 37.000
21.54929 40.000
21.56924 34.000
21.58918 41.000
21.60913 33.000
21.62908 43.000
21.64903 33.000
21.66897 32.000
21.68892 30.000
21.70887 35.000
21.72881 39.000
21.74876 30.000
21.76871 36.000
21.78865 29.000
21.80860 32.000
21.82855 31.000
21.84850 37.000
21.86844 26.000
21.88839 27.000
21.90834 32.000
21.92828 28.000
21.94823 39.000
21.96818 41.000
21.98812 33.000
22.00807 40.000
22.02802 33.000
22.04796 32.000
22.06791 30.000
22.08786 38.000
22.10781 41.000
22.12775 32.000
22.14770 42.000
22.16765 36.000
22.18759 35.000
22.20754 36.000
22.22749 32.000
22.24743 30.000
22.26738 34.000
22.28733 34.000
22.30728 35.000
22.32722 20.000
22.34717 23.000
22.36712 21.000
22.38706 39.000
22.40701 31.000
22.42696 32.000
22.44690 33.000
22.46685 40.000
22.48680 39.000
22.50675 28.000
22.52669 41.000
22.54664 40.000
22.56659 41.000
22.58653 32.000
22.60648 52.000
22.62643 43.000
22.64637 39.000
22.66632 42.000
22.68627 31.000
22.70621 37.000
22.72616 34.000
22.74611 35.000
22.76606 44.000
22.78600 33.000
22.80595 45.000
22.82590 28.000
22.84584 33.000
22.86579 33.000
22.88574 46.000
22.90568 30.000
22.92563 28.000
22.94558 24.000
22.96553 26.000
22.98547 31.000
23.00542 31.000
23.02537 47.000
23.04531 39.000
23.06526 29.000
23.08521 32.000
23.10515 35.000
23.12510 34.000
23.14505 32.000
23.16499 32.000
23.18494 40.000
23.20489 29.000
23.22484 33.000
23.24478 39.000
23.26473 23.000
23.28468 31.000
23.30462 41.000
23.32457 31.000
23.34452 32.000
23.36446 31.000
23.38441 29.000
23.40436 27.000
23.42431 35.000
23.44425 36.000
23.46420 33.000
23.48415 30.000
23.50409 33.000
23.52404 38.000
23.54399 48.000
23.56393 33.000
23.58388 35.000
23.60383 39.000
23.62377 34.000
23.64372 40.000
23.66367 42.000
23.68362 28.000
23.70356 32.000
23.72351 41.000
23.74346 47.000
23.76340 29.000
23.78335 38.000
23.80330 44.000
23.82324 54.000
23.84319 50.000
23.86314 54.000
23.88309 63.000
23.90303 66.000
23.92298 82.000
23.94293 81.000
23.96287 93.000
23.98282 117.000
24.00277 130.000
24.02271 161.000
24.04266 163.000
24.06261 179.000
24.08256 203.000
24.10250 231.000
24.12245 196.000
24.14240 154.000
24.16234 163.000
24.18229 85.000
24.20224 59.000
24.22218 53.000
24.24213 32.000
24.26208 34.000
24.28202 41.000
24.30197 27.000
24.32192 42.000
24.34187 36.000
24.36181 39.000
24.38176 31.000
24.40171 38.000
24.42165 42.000
24.44160 30.000
24.46155 24.000
24.48149 37.000
24.50144 42.000
24.52139 36.000
24.54134 36.000
24.56128 44.000
24.58123 42.000
24.60118 30.000
24.62112 52.000
24.64107 47.000
24.66102 38.000
24.68096 41.000
24.70091 26.000
24.72086 48.000
24.74080 31.000
24.76075 26.000
24.78070 38.000
24.80065 34.000
24.82059 33.000
24.84054 42.000
24.86049 34.000
24.88043 32.000
24.90038 26.000
24.92033 34.000
24.94027 31.000
24.96022 26.000
24.98017 31.000
25.00012 39.000
25.02006 35.000
25.04001 38.000
25.05996 28.000
25.07990 27.000
25.09985 32.000
25.11980 36.000
25.13974 34.000
25.15969 24.000
25.17964 43.000
25.19958 31.000
25.21953 32.000
25.23948 33.000
25.25943 26.000
25.27937 40.000
25.29932 41.000
25.31927 30.000
25.33921 36.000
25.35916 33.000
25.37911 35.000
25.39905 30.000
25.41900 34.000
25.43895 43.000
25.45890 44.000
25.47884 35.000
25.49879 38.000
25.51874 34.000
25.53868 43.000
25.55863 42.000
25.57858 41.000
25.59852 38.000
25.61847 43.000
25.63842 56.000
25.65837 46.000
25.67831 56.000
25.69826 56.000
25.71821 41.000
25.73815 58.000
25.75810 73.000
25.77805 96.000
25.79799 66.000
25.81794 67.000
25.83789 59.000
25.85783 63.000
25.87778 82.000
25.89773 79.000
25.91768 62.000
25.93762 70.000
25.95757 68.000
25.97752 77.000
25.99746 65.000
26.01741 67.000
26.03736 63.000
26.05730 52.000
26.07725 44.000
26.09720 55.000
26.11715 43.000
26.13709 43.000
26.15704 41.000
26.17699 40.000
26.19693 32.000
26.21688 39.000
26.23683 41.000
26.25677 33.000
26.27672 45.000
26.29667 43.000
26.31661 35.000
26.33656 38.000
26.35651 44.000
26.37646 48.000
26.39640 49.000
26.41635 44.000
26.43630 42.000
26.45624 55.000
26.47619 55.000
26.49614 42.000
26.51608 58.000
26.53603 58.000
26.55598 49.000
26.57593 47.000
26.59587 58.000
26.61582 53.000
26.63577 55.000
26.65571 57.000
26.67566 50.000
26.69561 48.000
26.71555 60.000
26.73550 59.000
26.75545 51.000
26.77539 49.000
26.79534 49.000
26.81529 55.000
26.83524 41.000
26.85518 43.000
26.87513 45.000
26.89508 51.000
26.91502 41.000
26.93497 51.000
26.95492 43.000
26.97486 57.000
26.99481 46.000
27.01476 52.000
27.03471 67.000
27.05465 39.000
27.07460 63.000
27.09455 45.000
27.11449 38.000
27.13444 37.000
27.15439 36.000
27.17433 41.000
27.19428 52.000
27.21423 42.000
27.23417 42.000
27.25412 40.000
27.27407 35.000
27.29402 35.000
27.31396 25.000
27.33391 44.000
27.35386 19.000
27.37380 40.000
27.39375 30.000
27.41370 33.000
27.43364 44.000
27.45359 39.000
27.47354 21.000
27.49349 32.000
27.51343 39.000
27.53338 38.000
27.55333 35.000
27.57327 41.000
27.59322 35.000
27.61317 32.000
27.63311 25.000
27.65306 32.000
27.67301 33.000
27.69296 43.000
27.71290 26.000
27.73285 35.000
27.75280 29.000
27.77274 34.000
27.79269 32.000
27.81264 28.000
27.83258 34.000
27.85253 37.000
27.87248 31.000
27.89242 35.000
27.91237 35.000
27.93232 28.000
27.95227 42.000
27.97221 32.000
27.99216 33.000
28.01211 30.000
28.03205 27.000
28.05200 33.000
28.07195 44.000
28.09189 29.000
28.11184 27.000
28.13179 32.000
28.15174 38.000
28.17168 36.000
28.19163 37.000
28.21158 45.000
28.23152 30.000
28.25147 34.000
28.27142 29.000
28.29136 46.000
28.31131 34.000
28.33126 38.000
28.35120 35.000
28.37115 27.000
28.39110 45.000
28.41105 32.000
28.43099 35.000
28.45094 42.000
28.47089 27.000
28.49083 36.000
28.51078 26.000
28.53073 34.000
28.55067 43.000
28.57062 33.000
28.59057 28.000
28.61052 31.000
28.63046 35.000
28.65041 37.000
28.67036 26.000
28.69030 31.000
28.71025 39.000
28.73020 38.000
28.75014 42.000
28.77009 32.000
28.79004 34.000
28.80998 33.000
28.82993 44.000
28.84988 31.000
28.86983 35.000
28.88977 36.000
28.90972 42.000
28.92967 40.000
28.94961 37.000
28.96956 42.000
28.98951 27.000
29.00945 44.000
29.02940 41.000
29.04935 45.000
29.06930 47.000
29.08924 38.000
29.10919 46.000
29.12914 34.000
29.14908 41.000
29.16903 49.000
29.18898 54.000
29.20892 58.000
29.22887 63.000
29.24882 53.000
29.26877 64.000
29.28871 59.000
29.30866 70.000
29.32861 105.000
29.34855 116.000
29.36850 134.000
29.38845 128.000
29.40839 105.000
29.42834 130.000
29.44829 141.000
29.46823 133.000
29.48818 118.000
29.50813 116.000
29.52808 114.000
29.54802 81.000
29.56797 75.000
29.58792 56.000
29.60786 75.000
29.62781 57.000
29.64776 55.000
29.66770 57.000
29.68765 63.000
29.70760 50.000
29.72755 58.000
29.74749 52.000
29.76744 54.000
29.78739 49.000
29.80733 48.000
29.82728 43.000
29.84723 38.000
29.86717 52.000
29.88712 54.000
29.90707 41.000
29.92701 44.000
29.94696 40.000
29.96691 39.000
29.98686 49.000
30.00680 38.000
30.02675 32.000
30.04670 30.000
30.06664 37.000
30.08659 38.000
30.10654 45.000
30.12648 48.000
30.14643 32.000
30.16638 45.000
30.18633 40.000
30.20627 39.000
30.22622 43.000
30.24617 55.000
30.26611 46.000
30.28606 37.000
30.30601 39.000
30.32595 42.000
30.34590 40.000
30.36585 41.000
30.38579 39.000
30.40574 39.000
30.42569 47.000
30.44564 38.000
30.46558 51.000
30.48553 46.000
30.50548 51.000
30.52542 46.000
30.54537 44.000
30.56532 41.000
30.58526 46.000
30.60521 47.000
30.62516 39.000
30.64511 51.000
30.66505 45.000
30.68500 46.000
30.70495 41.000
30.72489 47.000
30.74484 43.000
30.76479 40.000
30.78473 36.000
30.80468 40.000
30.82463 43.000
30.84458 37.000
30.86452 45.000
30.88447 30.000
30.90442 47.000
30.92436 36.000
30.94431 41.000
30.96426 32.000
30.98420 41.000
31.00415 45.000
31.02410 44.000
31.04404 41.000
31.06399 57.000
31.08394 30.000
31.10389 53.000
31.12383 48.000
31.14378 37.000
31.16373 57.000
31.18367 50.000
31.20362 48.000
31.22357 37.000
31.24351 43.000
31.26346 45.000
31.28341 37.000
31.30336 47.000
31.32330 53.000
31.34325 56.000
31.36320 62.000
31.38314 59.000
31.40309 78.000
31.42304 68.000
31.44298 89.000
31.46293 94.000
31.48288 103.000
31.50282 118.000
31.52277 98.000
31.54272 97.000
31.56267 92.000
31.58261 96.000
31.60256 95.000
31.62251 77.000
31.64245 87.000
31.66240 65.000
31.68235 73.000
31.70229 69.000
31.72224 59.000
31.74219 60.000
31.76214 55.000
31.78208 70.000
31.80203 59.000
31.82198 56.000
31.84192 58.000
31.86187 53.000
31.88182 57.000
31.90176 57.000
31.92171 52.000
31.94166 52.000
31.96160 40.000
31.98155 40.000
32.00150 54.000
32.02145 51.000
32.04139 55.000
32.06134 44.000
32.08129 52.000
32.10123 51.000
32.12118 45.000
32.14113 48.000
32.16107 45.000
32.18102 41.000
32.20097 36.000
32.22092 39.000
32.24086 41.000
32.26081 49.000
32.28076 54.000
32.30070 64.000
32.32065 54.000
32.34060 48.000
32.36054 46.000
32.38049 52.000
32.40044 54.000
32.42039 50.000
32.44033 40.000
32.46028 34.000
32.48023 43.000
32.50017 51.000
32.52012 59.000
32.54007 40.000
32.56001 38.000
32.57996 41.000
32.59991 41.000
32.61985 48.000
32.63980 55.000
32.65975 61.000
32.67970 45.000
32.69964 57.000
32.71959 78.000
32.73954 63.000
32.75948 73.000
32.77943 83.000
32.79938 82.000
32.81932 95.000
32.83927 107.000
32.85922 97.000
32.87917 138.000
32.89911 148.000
32.91906 164.000
32.93901 185.000
32.95895 228.000
32.97890 270.000
32.99885 285.000
33.01879 364.000
33.03874 493.000
33.05869 571.000
33.07863 621.000
33.09858 733.000
33.11853 705.000
33.13848 613.000
33.15842 524.000
33.17837 511.000
33.19832 438.000
33.21826 398.000
33.23821 302.000
33.25816 233.000
33.27810 225.000
33.29805 212.000
33.31800 180.000
33.33795 183.000
33.35789 145.000
33.37784 173.000
33.39779 161.000
33.41773 155.000
33.43768 179.000
33.45763 162.000
33.47757 214.000
33.49752 225.000
33.51747 244.000
33.53741 298.000
33.55736 320.000
33.57731 377.000
33.59726 445.000
33.61720 514.000
33.63715 579.000
33.65710 643.000
33.67704 733.000
33.69699 785.000
33.71694 881.000
33.73688 948.000
33.75683 971.000
33.77678 1024.000
33.79673 1033.000
33.81667 1106.000
33.83662 1120.000
33.85657 1109.000
33.87651 1128.000
33.89646 1136.000
33.91641 1115.000
33.93635 1123.000
33.95630 1103.000
33.97625 1072.000
33.99620 990.000
34.01614 860.000
34.03609 792.000
34.05604 707.000
34.07598 673.000
34.09593 608.000
34.11588 523.000
34.13582 506.000
34.15577 422.000
34.17572 471.000
34.19566 415.000
34.21561 360.000
34.23556 350.000
34.25551 354.000
34.27545 351.000
34.29540 300.000
34.31535 315.000
34.33529 274.000
34.35524 251.000
34.37519 204.000
34.39513 237.000
34.41508 180.000
34.43503 181.000
34.45498 168.000
34.47492 136.000
34.49487 139.000
34.51482 124.000
34.53476 123.000
34.55471 106.000
34.57466 119.000
34.59460 120.000
34.61455 74.000
34.63450 84.000
34.65444 66.000
34.67439 71.000
34.69434 58.000
34.71429 52.000
34.73423 52.000
34.75418 56.000
34.77413 54.000
34.79407 60.000
34.81402 66.000
34.83397 69.000
34.85391 46.000
34.87386 54.000
34.89381 68.000
34.91376 64.000
34.93370 43.000
34.95365 50.000
34.97360 64.000
34.99354 63.000
35.01349 61.000
35.03344 52.000
35.05338 40.000
35.07333 64.000
35.09328 60.000
35.11322 73.000
35.13317 72.000
35.15312 81.000
35.17307 78.000
35.19301 106.000
35.21296 103.000
35.23291 123.000
35.25285 130.000
35.27280 138.000
35.29275 180.000
35.31269 182.000
35.33264 180.000
35.35259 227.000
35.37254 231.000
35.39248 249.000
35.41243 234.000
35.43238 257.000
35.45232 322.000
35.47227 352.000
35.49222 388.000
35.51216 402.000
35.53211 494.000
35.55206 500.000
35.57201 535.000
35.59195 587.000
35.61190 556.000
35.63185 454.000
35.65179 461.000
35.67174 372.000
35.69169 325.000
35.71163 295.000
35.73158 200.000
35.75153 168.000
35.77147 161.000
35.79142 143.000
35.81137 136.000
35.83132 143.000
35.85126 119.000
35.87121 119.000
35.89116 99.000
35.91110 105.000
35.93105 98.000
35.95100 107.000
35.97094 71.000
35.99089 79.000
36.01084 74.000
36.03079 61.000
36.05073 69.000
36.07068 75.000
36.09063 52.000
36.11057 67.000
36.13052 53.000
36.15047 62.000
36.17041 61.000
36.19036 47.000
36.21031 41.000
36.23025 55.000
36.25020 45.000
36.27015 42.000
36.29010 41.000
36.31004 44.000
36.32999 47.000
36.34994 46.000
36.36988 50.000
36.38983 38.000
36.40978 39.000
36.42972 38.000
36.44967 37.000
36.46962 34.000
36.48957 52.000
36.50951 42.000
36.52946 32.000
36.54941 23.000
36.56935 47.000
36.58930 39.000
36.60925 38.000
36.62919 29.000
36.64914 39.000
36.66909 40.000
36.68903 30.000
36.70898 27.000
36.72893 33.000
36.74888 40.000
36.76882 24.000
36.78877 34.000
36.80872 29.000
36.82866 43.000
36.84861 40.000
36.86856 34.000
36.88850 29.000
36.90845 33.000
36.92840 34.000
36.94835 28.000
36.96829 39.000
36.98824 28.000
37.00819 38.000
37.02813 31.000
37.04808 34.000
37.06803 38.000
37.08797 29.000
37.10792 24.000
37.12787 38.000
37.14781 43.000
37.16776 21.000
37.18771 28.000
37.20766 34.000
37.22760 39.000
37.24755 31.000
37.26750 30.000
37.28744 18.000
37.30739 35.000
37.32734 35.000
37.34728 26.000
37.36723 41.000
37.38718 30.000
37.40713 35.000
37.42707 39.000
37.44702 34.000
37.46697 31.000
37.48691 30.000
37.50686 37.000
37.52681 32.000
37.54675 28.000
37.56670 28.000
37.58665 41.000
37.60660 40.000
37.62654 21.000
37.64649 30.000
37.66644 33.000
37.68638 27.000
37.70633 30.000
37.72628 26.000
37.74622 37.000
37.76617 43.000
37.78612 36.000
37.80606 24.000
37.82601 31.000
37.84596 38.000
37.86591 38.000
37.88585 40.000
37.90580 37.000
37.92575 36.000
37.94569 36.000
37.96564 45.000
37.98559 33.000
38.00553 45.000
38.02548 37.000
38.04543 58.000
38.06538 36.000
38.08532 27.000
38.10527 42.000
38.12522 42.000
38.14516 37.000
38.16511 21.000
38.18506 45.000
38.20500 40.000
38.22495 31.000
38.24490 39.000
38.26484 31.000
38.28479 32.000
38.30474 31.000
38.32469 35.000
38.34463 33.000
38.36458 36.000
38.38453 29.000
38.40447 24.000
38.42442 38.000
38.44437 24.000
38.46431 36.000
38.48426 33.000
38.50421 28.000
38.52416 33.000
38.54410 29.000
38.56405 42.000
38.58400 25.000
38.60394 29.000
38.62389 24.000
38.64384 38.000
38.66378 50.000
38.68373 34.000
38.70368 38.000
38.72362 29.000
38.74357 35.000
38.76352 33.000
38.78347 33.000
38.80341 43.000
38.82336 24.000
38.84331 36.000
38.86325 38.000
38.88320 37.000
38.90315 32.000
38.92309 43.000
38.94304 36.000
38.96299 37.000
38.98294 41.000
39.00288 30.000
39.02283 42.000
39.04278 29.000
39.06272 39.000
39.08267 36.000
39.10262 39.000
39.12256 41.000
39.14251 37.000
39.16246 29.000
39.18241 39.000
39.20235 56.000
39.22230 51.000
39.24225 50.000
39.26219 48.000
39.28214 33.000
39.30209 52.000
39.32203 39.000
39.34198 37.000
39.36193 49.000
39.38187 32.000
39.40182 35.000
39.42177 37.000
39.44172 17.000
39.46166 40.000
39.48161 39.000
39.50156 36.000
39.52150 51.000
39.54145 33.000
39.56140 30.000
39.58134 40.000
39.60129 52.000
39.62124 36.000
39.64119 40.000
39.66113 41.000
39.68108 51.000
39.70103 52.000
39.72097 46.000
39.74092 52.000
39.76087 52.000
39.78081 43.000
39.80076 60.000
39.82071 61.000
39.84065 66.000
39.86060 65.000
39.88055 56.000
39.90050 59.000
39.92044 56.000
39.94039 56.000
39.96034 62.000
39.98028 55.000
40.00023 62.000
40.02018 70.000
40.04012 64.000
40.06007 73.000
40.08002 58.000
40.09997 66.000
40.11991 69.000
40.13986 57.000
40.15981 48.000
40.17975 59.000
40.19970 41.000
40.21965 56.000
40.23959 43.000
40.25954 41.000
40.27949 51.000
40.29943 40.000
40.31938 47.000
40.33933 42.000
40.35928 39.000
40.37922 41.000
40.39917 49.000
40.41912 43.000
40.43906 32.000
40.45901 36.000
40.47896 38.000
40.49890 33.000
40.51885 42.000
40.53880 44.000
40.55875 40.000
40.57869 47.000
40.59864 50.000
40.61859 57.000
40.63853 58.000
40.65848 55.000
40.67843 59.000
40.69837 73.000
40.71832 91.000
40.73827 92.000
40.75822 110.000
40.77816 136.000
40.79811 144.000
40.81806 155.000
40.83800 147.000
40.85795 97.000
40.87790 99.000
40.89784 100.000
40.91779 97.000
40.93774 84.000
40.95768 54.000
40.97763 61.000
40.99758 42.000
41.01753 43.000
41.03747 23.000
41.05742 32.000
41.07737 28.000
41.09731 27.000
41.11726 33.000
41.13721 35.000
41.15715 25.000
41.17710 27.000
41.19705 29.000
41.21700 36.000
41.23694 33.000
41.25689 30.000
41.27684 31.000
41.29678 29.000
41.31673 34.000
41.33668 35.000
41.35662 22.000
41.37657 38.000
41.39652 31.000
41.41646 35.000
41.43641 25.000
41.45636 27.000
41.47631 42.000
41.49625 30.000
41.51620 28.000
41.53615 27.000
41.55609 22.000
41.57604 30.000
41.59599 31.000
41.61593 45.000
41.63588 33.000
41.65583 40.000
41.67578 38.000
41.69572 42.000
41.71567 39.000
41.73562 37.000
41.75556 47.000
41.77551 39.000
41.79546 29.000
41.81540 47.000
41.83535 55.000
41.85530 37.000
41.87524 36.000
41.89519 51.000
41.91514 40.000
41.93509 36.000
41.95503 36.000
41.97498 43.000
41.99493 53.000
42.01487 42.000
42.03482 33.000
42.05477 40.000
42.07471 39.000
42.09466 44.000
42.11461 41.000
42.13456 46.000
42.15450 39.000
42.17445 38.000
42.19440 28.000
42.21434 31.000
42.23429 40.000
42.25424 34.000
42.27418 35.000
42.29413 37.000
42.31408 22.000
42.33403 37.000
42.35397 37.000
42.37392 44.000
42.39387 34.000
42.41381 31.000
42.43376 36.000
42.45371 28.000
42.47365 48.000
42.49360 30.000
42.51355 33.000
42.53349 29.000
42.55344 22.000
42.57339 29.000
42.59334 36.000
42.61328 24.000
42.63323 31.000
42.65318 27.000
42.67312 20.000
42.69307 23.000
42.71302 32.000
42.73296 31.000
42.75291 24.000
42.77286 43.000
42.79281 40.000
42.81275 29.000
42.83270 37.000
42.85265 31.000
42.87259 16.000
42.89254 37.000
42.91249 41.000
42.93243 22.000
42.95238 41.000
42.97233 38.000
42.99227 33.000
43.01222 41.000
43.03217 34.000
43.05212 35.000
43.07206 42.000
43.09201 33.000
43.11196 40.000
43.13190 35.000
43.15185 31.000
43.17180 38.000
43.19174 37.000
43.21169 38.000
43.23164 38.000
43.25159 48.000
43.27153 33.000
43.29148 34.000
43.31143 43.000
43.33137 41.000
43.35132 47.000
43.37127 40.000
43.39121 38.000
43.41116 34.000
43.43111 39.000
43.45105 43.000
43.47100 38.000
43.49095 50.000
43.51090 35.000
43.53084 28.000
43.55079 36.000
43.57074 46.000
43.59068 36.000
43.61063 29.000
43.63058 29.000
43.65052 30.000
43.67047 26.000
43.69042 29.000
43.71037 35.000
43.73031 25.000
43.75026 40.000
43.77021 32.000
43.79015 24.000
43.81010 28.000
43.83005 25.000
43.84999 23.000
43.86994 25.000
43.88989 31.000
43.90984 27.000
43.92978 37.000
43.94973 21.000
43.96968 33.000
43.98962 28.000
44.00957 25.000
44.02952 32.000
44.04946 36.000
44.06941 26.000
44.08936 27.000
44.10930 25.000
44.12925 22.000
44.14920 25.000
44.16915 28.000
44.18909 21.000
44.20904 31.000
44.22899 23.000
44.24893 28.000
44.26888 31.000
44.28883 30.000
44.30877 34.000
44.32872 32.000
44.34867 25.000
44.36862 28.000
44.38856 41.000
44.40851 37.000
44.42846 45.000
44.44840 34.000
44.46835 39.000
44.48830 30.000
44.50824 37.000
44.52819 21.000
44.54814 31.000
44.56808 26.000
44.58803 22.000
44.60798 34.000
44.62793 26.000
44.64787 30.000
44.66782 31.000
44.68777 23.000
44.70771 27.000
44.72766 27.000
44.74761 27.000
44.76755 33.000
44.78750 33.000
44.80745 42.000
44.82740 32.000
44.84734 37.000
44.86729 30.000
44.88724 43.000
44.90718 48.000
44.92713 54.000
44.94708 49.000
44.96702 48.000
44.98697 53.000
45.00692 70.000
45.02686 44.000
45.04681 51.000
45.06676 53.000
45.08671 51.000
45.10665 38.000
45.12660 40.000
45.14655 44.000
45.16649 43.000
45.18644 36.000
45.20639 30.000
45.22633 31.000
45.24628 43.000
45.26623 36.000
45.28618 27.000
45.30612 34.000
45.32607 34.000
45.34602 35.000
45.36596 30.000
45.38591 22.000
45.40586 40.000
45.42580 24.000
45.44575 32.000
45.46570 20.000
45.48565 39.000
45.50559 28.000
45.52554 23.000
45.54549 20.000
45.56543 25.000
45.58538 26.000
45.60533 26.000
45.62527 22.000
45.64522 21.000
45.66517 31.000
45.68511 35.000
45.70506 32.000
45.72501 26.000
45.74496 26.000
45.76490 24.000
45.78485 25.000
45.80480 26.000
45.82474 18.000
45.84469 31.000
45.86464 23.000
45.88458 25.000
45.90453 25.000
45.92448 35.000
45.94443 40.000
45.96437 36.000
45.98432 28.000
46.00427 26.000
46.02421 23.000
46.04416 20.000
46.06411 31.000
46.08405 29.000
46.10400 32.000
46.12395 34.000
46.14389 36.000
46.16384 32.000
46.18379 27.000
46.20374 21.000
46.22368 30.000
46.24363 26.000
46.26358 37.000
46.28352 38.000
46.30347 35.000
46.32342 34.000
46.34336 46.000
46.36331 33.000
46.38326 46.000
46.40321 68.000
46.42315 47.000
46.44310 47.000
46.46305 46.000
46.48299 40.000
46.50294 43.000
46.52289 43.000
46.54283 43.000
46.56278 46.000
46.58273 42.000
46.60267 40.000
46.62262 60.000
46.64257 45.000
46.66252 54.000
46.68246 36.000
46.70241 47.000
46.72236 49.000
46.74230 41.000
46.76225 24.000
46.78220 34.000
46.80214 40.000
46.82209 40.000
46.84204 33.000
46.86199 39.000
46.88193 34.000
46.90188 39.000
46.92183 29.000
46.94177 34.000
46.96172 33.000
46.98167 22.000
47.00161 22.000
47.02156 36.000
47.04151 32.000
47.06146 32.000
47.08140 36.000
47.10135 28.000
47.12130 26.000
47.14124 26.000
47.16119 18.000
47.18114 36.000
47.20108 37.000
47.22103 30.000
47.24098 34.000
47.26092 32.000
47.28087 30.000
47.30082 29.000
47.32077 27.000
47.34071 27.000
47.36066 28.000
47.38061 28.000
47.40055 26.000
47.42050 22.000
47.44045 29.000
47.46039 34.000
47.48034 30.000
47.50029 19.000
47.52024 29.000
47.54018 31.000
47.56013 21.000
47.58008 28.000
47.60002 37.000
47.61997 24.000
47.63992 21.000
47.65986 34.000
47.67981 27.000
47.69976 34.000
47.71970 35.000
47.73965 34.000
47.75960 20.000
47.77955 41.000
47.79949 45.000
47.81944 33.000
47.83939 40.000
47.85933 33.000
47.87928 26.000
47.89923 37.000
47.91917 31.000
47.93912 40.000
47.95907 43.000
47.97902 37.000
47.99896 39.000
48.01891 25.000
48.03886 44.000
48.05880 30.000
48.07875 47.000
48.09870 49.000
48.11864 49.000
48.13859 48.000
48.15854 59.000
48.17848 51.000
48.19843 51.000
48.21838 60.000
48.23833 40.000
48.25827 53.000
48.27822 52.000
48.29817 45.000
48.31811 67.000
48.33806 68.000
48.35801 74.000
48.37795 78.000
48.39790 74.000
48.41785 80.000
48.43780 86.000
48.45774 98.000
48.47769 102.000
48.49764 112.000
48.51758 103.000
48.53753 94.000
48.55748 91.000
48.57742 109.000
48.59737 93.000
48.61732 92.000
48.63726 112.000
48.65721 131.000
48.67716 116.000
48.69711 105.000
48.71705 101.000
48.73700 120.000
48.75695 138.000
48.77689 137.000
48.79684 134.000
48.81679 119.000
48.83673 114.000
48.85668 108.000
48.87663 128.000
48.89658 129.000
48.91652 131.000
48.93647 119.000
48.95642 126.000
48.97636 105.000
48.99631 115.000
49.01626 107.000
49.03620 109.000
49.05615 84.000
49.07610 81.000
49.09605 76.000
49.11599 84.000
49.13594 72.000
49.15589 86.000
49.17583 85.000
49.19578 83.000
49.21573 91.000
49.23567 104.000
49.25562 102.000
49.27557 116.000
49.29551 132.000
49.31546 153.000
49.33541 152.000
49.35536 191.000
49.37530 223.000
49.39525 219.000
49.41520 219.000
49.43514 230.000
49.45509 162.000
49.47504 155.000
49.49498 143.000
49.51493 157.000
49.53488 135.000
49.55483 113.000
49.57477 112.000
49.59472 84.000
49.61467 76.000
49.63461 70.000
49.65456 47.000
49.67451 54.000
49.69445 59.000
49.71440 34.000
49.73435 39.000
49.75429 34.000
49.77424 38.000
49.79419 35.000
49.81414 33.000
49.83408 46.000
49.85403 40.000
49.87398 50.000
49.89392 45.000
49.91387 49.000
49.93382 42.000
49.95376 35.000
49.97371 44.000
49.99366 45.000
50.01361 52.000
50.03355 47.000
50.05350 37.000
50.07345 34.000
50.09339 31.000
50.11334 36.000
50.13329 40.000
50.15323 42.000
50.17318 29.000
50.19313 38.000
50.21307 31.000
50.23302 37.000
50.25297 34.000
50.27292 39.000
50.29286 50.000
50.31281 33.000
50.33276 32.000
50.35270 20.000
50.37265 37.000
50.39260 41.000
50.41254 32.000
50.43249 34.000
50.45244 36.000
50.47239 46.000
50.49233 34.000
50.51228 33.000
50.53223 41.000
50.55217 37.000
50.57212 37.000
50.59207 35.000
50.61201 40.000
50.63196 33.000
50.65191 37.000
50.67186 36.000
50.69180 44.000
50.71175 46.000
50.73170 47.000
50.75164 41.000
50.77159 39.000
50.79154 50.000
50.81148 37.000
50.83143 35.000
50.85138 51.000
50.87132 49.000
50.89127 45.000
50.91122 45.000
50.93117 50.000
50.95111 37.000
50.97106 42.000
50.99101 48.000
51.01095 28.000
51.03090 48.000
51.05085 40.000
51.07079 43.000
51.09074 46.000
51.11069 43.000
51.13064 38.000
51.15058 39.000
51.17053 27.000
51.19048 37.000
51.21042 26.000
51.23037 23.000
51.25032 34.000
51.27026 35.000
51.29021 32.000
51.31016 26.000
51.33010 34.000
51.35005 26.000
51.37000 31.000
51.38995 26.000
51.40989 20.000
51.42984 32.000
51.44979 24.000
51.46973 29.000
51.48968 29.000
51.50963 24.000
51.52957 33.000
51.54952 27.000
51.56947 20.000
51.58942 26.000
51.60936 24.000
51.62931 34.000
51.64926 31.000
51.66920 28.000
51.68915 32.000
51.70910 31.000
51.72904 25.000
51.74899 27.000
51.76894 39.000
51.78888 30.000
51.80883 31.000
51.82878 24.000
51.84873 34.000
51.86867 30.000
51.88862 27.000
51.90857 28.000
51.92851 47.000
51.94846 31.000
51.96841 30.000
51.98835 34.000
52.00830 23.000
52.02825 31.000
52.04820 27.000
52.06814 29.000
52.08809 30.000
52.10804 27.000
52.12798 35.000
52.14793 29.000
52.16788 25.000
52.18782 26.000
52.20777 30.000
52.22772 30.000
52.24767 34.000
52.26761 38.000
52.28756 33.000
52.30751 30.000
52.32745 37.000
52.34740 37.000
52.36735 34.000
52.38729 31.000
52.40724 30.000
52.42719 29.000
52.44713 27.000
52.46708 39.000
52.48703 29.000
52.50698 42.000
52.52692 33.000
52.54687 37.000
52.56682 34.000
52.58676 32.000
52.60671 32.000
52.62666 36.000
52.64660 40.000
52.66655 42.000
52.68650 46.000
52.70645 53.000
52.72639 32.000
52.74634 30.000
52.76629 34.000
52.78623 44.000
52.80618 47.000
52.82613 37.000
52.84607 45.000
52.86602 46.000
52.88597 42.000
52.90591 36.000
52.92586 46.000
52.94581 43.000
52.96576 51.000
52.98570 47.000
53.00565 52.000
53.02560 62.000
53.04554 51.000
53.06549 71.000
53.08544 48.000
53.10538 78.000
53.12533 84.000
53.14528 65.000
53.16523 70.000
53.18517 70.000
53.20512 68.000
53.22507 88.000
53.24501 77.000
53.26496 86.000
53.28491 78.000
53.30485 66.000
53.32480 64.000
53.34475 75.000
53.36469 74.000
53.38464 63.000
53.40459 58.000
53.42454 85.000
53.44448 58.000
53.46443 56.000
53.48438 88.000
53.50432 66.000
53.52427 72.000
53.54422 66.000
53.56416 69.000
53.58411 56.000
53.60406 68.000
53.62401 64.000
53.64395 61.000
53.66390 67.000
53.68385 82.000
53.70379 63.000
53.72374 71.000
53.74369 71.000
53.76363 77.000
53.78358 80.000
53.80353 81.000
53.82348 78.000
53.84342 89.000
53.86337 138.000
53.88332 133.000
53.90326 131.000
53.92321 150.000
53.94316 193.000
53.96310 202.000
53.98305 244.000
54.00300 264.000
54.02294 247.000
54.04289 234.000
54.06284 197.000
54.08279 200.000
54.10273 153.000
54.12268 149.000
54.14263 136.000
54.16257 147.000
54.18252 149.000
54.20247 91.000
54.22241 88.000
54.24236 60.000
54.26231 60.000
54.28226 61.000
54.30220 38.000
54.32215 37.000
54.34210 36.000
54.36204 40.000
54.38199 39.000
54.40194 42.000
54.42188 31.000
54.44183 39.000
54.46178 36.000
54.48172 28.000
54.50167 30.000
54.52162 30.000
54.54157 37.000
54.56151 32.000
54.58146 40.000
54.60141 36.000
54.62135 28.000
54.64130 38.000
54.66125 35.000
54.68119 30.000
54.70114 27.000
54.72109 35.000
54.74104 46.000
54.76098 38.000
54.78093 48.000
54.80088 28.000
54.82082 40.000
54.84077 51.000
54.86072 48.000
54.88066 53.000
54.90061 48.000
54.92056 41.000
54.94050 60.000
54.96045 46.000
54.98040 62.000
55.00035 57.000
55.02029 52.000
55.04024 44.000
55.06019 49.000
55.08013 51.000
55.10008 42.000
55.12003 44.000
55.13997 41.000
55.15992 48.000
55.17987 39.000
55.19982 43.000
55.21976 41.000
55.23971 46.000
55.25966 47.000
55.27960 42.000
55.29955 34.000
55.31950 37.000
55.33944 37.000
55.35939 26.000
55.37934 34.000
55.39929 30.000
55.41923 44.000
55.43918 42.000
55.45913 32.000
55.47907 34.000
55.49902 41.000
55.51897 44.000
55.53891 33.000
55.55886 33.000
55.57881 41.000
55.59875 28.000
55.61870 56.000
55.63865 37.000
55.65860 46.000
55.67854 38.000
55.69849 51.000
55.71844 32.000
55.73838 34.000
55.75833 41.000
55.77828 51.000
55.79822 37.000
55.81817 49.000
55.83812 38.000
55.85807 49.000
55.87801 38.000
55.89796 47.000
55.91791 29.000
55.93785 44.000
55.95780 49.000
55.97775 43.000
55.99769 30.000
56.01764 48.000
56.03759 55.000
56.05753 45.000
56.07748 45.000
56.09743 52.000
56.11738 47.000
56.13732 47.000
56.15727 36.000
56.17722 49.000
56.19716 49.000
56.21711 42.000
56.23706 38.000
56.25700 35.000
56.27695 35.000
56.29690 35.000
56.31685 27.000
56.33679 35.000
56.35674 32.000
56.37669 35.000
56.39663 32.000
56.41658 37.000
56.43653 35.000
56.45647 37.000
56.47642 37.000
56.49637 31.000
56.51631 28.000
56.53626 23.000
56.55621 24.000
56.57616 44.000
56.59610 38.000
56.61605 35.000
56.63600 33.000
56.65594 24.000
56.67589 32.000
56.69584 35.000
56.71578 30.000
56.73573 25.000
56.75568 40.000
56.77563 31.000
56.79557 37.000
56.81552 44.000
56.83547 38.000
56.85541 35.000
56.87536 31.000
56.89531 38.000
56.91525 34.000
56.93520 36.000
56.95515 40.000
56.97510 27.000
56.99504 38.000
57.01499 35.000
57.03494 33.000
57.05488 48.000
57.07483 35.000
57.09478 28.000
57.11472 45.000
57.13467 54.000
57.15462 43.000
57.17456 46.000
57.19451 47.000
57.21446 31.000
57.23441 42.000
57.25435 36.000
57.27430 37.000
57.29425 31.000
57.31419 43.000
57.33414 53.000
57.35409 50.000
57.37403 59.000
57.39398 47.000
57.41393 65.000
57.43388 57.000
57.45382 62.000
57.47377 71.000
57.49372 78.000
57.51366 75.000
57.53361 81.000
57.55356 70.000
57.57350 68.000
57.59345 68.000
57.61340 74.000
57.63334 62.000
57.65329 58.000
57.67324 56.000
57.69319 47.000
57.71313 54.000
57.73308 56.000
57.75303 44.000
57.77297 51.000
57.79292 42.000
57.81287 46.000
57.83281 43.000
57.85276 44.000
57.87271 38.000
57.89266 39.000
57.91260 44.000
57.93255 35.000
57.95250 34.000
57.97244 32.000
57.99239 28.000
58.01234 38.000
58.03228 38.000
58.05223 43.000
58.07218 38.000
58.09212 40.000
58.11207 33.000
58.13202 38.000
58.15197 29.000
58.17191 32.000
58.19186 29.000
58.21181 46.000
58.23175 33.000
58.25170 40.000
58.27165 27.000
58.29159 30.000
58.31154 36.000
58.33149 35.000
58.35144 27.000
58.37138 36.000
58.39133 29.000
58.41128 32.000
58.43122 25.000
58.45117 36.000
58.47112 33.000
58.49106 30.000
58.51101 29.000
58.53096 28.000
58.55090 32.000
58.57085 26.000
58.59080 40.000
58.61075 39.000
58.63069 28.000
58.65064 23.000
58.67059 37.000
58.69053 24.000
58.71048 22.000
58.73043 29.000
58.75037 30.000
58.77032 30.000
58.79027 31.000
58.81022 49.000
58.83016 33.000
58.85011 29.000
58.87006 28.000
58.89000 31.000
58.90995 34.000
58.92990 31.000
58.94984 33.000
58.96979 24.000
58.98974 51.000
59.00969 31.000
59.02963 44.000
59.04958 40.000
59.06953 33.000
59.08947 38.000
59.10942 45.000
59.12937 38.000
59.14931 34.000
59.16926 31.000
59.18921 34.000
59.20915 41.000
59.22910 41.000
59.24905 38.000
59.26900 36.000
59.28894 40.000
59.30889 30.000
59.32884 34.000
59.34878 32.000
59.36873 36.000
59.38868 38.000
59.40862 32.000
59.42857 29.000
59.44852 39.000
59.46847 45.000
59.48841 48.000
59.50836 41.000
59.52831 43.000
59.54825 46.000
59.56820 44.000
59.58815 44.000
59.60809 37.000
59.62804 47.000
59.64799 55.000
59.66793 48.000
59.68788 61.000
59.70783 56.000
59.72778 52.000
59.74772 67.000
59.76767 61.000
59.78762 72.000
59.80756 69.000
59.82751 86.000
59.84746 87.000
59.86740 75.000
59.88735 83.000
59.90730 81.000
59.92725 91.000
59.94719 76.000
59.96714 88.000
59.98709 84.000
60.00703 97.000
60.02698 90.000
60.04693 88.000
60.06687 94.000
60.08682 85.000
60.10677 75.000
60.12671 77.000
60.14666 89.000
60.16661 87.000
60.18656 88.000
60.20650 92.000
60.22645 99.000
60.24640 118.000
60.26634 122.000
60.28629 119.000
60.30624 135.000
60.32618 143.000
60.34613 172.000
60.36608 169.000
60.38603 173.000
60.40597 195.000
60.42592 185.000
60.44587 191.000
60.46581 199.000
60.48576 186.000
60.50571 220.000
60.52565 202.000
60.54560 200.000
60.56555 221.000
60.58550 223.000
60.60544 235.000
60.62539 204.000
60.64534 248.000
60.66528 218.000
60.68523 226.000
60.70518 236.000
60.72512 220.000
60.74507 229.000
60.76502 203.000
60.78496 235.000
60.80491 219.000
60.82486 232.000
60.84481 240.000
60.86475 220.000
60.88470 217.000
60.90465 224.000
60.92459 197.000
60.94454 213.000
60.96449 179.000
60.98443 167.000
61.00438 192.000
61.02433 190.000
61.04428 176.000
61.06422 167.000
61.08417 162.000
61.10412 152.000
61.12406 151.000
61.14401 174.000
61.16396 117.000
61.18390 134.000
61.20385 132.000
61.22380 116.000
61.24374 122.000
61.26369 148.000
61.28364 108.000
61.30359 138.000
61.32353 89.000
61.34348 140.000
61.36343 117.000
61.38337 126.000
61.40332 116.000
61.42327 96.000
61.44321 109.000
61.46316 100.000
61.48311 98.000
61.50306 78.000
61.52300 88.000
61.54295 93.000
61.56290 68.000
61.58284 79.000
61.60279 77.000
61.62274 73.000
61.64268 73.000
61.66263 50.000
61.68258 54.000
61.70252 79.000
61.72247 55.000
61.74242 59.000
61.76237 59.000
61.78231 50.000
61.80226 62.000
61.82221 55.000
61.84215 48.000
61.86210 46.000
61.88205 51.000
61.90199 45.000
61.92194 46.000
61.94189 52.000
61.96184 45.000
61.98178 55.000
62.00173 51.000
62.02168 48.000
62.04162 45.000
62.06157 59.000
62.08152 52.000
62.10146 54.000
62.12141 45.000
62.14136 46.000
62.16131 82.000
62.18125 68.000
62.20120 67.000
62.22115 64.000
62.24109 66.000
62.26104 112.000
62.28099 120.000
62.30093 135.000
62.32088 140.000
62.34083 129.000
62.36077 161.000
62.38072 166.000
62.40067 178.000
62.42062 170.000
62.44056 131.000
62.46051 136.000
62.48046 118.000
62.50040 113.000
62.52035 127.000
62.54030 116.000
62.56024 118.000
62.58019 96.000
62.60014 90.000
62.62009 67.000
62.64003 85.000
62.65998 69.000
62.67993 56.000
62.69987 34.000
62.71982 57.000
62.73977 35.000
62.75971 36.000
62.77966 44.000
62.79961 34.000
62.81955 31.000
62.83950 45.000
62.85945 48.000
62.87940 58.000
62.89934 31.000
62.91929 40.000
62.93924 33.000
62.95918 37.000
62.97913 33.000
62.99908 30.000
63.01902 36.000
63.03897 39.000
63.05892 21.000
63.07887 35.000
63.09881 41.000
63.11876 42.000
63.13871 38.000
63.15865 19.000
63.17860 37.000
63.19855 44.000
63.21849 26.000
63.23844 27.000
63.25839 40.000
63.27833 24.000
63.29828 39.000
63.31823 43.000
63.33818 36.000
63.35812 38.000
63.37807 33.000
63.39802 33.000
63.41796 28.000
63.43791 33.000
63.45786 26.000
63.47780 34.000
63.49775 42.000
63.51770 34.000
63.53765 30.000
63.55759 30.000
63.57754 43.000
63.59749 37.000
63.61743 50.000
63.63738 41.000
63.65733 43.000
63.67727 58.000
63.69722 61.000
63.71717 42.000
63.73712 50.000
63.75706 56.000
63.77701 52.000
63.79696 63.000
63.81690 76.000
63.83685 90.000
63.85680 109.000
63.87674 108.000
63.89669 139.000
63.91664 143.000
63.93658 162.000
63.95653 172.000
63.97648 162.000
63.99643 149.000
64.01637 123.000
64.03632 130.000
64.05627 110.000
64.07621 117.000
64.09616 113.000
64.11611 108.000
64.13605 119.000
64.15600 111.000
64.17595 105.000
64.19590 87.000
64.21584 83.000
64.23579 60.000
64.25574 47.000
64.27568 56.000
64.29563 48.000
64.31558 47.000
64.33552 54.000
64.35547 41.000
64.37542 42.000
64.39536 49.000
64.41531 41.000
64.43526 48.000
64.45521 43.000
64.47515 65.000
64.49510 63.000
64.51505 51.000
64.53499 61.000
64.55494 41.000
64.57489 59.000
64.59483 66.000
64.61478 53.000
64.63473 53.000
64.65468 56.000
64.67462 56.000
64.69457 63.000
64.71452 71.000
64.73446 60.000
64.75441 53.000
64.77436 65.000
64.79430 49.000
64.81425 64.000
64.83420 62.000
64.85414 65.000
64.87409 55.000
64.89404 64.000
64.91399 68.000
64.93393 60.000
64.95388 56.000
64.97383 67.000
64.99377 59.000
65.01372 56.000
65.03367 65.000
65.05361 52.000
65.07356 60.000
65.09351 54.000
65.11346 61.000
65.13340 44.000
65.15335 38.000
65.17330 56.000
65.19324 61.000
65.21319 39.000
65.23314 42.000
65.25308 55.000
65.27303 51.000
65.29298 54.000
65.31293 41.000
65.33287 62.000
65.35282 52.000
65.37277 37.000
65.39271 38.000
65.41266 47.000
65.43261 42.000
65.45255 31.000
65.47250 37.000
65.49245 61.000
65.51239 34.000
65.53234 40.000
65.55229 42.000
65.57224 50.000
65.59218 48.000
65.61213 45.000
65.63208 40.000
65.65202 40.000
65.67197 43.000
65.69192 42.000
65.71186 38.000
65.73181 37.000
65.75176 42.000
65.77171 47.000
65.79165 48.000
65.81160 50.000
65.83155 37.000
65.85149 44.000
65.87144 35.000
65.89139 45.000
65.91133 35.000
65.93128 35.000
65.95123 43.000
65.97117 43.000
65.99112 33.000
66.01107 27.000
66.03102 39.000
66.05096 45.000
66.07091 42.000
66.09086 37.000
66.11080 33.000
66.13075 23.000
66.15070 38.000
66.17064 30.000
66.19059 28.000
66.21054 29.000
66.23049 35.000
66.25043 26.000
66.27038 28.000
66.29033 41.000
66.31027 42.000
66.33022 31.000
66.35017 21.000
66.37011 37.000
66.39006 23.000
66.41001 30.000
66.42995 32.000
66.44990 32.000
66.46985 18.000
66.48980 23.000
66.50974 23.000
66.52969 38.000
66.54964 15.000
66.56958 31.000
66.58953 32.000
66.60948 22.000
66.62942 34.000
66.64937 24.000
66.66932 30.000
66.68927 22.000
66.70921 36.000
66.72916 40.000
66.74911 28.000
66.76905 28.000
66.78900 29.000
66.80895 32.000
66.82889 35.000
66.84884 33.000
66.86879 32.000
66.88874 17.000
66.90868 27.000
66.92863 28.000
66.94858 17.000
66.96852 33.000
66.98847 37.000
67.00842 21.000
67.02836 28.000
67.04831 34.000
67.06826 31.000
67.08820 30.000
67.10815 32.000
67.12810 30.000
67.14805 34.000
67.16799 25.000
67.18794 29.000
67.20789 23.000
67.22783 38.000
67.24778 26.000
67.26773 30.000
67.28767 29.000
67.30762 28.000
67.32757 40.000
67.34752 28.000
67.36746 39.000
67.38741 38.000
67.40736 36.000
67.42730 31.000
67.44725 27.000
67.46720 27.000
67.48714 27.000
67.50709 30.000
67.52704 30.000
67.54698 29.000
67.56693 25.000
67.58688 28.000
67.60683 20.000
67.62677 18.000
67.64672 27.000
67.66667 28.000
67.68661 30.000
67.70656 31.000
67.72651 26.000
67.74645 36.000
67.76640 19.000
67.78635 27.000
67.80630 23.000
67.82624 30.000
67.84619 32.000
67.86614 19.000
67.88608 22.000
67.90603 28.000
67.92598 24.000
67.94592 24.000
67.96587 24.000
67.98582 24.000
68.00576 27.000
68.02571 22.000
68.04566 32.000
68.06561 26.000
68.08555 27.000
68.10550 26.000
68.12545 28.000
68.14539 29.000
68.16534 22.000
68.18529 30.000
68.20523 23.000
68.22518 19.000
68.24513 21.000
68.26508 27.000
68.28502 32.000
68.30497 33.000
68.32492 30.000
68.34486 27.000
68.36481 30.000
68.38476 21.000
68.40470 32.000
68.42465 25.000
68.44460 32.000
68.46455 23.000
68.48449 28.000
68.50444 24.000
68.52439 27.000
68.54433 25.000
68.56428 24.000
68.58423 28.000
68.60417 25.000
68.62412 22.000
68.64407 26.000
68.66401 18.000
68.68396 37.000
68.70391 31.000
68.72386 21.000
68.74380 25.000
68.76375 23.000
68.78370 18.000
68.80364 28.000
68.82359 21.000
68.84354 22.000
68.86348 18.000
68.88343 23.000
68.90338 27.000
68.92333 23.000
68.94327 23.000
68.96322 24.000
68.98317 20.000
69.00311 20.000
69.02306 27.000
69.04301 28.000
69.06295 23.000
69.08290 29.000
69.10285 31.000
69.12279 23.000
69.14274 26.000
69.16269 22.000
69.18264 24.000
69.20258 19.000
69.22253 23.000
69.24248 27.000
69.26242 21.000
69.28237 20.000
69.30232 20.000
69.32226 26.000
69.34221 20.000
69.36216 20.000
69.38211 19.000
69.40205 22.000
69.42200 26.000
69.44195 25.000
69.46189 26.000
69.48184 32.000
69.50179 36.000
69.52173 40.000
69.54168 34.000
69.56163 33.000
69.58157 20.000
69.60152 42.000
69.62147 31.000
69.64142 33.000
69.66136 24.000
69.68131 33.000
69.70126 33.000
69.72120 24.000
69.74115 26.000
69.76110 29.000
69.78104 33.000
69.80099 31.000
69.82094 23.000
69.84089 24.000
69.86083 28.000
69.88078 24.000
69.90073 23.000
69.92067 25.000
69.94062 26.000
69.96057 35.000
69.98051 14.000
70.00046 22.000
70.02041 27.000
70.04035 26.000
70.06030 16.000
70.08025 19.000
70.10020 18.000
70.12014 19.000
70.14009 21.000
70.16004 25.000
70.17998 21.000
70.19993 23.000
70.21988 15.000
70.23982 22.000
70.25977 25.000
70.27972 20.000
70.29967 18.000
70.31961 27.000
70.33956 21.000
70.35951 24.000
70.37945 32.000
70.39940 21.000
70.41935 17.000
70.43929 19.000
70.45924 22.000
70.47919 20.000
70.49914 15.000
70.51908 18.000
70.53903 23.000
70.55898 18.000
70.57892 24.000
70.59887 33.000
70.61882 30.000
70.63876 17.000
70.65871 25.000
70.67866 23.000
70.69860 27.000
70.71855 20.000
70.73850 18.000
70.75845 28.000
70.77839 24.000
70.79834 28.000
70.81829 32.000
70.83823 27.000
70.85818 37.000
70.87813 46.000
70.89807 33.000
70.91802 38.000
70.93797 47.000
70.95792 51.000
70.97786 37.000
70.99781 40.000
71.01776 38.000
71.03770 57.000
71.05765 52.000
71.07760 43.000
71.09754 26.000
71.11749 37.000
71.13744 43.000
71.15738 52.000
71.17733 35.000
71.19728 50.000
71.21723 49.000
71.23717 56.000
71.25712 48.000
71.27707 43.000
71.29701 57.000
71.31696 40.000
71.33691 55.000
71.35685 51.000
71.37680 62.000
71.39675 63.000
71.41670 54.000
71.43664 38.000
71.45659 39.000
71.47654 58.000
71.49648 52.000
71.51643 60.000
71.53638 61.000
71.55632 54.000
71.57627 48.000
71.59622 63.000
71.61616 77.000
71.63611 53.000
71.65606 53.000
71.67601 67.000
71.69595 57.000
71.71590 67.000
71.73585 53.000
71.75579 59.000
71.77574 71.000
71.79569 86.000
71.81563 85.000
71.83558 83.000
71.85553 83.000
71.87548 102.000
71.89542 93.000
71.91537 86.000
71.93532 85.000
71.95526 60.000
71.97521 67.000
71.99516 82.000
72.01510 77.000
72.03505 72.000
72.05500 53.000
72.07495 62.000
72.09489 66.000
72.11484 61.000
72.13479 77.000
72.15473 49.000
72.17468 52.000
72.19463 46.000
72.21457 47.000
72.23452 49.000
72.25447 47.000
72.27441 47.000
72.29436 44.000
72.31431 43.000
72.33426 39.000
72.35420 26.000
72.37415 28.000
72.39410 43.000
72.41404 40.000
72.43399 38.000
72.45394 32.000
72.47388 29.000
72.49383 32.000
72.51378 49.000
72.53373 32.000
72.55367 22.000
72.57362 28.000
72.59357 41.000
72.61351 14.000
72.63346 34.000
72.65341 29.000
72.67335 25.000
72.69330 21.000
72.71325 37.000
72.73319 33.000
72.75314 32.000
72.77309 25.000
72.79304 21.000
72.81298 24.000
72.83293 34.000
72.85288 30.000
72.87282 28.000
72.89277 39.000
72.91272 27.000
72.93266 22.000
72.95261 21.000
72.97256 21.000
72.99251 17.000
73.01245 25.000
73.03240 35.000
73.05235 20.000
73.07229 25.000
73.09224 23.000
73.11219 24.000
73.13213 28.000
73.15208 26.000
73.17203 33.000
73.19197 26.000
73.21192 25.000
73.23187 23.000
73.25182 28.000
73.27176 25.000
73.29171 25.000
73.31166 18.000
73.33160 25.000
73.35155 26.000
73.37150 16.000
73.39144 23.000
73.41139 18.000
73.43134 19.000
73.45129 24.000
73.47123 21.000
73.49118 26.000
73.51113 19.000
73.53107 22.000
73.55102 23.000
73.57097 21.000
73.59091 21.000
73.61086 25.000
73.63081 25.000
73.65076 19.000
73.67070 30.000
73.69065 23.000
73.71060 13.000
73.73054 25.000
73.75049 25.000
73.77044 26.000
73.79038 28.000
73.81033 20.000
73.83028 23.000
73.85022 20.000
73.87017 16.000
73.89012 28.000
73.91007 22.000
73.93001 15.000
73.94996 25.000
73.96991 21.000
73.98985 24.000
74.00980 31.000
74.02975 24.000
74.04969 30.000
74.06964 18.000
74.08959 18.000
74.10954 14.000
74.12948 23.000
74.14943 17.000
74.16938 25.000
74.18932 18.000
74.20927 35.000
74.22922 21.000
74.24916 16.000
74.26911 31.000
74.28906 29.000
74.30900 27.000
74.32895 29.000
74.34890 33.000
74.36885 20.000
74.38879 26.000
74.40874 30.000
74.42869 27.000
74.44863 20.000
74.46858 32.000
74.48853 23.000
74.50847 24.000
74.52842 31.000
74.54837 30.000
74.56832 23.000
74.58826 30.000
74.60821 38.000
74.62816 15.000
74.64810 26.000
74.66805 28.000
74.68800 22.000
74.70794 28.000
74.72789 26.000
74.74784 29.000
74.76778 37.000
74.78773 36.000
74.80768 34.000
74.82763 31.000
74.84757 27.000
74.86752 32.000
74.88747 36.000
74.90741 36.000
74.92736 26.000
74.94731 28.000
74.96725 39.000
74.98720 31.000
75.00715 26.000
75.02710 29.000
75.04704 27.000
75.06699 23.000
75.08694 35.000
75.10688 33.000
75.12683 33.000
75.14678 42.000
75.16672 32.000
75.18667 33.000
75.20662 30.000
75.22657 40.000
75.24651 39.000
75.26646 38.000
75.28641 57.000
75.30635 47.000
75.32630 46.000
75.34625 52.000
75.36619 51.000
75.38614 54.000
75.40609 51.000
75.42603 61.000
75.44598 58.000
75.46593 56.000
75.48588 54.000
75.50582 40.000
75.52577 44.000
75.54572 44.000
75.56566 40.000
75.58561 36.000
75.60556 41.000
75.62550 48.000
75.64545 34.000
75.66540 36.000
75.68535 43.000
75.70529 35.000
75.72524 41.000
75.74519 27.000
75.76513 31.000
75.78508 33.000
75.80503 29.000
75.82497 21.000
75.84492 27.000
75.86487 35.000
75.88481 32.000
75.90476 20.000
75.92471 20.000
75.94466 25.000
75.96460 24.000
75.98455 19.000
76.00450 31.000
76.02444 26.000
76.04439 27.000
76.06434 27.000
76.08428 36.000
76.10423 30.000
76.12418 24.000
76.14413 29.000
76.16407 21.000
76.18402 21.000
76.20397 25.000
76.22391 19.000
76.24386 28.000
76.26381 23.000
76.28375 27.000
76.30370 18.000
76.32365 24.000
76.34359 18.000
76.36354 22.000
76.38349 24.000
76.40344 22.000
76.42338 18.000
76.44333 12.000
76.46328 29.000
76.48322 30.000
76.50317 27.000
76.52312 23.000
76.54306 16.000
76.56301 19.000
76.58296 22.000
76.60291 15.000
76.62285 14.000
76.64280 30.000
76.66275 20.000
76.68269 15.000
76.70264 14.000
76.72259 20.000
76.74253 27.000
76.76248 21.000
76.78243 20.000
76.80238 23.000
76.82232 25.000
76.84227 16.000
76.86222 20.000
76.88216 20.000
76.90211 20.000
76.92206 27.000
76.94200 22.000
76.96195 25.000
76.98190 17.000
77.00184 25.000
77.02179 20.000
77.04174 21.000
77.06169 26.000
77.08163 20.000
77.10158 23.000
77.12153 19.000
77.14147 23.000
77.16142 20.000
77.18137 23.000
77.20131 20.000
77.22126 22.000
77.24121 18.000
77.26116 18.000
77.28110 22.000
77.30105 33.000
77.32100 26.000
77.34094 24.000
77.36089 19.000
77.38084 31.000
77.40078 24.000
77.42073 25.000
77.44068 30.000
77.46062 24.000
77.48057 12.000
77.50052 32.000
77.52047 20.000
77.54041 22.000
77.56036 19.000
77.58031 31.000
77.60025 25.000
77.62020 29.000
77.64015 22.000
77.66009 29.000
77.68004 31.000
77.69999 15.000
77.71994 29.000
77.73988 24.000
77.75983 28.000
77.77978 36.000
77.79972 24.000
77.81967 29.000
77.83962 25.000
77.85956 21.000
77.87951 24.000
77.89946 15.000
77.91940 21.000
77.93935 28.000
77.95930 23.000
77.97925 18.000
77.99919 24.000
78.01914 24.000
78.03909 27.000
78.05903 20.000
78.07898 27.000
78.09893 18.000
78.11887 14.000
78.13882 14.000
78.15877 24.000
78.17872 23.000
78.19866 20.000
78.21861 21.000
78.23856 16.000
78.25850 20.000
78.27845 15.000
78.29840 20.000
78.31834 18.000
78.33829 20.000
78.35824 19.000
78.37819 27.000
78.39813 27.000
78.41808 18.000
78.43803 22.000
78.45797 20.000
78.47792 12.000
78.49787 12.000
78.51781 22.000
78.53776 28.000
78.55771 17.000
78.57765 25.000
78.59760 23.000
78.61755 28.000
78.63750 17.000
78.65744 27.000
78.67739 22.000
78.69734 28.000
78.71728 29.000
78.73723 27.000
78.75718 28.000
78.77712 20.000
78.79707 36.000
78.81702 19.000
78.83697 25.000
78.85691 22.000
78.87686 16.000
78.89681 26.000
78.91675 19.000
78.93670 32.000
78.95665 24.000
78.97659 28.000
78.99654 21.000
79.01649 22.000
79.03643 19.000
79.05638 19.000
79.07633 22.000
79.09628 17.000
79.11622 23.000
79.13617 18.000
79.15612 18.000
79.17606 21.000
79.19601 29.000
79.21596 25.000
79.23590 23.000
79.25585 26.000
79.27580 22.000
79.29575 22.000
79.31569 20.000
79.33564 13.000
79.35559 17.000
79.37553 18.000
79.39548 22.000
79.41543 16.000
79.43537 17.000
79.45532 21.000
79.47527 16.000
79.49521 17.000
79.51516 18.000
79.53511 23.000
79.55506 22.000
79.57500 12.000
79.59495 22.000
79.61490 20.000
79.63484 24.000
79.65479 19.000
79.67474 25.000
79.69468 11.000
79.71463 19.000
79.73458 18.000
79.75453 18.000
79.77447 15.000
79.79442 14.000
79.81437 22.000
79.83431 16.000
79.85426 18.000
79.87421 18.000
79.89415 18.000
79.91410 27.000
79.93405 26.000
79.95399 17.000
79.97394 24.000
79.99389 12.000
80.01384 21.000
80.03378 14.000
80.05373 19.000
80.07368 28.000
80.09362 25.000
80.11357 13.000
80.13352 26.000
80.15346 18.000
80.17341 24.000
80.19336 24.000
80.21331 24.000
80.23325 28.000
80.25320 15.000
80.27315 33.000
80.29309 33.000
80.31304 23.000
80.33299 17.000
80.35293 24.000
80.37288 20.000
80.39283 26.000
80.41278 23.000
80.43272 32.000
80.45267 32.000
80.47262 36.000
80.49256 28.000
80.51251 41.000
80.53246 34.000
80.55240 38.000
80.57235 44.000
80.59230 47.000
80.61224 42.000
80.63219 47.000
80.65214 37.000
80.67209 33.000
80.69203 43.000
80.71198 45.000
80.73193 32.000
80.75187 34.000
80.77182 30.000
80.79177 47.000
80.81171 35.000
80.83166 33.000
80.85161 31.000
80.87156 40.000
80.89150 46.000
80.91145 42.000
80.93140 32.000
80.95134 44.000
80.97129 44.000
80.99124 42.000
81.01118 33.000
81.03113 40.000
81.05108 37.000
81.07102 44.000
81.09097 31.000
81.11092 37.000
81.13087 33.000
81.15081 41.000
81.17076 54.000
81.19071 35.000
81.21065 39.000
81.23060 48.000
81.25055 39.000
81.27049 48.000
81.29044 52.000
81.31039 58.000
81.33034 55.000
81.35028 44.000
81.37023 41.000
81.39018 43.000
81.41012 52.000
81.43007 55.000
81.45002 44.000
81.46996 36.000
81.48991 34.000
81.50986 60.000
81.52980 58.000
81.54975 41.000
81.56970 35.000
81.58965 48.000
81.60959 50.000
81.62954 41.000
81.64949 51.000
81.66943 54.000
81.68938 46.000
81.70933 52.000
81.72927 63.000
81.74922 55.000
81.76917 47.000
81.78912 44.000
81.80906 39.000
81.82901 41.000
81.84896 42.000
81.86890 41.000
81.88885 50.000
81.90880 40.000
81.92874 36.000
81.94869 38.000
81.96864 40.000
81.98859 39.000
82.00853 41.000
82.02848 27.000
82.04843 21.000
82.06837 36.000
82.08832 33.000
82.10827 29.000
82.12821 30.000
82.14816 38.000
82.16811 37.000
82.18805 28.000
82.20800 27.000
82.22795 24.000
82.24790 31.000
82.26784 32.000
82.28779 35.000
82.30774 24.000
82.32768 28.000
82.34763 32.000
82.36758 32.000
82.38752 33.000
82.40747 20.000
82.42742 33.000
82.44737 34.000
82.46731 27.000
82.48726 29.000
82.50721 24.000
82.52715 25.000
82.54710 26.000
82.56705 23.000
82.58699 33.000
82.60694 17.000
82.62689 22.000
82.64683 29.000
82.66678 25.000
82.68673 34.000
82.70668 31.000
82.72662 28.000
82.74657 30.000
82.76652 24.000
82.78646 38.000
82.80641 39.000
82.82636 57.000
82.84630 42.000
82.86625 47.000
82.88620 46.000
82.90615 45.000
82.92609 48.000
82.94604 41.000
82.96599 35.000
82.98593 38.000
83.00588 39.000
83.02583 33.000
83.04577 34.000
83.06572 31.000
83.08567 31.000
83.10561 26.000
83.12556 30.000
83.14551 38.000
83.16546 19.000
83.18540 29.000
83.20535 32.000
83.22530 27.000
83.24524 39.000
83.26519 25.000
83.28514 18.000
83.30508 24.000
83.32503 33.000
83.34498 28.000
83.36493 27.000
83.38487 26.000
83.40482 20.000
83.42477 30.000
83.44471 22.000
83.46466 18.000
83.48461 25.000
83.50455 27.000
83.52450 25.000
83.54445 26.000
83.56440 26.000
83.58434 26.000
83.60429 20.000
83.62424 26.000
83.64418 21.000
83.66413 16.000
83.68408 25.000
83.70402 28.000
83.72397 19.000
83.74392 13.000
83.76386 23.000
83.78381 18.000
83.80376 10.000
83.82371 12.000
83.84365 23.000
83.86360 20.000
83.88355 20.000
83.90349 18.000
83.92344 19.000
83.94339 22.000
83.96333 12.000
83.98328 19.000
84.00323 16.000
84.02318 20.000
84.04312 16.000
84.06307 21.000
84.08302 23.000
84.10296 14.000
84.12291 22.000
84.14286 28.000
84.16280 21.000
84.18275 20.000
84.20270 24.000
84.22264 17.000
84.24259 18.000
84.26254 22.000
84.28249 20.000
84.30243 13.000
84.32238 19.000
84.34233 24.000
84.36227 26.000
84.38222 18.000
84.40217 23.000
84.42211 20.000
84.44206 16.000
84.46201 20.000
84.48196 23.000
84.50190 22.000
84.52185 22.000
84.54180 18.000
84.56174 26.000
84.58169 28.000
84.60164 33.000
84.62158 37.000
84.64153 32.000
84.66148 33.000
84.68142 27.000
84.70137 35.000
84.72132 41.000
84.74127 51.000
84.76121 52.000
84.78116 49.000
84.80111 54.000
84.82105 51.000
84.84100 45.000
84.86095 45.000
84.88089 57.000
84.90084 54.000
84.92079 45.000
84.94074 59.000
84.96068 44.000
84.98063 43.000
85.00058 43.000
85.02052 38.000
85.04047 35.000
85.06042 40.000
85.08036 38.000
85.10031 37.000
85.12026 40.000
85.14021 44.000
85.16015 53.000
85.18010 43.000
85.20005 41.000
85.21999 38.000
85.23994 36.000
85.25989 32.000
85.27983 28.000
85.29978 33.000
85.31973 24.000
85.33967 37.000
85.35962 30.000
85.37957 27.000
85.39952 33.000
85.41946 20.000
85.43941 17.000
85.45936 33.000
85.47930 23.000
85.49925 14.000
85.51920 32.000
85.53914 19.000
85.55909 22.000
85.57904 15.000
85.59899 19.000
85.61893 29.000
85.63888 26.000
85.65883 21.000
85.67877 26.000
85.69872 30.000
85.71867 15.000
85.73861 19.000
85.75856 14.000
85.77851 20.000
85.79845 16.000
85.81840 25.000
85.83835 14.000
85.85830 17.000
85.87824 12.000
85.89819 19.000
85.91814 18.000
85.93808 15.000
85.95803 20.000
85.97798 23.000
85.99792 15.000
86.01787 23.000
86.03782 22.000
86.05777 19.000
86.07771 21.000
86.09766 14.000
86.11761 25.000
86.13755 18.000
86.15750 24.000
86.17745 17.000
86.19739 25.000
86.21734 23.000
86.23729 27.000
86.25723 18.000
86.27718 20.000
86.29713 13.000
86.31708 23.000
86.33702 15.000
86.35697 21.000
86.37692 14.000
86.39686 30.000
86.41681 22.000
86.43676 15.000
86.45670 19.000
86.47665 17.000
86.49660 24.000
86.51655 18.000
86.53649 20.000
86.55644 24.000
86.57639 18.000
86.59633 27.000
86.61628 20.000
86.63623 19.000
86.65617 21.000
86.67612 19.000
86.69607 23.000
86.71602 16.000
86.73596 20.000
86.75591 21.000
86.77586 19.000
86.79580 28.000
86.81575 23.000
86.83570 23.000
86.85564 24.000
86.87559 18.000
86.89554 18.000
86.91548 21.000
86.93543 17.000
86.95538 26.000
86.97533 17.000
86.99527 15.000
87.01522 19.000
87.03517 20.000
87.05511 24.000
87.07506 13.000
87.09501 30.000
87.11495 23.000
87.13490 22.000
87.15485 22.000
87.17480 25.000
87.19474 19.000
87.21469 34.000
87.23464 20.000
87.25458 12.000
87.27453 28.000
87.29448 24.000
87.31442 19.000
87.33437 17.000
87.35432 15.000
87.37426 19.000
87.39421 26.000
87.41416 26.000
87.43411 24.000
87.45405 14.000
87.47400 26.000
87.49395 20.000
87.51389 16.000
87.53384 18.000
87.55379 16.000
87.57373 25.000
87.59368 24.000
87.61363 20.000
87.63358 24.000
87.65352 27.000
87.67347 20.000
87.69342 24.000
87.71336 19.000
87.73331 21.000
87.75326 23.000
87.77320 20.000
87.79315 21.000
87.81310 18.000
87.83304 28.000
87.85299 28.000
87.87294 31.000
87.89289 16.000
87.91283 19.000
87.93278 19.000
87.95273 20.000
87.97267 25.000
87.99262 23.000
88.01257 24.000
88.03251 21.000
88.05246 21.000
88.07241 17.000
88.09236 21.000
88.11230 14.000
88.13225 17.000
88.15220 25.000
88.17214 19.000
88.19209 29.000
88.21204 17.000
88.23198 26.000
88.25193 16.000
88.27188 19.000
88.29183 19.000
88.31177 26.000
88.33172 26.000
88.35167 21.000
88.37161 33.000
88.39156 28.000
88.41151 37.000
88.43145 33.000
88.45140 29.000
88.47135 40.000
88.49129 39.000
88.51124 37.000
88.53119 42.000
88.55114 49.000
88.57108 43.000
88.59103 31.000
88.61098 45.000
88.63092 43.000
88.65087 34.000
88.67082 39.000
88.69076 31.000
88.71071 35.000
88.73066 37.000
88.75061 32.000
88.77055 32.000
88.79050 35.000
88.81045 36.000
88.83039 32.000
88.85034 19.000
88.87029 22.000
88.89023 22.000
88.91018 27.000
88.93013 31.000
88.95007 20.000
88.97002 28.000
88.98997 24.000
89.00992 17.000
89.02986 23.000
89.04981 22.000
89.06976 16.000
89.08970 16.000
89.10965 17.000
89.12960 14.000
89.14954 25.000
89.16949 18.000
89.18944 17.000
89.20939 22.000
89.22933 12.000
89.24928 15.000
89.26923 21.000
89.28917 17.000
89.30912 17.000
89.32907 15.000
89.34901 19.000
89.36896 13.000
89.38891 20.000
89.40885 22.000
89.42880 14.000
89.44875 18.000
89.46870 17.000
89.48864 13.000
89.50859 27.000
89.52854 15.000
89.54848 19.000
89.56843 12.000
89.58838 16.000
89.60832 16.000
89.62827 13.000
89.64822 13.000
89.66817 18.000
89.68811 18.000
89.70806 13.000
89.72801 24.000
89.74795 24.000
89.76790 21.000
89.78785 17.000
89.80779 11.000
89.82774 15.000
89.84769 22.000
89.86764 21.000
89.88758 18.000
89.90753 15.000
89.92748 27.000
89.94742 21.000
89.96737 21.000
89.98732 20.000
90.00726 13.000
