10.00000 153.000
10.01995 149.000
10.03989 151.000
10.05984 152.000
10.07979 134.000
10.09973 160.000
10.11968 154.000
10.13963 146.000
10.15958 175.000
10.17952 143.000
10.19947 134.000
10.21942 153.000
10.23936 122.000
10.25931 127.000
10.27926 155.000
10.29920 134.000
10.31915 166.000
10.33910 127.000
10.35905 141.000
10.37899 155.000
10.39894 143.000
10.41889 166.000
10.43883 165.000
10.45878 143.000
10.47873 154.000
10.49867 145.000
10.51862 159.000
10.53857 138.000
10.55851 155.000
10.57846 149.000
10.59841 150.000
10.61836 169.000
10.63830 146.000
10.65825 151.000
10.67820 129.000
10.69814 146.000
10.71809 138.000
10.73804 159.000
10.75798 144.000
10.77793 156.000
10.79788 146.000
10.81783 148.000
10.83777 131.000
10.85772 144.000
10.87767 142.000
10.89761 143.000
10.91756 142.000
10.93751 160.000
10.95745 124.000
10.97740 141.000
10.99735 155.000
11.01730 137.000
11.03724 163.000
11.05719 143.000
11.07714 131.000
11.09708 157.000
11.11703 144.000
11.13698 146.000
11.15692 152.000
11.17687 155.000
11.19682 149.000
11.21676 159.000
11.23671 132.000
11.25666 148.000
11.27661 153.000
11.29655 169.000
11.31650 164.000
11.33645 158.000
11.35639 137.000
11.37634 130.000
11.39629 143.000
11.41623 124.000
11.43618 142.000
11.45613 144.000
11.47608 169.000
11.49602 162.000
11.51597 161.000
11.53592 164.000
11.55586 137.000
11.57581 131.000
11.59576 146.000
11.61570 143.000
11.63565 136.000
11.65560 131.000
11.67554 150.000
11.69549 153.000
11.71544 132.000
11.73539 147.000
11.75533 133.000
11.77528 164.000
11.79523 165.000
11.81517 179.000
11.83512 153.000
11.85507 150.000
11.87501 129.000
11.89496 140.000
11.91491 148.000
11.93486 136.000
11.95480 144.000
11.97475 127.000
11.99470 155.000
12.01464 134.000
12.03459 150.000
12.05454 155.000
12.07448 150.000
12.09443 151.000
12.11438 142.000
12.13432 154.000
12.15427 143.000
12.17422 161.000
12.19417 149.000
12.21411 146.000
12.23406 144.000
12.25401 147.000
12.27395 151.000
12.29390 140.000
12.31385 150.000
12.33379 127.000
12.35374 157.000
12.37369 156.000
12.39364 177.000
12.41358 134.000
12.43353 152.000
12.45348 156.000
12.47342 147.000
12.49337 150.000
12.51332 144.000
12.53326 153.000
12.55321 138.000
12.57316 150.000
12.59311 174.000
12.61305 154.000
12.63300 146.000
12.65295 148.000
12.67289 141.000
12.69284 163.000
12.71279 134.000
12.73273 131.000
12.75268 136.000
12.77263 161.000
12.79257 161.000
12.81252 127.000
12.83247 133.000
12.85242 143.000
12.87236 167.000
12.89231 144.000
12.91226 132.000
12.93220 153.000
12.95215 154.000
12.97210 147.000
12.99204 162.000
13.01199 159.000
13.03194 158.000
13.05189 132.000
13.07183 163.000
13.09178 137.000
13.11173 160.000
13.13167 156.000
13.15162 134.000
13.17157 152.000
13.19151 133.000
13.21146 163.000
13.23141 144.000
13.25135 149.000
13.27130 131.000
13.29125 145.000
13.31120 123.000
13.33114 137.000
13.35109 149.000
13.37104 175.000
13.39098 170.000
13.41093 152.000
13.43088 137.000
13.45082 156.000
13.47077 167.000
13.49072 145.000
13.51067 154.000
13.53061 162.000
13.55056 148.000
13.57051 165.000
13.59045 162.000
13.61040 135.000
13.63035 157.000
13.65029 153.000
13.67024 158.000
13.69019 160.000
13.71013 165.000
13.73008 170.000
13.75003 136.000
13.76998 149.000
13.78992 151.000
13.80987 163.000
13.82982 145.000
13.84976 166.000
13.86971 146.000
13.88966 142.000
13.90960 182.000
13.92955 148.000
13.94950 155.000
13.96945 157.000
13.98939 162.000
14.00934 163.000
14.02929 144.000
14.04923 131.000
14.06918 151.000
14.08913 152.000
14.10907 145.000
14.12902 152.000
14.14897 165.000
14.16892 150.000
14.18886 129.000
14.20881 168.000
14.22876 141.000
14.24870 185.000
14.26865 191.000
14.28860 167.000
14.30854 171.000
14.32849 170.000
14.34844 150.000
14.36838 166.000
14.38833 167.000
14.40828 140.000
14.42823 179.000
14.44817 147.000
14.46812 145.000
14.48807 150.000
14.50801 164.000
14.52796 177.000
14.54791 137.000
14.56785 161.000
14.58780 138.000
14.60775 161.000
14.62770 161.000
14.64764 181.000
14.66759 164.000
14.68754 159.000
14.70748 138.000
14.72743 174.000
14.74738 155.000
14.76732 172.000
14.78727 178.000
14.80722 155.000
14.82716 165.000
14.84711 161.000
14.86706 153.000
14.88701 193.000
14.90695 156.000
14.92690 164.000
14.94685 185.000
14.96679 156.000
14.98674 205.000
15.00669 183.000
15.02663 180.000
15.04658 174.000
15.06653 184.000
15.08648 191.000
15.10642 216.000
15.12637 257.000
15.14632 246.000
15.16626 241.000
15.18621 238.000
15.20616 199.000
15.22610 208.000
15.24605 209.000
15.26600 244.000
15.28594 245.000
15.30589 226.000
15.32584 236.000
15.34579 207.000
15.36573 210.000
15.38568 263.000
15.40563 254.000
15.42557 258.000
15.44552 240.000
15.46547 284.000
15.48541 299.000
15.50536 327.000
15.52531 334.000
15.54526 372.000
15.56520 379.000
15.58515 391.000
15.60510 474.000
15.62504 602.000
15.64499 669.000
15.66494 864.000
15.68488 1312.000
15.70483 1913.000
15.72478 3079.000
15.74472 5306.000
15.76467 9710.000
15.78462 16291.000
15.80457 22200.000
15.82451 22312.000
15.84446 17045.000
15.86441 10414.000
15.88435 5412.000
15.90430 2437.000
15.92425 1366.000
15.94419 1055.000
15.96414 975.000
15.98409 1005.000
16.00404 1141.000
16.02398 1371.000
16.04393 1454.000
16.06388 1430.000
16.08382 1226.000
16.10377 825.000
16.12372 624.000
16.14366 486.000
16.16361 367.000
16.18356 345.000
16.20351 295.000
16.22345 303.000
16.24340 249.000
16.26335 257.000
16.28329 266.000
16.30324 246.000
16.32319 205.000
16.34313 241.000
16.36308 230.000
16.38303 217.000
16.40297 231.000
16.42292 228.000
16.44287 222.000
16.46282 223.000
16.48276 201.000
16.50271 206.000
16.52266 177.000
16.54260 173.000
16.56255 195.000
16.58250 192.000
16.60244 188.000
16.62239 194.000
16.64234 171.000
16.66229 159.000
16.68223 159.000
16.70218 203.000
16.72213 162.000
16.74207 182.000
16.76202 173.000
16.78197 200.000
16.80191 177.000
16.82186 147.000
16.84181 178.000
16.86175 187.000
16.88170 189.000
16.90165 168.000
16.92160 167.000
16.94154 165.000
16.96149 158.000
16.98144 182.000
17.00138 175.000
17.02133 159.000
17.04128 176.000
17.06122 182.000
17.08117 177.000
17.10112 174.000
17.12107 158.000
17.14101 153.000
17.16096 173.000
17.18091 138.000
17.20085 148.000
17.22080 139.000
17.24075 148.000
17.26069 160.000
17.28064 172.000
17.30059 154.000
17.32053 124.000
17.34048 160.000
17.36043 139.000
17.38038 164.000
17.40032 150.000
17.42027 160.000
17.44022 152.000
17.46016 155.000
17.48011 146.000
17.50006 162.000
17.52000 160.000
17.53995 158.000
17.55990 138.000
17.57985 118.000
17.59979 160.000
17.61974 148.000
17.63969 149.000
17.65963 162.000
17.67958 155.000
17.69953 172.000
17.71947 175.000
17.73942 143.000
17.75937 171.000
17.77932 173.000
17.79926 165.000
17.81921 165.000
17.83916 136.000
17.85910 165.000
17.87905 184.000
17.89900 173.000
17.91894 148.000
17.93889 151.000
17.95884 150.000
17.97878 180.000
17.99873 162.000
18.01868 165.000
18.03863 122.000
18.05857 131.000
18.07852 131.000
18.09847 151.000
18.11841 152.000
18.13836 168.000
18.15831 159.000
18.17825 161.000
18.19820 169.000
18.21815 193.000
18.23810 207.000
18.25804 243.000
18.27799 192.000
18.29794 216.000
18.31788 156.000
18.33783 139.000
18.35778 140.000
18.37772 140.000
18.39767 142.000
18.41762 155.000
18.43756 171.000
18.45751 158.000
18.47746 149.000
18.49741 168.000
18.51735 158.000
18.53730 144.000
18.55725 160.000
18.57719 120.000
18.59714 154.000
18.61709 134.000
18.63703 155.000
18.65698 143.000
18.67693 147.000
18.69688 145.000
18.71682 153.000
18.73677 145.000
18.75672 156.000
18.77666 150.000
18.79661 141.000
18.81656 115.000
18.83650 154.000
18.85645 148.000
18.87640 137.000
18.89634 148.000
18.91629 141.000
18.93624 164.000
18.95619 156.000
18.97613 165.000
18.99608 169.000
19.01603 151.000
19.03597 165.000
19.05592 144.000
19.07587 141.000
19.09581 168.000
19.11576 142.000
19.13571 142.000
19.15566 161.000
19.17560 150.000
19.19555 160.000
19.21550 150.000
19.23544 140.000
19.25539 155.000
19.27534 167.000
19.29528 155.000
19.31523 160.000
19.33518 163.000
19.35513 148.000
19.37507 162.000
19.39502 149.000
19.41497 142.000
19.43491 112.000
19.45486 171.000
19.47481 164.000
19.49475 179.000
19.51470 165.000
19.53465 133.000
19.55459 160.000
19.57454 139.000
19.59449 159.000
19.61444 141.000
19.63438 151.000
19.65433 144.000
19.67428 143.000
19.69422 167.000
19.71417 152.000
19.73412 163.000
19.75406 154.000
19.77401 164.000
19.79396 154.000
19.81391 164.000
19.83385 154.000
19.85380 150.000
19.87375 147.000
19.89369 153.000
19.91364 150.000
19.93359 141.000
19.95353 154.000
19.97348 150.000
19.99343 138.000
20.01337 167.000
20.03332 143.000
20.05327 127.000
20.07322 150.000
20.09316 152.000
20.11311 144.000
20.13306 136.000
20.15300 160.000
20.17295 148.000
20.19290 131.000
20.21284 167.000
20.23279 137.000
20.25274 160.000
20.27269 193.000
20.29263 162.000
20.31258 168.000
20.33253 167.000
20.35247 128.000
20.37242 150.000
20.39237 139.000
20.41231 144.000
20.43226 151.000
20.45221 164.000
20.47215 150.000
20.49210 147.000
20.51205 170.000
20.53200 148.000
20.55194 159.000
20.57189 163.000
20.59184 157.000
20.61178 166.000
20.63173 168.000
20.65168 134.000
20.67162 146.000
20.69157 153.000
20.71152 161.000
20.73147 145.000
20.75141 175.000
20.77136 168.000
20.79131 160.000
20.81125 191.000
20.83120 165.000
20.85115 220.000
20.87109 227.000
20.89104 259.000
20.91099 249.000
20.93094 256.000
20.95088 260.000
20.97083 259.000
20.99078 275.000
21.01072 231.000
21.03067 250.000
21.05062 225.000
21.07056 241.000
21.09051 197.000
21.11046 213.000
21.13040 190.000
21.15035 161.000
21.17030 171.000
21.19025 145.000
21.21019 168.000
21.23014 156.000
21.25009 140.000
21.27003 176.000
21.28998 139.000
21.30993 172.000
21.32987 136.000
21.34982 140.000
21.36977 150.000
21.38972 132.000
21.40966 158.000
21.42961 170.000
21.44956 149.000
21.46950 159.000
21.48945 151.000
21.50940 158.000
21.52934 162.000
21.54929 155.000
21.56924 131.000
21.58918 126.000
21.60913 134.000
21.62908 148.000
21.64903 131.000
21.66897 146.000
21.68892 147.000
21.70887 158.000
21.72881 142.000
21.74876 145.000
21.76871 141.000
21.78865 148.000
21.80860 153.000
21.82855 151.000
21.84850 144.000
21.86844 162.000
21.88839 155.000
21.90834 145.000
21.92828 142.000
21.94823 147.000
21.96818 150.000
21.98812 162.000
22.00807 166.000
22.02802 135.000
22.04796 139.000
22.06791 177.000
22.08786 176.000
22.10781 177.000
22.12775 151.000
22.14770 158.000
22.16765 125.000
22.18759 163.000
22.20754 135.000
22.22749 171.000
22.24743 137.000
22.26738 160.000
22.28733 137.000
22.30728 153.000
22.32722 180.000
22.34717 156.000
22.36712 176.000
22.38706 157.000
22.40701 176.000
22.42696 134.000
22.44690 130.000
22.46685 167.000
22.48680 133.000
22.50675 150.000
22.52669 152.000
22.54664 148.000
22.56659 161.000
22.58653 186.000
22.60648 160.000
22.62643 144.000
22.64637 171.000
22.66632 155.000
22.68627 139.000
22.70621 161.000
22.72616 160.000
22.74611 143.000
22.76606 143.000
22.78600 153.000
22.80595 130.000
22.82590 175.000
22.84584 147.000
22.86579 148.000
22.88574 154.000
22.90568 158.000
22.92563 154.000
22.94558 144.000
22.96553 146.000
22.98547 170.000
23.00542 138.000
23.02537 154.000
23.04531 156.000
23.06526 152.000
23.08521 170.000
23.10515 144.000
23.12510 142.000
23.14505 153.000
23.16499 158.000
23.18494 165.000
23.20489 158.000
23.22484 163.000
23.24478 143.000
23.26473 147.000
23.28468 150.000
23.30462 156.000
23.32457 151.000
23.34452 161.000
23.36446 151.000
23.38441 169.000
23.40436 132.000
23.42431 161.000
23.44425 172.000
23.46420 148.000
23.48415 168.000
23.50409 171.000
23.52404 153.000
23.54399 175.000
23.56393 176.000
23.58388 146.000
23.60383 162.000
23.62377 158.000
23.64372 145.000
23.66367 167.000
23.68362 153.000
23.70356 173.000
23.72351 154.000
23.74346 163.000
23.76340 155.000
23.78335 151.000
23.80330 144.000
23.82324 159.000
23.84319 152.000
23.86314 157.000
23.88309 136.000
23.90303 158.000
23.92298 169.000
23.94293 148.000
23.96287 161.000
23.98282 179.000
24.00277 157.000
24.02271 144.000
24.04266 186.000
24.06261 159.000
24.08256 150.000
24.10250 157.000
24.12245 149.000
24.14240 172.000
24.16234 167.000
24.18229 184.000
24.20224 144.000
24.22218 131.000
24.24213 149.000
24.26208 148.000
24.28202 137.000
24.30197 154.000
24.32192 142.000
24.34187 170.000
24.36181 180.000
24.38176 149.000
24.40171 141.000
24.42165 154.000
24.44160 161.000
24.46155 150.000
24.48149 156.000
24.50144 143.000
24.52139 171.000
24.54134 158.000
24.56128 135.000
24.58123 147.000
24.60118 160.000
24.62112 142.000
24.64107 149.000
24.66102 161.000
24.68096 166.000
24.70091 158.000
24.72086 165.000
24.74080 178.000
24.76075 163.000
24.78070 171.000
24.80065 174.000
24.82059 149.000
24.84054 143.000
24.86049 178.000
24.88043 178.000
24.90038 168.000
24.92033 171.000
24.94027 170.000
24.96022 158.000
24.98017 161.000
25.00012 179.000
25.02006 171.000
25.04001 146.000
25.05996 160.000
25.07990 159.000
25.09985 154.000
25.11980 168.000
25.13974 192.000
25.15969 168.000
25.17964 143.000
25.19958 161.000
25.21953 142.000
25.23948 150.000
25.25943 160.000
25.27937 155.000
25.29932 156.000
25.31927 128.000
25.33921 155.000
25.35916 175.000
25.37911 159.000
25.39905 162.000
25.41900 146.000
25.43895 150.000
25.45890 141.000
25.47884 170.000
25.49879 148.000
25.51874 190.000
25.53868 171.000
25.55863 142.000
25.57858 156.000
25.59852 159.000
25.61847 156.000
25.63842 164.000
25.65837 161.000
25.67831 151.000
25.69826 146.000
25.71821 159.000
25.73815 141.000
25.75810 181.000
25.77805 148.000
25.79799 174.000
25.81794 139.000
25.83789 166.000
25.85783 150.000
25.87778 171.000
25.89773 166.000
25.91768 140.000
25.93762 152.000
25.95757 127.000
25.97752 151.000
25.99746 156.000
26.01741 170.000
26.03736 155.000
26.05730 161.000
26.07725 162.000
26.09720 167.000
26.11715 175.000
26.13709 138.000
26.15704 161.000
26.17699 145.000
26.19693 175.000
26.21688 142.000
26.23683 156.000
26.25677 152.000
26.27672 171.000
26.29667 175.000
26.31661 146.000
26.33656 163.000
26.35651 187.000
26.37646 151.000
26.39640 183.000
26.41635 149.000
26.43630 176.000
26.45624 144.000
26.47619 164.000
26.49614 135.000
26.51608 199.000
26.53603 159.000
26.55598 169.000
26.57593 147.000
26.59587 159.000
26.61582 173.000
26.63577 155.000
26.65571 141.000
26.67566 167.000
26.69561 156.000
26.71555 157.000
26.73550 150.000
26.75545 188.000
26.77539 178.000
26.79534 129.000
26.81529 169.000
26.83524 165.000
26.85518 169.000
26.87513 138.000
26.89508 164.000
26.91502 146.000
26.93497 178.000
26.95492 178.000
26.97486 159.000
26.99481 180.000
27.01476 169.000
27.03471 166.000
27.05465 153.000
27.07460 170.000
27.09455 188.000
27.11449 167.000
27.13444 161.000
27.15439 169.000
27.17433 173.000
27.19428 152.000
27.21423 160.000
27.23417 160.000
27.25412 154.000
27.27407 155.000
27.29402 173.000
27.31396 161.000
27.33391 164.000
27.35386 167.000
27.37380 183.000
27.39375 177.000
27.41370 186.000
27.43364 174.000
27.45359 174.000
27.47354 163.000
27.49349 174.000
27.51343 160.000
27.53338 181.000
27.55333 157.000
27.57327 178.000
27.59322 166.000
27.61317 162.000
27.63311 152.000
27.65306 153.000
27.67301 150.000
27.69296 151.000
27.71290 173.000
27.73285 148.000
27.75280 163.000
27.77274 157.000
27.79269 168.000
27.81264 169.000
27.83258 173.000
27.85253 149.000
27.87248 158.000
27.89242 163.000
27.91237 154.000
27.93232 170.000
27.95227 183.000
27.97221 168.000
27.99216 169.000
28.01211 168.000
28.03205 158.000
28.05200 157.000
28.07195 187.000
28.09189 180.000
28.11184 177.000
28.13179 151.000
28.15174 178.000
28.17168 216.000
28.19163 175.000
28.21158 164.000
28.23152 164.000
28.25147 186.000
28.27142 163.000
28.29136 146.000
28.31131 159.000
28.33126 170.000
28.35120 164.000
28.37115 199.000
28.39110 163.000
28.41105 162.000
28.43099 152.000
28.45094 181.000
28.47089 151.000
28.49083 169.000
28.51078 171.000
28.53073 180.000
28.55067 178.000
28.57062 155.000
28.59057 157.000
28.61052 167.000
28.63046 152.000
28.65041 162.000
28.67036 147.000
28.69030 159.000
28.71025 160.000
28.73020 169.000
28.75014 158.000
28.77009 156.000
28.79004 188.000
28.80998 157.000
28.82993 168.000
28.84988 154.000
28.86983 177.000
28.88977 181.000
28.90972 166.000
28.92967 183.000
28.94961 156.000
28.96956 177.000
28.98951 148.000
29.00945 176.000
29.02940 172.000
29.04935 159.000
29.06930 153.000
29.08924 183.000
29.10919 197.000
29.12914 178.000
29.14908 150.000
29.16903 179.000
29.18898 166.000
29.20892 176.000
29.22887 175.000
29.24882 185.000
29.26877 184.000
29.28871 177.000
29.30866 167.000
29.32861 171.000
29.34855 199.000
29.36850 207.000
29.38845 185.000
29.40839 176.000
29.42834 170.000
29.44829 202.000
29.46823 178.000
29.48818 197.000
29.50813 160.000
29.52808 204.000
29.54802 183.000
29.56797 167.000
29.58792 186.000
29.60786 175.000
29.62781 168.000
29.64776 189.000
29.66770 184.000
29.68765 168.000
29.70760 151.000
29.72755 183.000
29.74749 164.000
29.76744 166.000
29.78739 156.000
29.80733 170.000
29.82728 159.000
29.84723 169.000
29.86717 181.000
29.88712 183.000
29.90707 173.000
29.92701 202.000
29.94696 209.000
29.96691 274.000
29.98686 273.000
30.00680 292.000
30.02675 270.000
30.04670 260.000
30.06664 249.000
30.08659 245.000
30.10654 222.000
30.12648 224.000
30.14643 196.000
30.16638 176.000
30.18633 190.000
30.20627 185.000
30.22622 200.000
30.24617 166.000
30.26611 168.000
30.28606 159.000
30.30601 153.000
30.32595 173.000
30.34590 184.000
30.36585 202.000
30.38579 162.000
30.40574 187.000
30.42569 154.000
30.44564 174.000
30.46558 161.000
30.48553 149.000
30.50548 187.000
30.52542 198.000
30.54537 181.000
30.56532 203.000
30.58526 187.000
30.60521 190.000
30.62516 175.000
30.64511 184.000
30.66505 175.000
30.68500 201.000
30.70495 196.000
30.72489 189.000
30.74484 154.000
30.76479 162.000
30.78473 167.000
30.80468 189.000
30.82463 157.000
30.84458 186.000
30.86452 170.000
30.88447 159.000
30.90442 152.000
30.92436 168.000
30.94431 164.000
30.96426 167.000
30.98420 194.000
31.00415 190.000
31.02410 176.000
31.04404 186.000
31.06399 185.000
31.08394 162.000
31.10389 174.000
31.12383 188.000
31.14378 188.000
31.16373 180.000
31.18367 195.000
31.20362 172.000
31.22357 192.000
31.24351 169.000
31.26346 180.000
31.28341 177.000
31.30336 207.000
31.32330 184.000
31.34325 157.000
31.36320 180.000
31.38314 159.000
31.40309 158.000
31.42304 204.000
31.44298 181.000
31.46293 176.000
31.48288 202.000
31.50282 179.000
31.52277 197.000
31.54272 184.000
31.56267 182.000
31.58261 188.000
31.60256 197.000
31.62251 198.000
31.64245 194.000
31.66240 204.000
31.68235 224.000
31.70229 239.000
31.72224 239.000
31.74219 273.000
31.76214 323.000
31.78208 319.000
31.80203 438.000
31.82198 666.000
31.84192 849.000
31.86187 1209.000
31.88182 1459.000
31.90176 1551.000
31.92171 1713.000
31.94166 1443.000
31.96160 1224.000
31.98155 1102.000
32.00150 902.000
32.02145 708.000
32.04139 523.000
32.06134 377.000
32.08129 284.000
32.10123 260.000
32.12118 227.000
32.14113 224.000
32.16107 243.000
32.18102 195.000
32.20097 205.000
32.22092 223.000
32.24086 209.000
32.26081 204.000
32.28076 224.000
32.30070 212.000
32.32065 235.000
32.34060 226.000
32.36054 279.000
32.38049 280.000
32.40044 277.000
32.42039 262.000
32.44033 250.000
32.46028 239.000
32.48023 288.000
32.50017 276.000
32.52012 278.000
32.54007 279.000
32.56001 292.000
32.57996 274.000
32.59991 273.000
32.61985 292.000
32.63980 281.000
32.65975 245.000
32.67970 187.000
32.69964 196.000
32.71959 179.000
32.73954 182.000
32.75948 163.000
32.77943 193.000
32.79938 158.000
32.81932 188.000
32.83927 168.000
32.85922 195.000
32.87917 157.000
32.89911 170.000
32.91906 172.000
32.93901 145.000
32.95895 193.000
32.97890 199.000
32.99885 216.000
33.01879 162.000
33.03874 190.000
33.05869 179.000
33.07863 150.000
33.09858 185.000
33.11853 179.000
33.13848 135.000
33.15842 179.000
33.17837 160.000
33.19832 161.000
33.21826 181.000
33.23821 167.000
33.25816 180.000
33.27810 169.000
33.29805 199.000
33.31800 176.000
33.33795 183.000
33.35789 165.000
33.37784 167.000
33.39779 179.000
33.41773 190.000
33.43768 169.000
33.45763 199.000
33.47757 174.000
33.49752 164.000
33.51747 190.000
33.53741 167.000
33.55736 179.000
33.57731 197.000
33.59726 187.000
33.61720 169.000
33.63715 150.000
33.65710 188.000
33.67704 170.000
33.69699 202.000
33.71694 170.000
33.73688 163.000
33.75683 167.000
33.77678 163.000
33.79673 165.000
33.81667 154.000
33.83662 174.000
33.85657 195.000
33.87651 178.000
33.89646 202.000
33.91641 141.000
33.93635 167.000
33.95630 165.000
33.97625 172.000
33.99620 178.000
34.01614 167.000
34.03609 197.000
34.05604 210.000
34.07598 182.000
34.09593 164.000
34.11588 194.000
34.13582 174.000
34.15577 189.000
34.17572 207.000
34.19566 178.000
34.21561 182.000
34.23556 188.000
34.25551 226.000
34.27545 185.000
34.29540 216.000
34.31535 213.000
34.33529 213.000
34.35524 200.000
34.37519 254.000
34.39513 233.000
34.41508 293.000
34.43503 263.000
34.45498 285.000
34.47492 273.000
34.49487 260.000
34.51482 292.000
34.53476 267.000
34.55471 278.000
34.57466 285.000
34.59460 275.000
34.61455 274.000
34.63450 243.000
34.65444 255.000
34.67439 247.000
34.69434 242.000
34.71429 235.000
34.73423 203.000
34.75418 223.000
34.77413 205.000
34.79407 222.000
34.81402 187.000
34.83397 206.000
34.85391 229.000
34.87386 210.000
34.89381 201.000
34.91376 214.000
34.93370 211.000
34.95365 206.000
34.97360 177.000
34.99354 203.000
35.01349 213.000
35.03344 213.000
35.05338 196.000
35.07333 178.000
35.09328 198.000
35.11322 213.000
35.13317 233.000
35.15312 229.000
35.17307 222.000
35.19301 261.000
35.21296 275.000
35.23291 328.000
35.25285 355.000
35.27280 399.000
35.29275 423.000
35.31269 499.000
35.33264 477.000
35.35259 471.000
35.37254 550.000
35.39248 613.000
35.41243 653.000
35.43238 767.000
35.45232 911.000
35.47227 1163.000
35.49222 1255.000
35.51216 1231.000
35.53211 1375.000
35.55206 1661.000
35.57201 1845.000
35.59195 1571.000
35.61190 1259.000
35.63185 1168.000
35.65179 1147.000
35.67174 1018.000
35.69169 796.000
35.71163 617.000
35.73158 428.000
35.75153 386.000
35.77147 339.000
35.79142 342.000
35.81137 332.000
35.83132 311.000
35.85126 298.000
35.87121 260.000
35.89116 239.000
35.91110 230.000
35.93105 225.000
35.95100 231.000
35.97094 219.000
35.99089 224.000
36.01084 196.000
36.03079 226.000
36.05073 220.000
36.07068 208.000
36.09063 199.000
36.11057 245.000
36.13052 194.000
36.15047 188.000
36.17041 195.000
36.19036 196.000
36.21031 219.000
36.23025 185.000
36.25020 211.000
36.27015 200.000
36.29010 197.000
36.31004 191.000
36.32999 195.000
36.34994 222.000
36.36988 207.000
36.38983 197.000
36.40978 233.000
36.42972 214.000
36.44967 205.000
36.46962 235.000
36.48957 219.000
36.50951 213.000
36.52946 233.000
36.54941 221.000
36.56935 216.000
36.58930 193.000
36.60925 187.000
36.62919 208.000
36.64914 205.000
36.66909 208.000
36.68903 204.000
36.70898 178.000
36.72893 219.000
36.74888 217.000
36.76882 222.000
36.78877 228.000
36.80872 282.000
36.82866 237.000
36.84861 272.000
36.86856 298.000
36.88850 276.000
36.90845 300.000
36.92840 298.000
36.94835 317.000
36.96829 293.000
36.98824 308.000
37.00819 300.000
37.02813 297.000
37.04808 298.000
37.06803 263.000
37.08797 252.000
37.10792 282.000
37.12787 235.000
37.14781 234.000
37.16776 236.000
37.18771 217.000
37.20766 221.000
37.22760 181.000
37.24755 209.000
37.26750 188.000
37.28744 172.000
37.30739 188.000
37.32734 182.000
37.34728 190.000
37.36723 172.000
37.38718 200.000
37.40713 177.000
37.42707 192.000
37.44702 163.000
37.46697 166.000
37.48691 186.000
37.50686 173.000
37.52681 176.000
37.54675 203.000
37.56670 183.000
37.58665 168.000
37.60660 175.000
37.62654 170.000
37.64649 178.000
37.66644 192.000
37.68638 193.000
37.70633 186.000
37.72628 228.000
37.74622 181.000
37.76617 176.000
37.78612 187.000
37.80606 183.000
37.82601 175.000
37.84596 170.000
37.86591 175.000
37.88585 198.000
37.90580 189.000
37.92575 202.000
37.94569 175.000
37.96564 173.000
37.98559 214.000
38.00553 188.000
38.02548 176.000
38.04543 198.000
38.06538 187.000
38.08532 202.000
38.10527 200.000
38.12522 197.000
38.14516 201.000
38.16511 222.000
38.18506 203.000
38.20500 177.000
38.22495 187.000
38.24490 198.000
38.26484 209.000
38.28479 198.000
38.30474 210.000
38.32469 226.000
38.34463 199.000
38.36458 200.000
38.38453 206.000
38.40447 234.000
38.42442 252.000
38.44437 201.000
38.46431 215.000
38.48426 241.000
38.50421 241.000
38.52416 244.000
38.54410 267.000
38.56405 278.000
38.58400 291.000
38.60394 331.000
38.62389 346.000
38.64384 365.000
38.66378 458.000
38.68373 519.000
38.70368 618.000
38.72362 830.000
38.74357 1045.000
38.76352 1255.000
38.78347 1314.000
38.80341 1168.000
38.82336 1051.000
38.84331 1096.000
38.86325 1056.000
38.88320 1106.000
38.90315 994.000
38.92309 949.000
38.94304 947.000
38.96299 913.000
38.98294 934.000
39.00288 983.000
39.02283 1133.000
39.04278 1285.000
39.06272 1284.000
39.08267 1173.000
39.10262 1110.000
39.12256 1038.000
39.14251 939.000
39.16246 801.000
39.18241 798.000
39.20235 622.000
39.22230 507.000
39.24225 467.000
39.26219 401.000
39.28214 316.000
39.30209 325.000
39.32203 311.000
39.34198 282.000
39.36193 280.000
39.38187 244.000
39.40182 267.000
39.42177 230.000
39.44172 249.000
39.46166 231.000
39.48161 200.000
39.50156 207.000
39.52150 192.000
39.54145 205.000
39.56140 189.000
39.58134 191.000
39.60129 181.000
39.62124 194.000
39.64119 185.000
39.66113 201.000
39.68108 185.000
39.70103 206.000
39.72097 199.000
39.74092 179.000
39.76087 195.000
39.78081 198.000
39.80076 188.000
39.82071 190.000
39.84065 187.000
39.86060 192.000
39.88055 176.000
39.90050 186.000
39.92044 196.000
39.94039 187.000
39.96034 144.000
39.98028 193.000
40.00023 193.000
40.02018 186.000
40.04012 194.000
40.06007 178.000
40.08002 160.000
40.09997 199.000
40.11991 176.000
40.13986 198.000
40.15981 152.000
40.17975 182.000
40.19970 179.000
40.21965 194.000
40.23959 187.000
40.25954 183.000
40.27949 179.000
40.29943 190.000
40.31938 170.000
40.33933 194.000
40.35928 173.000
40.37922 192.000
40.39917 183.000
40.41912 176.000
40.43906 160.000
40.45901 184.000
40.47896 194.000
40.49890 177.000
40.51885 165.000
40.53880 172.000
40.55875 184.000
40.57869 161.000
40.59864 217.000
40.61859 186.000
40.63853 167.000
40.65848 177.000
40.67843 183.000
40.69837 153.000
40.71832 189.000
40.73827 150.000
40.75822 184.000
40.77816 194.000
40.79811 183.000
40.81806 190.000
40.83800 155.000
40.85795 150.000
40.87790 160.000
40.89784 173.000
40.91779 169.000
40.93774 177.000
40.95768 143.000
40.97763 149.000
40.99758 161.000
41.01753 182.000
41.03747 156.000
41.05742 189.000
41.07737 182.000
41.09731 170.000
41.11726 189.000
41.13721 188.000
41.15715 194.000
41.17710 178.000
41.19705 194.000
41.21700 194.000
41.23694 160.000
41.25689 196.000
41.27684 193.000
41.29678 208.000
41.31673 187.000
41.33668 215.000
41.35662 197.000
41.37657 215.000
41.39652 251.000
41.41646 208.000
41.43641 230.000
41.45636 280.000
41.47631 301.000
41.49625 371.000
41.51620 455.000
41.53615 554.000
41.55609 563.000
41.57604 531.000
41.59599 488.000
41.61593 466.000
41.63588 437.000
41.65583 430.000
41.67578 408.000
41.69572 348.000
41.71567 281.000
41.73562 276.000
41.75556 260.000
41.77551 245.000
41.79546 204.000
41.81540 211.000
41.83535 183.000
41.85530 202.000
41.87524 199.000
41.89519 192.000
41.91514 202.000
41.93509 176.000
41.95503 208.000
41.97498 204.000
41.99493 202.000
42.01487 176.000
42.03482 186.000
42.05477 206.000
42.07471 174.000
42.09466 177.000
42.11461 176.000
42.13456 207.000
42.15450 176.000
42.17445 181.000
42.19440 165.000
42.21434 183.000
42.23429 166.000
42.25424 176.000
42.27418 175.000
42.29413 185.000
42.31408 181.000
42.33403 179.000
42.35397 176.000
42.37392 178.000
42.39387 173.000
42.41381 201.000
42.43376 174.000
42.45371 172.000
42.47365 175.000
42.49360 170.000
42.51355 186.000
42.53349 205.000
42.55344 196.000
42.57339 186.000
42.59334 187.000
42.61328 187.000
42.63323 158.000
42.65318 197.000
42.67312 201.000
42.69307 189.000
42.71302 170.000
42.73296 219.000
42.75291 202.000
42.77286 221.000
42.79281 210.000
42.81275 191.000
42.83270 189.000
42.85265 186.000
42.87259 235.000
42.89254 263.000
42.91249 258.000
42.93243 259.000
42.95238 285.000
42.97233 311.000
42.99227 304.000
43.01222 270.000
43.03217 313.000
43.05212 316.000
43.07206 325.000
43.09201 390.000
43.11196 410.000
43.13190 472.000
43.15185 496.000
43.17180 524.000
43.19174 464.000
43.21169 435.000
43.23164 467.000
43.25159 420.000
43.27153 397.000
43.29148 362.000
43.31143 340.000
43.33137 308.000
43.35132 289.000
43.37127 277.000
43.39121 239.000
43.41116 220.000
43.43111 245.000
43.45105 234.000
43.47100 207.000
43.49095 189.000
43.51090 183.000
43.53084 185.000
43.55079 189.000
43.57074 200.000
43.59068 198.000
43.61063 184.000
43.63058 171.000
43.65052 192.000
43.67047 174.000
43.69042 194.000
43.71037 175.000
43.73031 166.000
43.75026 160.000
43.77021 181.000
43.79015 205.000
43.81010 148.000
43.83005 179.000
43.84999 176.000
43.86994 188.000
43.88989 168.000
43.90984 175.000
43.92978 169.000
43.94973 181.000
43.96968 192.000
43.98962 172.000
44.00957 169.000
44.02952 170.000
44.04946 208.000
44.06941 177.000
44.08936 193.000
44.10930 163.000
44.12925 180.000
44.14920 190.000
44.16915 183.000
44.18909 187.000
44.20904 165.000
44.22899 173.000
44.24893 174.000
44.26888 211.000
44.28883 186.000
44.30877 178.000
44.32872 194.000
44.34867 179.000
44.36862 196.000
44.38856 182.000
44.40851 184.000
44.42846 186.000
44.44840 196.000
44.46835 201.000
44.48830 199.000
44.50824 184.000
44.52819 170.000
44.54814 214.000
44.56808 198.000
44.58803 203.000
44.60798 203.000
44.62793 219.000
44.64787 202.000
44.66782 208.000
44.68777 257.000
44.70771 276.000
44.72766 304.000
44.74761 283.000
44.76755 252.000
44.78750 264.000
44.80745 267.000
44.82740 256.000
44.84734 231.000
44.86729 222.000
44.88724 258.000
44.90718 214.000
44.92713 211.000
44.94708 187.000
44.96702 194.000
44.98697 210.000
45.00692 174.000
45.02686 182.000
45.04681 187.000
45.06676 161.000
45.08671 170.000
45.10665 186.000
45.12660 154.000
45.14655 174.000
45.16649 154.000
45.18644 174.000
45.20639 179.000
45.22633 165.000
45.24628 172.000
45.26623 167.000
45.28618 162.000
45.30612 188.000
45.32607 141.000
45.34602 197.000
45.36596 197.000
45.38591 206.000
45.40586 177.000
45.42580 172.000
45.44575 173.000
45.46570 160.000
45.48565 187.000
45.50559 169.000
45.52554 170.000
45.54549 190.000
45.56543 168.000
45.58538 181.000
45.60533 165.000
45.62527 154.000
45.64522 171.000
45.66517 163.000
45.68511 158.000
45.70506 165.000
45.72501 145.000
45.74496 152.000
45.76490 176.000
45.78485 175.000
45.80480 169.000
45.82474 154.000
45.84469 166.000
45.86464 166.000
45.88458 150.000
45.90453 200.000
45.92448 187.000
45.94443 163.000
45.96437 143.000
45.98432 174.000
46.00427 185.000
46.02421 175.000
46.04416 176.000
46.06411 166.000
46.08405 155.000
46.10400 176.000
46.12395 166.000
46.14389 161.000
46.16384 174.000
46.18379 179.000
46.20374 157.000
46.22368 171.000
46.24363 157.000
46.26358 203.000
46.28352 169.000
46.30347 221.000
46.32342 208.000
46.34336 176.000
46.36331 174.000
46.38326 177.000
46.40321 192.000
46.42315 153.000
46.44310 197.000
46.46305 148.000
46.48299 189.000
46.50294 183.000
46.52289 168.000
46.54283 174.000
46.56278 154.000
46.58273 167.000
46.60267 153.000
46.62262 173.000
46.64257 192.000
46.66252 165.000
46.68246 168.000
46.70241 164.000
46.72236 151.000
46.74230 158.000
46.76225 165.000
46.78220 165.000
46.80214 158.000
46.82209 158.000
46.84204 158.000
46.86199 163.000
46.88193 165.000
46.90188 175.000
46.92183 170.000
46.94177 174.000
46.96172 169.000
46.98167 188.000
47.00161 172.000
47.02156 162.000
47.04151 155.000
47.06146 183.000
47.08140 159.000
47.10135 177.000
47.12130 171.000
47.14124 190.000
47.16119 195.000
47.18114 180.000
47.20108 168.000
47.22103 178.000
47.24098 173.000
47.26092 185.000
47.28087 156.000
47.30082 187.000
47.32077 162.000
47.34071 173.000
47.36066 162.000
47.38061 149.000
47.40055 164.000
47.42050 184.000
47.44045 159.000
47.46039 171.000
47.48034 169.000
47.50029 182.000
47.52024 154.000
47.54018 191.000
47.56013 162.000
47.58008 169.000
47.60002 136.000
47.61997 171.000
47.63992 193.000
47.65986 170.000
47.67981 176.000
47.69976 154.000
47.71970 181.000
47.73965 162.000
47.75960 185.000
47.77955 198.000
47.79949 195.000
47.81944 162.000
47.83939 195.000
47.85933 196.000
47.87928 203.000
47.89923 193.000
47.91917 192.000
47.93912 199.000
47.95907 197.000
47.97902 187.000
47.99896 197.000
48.01891 223.000
48.03886 212.000
48.05880 186.000
48.07875 196.000
48.09870 210.000
48.11864 200.000
48.13859 218.000
48.15854 231.000
48.17848 226.000
48.19843 274.000
48.21838 249.000
48.23833 283.000
48.25827 296.000
48.27822 356.000
48.29817 367.000
48.31811 424.000
48.33806 503.000
48.35801 597.000
48.37795 772.000
48.39790 851.000
48.41785 1028.000
48.43780 1122.000
48.45774 1069.000
48.47769 941.000
48.49764 892.000
48.51758 897.000
48.53753 828.000
48.55748 883.000
48.57742 758.000
48.59737 747.000
48.61732 614.000
48.63726 586.000
48.65721 603.000
48.67716 560.000
48.69711 615.000
48.71705 632.000
48.73700 580.000
48.75695 537.000
48.77689 476.000
48.79684 450.000
48.81679 449.000
48.83673 413.000
48.85668 411.000
48.87663 336.000
48.89658 297.000
48.91652 287.000
48.93647 251.000
48.95642 236.000
48.97636 231.000
48.99631 205.000
49.01626 222.000
49.03620 209.000
49.05615 209.000
49.07610 210.000
49.09605 208.000
49.11599 188.000
49.13594 166.000
49.15589 183.000
49.17583 196.000
49.19578 199.000
49.21573 149.000
49.23567 184.000
49.25562 209.000
49.27557 175.000
49.29551 170.000
49.31546 179.000
49.33541 173.000
49.35536 188.000
49.37530 174.000
49.39525 173.000
49.41520 187.000
49.43514 160.000
49.45509 197.000
49.47504 182.000
49.49498 170.000
49.51493 165.000
49.53488 176.000
49.55483 183.000
49.57477 185.000
49.59472 165.000
49.61467 177.000
49.63461 199.000
49.65456 163.000
49.67451 174.000
49.69445 158.000
49.71440 181.000
49.73435 187.000
49.75429 202.000
49.77424 170.000
49.79419 195.000
49.81414 159.000
49.83408 173.000
49.85403 138.000
49.87398 166.000
49.89392 171.000
49.91387 171.000
49.93382 194.000
49.95376 178.000
49.97371 159.000
49.99366 181.000
50.01361 154.000
50.03355 177.000
50.05350 157.000
50.07345 177.000
50.09339 157.000
50.11334 165.000
50.13329 197.000
50.15323 169.000
50.17318 164.000
50.19313 179.000
50.21307 183.000
50.23302 178.000
50.25297 141.000
50.27292 157.000
50.29286 149.000
50.31281 161.000
50.33276 181.000
50.35270 169.000
50.37265 159.000
50.39260 166.000
50.41254 172.000
50.43249 168.000
50.45244 172.000
50.47239 153.000
50.49233 169.000
50.51228 168.000
50.53223 168.000
50.55217 150.000
50.57212 128.000
50.59207 177.000
50.61201 162.000
50.63196 149.000
50.65191 148.000
50.67186 176.000
50.69180 147.000
50.71175 164.000
50.73170 153.000
50.75164 148.000
50.77159 162.000
50.79154 151.000
50.81148 151.000
50.83143 168.000
50.85138 169.000
50.87132 136.000
50.89127 176.000
50.91122 152.000
50.93117 161.000
50.95111 140.000
50.97106 151.000
50.99101 170.000
51.01095 172.000
51.03090 160.000
51.05085 150.000
51.07079 182.000
51.09074 173.000
51.11069 147.000
51.13064 174.000
51.15058 176.000
51.17053 166.000
51.19048 158.000
51.21042 155.000
51.23037 163.000
51.25032 158.000
51.27026 147.000
51.29021 144.000
51.31016 203.000
51.33010 155.000
51.35005 170.000
51.37000 159.000
51.38995 166.000
51.40989 153.000
51.42984 162.000
51.44979 157.000
51.46973 155.000
51.48968 170.000
51.50963 220.000
51.52957 146.000
51.54952 178.000
51.56947 193.000
51.58942 179.000
51.60936 171.000
51.62931 186.000
51.64926 202.000
51.66920 158.000
51.68915 174.000
51.70910 181.000
51.72904 155.000
51.74899 182.000
51.76894 164.000
51.78888 149.000
51.80883 143.000
51.82878 160.000
51.84873 158.000
51.86867 155.000
51.88862 173.000
51.90857 167.000
51.92851 172.000
51.94846 168.000
51.96841 166.000
51.98835 172.000
52.00830 165.000
52.02825 164.000
52.04820 165.000
52.06814 192.000
52.08809 155.000
52.10804 142.000
52.12798 160.000
52.14793 170.000
52.16788 161.000
52.18782 155.000
52.20777 193.000
52.22772 179.000
52.24767 205.000
52.26761 167.000
52.28756 179.000
52.30751 184.000
52.32745 195.000
52.34740 186.000
52.36735 168.000
52.38729 229.000
52.40724 188.000
52.42719 191.000
52.44713 196.000
52.46708 206.000
52.48703 176.000
52.50698 188.000
52.52692 225.000
52.54687 183.000
52.56682 199.000
52.58676 201.000
52.60671 191.000
52.62666 184.000
52.64660 219.000
52.66655 219.000
52.68650 212.000
52.70645 239.000
52.72639 251.000
52.74634 237.000
52.76629 215.000
52.78623 189.000
52.80618 191.000
52.82613 222.000
52.84607 203.000
52.86602 209.000
52.88597 177.000
52.90591 209.000
52.92586 190.000
52.94581 191.000
52.96576 176.000
52.98570 172.000
53.00565 161.000
53.02560 175.000
53.04554 185.000
53.06549 202.000
53.08544 179.000
53.10538 159.000
53.12533 186.000
53.14528 168.000
53.16523 173.000
53.18517 170.000
53.20512 189.000
53.22507 187.000
53.24501 182.000
53.26496 181.000
53.28491 157.000
53.30485 182.000
53.32480 209.000
53.34475 200.000
53.36469 200.000
53.38464 217.000
53.40459 224.000
53.42454 209.000
53.44448 192.000
53.46443 220.000
53.48438 216.000
53.50432 213.000
53.52427 268.000
53.54422 230.000
53.56416 243.000
53.58411 235.000
53.60406 223.000
53.62401 207.000
53.64395 223.000
53.66390 235.000
53.68385 239.000
53.70379 232.000
53.72374 204.000
53.74369 234.000
53.76363 199.000
53.78358 183.000
53.80353 188.000
53.82348 194.000
53.84342 192.000
53.86337 181.000
53.88332 167.000
53.90326 221.000
53.92321 190.000
53.94316 162.000
53.96310 198.000
53.98305 160.000
54.00300 174.000
54.02294 142.000
54.04289 200.000
54.06284 140.000
54.08279 165.000
54.10273 178.000
54.12268 175.000
54.14263 187.000
54.16257 147.000
54.18252 194.000
54.20247 186.000
54.22241 177.000
54.24236 163.000
54.26231 189.000
54.28226 152.000
54.30220 177.000
54.32215 169.000
54.34210 165.000
54.36204 149.000
54.38199 187.000
54.40194 199.000
54.42188 178.000
54.44183 167.000
54.46178 181.000
54.48172 176.000
54.50167 181.000
54.52162 185.000
54.54157 193.000
54.56151 150.000
54.58146 204.000
54.60141 145.000
54.62135 162.000
54.64130 150.000
54.66125 186.000
54.68119 158.000
54.70114 169.000
54.72109 148.000
54.74104 169.000
54.76098 164.000
54.78093 158.000
54.80088 170.000
54.82082 169.000
54.84077 156.000
54.86072 158.000
54.88066 157.000
54.90061 185.000
54.92056 158.000
54.94050 159.000
54.96045 171.000
54.98040 144.000
55.00035 175.000
55.02029 172.000
55.04024 164.000
55.06019 157.000
55.08013 157.000
55.10008 174.000
55.12003 157.000
55.13997 145.000
55.15992 147.000
55.17987 165.000
55.19982 159.000
55.21976 175.000
55.23971 154.000
55.25966 167.000
55.27960 177.000
55.29955 177.000
55.31950 144.000
55.33944 164.000
55.35939 143.000
55.37934 156.000
55.39929 145.000
55.41923 157.000
55.43918 160.000
55.45913 169.000
55.47907 173.000
55.49902 164.000
55.51897 146.000
55.53891 142.000
55.55886 155.000
55.57881 178.000
55.59875 181.000
55.61870 149.000
55.63865 167.000
55.65860 160.000
55.67854 186.000
55.69849 137.000
55.71844 177.000
55.73838 164.000
55.75833 158.000
55.77828 182.000
55.79822 185.000
55.81817 135.000
55.83812 181.000
55.85807 159.000
55.87801 170.000
55.89796 190.000
55.91791 176.000
55.93785 187.000
55.95780 172.000
55.97775 175.000
55.99769 155.000
56.01764 185.000
56.03759 159.000
56.05753 187.000
56.07748 147.000
56.09743 175.000
56.11738 149.000
56.13732 152.000
56.15727 161.000
56.17722 181.000
56.19716 150.000
56.21711 157.000
56.23706 172.000
56.25700 158.000
56.27695 173.000
56.29690 188.000
56.31685 158.000
56.33679 178.000
56.35674 176.000
56.37669 181.000
56.39663 154.000
56.41658 175.000
56.43653 186.000
56.45647 163.000
56.47642 151.000
56.49637 191.000
56.51631 173.000
56.53626 186.000
56.55621 186.000
56.57616 175.000
56.59610 197.000
56.61605 199.000
56.63600 209.000
56.65594 230.000
56.67589 229.000
56.69584 253.000
56.71578 219.000
56.73573 244.000
56.75568 237.000
56.77563 240.000
56.79557 233.000
56.81552 213.000
56.83547 220.000
56.85541 218.000
56.87536 231.000
56.89531 240.000
56.91525 212.000
56.93520 196.000
56.95515 193.000
56.97510 196.000
56.99504 204.000
57.01499 184.000
57.03494 198.000
57.05488 162.000
57.07483 196.000
57.09478 200.000
57.11472 172.000
57.13467 211.000
57.15462 214.000
57.17456 226.000
57.19451 203.000
57.21446 223.000
57.23441 234.000
57.25435 245.000
57.27430 230.000
57.29425 233.000
57.31419 204.000
57.33414 218.000
57.35409 183.000
57.37403 208.000
57.39398 196.000
57.41393 241.000
57.43388 219.000
57.45382 204.000
57.47377 170.000
57.49372 186.000
57.51366 179.000
57.53361 155.000
57.55356 165.000
57.57350 160.000
57.59345 175.000
57.61340 166.000
57.63334 171.000
57.65329 152.000
57.67324 162.000
57.69319 183.000
57.71313 180.000
57.73308 170.000
57.75303 165.000
57.77297 154.000
57.79292 172.000
57.81287 169.000
57.83281 171.000
57.85276 166.000
57.87271 150.000
57.89266 163.000
57.91260 171.000
57.93255 171.000
57.95250 162.000
57.97244 186.000
57.99239 178.000
58.01234 172.000
58.03228 193.000
58.05223 163.000
58.07218 165.000
58.09212 179.000
58.11207 186.000
58.13202 219.000
58.15197 198.000
58.17191 202.000
58.19186 228.000
58.21181 192.000
58.23175 226.000
58.25170 231.000
58.27165 249.000
58.29159 234.000
58.31154 281.000
58.33149 283.000
58.35144 290.000
58.37138 306.000
58.39133 288.000
58.41128 295.000
58.43122 238.000
58.45117 272.000
58.47112 220.000
58.49106 218.000
58.51101 230.000
58.53096 236.000
58.55090 235.000
58.57085 210.000
58.59080 203.000
58.61075 182.000
58.63069 167.000
58.65064 158.000
58.67059 173.000
58.69053 171.000
58.71048 162.000
58.73043 163.000
58.75037 174.000
58.77032 172.000
58.79027 172.000
58.81022 190.000
58.83016 184.000
58.85011 174.000
58.87006 180.000
58.89000 170.000
58.90995 170.000
58.92990 170.000
58.94984 168.000
58.96979 162.000
58.98974 154.000
59.00969 151.000
59.02963 158.000
59.04958 173.000
59.06953 160.000
59.08947 165.000
59.10942 179.000
59.12937 174.000
59.14931 160.000
59.16926 162.000
59.18921 161.000
59.20915 173.000
59.22910 156.000
59.24905 145.000
59.26900 154.000
59.28894 179.000
59.30889 163.000
59.32884 183.000
59.34878 162.000
59.36873 136.000
59.38868 169.000
59.40862 170.000
59.42857 154.000
59.44852 176.000
59.46847 171.000
59.48841 159.000
59.50836 173.000
59.52831 163.000
59.54825 140.000
59.56820 156.000
59.58815 161.000
59.60809 166.000
59.62804 158.000
59.64799 154.000
59.66793 164.000
59.68788 177.000
59.70783 159.000
59.72778 190.000
59.74772 170.000
59.76767 161.000
59.78762 153.000
59.80756 165.000
59.82751 174.000
59.84746 144.000
59.86740 154.000
59.88735 172.000
59.90730 168.000
59.92725 160.000
59.94719 157.000
59.96714 164.000
59.98709 137.000
60.00703 170.000
60.02698 188.000
60.04693 165.000
60.06687 186.000
60.08682 171.000
60.10677 182.000
60.12671 164.000
60.14666 177.000
60.16661 177.000
60.18656 143.000
60.20650 167.000
60.22645 172.000
60.24640 171.000
60.26634 181.000
60.28629 186.000
60.30624 166.000
60.32618 151.000
60.34613 166.000
60.36608 172.000
60.38603 184.000
60.40597 162.000
60.42592 160.000
60.44587 176.000
60.46581 168.000
60.48576 153.000
60.50571 189.000
60.52565 174.000
60.54560 178.000
60.56555 164.000
60.58550 169.000
60.60544 157.000
60.62539 156.000
60.64534 180.000
60.66528 159.000
60.68523 172.000
60.70518 180.000
60.72512 197.000
60.74507 174.000
60.76502 182.000
60.78496 178.000
60.80491 162.000
60.82486 173.000
60.84481 152.000
60.86475 180.000
60.88470 163.000
60.90465 164.000
60.92459 164.000
60.94454 186.000
60.96449 164.000
60.98443 181.000
61.00438 161.000
61.02433 174.000
61.04428 166.000
61.06422 213.000
61.08417 183.000
61.10412 199.000
61.12406 189.000
61.14401 188.000
61.16396 208.000
61.18390 176.000
61.20385 207.000
61.22380 200.000
61.24374 197.000
61.26369 179.000
61.28364 225.000
61.30359 225.000
61.32353 214.000
61.34348 187.000
61.36343 242.000
61.38337 256.000
61.40332 274.000
61.42327 271.000
61.44321 277.000
61.46316 313.000
61.48311 361.000
61.50306 472.000
61.52300 493.000
61.54295 559.000
61.56290 646.000
61.58284 678.000
61.60279 656.000
61.62274 698.000
61.64268 666.000
61.66263 638.000
61.68258 632.000
61.70252 564.000
61.72247 590.000
61.74242 556.000
61.76237 553.000
61.78231 531.000
61.80226 476.000
61.82221 455.000
61.84215 440.000
61.86210 384.000
61.88205 347.000
61.90199 365.000
61.92194 324.000
61.94189 297.000
61.96184 274.000
61.98178 261.000
62.00173 211.000
62.02168 269.000
62.04162 228.000
62.06157 239.000
62.08152 256.000
62.10146 247.000
62.12141 181.000
62.14136 241.000
62.16131 224.000
62.18125 222.000
62.20120 276.000
62.22115 236.000
62.24109 260.000
62.26104 269.000
62.28099 288.000
62.30093 278.000
62.32088 268.000
62.34083 262.000
62.36077 267.000
62.38072 220.000
62.40067 266.000
62.42062 233.000
62.44056 219.000
62.46051 246.000
62.48046 238.000
62.50040 239.000
62.52035 213.000
62.54030 223.000
62.56024 207.000
62.58019 212.000
62.60014 210.000
62.62009 179.000
62.64003 193.000
62.65998 171.000
62.67993 195.000
62.69987 190.000
62.71982 182.000
62.73977 191.000
62.75971 186.000
62.77966 169.000
62.79961 168.000
62.81955 183.000
62.83950 196.000
62.85945 195.000
62.87940 205.000
62.89934 224.000
62.91929 196.000
62.93924 221.000
62.95918 202.000
62.97913 200.000
62.99908 208.000
63.01902 216.000
63.03897 192.000
63.05892 250.000
63.07887 243.000
63.09881 239.000
63.11876 232.000
63.13871 226.000
63.15865 231.000
63.17860 235.000
63.19855 206.000
63.21849 224.000
63.23844 210.000
63.25839 235.000
63.27833 201.000
63.29828 218.000
63.31823 223.000
63.33818 238.000
63.35812 224.000
63.37807 211.000
63.39802 236.000
63.41796 241.000
63.43791 197.000
63.45786 215.000
63.47780 215.000
63.49775 254.000
63.51770 270.000
63.53765 238.000
63.55759 265.000
63.57754 253.000
63.59749 270.000
63.61743 294.000
63.63738 295.000
63.65733 328.000
63.67727 301.000
63.69722 284.000
63.71717 333.000
63.73712 357.000
63.75706 334.000
63.77701 317.000
63.79696 294.000
63.81690 318.000
63.83685 315.000
63.85680 275.000
63.87674 253.000
63.89669 279.000
63.91664 264.000
63.93658 232.000
63.95653 247.000
63.97648 219.000
63.99643 208.000
64.01637 230.000
64.03632 219.000
64.05627 236.000
64.07621 227.000
64.09616 217.000
64.11611 226.000
64.13605 224.000
64.15600 217.000
64.17595 199.000
64.19590 200.000
64.21584 207.000
64.23579 222.000
64.25574 161.000
64.27568 212.000
64.29563 182.000
64.31558 194.000
64.33552 193.000
64.35547 188.000
64.37542 221.000
64.39536 200.000
64.41531 160.000
64.43526 177.000
64.45521 169.000
64.47515 137.000
64.49510 168.000
64.51505 165.000
64.53499 172.000
64.55494 164.000
64.57489 180.000
64.59483 179.000
64.61478 169.000
64.63473 150.000
64.65468 175.000
64.67462 151.000
64.69457 155.000
64.71452 169.000
64.73446 180.000
64.75441 179.000
64.77436 170.000
64.79430 182.000
64.81425 175.000
64.83420 169.000
64.85414 162.000
64.87409 166.000
64.89404 157.000
64.91399 156.000
64.93393 172.000
64.95388 172.000
64.97383 176.000
64.99377 198.000
65.01372 166.000
65.03367 164.000
65.05361 191.000
65.07356 176.000
65.09351 177.000
65.11346 189.000
65.13340 165.000
65.15335 149.000
65.17330 193.000
65.19324 200.000
65.21319 190.000
65.23314 168.000
65.25308 181.000
65.27303 189.000
65.29298 169.000
65.31293 171.000
65.33287 177.000
65.35282 195.000
65.37277 185.000
65.39271 164.000
65.41266 213.000
65.43261 213.000
65.45255 174.000
65.47250 185.000
65.49245 233.000
65.51239 229.000
65.53234 232.000
65.55229 234.000
65.57224 236.000
65.59218 244.000
65.61213 228.000
65.63208 247.000
65.65202 240.000
65.67197 226.000
65.69192 252.000
65.71186 245.000
65.73181 270.000
65.75176 244.000
65.77171 279.000
65.79165 291.000
65.81160 293.000
65.83155 303.000
65.85149 358.000
65.87144 324.000
65.89139 336.000
65.91133 323.000
65.93128 336.000
65.95123 341.000
65.97117 346.000
65.99112 343.000
66.01107 395.000
66.03102 400.000
66.05096 361.000
66.07091 374.000
66.09086 402.000
66.11080 392.000
66.13075 391.000
66.15070 425.000
66.17064 403.000
66.19059 429.000
66.21054 426.000
66.23049 453.000
66.25043 382.000
66.27038 408.000
66.29033 373.000
66.31027 367.000
66.33022 310.000
66.35017 337.000
66.37011 312.000
66.39006 308.000
66.41001 336.000
66.42995 324.000
66.44990 307.000
66.46985 284.000
66.48980 302.000
66.50974 287.000
66.52969 288.000
66.54964 307.000
66.56958 306.000
66.58953 304.000
66.60948 324.000
66.62942 312.000
66.64937 326.000
66.66932 311.000
66.68927 356.000
66.70921 280.000
66.72916 328.000
66.74911 261.000
66.76905 240.000
66.78900 274.000
66.80895 230.000
66.82889 222.000
66.84884 258.000
66.86879 244.000
66.88874 232.000
66.90868 232.000
66.92863 228.000
66.94858 231.000
66.96852 193.000
66.98847 197.000
67.00842 197.000
67.02836 185.000
67.04831 187.000
67.06826 212.000
67.08820 184.000
67.10815 189.000
67.12810 203.000
67.14805 180.000
67.16799 194.000
67.18794 212.000
67.20789 177.000
67.22783 193.000
67.24778 171.000
67.26773 206.000
67.28767 216.000
67.30762 204.000
67.32757 192.000
67.34752 188.000
67.36746 199.000
67.38741 197.000
67.40736 184.000
67.42730 157.000
67.44725 186.000
67.46720 191.000
67.48714 184.000
67.50709 178.000
67.52704 190.000
67.54698 195.000
67.56693 184.000
67.58688 209.000
67.60683 167.000
67.62677 191.000
67.64672 199.000
67.66667 185.000
67.68661 177.000
67.70656 190.000
67.72651 192.000
67.74645 178.000
67.76640 189.000
67.78635 220.000
67.80630 191.000
67.82624 209.000
67.84619 207.000
67.86614 215.000
67.88608 235.000
67.90603 221.000
67.92598 269.000
67.94592 250.000
67.96587 254.000
67.98582 243.000
68.00576 278.000
68.02571 264.000
68.04566 281.000
68.06561 279.000
68.08555 273.000
68.10550 300.000
68.12545 297.000
68.14539 351.000
68.16534 329.000
68.18529 295.000
68.20523 297.000
68.22518 256.000
68.24513 250.000
68.26508 248.000
68.28502 244.000
68.30497 234.000
68.32492 281.000
68.34486 245.000
68.36481 249.000
68.38476 239.000
68.40470 195.000
68.42465 221.000
68.44460 201.000
68.46455 173.000
68.48449 218.000
68.50444 211.000
68.52439 195.000
68.54433 174.000
68.56428 178.000
68.58423 160.000
68.60417 198.000
68.62412 170.000
68.64407 184.000
68.66401 171.000
68.68396 189.000
68.70391 184.000
68.72386 159.000
68.74380 176.000
68.76375 155.000
68.78370 132.000
68.80364 151.000
68.82359 162.000
68.84354 163.000
68.86348 173.000
68.88343 178.000
68.90338 169.000
68.92333 163.000
68.94327 157.000
68.96322 191.000
68.98317 196.000
69.00311 185.000
69.02306 154.000
69.04301 151.000
69.06295 177.000
69.08290 166.000
69.10285 179.000
69.12279 158.000
69.14274 186.000
69.16269 173.000
69.18264 172.000
69.20258 170.000
69.22253 186.000
69.24248 163.000
69.26242 159.000
69.28237 181.000
69.30232 166.000
69.32226 187.000
69.34221 164.000
69.36216 191.000
69.38211 154.000
69.40205 165.000
69.42200 167.000
69.44195 149.000
69.46189 179.000
69.48184 152.000
69.50179 182.000
69.52173 182.000
69.54168 163.000
69.56163 164.000
69.58157 170.000
69.60152 166.000
69.62147 153.000
69.64142 161.000
69.66136 168.000
69.68131 164.000
69.70126 161.000
69.72120 137.000
69.74115 166.000
69.76110 162.000
69.78104 181.000
69.80099 187.000
69.82094 145.000
69.84089 172.000
69.86083 153.000
69.88078 167.000
69.90073 143.000
69.92067 173.000
69.94062 163.000
69.96057 167.000
69.98051 140.000
70.00046 163.000
70.02041 191.000
70.04035 169.000
70.06030 169.000
70.08025 170.000
70.10020 150.000
70.12014 149.000
70.14009 138.000
70.16004 159.000
70.17998 147.000
70.19993 168.000
70.21988 176.000
70.23982 152.000
70.25977 165.000
70.27972 158.000
70.29967 154.000
70.31961 154.000
70.33956 154.000
70.35951 164.000
70.37945 177.000
70.39940 176.000
70.41935 144.000
70.43929 170.000
70.45924 185.000
70.47919 154.000
70.49914 178.000
70.51908 149.000
70.53903 158.000
70.55898 149.000
70.57892 169.000
70.59887 162.000
70.61882 168.000
70.63876 133.000
70.65871 160.000
70.67866 170.000
70.69860 176.000
70.71855 151.000
70.73850 175.000
70.75845 178.000
70.77839 166.000
70.79834 160.000
70.81829 154.000
70.83823 147.000
70.85818 167.000
70.87813 149.000
70.89807 161.000
70.91802 184.000
70.93797 148.000
70.95792 149.000
70.97786 162.000
70.99781 162.000
71.01776 168.000
71.03770 154.000
71.05765 155.000
71.07760 160.000
71.09754 164.000
71.11749 160.000
71.13744 156.000
71.15738 177.000
71.17733 163.000
71.19728 158.000
71.21723 155.000
71.23717 168.000
71.25712 172.000
71.27707 176.000
71.29701 176.000
71.31696 149.000
71.33691 161.000
71.35685 177.000
71.37680 149.000
71.39675 185.000
71.41670 160.000
71.43664 151.000
71.45659 174.000
71.47654 155.000
71.49648 161.000
71.51643 150.000
71.53638 163.000
71.55632 151.000
71.57627 161.000
71.59622 158.000
71.61616 174.000
71.63611 182.000
71.65606 160.000
71.67601 167.000
71.69595 159.000
71.71590 164.000
71.73585 176.000
71.75579 194.000
71.77574 177.000
71.79569 140.000
71.81563 171.000
71.83558 165.000
71.85553 197.000
71.87548 162.000
71.89542 174.000
71.91537 172.000
71.93532 196.000
71.95526 179.000
71.97521 193.000
71.99516 170.000
72.01510 165.000
72.03505 182.000
72.05500 197.000
72.07495 159.000
72.09489 167.000
72.11484 189.000
72.13479 180.000
72.15473 159.000
72.17468 174.000
72.19463 174.000
72.21457 166.000
72.23452 163.000
72.25447 177.000
72.27441 170.000
72.29436 174.000
72.31431 190.000
72.33426 221.000
72.35420 214.000
72.37415 239.000
72.39410 221.000
72.41404 242.000
72.43399 222.000
72.45394 228.000
72.47388 221.000
72.49383 231.000
72.51378 235.000
72.53373 238.000
72.55367 202.000
72.57362 203.000
72.59357 245.000
72.61351 232.000
72.63346 214.000
72.65341 225.000
72.67335 234.000
72.69330 238.000
72.71325 242.000
72.73319 213.000
72.75314 224.000
72.77309 247.000
72.79304 241.000
72.81298 225.000
72.83293 214.000
72.85288 223.000
72.87282 258.000
72.89277 275.000
72.91272 249.000
72.93266 254.000
72.95261 234.000
72.97256 248.000
72.99251 240.000
73.01245 245.000
73.03240 241.000
73.05235 253.000
73.07229 246.000
73.09224 250.000
73.11219 240.000
73.13213 240.000
73.15208 222.000
73.17203 212.000
73.19197 221.000
73.21192 210.000
73.23187 181.000
73.25182 173.000
73.27176 185.000
73.29171 218.000
73.31166 199.000
73.33160 177.000
73.35155 192.000
73.37150 189.000
73.39144 191.000
73.41139 182.000
73.43134 170.000
73.45129 183.000
73.47123 189.000
73.49118 189.000
73.51113 198.000
73.53107 172.000
73.55102 171.000
73.57097 186.000
73.59091 171.000
73.61086 165.000
73.63081 170.000
73.65076 174.000
73.67070 182.000
73.69065 195.000
73.71060 200.000
73.73054 165.000
73.75049 170.000
73.77044 158.000
73.79038 154.000
73.81033 187.000
73.83028 160.000
73.85022 188.000
73.87017 171.000
73.89012 175.000
73.91007 154.000
73.93001 134.000
73.94996 176.000
73.96991 163.000
73.98985 170.000
74.00980 166.000
74.02975 174.000
74.04969 153.000
74.06964 159.000
74.08959 129.000
74.10954 179.000
74.12948 190.000
74.14943 170.000
74.16938 174.000
74.18932 168.000
74.20927 164.000
74.22922 184.000
74.24916 162.000
74.26911 148.000
74.28906 170.000
74.30900 168.000
74.32895 166.000
74.34890 185.000
74.36885 168.000
74.38879 180.000
74.40874 166.000
74.42869 177.000
74.44863 165.000
74.46858 157.000
74.48853 165.000
74.50847 191.000
74.52842 183.000
74.54837 188.000
74.56832 192.000
74.58826 170.000
74.60821 172.000
74.62816 173.000
74.64810 168.000
74.66805 167.000
74.68800 180.000
74.70794 183.000
74.72789 162.000
74.74784 195.000
74.76778 175.000
74.78773 197.000
74.80768 191.000
74.82763 182.000
74.84757 192.000
74.86752 205.000
74.88747 217.000
74.90741 218.000
74.92736 215.000
74.94731 217.000
74.96725 221.000
74.98720 235.000
75.00715 225.000
75.02710 234.000
75.04704 233.000
75.06699 254.000
75.08694 264.000
75.10688 247.000
75.12683 244.000
75.14678 227.000
75.16672 212.000
75.18667 188.000
75.20662 235.000
75.22657 242.000
75.24651 243.000
75.26646 277.000
75.28641 279.000
75.30635 241.000
75.32630 218.000
75.34625 250.000
75.36619 225.000
75.38614 198.000
75.40609 211.000
75.42603 204.000
75.44598 236.000
75.46593 198.000
75.48588 209.000
75.50582 180.000
75.52577 194.000
75.54572 197.000
75.56566 202.000
75.58561 204.000
75.60556 175.000
75.62550 176.000
75.64545 178.000
75.66540 203.000
75.68535 155.000
75.70529 164.000
75.72524 177.000
75.74519 182.000
75.76513 156.000
75.78508 187.000
75.80503 156.000
75.82497 178.000
75.84492 170.000
75.86487 156.000
75.88481 177.000
75.90476 149.000
75.92471 173.000
75.94466 155.000
75.96460 181.000
75.98455 193.000
76.00450 193.000
76.02444 155.000
76.04439 165.000
76.06434 170.000
76.08428 184.000
76.10423 166.000
76.12418 163.000
76.14413 174.000
76.16407 156.000
76.18402 164.000
76.20397 187.000
76.22391 168.000
76.24386 191.000
76.26381 175.000
76.28375 160.000
76.30370 159.000
76.32365 161.000
76.34359 165.000
76.36354 156.000
76.38349 179.000
76.40344 172.000
76.42338 152.000
76.44333 164.000
76.46328 183.000
76.48322 152.000
76.50317 169.000
76.52312 166.000
76.54306 149.000
76.56301 153.000
76.58296 176.000
76.60291 176.000
76.62285 180.000
76.64280 166.000
76.66275 132.000
76.68269 176.000
76.70264 167.000
76.72259 192.000
76.74253 182.000
76.76248 152.000
76.78243 166.000
76.80238 172.000
76.82232 173.000
76.84227 166.000
76.86222 128.000
76.88216 165.000
76.90211 180.000
76.92206 177.000
76.94200 206.000
76.96195 177.000
76.98190 179.000
77.00184 177.000
77.02179 181.000
77.04174 184.000
77.06169 168.000
77.08163 199.000
77.10158 177.000
77.12153 184.000
77.14147 179.000
77.16142 208.000
77.18137 186.000
77.20131 207.000
77.22126 205.000
77.24121 213.000
77.26116 195.000
77.28110 205.000
77.30105 230.000
77.32100 218.000
77.34094 202.000
77.36089 206.000
77.38084 210.000
77.40078 215.000
77.42073 208.000
77.44068 203.000
77.46062 201.000
77.48057 207.000
77.50052 218.000
77.52047 218.000
77.54041 216.000
77.56036 218.000
77.58031 205.000
77.60025 193.000
77.62020 244.000
77.64015 243.000
77.66009 246.000
77.68004 216.000
77.69999 251.000
77.71994 284.000
77.73988 236.000
77.75983 245.000
77.77978 279.000
77.79972 313.000
77.81967 264.000
77.83962 283.000
77.85956 278.000
77.87951 276.000
77.89946 235.000
77.91940 263.000
77.93935 281.000
77.95930 263.000
77.97925 236.000
77.99919 234.000
78.01914 252.000
78.03909 225.000
78.05903 232.000
78.07898 229.000
78.09893 234.000
78.11887 228.000
78.13882 208.000
78.15877 200.000
78.17872 215.000
78.19866 217.000
78.21861 210.000
78.23856 161.000
78.25850 162.000
78.27845 168.000
78.29840 192.000
78.31834 179.000
78.33829 186.000
78.35824 166.000
78.37819 187.000
78.39813 175.000
78.41808 182.000
78.43803 185.000
78.45797 169.000
78.47792 199.000
78.49787 172.000
78.51781 177.000
78.53776 198.000
78.55771 197.000
78.57765 170.000
78.59760 197.000
78.61755 196.000
78.63750 190.000
78.65744 181.000
78.67739 212.000
78.69734 188.000
78.71728 171.000
78.73723 155.000
78.75718 178.000
78.77712 182.000
78.79707 176.000
78.81702 201.000
78.83697 179.000
78.85691 174.000
78.87686 169.000
78.89681 169.000
78.91675 173.000
78.93670 171.000
78.95665 157.000
78.97659 186.000
78.99654 170.000
79.01649 156.000
79.03643 170.000
79.05638 170.000
79.07633 166.000
79.09628 184.000
79.11622 165.000
79.13617 168.000
79.15612 170.000
79.17606 160.000
79.19601 173.000
79.21596 186.000
79.23590 163.000
79.25585 154.000
79.27580 192.000
79.29575 196.000
79.31569 146.000
79.33564 164.000
79.35559 192.000
79.37553 162.000
79.39548 165.000
79.41543 169.000
79.43537 165.000
79.45532 154.000
79.47527 182.000
79.49521 162.000
79.51516 142.000
79.53511 169.000
79.55506 157.000
79.57500 162.000
79.59495 165.000
79.61490 162.000
79.63484 201.000
79.65479 170.000
79.67474 162.000
79.69468 190.000
79.71463 150.000
79.73458 169.000
79.75453 190.000
79.77447 161.000
79.79442 162.000
79.81437 183.000
79.83431 159.000
79.85426 151.000
79.87421 161.000
79.89415 148.000
79.91410 185.000
79.93405 184.000
79.95399 180.000
79.97394 151.000
79.99389 164.000
80.01384 172.000
80.03378 182.000
80.05373 171.000
80.07368 167.000
80.09362 182.000
80.11357 195.000
80.13352 175.000
80.15346 209.000
80.17341 189.000
80.19336 192.000
80.21331 172.000
80.23325 177.000
80.25320 217.000
80.27315 190.000
80.29309 201.000
80.31304 180.000
80.33299 185.000
80.35293 206.000
80.37288 193.000
80.39283 186.000
80.41278 196.000
80.43272 158.000
80.45267 182.000
80.47262 194.000
80.49256 175.000
80.51251 163.000
80.53246 192.000
80.55240 170.000
80.57235 171.000
80.59230 170.000
80.61224 182.000
80.63219 187.000
80.65214 156.000
80.67209 165.000
80.69203 176.000
80.71198 179.000
80.73193 174.000
80.75187 163.000
80.77182 169.000
80.79177 157.000
80.81171 168.000
80.83166 178.000
80.85161 172.000
80.87156 209.000
80.89150 160.000
80.91145 141.000
80.93140 188.000
80.95134 155.000
80.97129 163.000
80.99124 173.000
81.01118 169.000
81.03113 197.000
81.05108 159.000
81.07102 167.000
81.09097 177.000
81.11092 181.000
81.13087 150.000
81.15081 182.000
81.17076 173.000
81.19071 192.000
81.21065 189.000
81.23060 145.000
81.25055 169.000
81.27049 157.000
81.29044 182.000
81.31039 168.000
81.33034 153.000
81.35028 146.000
81.37023 175.000
81.39018 161.000
81.41012 159.000
81.43007 156.000
81.45002 132.000
81.46996 157.000
81.48991 140.000
81.50986 149.000
81.52980 171.000
81.54975 159.000
81.56970 192.000
81.58965 147.000
81.60959 160.000
81.62954 180.000
81.64949 149.000
81.66943 174.000
81.68938 177.000
81.70933 162.000
81.72927 174.000
81.74922 164.000
81.76917 187.000
81.78912 143.000
81.80906 145.000
81.82901 182.000
81.84896 149.000
81.86890 161.000
81.88885 145.000
81.90880 156.000
81.92874 160.000
81.94869 175.000
81.96864 165.000
81.98859 164.000
82.00853 155.000
82.02848 164.000
82.04843 168.000
82.06837 162.000
82.08832 192.000
82.10827 170.000
82.12821 174.000
82.14816 171.000
82.16811 156.000
82.18805 166.000
82.20800 162.000
82.22795 193.000
82.24790 207.000
82.26784 181.000
82.28779 189.000
82.30774 180.000
82.32768 204.000
82.34763 216.000
82.36758 171.000
82.38752 201.000
82.40747 188.000
82.42742 186.000
82.44737 161.000
82.46731 192.000
82.48726 170.000
82.50721 173.000
82.52715 183.000
82.54710 162.000
82.56705 190.000
82.58699 184.000
82.60694 168.000
82.62689 212.000
82.64683 176.000
82.66678 170.000
82.68673 193.000
82.70668 167.000
82.72662 145.000
82.74657 165.000
82.76652 154.000
82.78646 166.000
82.80641 183.000
82.82636 182.000
82.84630 165.000
82.86625 148.000
82.88620 159.000
82.90615 174.000
82.92609 150.000
82.94604 182.000
82.96599 167.000
82.98593 179.000
83.00588 163.000
83.02583 201.000
83.04577 155.000
83.06572 203.000
83.08567 181.000
83.10561 190.000
83.12556 196.000
83.14551 193.000
83.16546 183.000
83.18540 190.000
83.20535 191.000
83.22530 190.000
83.24524 175.000
83.26519 201.000
83.28514 200.000
83.30508 179.000
83.32503 184.000
83.34498 177.000
83.36493 178.000
83.38487 200.000
83.40482 179.000
83.42477 195.000
83.44471 224.000
83.46466 194.000
83.48461 201.000
83.50455 213.000
83.52450 226.000
83.54445 202.000
83.56440 229.000
83.58434 202.000
83.60429 235.000
83.62424 205.000
83.64418 211.000
83.66413 201.000
83.68408 199.000
83.70402 214.000
83.72397 211.000
83.74392 196.000
83.76386 236.000
83.78381 226.000
83.80376 238.000
83.82371 219.000
83.84365 241.000
83.86360 236.000
83.88355 247.000
83.90349 236.000
83.92344 238.000
83.94339 259.000
83.96333 270.000
83.98328 223.000
84.00323 236.000
84.02318 214.000
84.04312 219.000
84.06307 236.000
84.08302 247.000
84.10296 208.000
84.12291 210.000
84.14286 221.000
84.16280 206.000
84.18275 186.000
84.20270 191.000
84.22264 197.000
84.24259 197.000
84.26254 171.000
84.28249 206.000
84.30243 215.000
84.32238 166.000
84.34233 191.000
84.36227 181.000
84.38222 194.000
84.40217 200.000
84.42211 188.000
84.44206 187.000
84.46201 199.000
84.48196 181.000
84.50190 163.000
84.52185 202.000
84.54180 168.000
84.56174 182.000
84.58169 181.000
84.60164 182.000
84.62158 145.000
84.64153 192.000
84.66148 174.000
84.68142 161.000
84.70137 164.000
84.72132 178.000
84.74127 194.000
84.76121 166.000
84.78116 175.000
84.80111 176.000
84.82105 167.000
84.84100 174.000
84.86095 173.000
84.88089 185.000
84.90084 149.000
84.92079 150.000
84.94074 174.000
84.96068 158.000
84.98063 142.000
85.00058 166.000
85.02052 180.000
85.04047 164.000
85.06042 166.000
85.08036 181.000
85.10031 167.000
85.12026 156.000
85.14021 196.000
85.16015 165.000
85.18010 163.000
85.20005 168.000
85.21999 181.000
85.23994 161.000
85.25989 191.000
85.27983 147.000
85.29978 187.000
85.31973 163.000
85.33967 174.000
85.35962 175.000
85.37957 158.000
85.39952 165.000
85.41946 144.000
85.43941 183.000
85.45936 173.000
85.47930 135.000
85.49925 164.000
85.51920 169.000
85.53914 157.000
85.55909 140.000
85.57904 166.000
85.59899 165.000
85.61893 166.000
85.63888 169.000
85.65883 171.000
85.67877 190.000
85.69872 165.000
85.71867 180.000
85.73861 177.000
85.75856 171.000
85.77851 155.000
85.79845 154.000
85.81840 153.000
85.83835 158.000
85.85830 163.000
85.87824 179.000
85.89819 144.000
85.91814 150.000
85.93808 159.000
85.95803 182.000
85.97798 154.000
85.99792 170.000
86.01787 181.000
86.03782 171.000
86.05777 139.000
86.07771 157.000
86.09766 174.000
86.11761 166.000
86.13755 164.000
86.15750 175.000
86.17745 179.000
86.19739 164.000
86.21734 174.000
86.23729 168.000
86.25723 171.000
86.27718 180.000
86.29713 176.000
86.31708 194.000
86.33702 194.000
86.35697 184.000
86.37692 185.000
86.39686 176.000
86.41681 171.000
86.43676 158.000
86.45670 161.000
86.47665 189.000
86.49660 188.000
86.51655 204.000
86.53649 193.000
86.55644 169.000
86.57639 185.000
86.59633 208.000
86.61628 202.000
86.63623 184.000
86.65617 195.000
86.67612 179.000
86.69607 202.000
86.71602 200.000
86.73596 216.000
86.75591 197.000
86.77586 207.000
86.79580 177.000
86.81575 226.000
86.83570 207.000
86.85564 192.000
86.87559 181.000
86.89554 186.000
86.91548 203.000
86.93543 209.000
86.95538 190.000
86.97533 210.000
86.99527 195.000
87.01522 216.000
87.03517 182.000
87.05511 183.000
87.07506 193.000
87.09501 187.000
87.11495 192.000
87.13490 182.000
87.15485 188.000
87.17480 205.000
87.19474 164.000
87.21469 188.000
87.23464 184.000
87.25458 178.000
87.27453 171.000
87.29448 174.000
87.31442 166.000
87.33437 144.000
87.35432 162.000
87.37426 165.000
87.39421 185.000
87.41416 182.000
87.43411 175.000
87.45405 153.000
87.47400 173.000
87.49395 176.000
87.51389 170.000
87.53384 170.000
87.55379 182.000
87.57373 172.000
87.59368 161.000
87.61363 148.000
87.63358 173.000
87.65352 189.000
87.67347 177.000
87.69342 190.000
87.71336 154.000
87.73331 171.000
87.75326 171.000
87.77320 142.000
87.79315 138.000
87.81310 152.000
87.83304 184.000
87.85299 161.000
87.87294 178.000
87.89289 168.000
87.91283 184.000
87.93278 157.000
87.95273 178.000
87.97267 148.000
87.99262 147.000
88.01257 155.000
88.03251 161.000
88.05246 155.000
88.07241 174.000
88.09236 139.000
88.11230 166.000
88.13225 161.000
88.15220 158.000
88.17214 168.000
88.19209 147.000
88.21204 164.000
88.23198 173.000
88.25193 164.000
88.27188 161.000
88.29183 179.000
88.31177 173.000
88.33172 149.000
88.35167 194.000
88.37161 151.000
88.39156 180.000
88.41151 156.000
88.43145 176.000
88.45140 163.000
88.47135 179.000
88.49129 147.000
88.51124 139.000
88.53119 159.000
88.55114 178.000
88.57108 181.000
88.59103 174.000
88.61098 161.000
88.63092 142.000
88.65087 170.000
88.67082 163.000
88.69076 157.000
88.71071 163.000
88.73066 163.000
88.75061 189.000
88.77055 167.000
88.79050 187.000
88.81045 152.000
88.83039 181.000
88.85034 178.000
88.87029 152.000
88.89023 155.000
88.91018 170.000
88.93013 149.000
88.95007 157.000
88.97002 166.000
88.98997 155.000
89.00992 187.000
89.02986 164.000
89.04981 168.000
89.06976 164.000
89.08970 177.000
89.10965 170.000
89.12960 189.000
89.14954 195.000
89.16949 176.000
89.18944 160.000
89.20939 191.000
89.22933 167.000
89.24928 161.000
89.26923 190.000
89.28917 151.000
89.30912 169.000
89.32907 174.000
89.34901 150.000
89.36896 166.000
89.38891 162.000
89.40885 187.000
89.42880 181.000
89.44875 163.000
89.46870 171.000
89.48864 191.000
89.50859 197.000
89.52854 177.000
89.54848 165.000
89.56843 170.000
89.58838 166.000
89.60832 196.000
89.62827 178.000
89.64822 184.000
89.66817 167.000
89.68811 180.000
89.70806 159.000
89.72801 176.000
89.74795 182.000
89.76790 176.000
89.78785 199.000
89.80779 186.000
89.82774 199.000
89.84769 207.000
89.86764 177.000
89.88758 194.000
89.90753 171.000
89.92748 181.000
89.94742 183.000
89.96737 174.000
89.98732 172.000
90.00726 181.000
