10.00000 78.000
10.01995 94.000
10.03989 76.000
10.05984 74.000
10.07979 64.000
10.09973 65.000
10.11968 60.000
10.13963 77.000
10.15958 74.000
10.17952 69.000
10.19947 71.000
10.21942 71.000
10.23936 77.000
10.25931 73.000
10.27926 71.000
10.29920 67.000
10.31915 84.000
10.33910 70.000
10.35905 71.000
10.37899 72.000
10.39894 66.000
10.41889 77.000
10.43883 84.000
10.45878 78.000
10.47873 71.000
10.49867 79.000
10.51862 73.000
10.53857 70.000
10.55851 86.000
10.57846 60.000
10.59841 70.000
10.61836 72.000
10.63830 70.000
10.65825 77.000
10.67820 79.000
10.69814 69.000
10.71809 76.000
10.73804 71.000
10.75798 65.000
10.77793 83.000
10.79788 83.000
10.81783 81.000
10.83777 73.000
10.85772 73.000
10.87767 75.000
10.89761 76.000
10.91756 85.000
10.93751 86.000
10.95745 73.000
10.97740 76.000
10.99735 72.000
11.01730 79.000
11.03724 82.000
11.05719 73.000
11.07714 76.000
11.09708 74.000
11.11703 71.000
11.13698 71.000
11.15692 83.000
11.17687 65.000
11.19682 82.000
11.21676 68.000
11.23671 72.000
11.25666 75.000
11.27661 69.000
11.29655 56.000
11.31650 85.000
11.33645 74.000
11.35639 73.000
11.37634 74.000
11.39629 73.000
11.41623 90.000
11.43618 70.000
11.45613 67.000
11.47608 71.000
11.49602 67.000
11.51597 74.000
11.53592 69.000
11.55586 69.000
11.57581 66.000
11.59576 66.000
11.61570 86.000
11.63565 82.000
11.65560 75.000
11.67554 64.000
11.69549 68.000
11.71544 70.000
11.73539 76.000
11.75533 80.000
11.77528 64.000
11.79523 78.000
11.81517 62.000
11.83512 67.000
11.85507 65.000
11.87501 72.000
11.89496 70.000
11.91491 73.000
11.93486 77.000
11.95480 78.000
11.97475 61.000
11.99470 60.000
12.01464 65.000
12.03459 80.000
12.05454 76.000
12.07448 63.000
12.09443 57.000
12.11438 48.000
12.13432 74.000
12.15427 77.000
12.17422 68.000
12.19417 64.000
12.21411 60.000
12.23406 56.000
12.25401 54.000
12.27395 62.000
12.29390 65.000
12.31385 66.000
12.33379 82.000
12.35374 92.000
12.37369 79.000
12.39364 59.000
12.41358 66.000
12.43353 64.000
12.45348 60.000
12.47342 69.000
12.49337 68.000
12.51332 67.000
12.53326 74.000
12.55321 73.000
12.57316 69.000
12.59311 65.000
12.61305 61.000
12.63300 74.000
12.65295 74.000
12.67289 66.000
12.69284 74.000
12.71279 63.000
12.73273 80.000
12.75268 61.000
12.77263 68.000
12.79257 66.000
12.81252 62.000
12.83247 71.000
12.85242 54.000
12.87236 63.000
12.89231 59.000
12.91226 58.000
12.93220 56.000
12.95215 55.000
12.97210 77.000
12.99204 65.000
13.01199 72.000
13.03194 70.000
13.05189 70.000
13.07183 71.000
13.09178 81.000
13.11173 67.000
13.13167 59.000
13.15162 60.000
13.17157 41.000
13.19151 71.000
13.21146 58.000
13.23141 80.000
13.25135 61.000
13.27130 71.000
13.29125 84.000
13.31120 69.000
13.33114 77.000
13.35109 73.000
13.37104 50.000
13.39098 78.000
13.41093 75.000
13.43088 76.000
13.45082 91.000
13.47077 62.000
13.49072 75.000
13.51067 68.000
13.53061 68.000
13.55056 71.000
13.57051 78.000
13.59045 65.000
13.61040 69.000
13.63035 68.000
13.65029 73.000
13.67024 43.000
13.69019 73.000
13.71013 71.000
13.73008 59.000
13.75003 70.000
13.76998 59.000
13.78992 79.000
13.80987 71.000
13.82982 68.000
13.84976 57.000
13.86971 71.000
13.88966 72.000
13.90960 69.000
13.92955 71.000
13.94950 62.000
13.96945 80.000
13.98939 58.000
14.00934 65.000
14.02929 55.000
14.04923 65.000
14.06918 73.000
14.08913 86.000
14.10907 67.000
14.12902 73.000
14.14897 67.000
14.16892 47.000
14.18886 62.000
14.20881 64.000
14.22876 77.000
14.24870 66.000
14.26865 69.000
14.28860 71.000
14.30854 75.000
14.32849 73.000
14.34844 60.000
14.36838 64.000
14.38833 71.000
14.40828 48.000
14.42823 72.000
14.44817 57.000
14.46812 65.000
14.48807 70.000
14.50801 87.000
14.52796 77.000
14.54791 79.000
14.56785 74.000
14.58780 83.000
14.60775 60.000
14.62770 70.000
14.64764 64.000
14.66759 75.000
14.68754 90.000
14.70748 67.000
14.72743 76.000
14.74738 77.000
14.76732 76.000
14.78727 73.000
14.80722 80.000
14.82716 75.000
14.84711 63.000
14.86706 89.000
14.88701 70.000
14.90695 62.000
14.92690 79.000
14.94685 82.000
14.96679 71.000
14.98674 74.000
15.00669 78.000
15.02663 68.000
15.04658 67.000
15.06653 73.000
15.08648 89.000
15.10642 72.000
15.12637 77.000
15.14632 70.000
15.16626 86.000
15.18621 54.000
15.20616 57.000
15.22610 97.000
15.24605 83.000
15.26600 74.000
15.28594 58.000
15.30589 77.000
15.32584 85.000
15.34579 76.000
15.36573 82.000
15.38568 75.000
15.40563 58.000
15.42557 76.000
15.44552 70.000
15.46547 73.000
15.48541 82.000
15.50536 61.000
15.52531 64.000
15.54526 77.000
15.56520 67.000
15.58515 78.000
15.60510 74.000
15.62504 72.000
15.64499 76.000
15.66494 89.000
15.68488 76.000
15.70483 75.000
15.72478 73.000
15.74472 74.000
15.76467 81.000
15.78462 80.000
15.80457 90.000
15.82451 71.000
15.84446 66.000
15.86441 82.000
15.88435 74.000
15.90430 75.000
15.92425 76.000
15.94419 74.000
15.96414 82.000
15.98409 68.000
16.00404 60.000
16.02398 77.000
16.04393 72.000
16.06388 81.000
16.08382 92.000
16.10377 71.000
16.12372 70.000
16.14366 91.000
16.16361 85.000
16.18356 77.000
16.20351 83.000
16.22345 80.000
16.24340 92.000
16.26335 92.000
16.28329 85.000
16.30324 95.000
16.32319 85.000
16.34313 85.000
16.36308 79.000
16.38303 99.000
16.40297 86.000
16.42292 76.000
16.44287 89.000
16.46282 83.000
16.48276 80.000
16.50271 90.000
16.52266 96.000
16.54260 80.000
16.56255 88.000
16.58250 95.000
16.60244 88.000
16.62239 101.000
16.64234 93.000
16.66229 97.000
16.68223 107.000
16.70218 109.000
16.72213 91.000
16.74207 102.000
16.76202 104.000
16.78197 81.000
16.80191 79.000
16.82186 84.000
16.84181 91.000
16.86175 103.000
16.88170 84.000
16.90165 81.000
16.92160 80.000
16.94154 84.000
16.96149 72.000
16.98144 92.000
17.00138 106.000
17.02133 85.000
17.04128 105.000
17.06122 81.000
17.08117 88.000
17.10112 85.000
17.12107 100.000
17.14101 78.000
17.16096 101.000
17.18091 82.000
17.20085 102.000
17.22080 106.000
17.24075 86.000
17.26069 111.000
17.28064 95.000
17.30059 91.000
17.32053 109.000
17.34048 88.000
17.36043 93.000
17.38038 110.000
17.40032 110.000
17.42027 104.000
17.44022 100.000
17.46016 107.000
17.48011 100.000
17.50006 93.000
17.52000 106.000
17.53995 98.000
17.55990 94.000
17.57985 89.000
17.59979 91.000
17.61974 79.000
17.63969 102.000
17.65963 79.000
17.67958 99.000
17.69953 87.000
17.71947 79.000
17.73942 100.000
17.75937 96.000
17.77932 93.000
17.79926 106.000
17.81921 88.000
17.83916 98.000
17.85910 101.000
17.87905 75.000
17.89900 91.000
17.91894 95.000
17.93889 109.000
17.95884 91.000
17.97878 79.000
17.99873 104.000
18.01868 83.000
18.03863 108.000
18.05857 78.000
18.07852 99.000
18.09847 67.000
18.11841 109.000
18.13836 97.000
18.15831 82.000
18.17825 110.000
18.19820 88.000
18.21815 96.000
18.23810 86.000
18.25804 111.000
18.27799 94.000
18.29794 122.000
18.31788 115.000
18.33783 99.000
18.35778 80.000
18.37772 103.000
18.39767 100.000
18.41762 120.000
18.43756 106.000
18.45751 105.000
18.47746 96.000
18.49741 89.000
18.51735 88.000
18.53730 103.000
18.55725 103.000
18.57719 84.000
18.59714 99.000
18.61709 112.000
18.63703 111.000
18.65698 114.000
18.67693 110.000
18.69688 99.000
18.71682 92.000
18.73677 108.000
18.75672 113.000
18.77666 112.000
18.79661 97.000
18.81656 95.000
18.83650 100.000
18.85645 88.000
18.87640 115.000
18.89634 99.000
18.91629 98.000
18.93624 115.000
18.95619 89.000
18.97613 85.000
18.99608 107.000
19.01603 100.000
19.03597 129.000
19.05592 133.000
19.07587 90.000
19.09581 97.000
19.11576 123.000
19.13571 126.000
19.15566 112.000
19.17560 123.000
19.19555 96.000
19.21550 137.000
19.23544 109.000
19.25539 123.000
19.27534 106.000
19.29528 117.000
19.31523 126.000
19.33518 147.000
19.35513 96.000
19.37507 113.000
19.39502 128.000
19.41497 113.000
19.43491 120.000
19.45486 123.000
19.47481 126.000
19.49475 128.000
19.51470 122.000
19.53465 127.000
19.55459 129.000
19.57454 145.000
19.59449 124.000
19.61444 136.000
19.63438 140.000
19.65433 136.000
19.67428 138.000
19.69422 125.000
19.71417 118.000
19.73412 149.000
19.75406 143.000
19.77401 136.000
19.79396 158.000
19.81391 158.000
19.83385 146.000
19.85380 149.000
19.87375 160.000
19.89369 161.000
19.91364 158.000
19.93359 149.000
19.95353 178.000
19.97348 179.000
19.99343 188.000
20.01337 191.000
20.03332 202.000
20.05327 251.000
20.07322 238.000
20.09316 293.000
20.11311 304.000
20.13306 343.000
20.15300 323.000
20.17295 378.000
20.19290 416.000
20.21284 463.000
20.23279 463.000
20.25274 480.000
20.27269 560.000
20.29263 609.000
20.31258 670.000
20.33253 769.000
20.35247 784.000
20.37242 849.000
20.39237 869.000
20.41231 863.000
20.43226 918.000
20.45221 887.000
20.47215 824.000
20.49210 747.000
20.51205 758.000
20.53200 684.000
20.55194 581.000
20.57189 537.000
20.59184 505.000
20.61178 437.000
20.63173 399.000
20.65168 378.000
20.67162 351.000
20.69157 325.000
20.71152 306.000
20.73147 262.000
20.75141 210.000
20.77136 194.000
20.79131 193.000
20.81125 188.000
20.83120 166.000
20.85115 146.000
20.87109 167.000
20.89104 133.000
20.91099 142.000
20.93094 156.000
20.95088 151.000
20.97083 131.000
20.99078 144.000
21.01072 139.000
21.03067 127.000
21.05062 147.000
21.07056 124.000
21.09051 128.000
21.11046 130.000
21.13040 148.000
21.15035 138.000
21.17030 168.000
21.19025 141.000
21.21019 134.000
21.23014 116.000
21.25009 141.000
21.27003 130.000
21.28998 113.000
21.30993 152.000
21.32987 141.000
21.34982 127.000
21.36977 121.000
21.38972 128.000
21.40966 128.000
21.42961 147.000
21.44956 141.000
21.46950 132.000
21.48945 142.000
21.50940 122.000
21.52934 140.000
21.54929 135.000
21.56924 147.000
21.58918 135.000
21.60913 131.000
21.62908 130.000
21.64903 121.000
21.66897 112.000
21.68892 144.000
21.70887 148.000
21.72881 135.000
21.74876 143.000
21.76871 129.000
21.78865 131.000
21.80860 147.000
21.82855 159.000
21.84850 126.000
21.86844 159.000
21.88839 134.000
21.90834 125.000
21.92828 151.000
21.94823 138.000
21.96818 150.000
21.98812 142.000
22.00807 151.000
22.02802 128.000
22.04796 127.000
22.06791 142.000
22.08786 146.000
22.10781 123.000
22.12775 137.000
22.14770 140.000
22.16765 140.000
22.18759 155.000
22.20754 160.000
22.22749 138.000
22.24743 174.000
22.26738 162.000
22.28733 168.000
22.30728 162.000
22.32722 135.000
22.34717 154.000
22.36712 145.000
22.38706 116.000
22.40701 154.000
22.42696 149.000
22.44690 150.000
22.46685 149.000
22.48680 158.000
22.50675 150.000
22.52669 154.000
22.54664 152.000
22.56659 151.000
22.58653 162.000
22.60648 145.000
22.62643 147.000
22.64637 152.000
22.66632 161.000
22.68627 180.000
22.70621 147.000
22.72616 151.000
22.74611 153.000
22.76606 141.000
22.78600 174.000
22.80595 159.000
22.82590 140.000
22.84584 143.000
22.86579 152.000
22.88574 136.000
22.90568 158.000
22.92563 146.000
22.94558 128.000
22.96553 146.000
22.98547 173.000
23.00542 135.000
23.02537 148.000
23.04531 158.000
23.06526 149.000
23.08521 133.000
23.10515 152.000
23.12510 157.000
23.14505 136.000
23.16499 128.000
23.18494 157.000
23.20489 141.000
23.22484 150.000
23.24478 122.000
23.26473 134.000
23.28468 141.000
23.30462 128.000
23.32457 145.000
23.34452 145.000
23.36446 156.000
23.38441 167.000
23.40436 160.000
23.42431 160.000
23.44425 185.000
23.46420 161.000
23.48415 158.000
23.50409 173.000
23.52404 164.000
23.54399 141.000
23.56393 166.000
23.58388 162.000
23.60383 171.000
23.62377 168.000
23.64372 143.000
23.66367 196.000
23.68362 163.000
23.70356 190.000
23.72351 195.000
23.74346 189.000
23.76340 195.000
23.78335 208.000
23.80330 192.000
23.82324 164.000
23.84319 164.000
23.86314 199.000
23.88309 200.000
23.90303 190.000
23.92298 192.000
23.94293 180.000
23.96287 206.000
23.98282 181.000
24.00277 208.000
24.02271 173.000
24.04266 192.000
24.06261 168.000
24.08256 181.000
24.10250 187.000
24.12245 193.000
24.14240 173.000
24.16234 175.000
24.18229 139.000
24.20224 159.000
24.22218 175.000
24.24213 170.000
24.26208 187.000
24.28202 177.000
24.30197 177.000
24.32192 162.000
24.34187 192.000
24.36181 187.000
24.38176 159.000
24.40171 152.000
24.42165 163.000
24.44160 163.000
24.46155 173.000
24.48149 168.000
24.50144 156.000
24.52139 174.000
24.54134 148.000
24.56128 177.000
24.58123 166.000
24.60118 180.000
24.62112 169.000
24.64107 174.000
24.66102 187.000
24.68096 173.000
24.70091 182.000
24.72086 194.000
24.74080 223.000
24.76075 166.000
24.78070 182.000
24.80065 159.000
24.82059 199.000
24.84054 160.000
24.86049 194.000
24.88043 192.000
24.90038 165.000
24.92033 187.000
24.94027 184.000
24.96022 178.000
24.98017 180.000
25.00012 175.000
25.02006 203.000
25.04001 190.000
25.05996 173.000
25.07990 193.000
25.09985 209.000
25.11980 181.000
25.13974 180.000
25.15969 209.000
25.17964 170.000
25.19958 166.000
25.21953 193.000
25.23948 217.000
25.25943 183.000
25.27937 201.000
25.29932 209.000
25.31927 213.000
25.33921 185.000
25.35916 202.000
25.37911 210.000
25.39905 197.000
25.41900 193.000
25.43895 217.000
25.45890 215.000
25.47884 230.000
25.49879 205.000
25.51874 256.000
25.53868 218.000
25.55863 247.000
25.57858 225.000
25.59852 204.000
25.61847 226.000
25.63842 206.000
25.65837 238.000
25.67831 247.000
25.69826 257.000
25.71821 220.000
25.73815 226.000
25.75810 226.000
25.77805 232.000
25.79799 243.000
25.81794 232.000
25.83789 203.000
25.85783 265.000
25.87778 213.000
25.89773 218.000
25.91768 246.000
25.93762 232.000
25.95757 200.000
25.97752 252.000
25.99746 212.000
26.01741 227.000
26.03736 245.000
26.05730 218.000
26.07725 247.000
26.09720 240.000
26.11715 246.000
26.13709 224.000
26.15704 217.000
26.17699 233.000
26.19693 241.000
26.21688 225.000
26.23683 224.000
26.25677 215.000
26.27672 242.000
26.29667 256.000
26.31661 255.000
26.33656 250.000
26.35651 245.000
26.37646 237.000
26.39640 236.000
26.41635 232.000
26.43630 204.000
26.45624 231.000
26.47619 241.000
26.49614 225.000
26.51608 248.000
26.53603 257.000
26.55598 248.000
26.57593 251.000
26.59587 232.000
26.61582 272.000
26.63577 256.000
26.65571 252.000
26.67566 283.000
26.69561 224.000
26.71555 240.000
26.73550 238.000
26.75545 237.000
26.77539 253.000
26.79534 249.000
26.81529 246.000
26.83524 229.000
26.85518 228.000
26.87513 245.000
26.89508 257.000
26.91502 243.000
26.93497 276.000
26.95492 280.000
26.97486 260.000
26.99481 264.000
27.01476 238.000
27.03471 239.000
27.05465 249.000
27.07460 252.000
27.09455 255.000
27.11449 246.000
27.13444 236.000
27.15439 282.000
27.17433 266.000
27.19428 266.000
27.21423 254.000
27.23417 263.000
27.25412 255.000
27.27407 247.000
27.29402 239.000
27.31396 206.000
27.33391 249.000
27.35386 264.000
27.37380 260.000
27.39375 244.000
27.41370 249.000
27.43364 253.000
27.45359 276.000
27.47354 257.000
27.49349 235.000
27.51343 249.000
27.53338 262.000
27.55333 265.000
27.57327 261.000
27.59322 294.000
27.61317 257.000
27.63311 266.000
27.65306 259.000
27.67301 258.000
27.69296 244.000
27.71290 267.000
27.73285 252.000
27.75280 254.000
27.77274 258.000
27.79269 250.000
27.81264 252.000
27.83258 272.000
27.85253 274.000
27.87248 310.000
27.89242 286.000
27.91237 274.000
27.93232 255.000
27.95227 249.000
27.97221 250.000
27.99216 271.000
28.01211 247.000
28.03205 269.000
28.05200 275.000
28.07195 253.000
28.09189 256.000
28.11184 270.000
28.13179 280.000
28.15174 296.000
28.17168 241.000
28.19163 300.000
28.21158 281.000
28.23152 269.000
28.25147 265.000
28.27142 271.000
28.29136 266.000
28.31131 275.000
28.33126 267.000
28.35120 263.000
28.37115 282.000
28.39110 276.000
28.41105 286.000
28.43099 285.000
28.45094 275.000
28.47089 290.000
28.49083 308.000
28.51078 260.000
28.53073 279.000
28.55067 261.000
28.57062 298.000
28.59057 255.000
28.61052 285.000
28.63046 266.000
28.65041 281.000
28.67036 289.000
28.69030 262.000
28.71025 265.000
28.73020 258.000
28.75014 285.000
28.77009 261.000
28.79004 271.000
28.80998 311.000
28.82993 258.000
28.84988 249.000
28.86983 263.000
28.88977 287.000
28.90972 294.000
28.92967 277.000
28.94961 295.000
28.96956 294.000
28.98951 260.000
29.00945 258.000
29.02940 344.000
29.04935 300.000
29.06930 278.000
29.08924 314.000
29.10919 294.000
29.12914 310.000
29.14908 287.000
29.16903 301.000
29.18898 308.000
29.20892 313.000
29.22887 335.000
29.24882 304.000
29.26877 331.000
29.28871 330.000
29.30866 297.000
29.32861 286.000
29.34855 323.000
29.36850 309.000
29.38845 304.000
29.40839 280.000
29.42834 307.000
29.44829 353.000
29.46823 272.000
29.48818 307.000
29.50813 315.000
29.52808 300.000
29.54802 309.000
29.56797 289.000
29.58792 290.000
29.60786 309.000
29.62781 292.000
29.64776 293.000
29.66770 295.000
29.68765 303.000
29.70760 323.000
29.72755 269.000
29.74749 289.000
29.76744 267.000
29.78739 309.000
29.80733 317.000
29.82728 325.000
29.84723 341.000
29.86717 336.000
29.88712 316.000
29.90707 297.000
29.92701 347.000
29.94696 355.000
29.96691 343.000
29.98686 324.000
30.00680 338.000
30.02675 303.000
30.04670 304.000
30.06664 350.000
30.08659 312.000
30.10654 320.000
30.12648 327.000
30.14643 298.000
30.16638 327.000
30.18633 343.000
30.20627 280.000
30.22622 317.000
30.24617 279.000
30.26611 288.000
30.28606 314.000
30.30601 302.000
30.32595 300.000
30.34590 284.000
30.36585 278.000
30.38579 296.000
30.40574 313.000
30.42569 295.000
30.44564 278.000
30.46558 281.000
30.48553 282.000
30.50548 301.000
30.52542 330.000
30.54537 297.000
30.56532 284.000
30.58526 273.000
30.60521 289.000
30.62516 268.000
30.64511 301.000
30.66505 303.000
30.68500 255.000
30.70495 255.000
30.72489 266.000
30.74484 290.000
30.76479 305.000
30.78473 293.000
30.80468 301.000
30.82463 274.000
30.84458 266.000
30.86452 270.000
30.88447 294.000
30.90442 292.000
30.92436 288.000
30.94431 290.000
30.96426 283.000
30.98420 303.000
31.00415 275.000
31.02410 279.000
31.04404 298.000
31.06399 278.000
31.08394 282.000
31.10389 307.000
31.12383 258.000
31.14378 305.000
31.16373 272.000
31.18367 265.000
31.20362 297.000
31.22357 252.000
31.24351 318.000
31.26346 285.000
31.28341 288.000
31.30336 265.000
31.32330 292.000
31.34325 285.000
31.36320 315.000
31.38314 321.000
31.40309 271.000
31.42304 332.000
31.44298 309.000
31.46293 276.000
31.48288 269.000
31.50282 325.000
31.52277 271.000
31.54272 288.000
31.56267 291.000
31.58261 314.000
31.60256 286.000
31.62251 272.000
31.64245 286.000
31.66240 267.000
31.68235 274.000
31.70229 279.000
31.72224 281.000
31.74219 280.000
31.76214 289.000
31.78208 292.000
31.80203 246.000
31.82198 246.000
31.84192 267.000
31.86187 267.000
31.88182 285.000
31.90176 290.000
31.92171 254.000
31.94166 274.000
31.96160 260.000
31.98155 270.000
32.00150 247.000
32.02145 240.000
32.04139 231.000
32.06134 244.000
32.08129 263.000
32.10123 258.000
32.12118 214.000
32.14113 244.000
32.16107 277.000
32.18102 272.000
32.20097 246.000
32.22092 268.000
32.24086 269.000
32.26081 265.000
32.28076 280.000
32.30070 281.000
32.32065 249.000
32.34060 285.000
32.36054 244.000
32.38049 238.000
32.40044 252.000
32.42039 233.000
32.44033 256.000
32.46028 267.000
32.48023 240.000
32.50017 263.000
32.52012 254.000
32.54007 258.000
32.56001 262.000
32.57996 235.000
32.59991 290.000
32.61985 278.000
32.63980 244.000
32.65975 273.000
32.67970 313.000
32.69964 266.000
32.71959 285.000
32.73954 294.000
32.75948 327.000
32.77943 324.000
32.79938 314.000
32.81932 349.000
32.83927 329.000
32.85922 373.000
32.87917 366.000
32.89911 385.000
32.91906 379.000
32.93901 383.000
32.95895 398.000
32.97890 374.000
32.99885 387.000
33.01879 377.000
33.03874 398.000
33.05869 401.000
33.07863 383.000
33.09858 386.000
33.11853 384.000
33.13848 359.000
33.15842 397.000
33.17837 356.000
33.19832 380.000
33.21826 377.000
33.23821 387.000
33.25816 392.000
33.27810 398.000
33.29805 425.000
33.31800 478.000
33.33795 467.000
33.35789 521.000
33.37784 508.000
33.39779 550.000
33.41773 578.000
33.43768 654.000
33.45763 698.000
33.47757 723.000
33.49752 716.000
33.51747 807.000
33.53741 869.000
33.55736 880.000
33.57731 1025.000
33.59726 967.000
33.61720 1027.000
33.63715 1085.000
33.65710 1026.000
33.67704 1101.000
33.69699 1101.000
33.71694 1107.000
33.73688 1116.000
33.75683 1047.000
33.77678 1108.000
33.79673 1156.000
33.81667 1087.000
33.83662 1042.000
33.85657 1116.000
33.87651 1056.000
33.89646 990.000
33.91641 955.000
33.93635 979.000
33.95630 856.000
33.97625 833.000
33.99620 769.000
34.01614 697.000
34.03609 635.000
34.05604 627.000
34.07598 654.000
34.09593 566.000
34.11588 510.000
34.13582 492.000
34.15577 494.000
34.17572 473.000
34.19566 443.000
34.21561 393.000
34.23556 398.000
34.25551 378.000
34.27545 366.000
34.29540 336.000
34.31535 315.000
34.33529 298.000
34.35524 307.000
34.37519 298.000
34.39513 269.000
34.41508 265.000
34.43503 263.000
34.45498 274.000
34.47492 248.000
34.49487 229.000
34.51482 261.000
34.53476 235.000
34.55471 235.000
34.57466 253.000
34.59460 219.000
34.61455 229.000
34.63450 225.000
34.65444 251.000
34.67439 225.000
34.69434 241.000
34.71429 230.000
34.73423 233.000
34.75418 241.000
34.77413 254.000
34.79407 228.000
34.81402 254.000
34.83397 262.000
34.85391 256.000
34.87386 238.000
34.89381 231.000
34.91376 217.000
34.93370 264.000
34.95365 250.000
34.97360 263.000
34.99354 235.000
35.01349 263.000
35.03344 284.000
35.05338 274.000
35.07333 248.000
35.09328 296.000
35.11322 310.000
35.13317 324.000
35.15312 361.000
35.17307 374.000
35.19301 383.000
35.21296 369.000
35.23291 396.000
35.25285 407.000
35.27280 379.000
35.29275 458.000
35.31269 489.000
35.33264 493.000
35.35259 496.000
35.37254 439.000
35.39248 485.000
35.41243 538.000
35.43238 549.000
35.45232 491.000
35.47227 508.000
35.49222 475.000
35.51216 459.000
35.53211 404.000
35.55206 384.000
35.57201 362.000
35.59195 383.000
35.61190 301.000
35.63185 309.000
35.65179 300.000
35.67174 247.000
35.69169 288.000
35.71163 289.000
35.73158 256.000
35.75153 240.000
35.77147 245.000
35.79142 238.000
35.81137 246.000
35.83132 228.000
35.85126 243.000
35.87121 214.000
35.89116 211.000
35.91110 215.000
35.93105 226.000
35.95100 225.000
35.97094 200.000
35.99089 215.000
36.01084 212.000
36.03079 215.000
36.05073 224.000
36.07068 185.000
36.09063 195.000
36.11057 225.000
36.13052 192.000
36.15047 210.000
36.17041 215.000
36.19036 206.000
36.21031 196.000
36.23025 192.000
36.25020 220.000
36.27015 180.000
36.29010 195.000
36.31004 217.000
36.32999 180.000
36.34994 173.000
36.36988 221.000
36.38983 208.000
36.40978 200.000
36.42972 197.000
36.44967 197.000
36.46962 196.000
36.48957 175.000
36.50951 164.000
36.52946 184.000
36.54941 170.000
36.56935 211.000
36.58930 199.000
36.60925 182.000
36.62919 193.000
36.64914 170.000
36.66909 188.000
36.68903 203.000
36.70898 226.000
36.72893 192.000
36.74888 198.000
36.76882 204.000
36.78877 181.000
36.80872 170.000
36.82866 175.000
36.84861 198.000
36.86856 188.000
36.88850 175.000
36.90845 189.000
36.92840 193.000
36.94835 176.000
36.96829 194.000
36.98824 230.000
37.00819 164.000
37.02813 206.000
37.04808 171.000
37.06803 197.000
37.08797 199.000
37.10792 167.000
37.12787 200.000
37.14781 181.000
37.16776 191.000
37.18771 189.000
37.20766 165.000
37.22760 181.000
37.24755 196.000
37.26750 190.000
37.28744 193.000
37.30739 195.000
37.32734 172.000
37.34728 182.000
37.36723 177.000
37.38718 179.000
37.40713 175.000
37.42707 158.000
37.44702 190.000
37.46697 183.000
37.48691 209.000
37.50686 163.000
37.52681 194.000
37.54675 162.000
37.56670 197.000
37.58665 157.000
37.60660 188.000
37.62654 188.000
37.64649 181.000
37.66644 195.000
37.68638 188.000
37.70633 160.000
37.72628 194.000
37.74622 155.000
37.76617 192.000
37.78612 186.000
37.80606 164.000
37.82601 221.000
37.84596 183.000
37.86591 193.000
37.88585 175.000
37.90580 197.000
37.92575 171.000
37.94569 184.000
37.96564 187.000
37.98559 185.000
38.00553 183.000
38.02548 198.000
38.04543 177.000
38.06538 191.000
38.08532 183.000
38.10527 180.000
38.12522 190.000
38.14516 178.000
38.16511 173.000
38.18506 151.000
38.20500 175.000
38.22495 200.000
38.24490 166.000
38.26484 160.000
38.28479 175.000
38.30474 184.000
38.32469 159.000
38.34463 201.000
38.36458 206.000
38.38453 175.000
38.40447 171.000
38.42442 179.000
38.44437 155.000
38.46431 170.000
38.48426 190.000
38.50421 186.000
38.52416 183.000
38.54410 191.000
38.56405 170.000
38.58400 155.000
38.60394 171.000
38.62389 171.000
38.64384 203.000
38.66378 180.000
38.68373 182.000
38.70368 188.000
38.72362 190.000
38.74357 184.000
38.76352 180.000
38.78347 211.000
38.80341 164.000
38.82336 179.000
38.84331 190.000
38.86325 178.000
38.88320 184.000
38.90315 189.000
38.92309 196.000
38.94304 181.000
38.96299 176.000
38.98294 161.000
39.00288 181.000
39.02283 152.000
39.04278 193.000
39.06272 197.000
39.08267 155.000
39.10262 206.000
39.12256 171.000
39.14251 192.000
39.16246 203.000
39.18241 194.000
39.20235 146.000
39.22230 161.000
39.24225 191.000
39.26219 194.000
39.28214 176.000
39.30209 188.000
39.32203 192.000
39.34198 206.000
39.36193 185.000
39.38187 171.000
39.40182 185.000
39.42177 225.000
39.44172 186.000
39.46166 193.000
39.48161 173.000
39.50156 176.000
39.52150 179.000
39.54145 179.000
39.56140 191.000
39.58134 199.000
39.60129 167.000
39.62124 207.000
39.64119 204.000
39.66113 192.000
39.68108 220.000
39.70103 189.000
39.72097 176.000
39.74092 217.000
39.76087 225.000
39.78081 196.000
39.80076 191.000
39.82071 191.000
39.84065 218.000
39.86060 187.000
39.88055 205.000
39.90050 214.000
39.92044 204.000
39.94039 197.000
39.96034 199.000
39.98028 212.000
40.00023 217.000
40.02018 215.000
40.04012 186.000
40.06007 188.000
40.08002 204.000
40.09997 194.000
40.11991 198.000
40.13986 205.000
40.15981 183.000
40.17975 195.000
40.19970 180.000
40.21965 194.000
40.23959 197.000
40.25954 188.000
40.27949 200.000
40.29943 193.000
40.31938 196.000
40.33933 185.000
40.35928 195.000
40.37922 180.000
40.39917 179.000
40.41912 163.000
40.43906 173.000
40.45901 178.000
40.47896 179.000
40.49890 188.000
40.51885 186.000
40.53880 174.000
40.55875 208.000
40.57869 196.000
40.59864 187.000
40.61859 200.000
40.63853 189.000
40.65848 176.000
40.67843 208.000
40.69837 171.000
40.71832 216.000
40.73827 202.000
40.75822 172.000
40.77816 204.000
40.79811 193.000
40.81806 221.000
40.83800 177.000
40.85795 185.000
40.87790 172.000
40.89784 177.000
40.91779 191.000
40.93774 201.000
40.95768 160.000
40.97763 172.000
40.99758 187.000
41.01753 151.000
41.03747 202.000
41.05742 158.000
41.07737 197.000
41.09731 167.000
41.11726 183.000
41.13721 181.000
41.15715 159.000
41.17710 193.000
41.19705 157.000
41.21700 162.000
41.23694 191.000
41.25689 158.000
41.27684 191.000
41.29678 196.000
41.31673 171.000
41.33668 165.000
41.35662 189.000
41.37657 175.000
41.39652 180.000
41.41646 189.000
41.43641 181.000
41.45636 190.000
41.47631 184.000
41.49625 177.000
41.51620 183.000
41.53615 172.000
41.55609 166.000
41.57604 163.000
41.59599 167.000
41.61593 203.000
41.63588 186.000
41.65583 205.000
41.67578 179.000
41.69572 193.000
41.71567 179.000
41.73562 186.000
41.75556 204.000
41.77551 156.000
41.79546 167.000
41.81540 159.000
41.83535 165.000
41.85530 180.000
41.87524 201.000
41.89519 188.000
41.91514 175.000
41.93509 187.000
41.95503 185.000
41.97498 189.000
41.99493 182.000
42.01487 191.000
42.03482 193.000
42.05477 185.000
42.07471 209.000
42.09466 174.000
42.11461 205.000
42.13456 197.000
42.15450 197.000
42.17445 165.000
42.19440 199.000
42.21434 180.000
42.23429 172.000
42.25424 186.000
42.27418 169.000
42.29413 185.000
42.31408 176.000
42.33403 162.000
42.35397 184.000
42.37392 162.000
42.39387 159.000
42.41381 169.000
42.43376 166.000
42.45371 166.000
42.47365 155.000
42.49360 178.000
42.51355 185.000
42.53349 160.000
42.55344 160.000
42.57339 170.000
42.59334 166.000
42.61328 158.000
42.63323 182.000
42.65318 164.000
42.67312 185.000
42.69307 166.000
42.71302 179.000
42.73296 200.000
42.75291 161.000
42.77286 187.000
42.79281 190.000
42.81275 191.000
42.83270 181.000
42.85265 200.000
42.87259 183.000
42.89254 214.000
42.91249 181.000
42.93243 209.000
42.95238 205.000
42.97233 203.000
42.99227 197.000
43.01222 181.000
43.03217 206.000
43.05212 187.000
43.07206 201.000
43.09201 199.000
43.11196 187.000
43.13190 173.000
43.15185 218.000
43.17180 186.000
43.19174 166.000
43.21169 194.000
43.23164 194.000
43.25159 201.000
43.27153 181.000
43.29148 190.000
43.31143 161.000
43.33137 179.000
43.35132 166.000
43.37127 163.000
43.39121 178.000
43.41116 171.000
43.43111 179.000
43.45105 192.000
43.47100 156.000
43.49095 190.000
43.51090 163.000
43.53084 148.000
43.55079 174.000
43.57074 163.000
43.59068 167.000
43.61063 153.000
43.63058 140.000
43.65052 156.000
43.67047 146.000
43.69042 158.000
43.71037 152.000
43.73031 151.000
43.75026 152.000
43.77021 154.000
43.79015 134.000
43.81010 173.000
43.83005 150.000
43.84999 136.000
43.86994 134.000
43.88989 154.000
43.90984 158.000
43.92978 167.000
43.94973 167.000
43.96968 131.000
43.98962 157.000
44.00957 143.000
44.02952 147.000
44.04946 149.000
44.06941 158.000
44.08936 152.000
44.10930 167.000
44.12925 159.000
44.14920 150.000
44.16915 157.000
44.18909 145.000
44.20904 139.000
44.22899 141.000
44.24893 139.000
44.26888 155.000
44.28883 150.000
44.30877 150.000
44.32872 140.000
44.34867 157.000
44.36862 145.000
44.38856 134.000
44.40851 144.000
44.42846 148.000
44.44840 144.000
44.46835 146.000
44.48830 148.000
44.50824 124.000
44.52819 137.000
44.54814 133.000
44.56808 143.000
44.58803 146.000
44.60798 149.000
44.62793 150.000
44.64787 160.000
44.66782 141.000
44.68777 164.000
44.70771 141.000
44.72766 136.000
44.74761 167.000
44.76755 160.000
44.78750 139.000
44.80745 168.000
44.82740 161.000
44.84734 142.000
44.86729 138.000
44.88724 151.000
44.90718 166.000
44.92713 161.000
44.94708 138.000
44.96702 155.000
44.98697 139.000
45.00692 142.000
45.02686 168.000
45.04681 130.000
45.06676 143.000
45.08671 146.000
45.10665 133.000
45.12660 138.000
45.14655 123.000
45.16649 136.000
45.18644 159.000
45.20639 152.000
45.22633 145.000
45.24628 138.000
45.26623 141.000
45.28618 152.000
45.30612 168.000
45.32607 138.000
45.34602 121.000
45.36596 135.000
45.38591 129.000
45.40586 126.000
45.42580 129.000
45.44575 156.000
45.46570 141.000
45.48565 137.000
45.50559 135.000
45.52554 140.000
45.54549 128.000
45.56543 138.000
45.58538 139.000
45.60533 121.000
45.62527 115.000
45.64522 133.000
45.66517 135.000
45.68511 129.000
45.70506 140.000
45.72501 158.000
45.74496 144.000
45.76490 145.000
45.78485 135.000
45.80480 156.000
45.82474 142.000
45.84469 130.000
45.86464 125.000
45.88458 124.000
45.90453 131.000
45.92448 141.000
45.94443 141.000
45.96437 143.000
45.98432 133.000
46.00427 174.000
46.02421 112.000
46.04416 142.000
46.06411 131.000
46.08405 139.000
46.10400 135.000
46.12395 132.000
46.14389 152.000
46.16384 132.000
46.18379 143.000
46.20374 111.000
46.22368 153.000
46.24363 146.000
46.26358 124.000
46.28352 131.000
46.30347 146.000
46.32342 127.000
46.34336 133.000
46.36331 130.000
46.38326 147.000
46.40321 141.000
46.42315 112.000
46.44310 146.000
46.46305 139.000
46.48299 139.000
46.50294 133.000
46.52289 138.000
46.54283 145.000
46.56278 131.000
46.58273 132.000
46.60267 133.000
46.62262 143.000
46.64257 130.000
46.66252 124.000
46.68246 132.000
46.70241 149.000
46.72236 131.000
46.74230 129.000
46.76225 133.000
46.78220 131.000
46.80214 144.000
46.82209 142.000
46.84204 143.000
46.86199 141.000
46.88193 121.000
46.90188 133.000
46.92183 143.000
46.94177 143.000
46.96172 129.000
46.98167 130.000
47.00161 123.000
47.02156 142.000
47.04151 137.000
47.06146 137.000
47.08140 134.000
47.10135 133.000
47.12130 118.000
47.14124 130.000
47.16119 126.000
47.18114 133.000
47.20108 115.000
47.22103 132.000
47.24098 129.000
47.26092 107.000
47.28087 120.000
47.30082 114.000
47.32077 139.000
47.34071 140.000
47.36066 130.000
47.38061 134.000
47.40055 125.000
47.42050 134.000
47.44045 131.000
47.46039 124.000
47.48034 138.000
47.50029 127.000
47.52024 136.000
47.54018 138.000
47.56013 115.000
47.58008 110.000
47.60002 119.000
47.61997 130.000
47.63992 125.000
47.65986 129.000
47.67981 133.000
47.69976 118.000
47.71970 123.000
47.73965 150.000
47.75960 145.000
47.77955 149.000
47.79949 144.000
47.81944 148.000
47.83939 145.000
47.85933 150.000
47.87928 154.000
47.89923 143.000
47.91917 128.000
47.93912 144.000
47.95907 141.000
47.97902 151.000
47.99896 139.000
48.01891 170.000
48.03886 152.000
48.05880 141.000
48.07875 148.000
48.09870 154.000
48.11864 143.000
48.13859 138.000
48.15854 145.000
48.17848 162.000
48.19843 161.000
48.21838 157.000
48.23833 148.000
48.25827 171.000
48.27822 172.000
48.29817 162.000
48.31811 149.000
48.33806 164.000
48.35801 168.000
48.37795 134.000
48.39790 197.000
48.41785 178.000
48.43780 163.000
48.45774 168.000
48.47769 183.000
48.49764 175.000
48.51758 178.000
48.53753 184.000
48.55748 176.000
48.57742 201.000
48.59737 193.000
48.61732 211.000
48.63726 207.000
48.65721 209.000
48.67716 212.000
48.69711 195.000
48.71705 192.000
48.73700 191.000
48.75695 208.000
48.77689 205.000
48.79684 215.000
48.81679 202.000
48.83673 187.000
48.85668 186.000
48.87663 203.000
48.89658 204.000
48.91652 199.000
48.93647 195.000
48.95642 199.000
48.97636 204.000
48.99631 162.000
49.01626 203.000
49.03620 184.000
49.05615 157.000
49.07610 168.000
49.09605 164.000
49.11599 168.000
49.13594 161.000
49.15589 154.000
49.17583 161.000
49.19578 151.000
49.21573 152.000
49.23567 174.000
49.25562 169.000
49.27557 153.000
49.29551 161.000
49.31546 147.000
49.33541 138.000
49.35536 150.000
49.37530 146.000
49.39525 145.000
49.41520 152.000
49.43514 126.000
49.45509 132.000
49.47504 120.000
49.49498 126.000
49.51493 127.000
49.53488 143.000
49.55483 132.000
49.57477 126.000
49.59472 125.000
49.61467 103.000
49.63461 119.000
49.65456 112.000
49.67451 122.000
49.69445 117.000
49.71440 115.000
49.73435 121.000
49.75429 134.000
49.77424 119.000
49.79419 124.000
49.81414 119.000
49.83408 143.000
49.85403 127.000
49.87398 134.000
49.89392 119.000
49.91387 117.000
49.93382 131.000
49.95376 119.000
49.97371 125.000
49.99366 118.000
50.01361 116.000
50.03355 125.000
50.05350 115.000
50.07345 128.000
50.09339 110.000
50.11334 106.000
50.13329 110.000
50.15323 116.000
50.17318 96.000
50.19313 109.000
50.21307 122.000
50.23302 109.000
50.25297 122.000
50.27292 133.000
50.29286 129.000
50.31281 118.000
50.33276 104.000
50.35270 123.000
50.37265 118.000
50.39260 116.000
50.41254 110.000
50.43249 100.000
50.45244 105.000
50.47239 115.000
50.49233 109.000
50.51228 116.000
50.53223 86.000
50.55217 105.000
50.57212 128.000
50.59207 112.000
50.61201 99.000
50.63196 112.000
50.65191 111.000
50.67186 112.000
50.69180 117.000
50.71175 126.000
50.73170 95.000
50.75164 116.000
50.77159 107.000
50.79154 129.000
50.81148 114.000
50.83143 121.000
50.85138 125.000
50.87132 116.000
50.89127 102.000
50.91122 103.000
50.93117 112.000
50.95111 112.000
50.97106 86.000
50.99101 113.000
51.01095 121.000
51.03090 114.000
51.05085 99.000
51.07079 93.000
51.09074 90.000
51.11069 110.000
51.13064 118.000
51.15058 114.000
51.17053 114.000
51.19048 101.000
51.21042 100.000
51.23037 109.000
51.25032 95.000
51.27026 115.000
51.29021 112.000
51.31016 98.000
51.33010 100.000
51.35005 110.000
51.37000 99.000
51.38995 99.000
51.40989 105.000
51.42984 104.000
51.44979 100.000
51.46973 88.000
51.48968 110.000
51.50963 110.000
51.52957 113.000
51.54952 94.000
51.56947 97.000
51.58942 95.000
51.60936 127.000
51.62931 101.000
51.64926 105.000
51.66920 87.000
51.68915 107.000
51.70910 90.000
51.72904 107.000
51.74899 111.000
51.76894 105.000
51.78888 102.000
51.80883 107.000
51.82878 92.000
51.84873 109.000
51.86867 118.000
51.88862 118.000
51.90857 106.000
51.92851 119.000
51.94846 102.000
51.96841 104.000
51.98835 98.000
52.00830 103.000
52.02825 113.000
52.04820 114.000
52.06814 121.000
52.08809 106.000
52.10804 120.000
52.12798 106.000
52.14793 104.000
52.16788 109.000
52.18782 98.000
52.20777 106.000
52.22772 118.000
52.24767 108.000
52.26761 94.000
52.28756 96.000
52.30751 109.000
52.32745 87.000
52.34740 118.000
52.36735 108.000
52.38729 115.000
52.40724 105.000
52.42719 119.000
52.44713 123.000
52.46708 99.000
52.48703 118.000
52.50698 84.000
52.52692 96.000
52.54687 102.000
52.56682 119.000
52.58676 100.000
52.60671 123.000
52.62666 142.000
52.64660 128.000
52.66655 118.000
52.68650 109.000
52.70645 116.000
52.72639 120.000
52.74634 117.000
52.76629 157.000
52.78623 132.000
52.80618 123.000
52.82613 123.000
52.84607 127.000
52.86602 144.000
52.88597 159.000
52.90591 130.000
52.92586 144.000
52.94581 115.000
52.96576 130.000
52.98570 133.000
53.00565 134.000
53.02560 143.000
53.04554 164.000
53.06549 132.000
53.08544 125.000
53.10538 161.000
53.12533 140.000
53.14528 141.000
53.16523 131.000
53.18517 154.000
53.20512 178.000
53.22507 150.000
53.24501 137.000
53.26496 145.000
53.28491 154.000
53.30485 139.000
53.32480 165.000
53.34475 133.000
53.36469 178.000
53.38464 144.000
53.40459 166.000
53.42454 153.000
53.44448 160.000
53.46443 161.000
53.48438 145.000
53.50432 165.000
53.52427 158.000
53.54422 144.000
53.56416 146.000
53.58411 119.000
53.60406 155.000
53.62401 147.000
53.64395 137.000
53.66390 147.000
53.68385 127.000
53.70379 130.000
53.72374 151.000
53.74369 136.000
53.76363 141.000
53.78358 157.000
53.80353 176.000
53.82348 165.000
53.84342 171.000
53.86337 160.000
53.88332 133.000
53.90326 141.000
53.92321 156.000
53.94316 163.000
53.96310 179.000
53.98305 161.000
54.00300 155.000
54.02294 147.000
54.04289 121.000
54.06284 128.000
54.08279 126.000
54.10273 120.000
54.12268 120.000
54.14263 100.000
54.16257 120.000
54.18252 117.000
54.20247 120.000
54.22241 95.000
54.24236 105.000
54.26231 126.000
54.28226 87.000
54.30220 106.000
54.32215 115.000
54.34210 98.000
54.36204 112.000
54.38199 96.000
54.40194 114.000
54.42188 111.000
54.44183 99.000
54.46178 121.000
54.48172 104.000
54.50167 126.000
54.52162 120.000
54.54157 111.000
54.56151 103.000
54.58146 125.000
54.60141 95.000
54.62135 109.000
54.64130 110.000
54.66125 109.000
54.68119 102.000
54.70114 111.000
54.72109 112.000
54.74104 94.000
54.76098 131.000
54.78093 107.000
54.80088 112.000
54.82082 115.000
54.84077 121.000
54.86072 123.000
54.88066 116.000
54.90061 102.000
54.92056 112.000
54.94050 71.000
54.96045 124.000
54.98040 122.000
55.00035 96.000
55.02029 125.000
55.04024 95.000
55.06019 99.000
55.08013 134.000
55.10008 107.000
55.12003 105.000
55.13997 95.000
55.15992 108.000
55.17987 108.000
55.19982 107.000
55.21976 99.000
55.23971 103.000
55.25966 107.000
55.27960 100.000
55.29955 103.000
55.31950 111.000
55.33944 105.000
55.35939 104.000
55.37934 108.000
55.39929 117.000
55.41923 119.000
55.43918 123.000
55.45913 134.000
55.47907 105.000
55.49902 110.000
55.51897 107.000
55.53891 94.000
55.55886 108.000
55.57881 106.000
55.59875 107.000
55.61870 117.000
55.63865 100.000
55.65860 117.000
55.67854 107.000
55.69849 103.000
55.71844 120.000
55.73838 103.000
55.75833 105.000
55.77828 120.000
55.79822 115.000
55.81817 102.000
55.83812 100.000
55.85807 131.000
55.87801 120.000
55.89796 116.000
55.91791 93.000
55.93785 112.000
55.95780 114.000
55.97775 86.000
55.99769 119.000
56.01764 116.000
56.03759 101.000
56.05753 120.000
56.07748 98.000
56.09743 90.000
56.11738 114.000
56.13732 113.000
56.15727 130.000
56.17722 98.000
56.19716 105.000
56.21711 95.000
56.23706 102.000
56.25700 110.000
56.27695 94.000
56.29690 110.000
56.31685 103.000
56.33679 96.000
56.35674 93.000
56.37669 109.000
56.39663 120.000
56.41658 97.000
56.43653 115.000
56.45647 104.000
56.47642 108.000
56.49637 94.000
56.51631 93.000
56.53626 103.000
56.55621 107.000
56.57616 115.000
56.59610 109.000
56.61605 116.000
56.63600 105.000
56.65594 122.000
56.67589 109.000
56.69584 92.000
56.71578 130.000
56.73573 125.000
56.75568 127.000
56.77563 112.000
56.79557 125.000
56.81552 113.000
56.83547 132.000
56.85541 122.000
56.87536 117.000
56.89531 129.000
56.91525 132.000
56.93520 125.000
56.95515 132.000
56.97510 130.000
56.99504 126.000
57.01499 111.000
57.03494 121.000
57.05488 122.000
57.07483 120.000
57.09478 133.000
57.11472 150.000
57.13467 124.000
57.15462 138.000
57.17456 125.000
57.19451 131.000
57.21446 136.000
57.23441 130.000
57.25435 103.000
57.27430 127.000
57.29425 121.000
57.31419 117.000
57.33414 106.000
57.35409 111.000
57.37403 122.000
57.39398 128.000
57.41393 122.000
57.43388 89.000
57.45382 132.000
57.47377 116.000
57.49372 104.000
57.51366 98.000
57.53361 102.000
57.55356 110.000
57.57350 103.000
57.59345 106.000
57.61340 103.000
57.63334 107.000
57.65329 112.000
57.67324 94.000
57.69319 108.000
57.71313 95.000
57.73308 92.000
57.75303 108.000
57.77297 95.000
57.79292 106.000
57.81287 96.000
57.83281 114.000
57.85276 81.000
57.87271 94.000
57.89266 107.000
57.91260 94.000
57.93255 103.000
57.95250 92.000
57.97244 95.000
57.99239 97.000
58.01234 117.000
58.03228 102.000
58.05223 114.000
58.07218 96.000
58.09212 97.000
58.11207 94.000
58.13202 107.000
58.15197 98.000
58.17191 99.000
58.19186 85.000
58.21181 79.000
58.23175 90.000
58.25170 101.000
58.27165 105.000
58.29159 91.000
58.31154 88.000
58.33149 89.000
58.35144 105.000
58.37138 91.000
58.39133 79.000
58.41128 114.000
58.43122 77.000
58.45117 107.000
58.47112 88.000
58.49106 114.000
58.51101 95.000
58.53096 92.000
58.55090 89.000
58.57085 110.000
58.59080 98.000
58.61075 83.000
58.63069 84.000
58.65064 97.000
58.67059 98.000
58.69053 101.000
58.71048 100.000
58.73043 84.000
58.75037 102.000
58.77032 93.000
58.79027 107.000
58.81022 111.000
58.83016 102.000
58.85011 94.000
58.87006 99.000
58.89000 112.000
58.90995 103.000
58.92990 94.000
58.94984 94.000
58.96979 106.000
58.98974 105.000
59.00969 101.000
59.02963 109.000
59.04958 100.000
59.06953 92.000
59.08947 107.000
59.10942 112.000
59.12937 98.000
59.14931 75.000
59.16926 97.000
59.18921 109.000
59.20915 113.000
59.22910 99.000
59.24905 113.000
59.26900 82.000
59.28894 106.000
59.30889 113.000
59.32884 108.000
59.34878 95.000
59.36873 110.000
59.38868 119.000
59.40862 95.000
59.42857 115.000
59.44852 97.000
59.46847 103.000
59.48841 114.000
59.50836 112.000
59.52831 104.000
59.54825 123.000
59.56820 107.000
59.58815 113.000
59.60809 119.000
59.62804 105.000
59.64799 117.000
59.66793 123.000
59.68788 132.000
59.70783 146.000
59.72778 142.000
59.74772 114.000
59.76767 121.000
59.78762 115.000
59.80756 156.000
59.82751 133.000
59.84746 152.000
59.86740 140.000
59.88735 149.000
59.90730 142.000
59.92725 152.000
59.94719 122.000
59.96714 157.000
59.98709 122.000
60.00703 173.000
60.02698 170.000
60.04693 167.000
60.06687 168.000
60.08682 165.000
60.10677 172.000
60.12671 159.000
60.14666 173.000
60.16661 179.000
60.18656 196.000
60.20650 221.000
60.22645 204.000
60.24640 209.000
60.26634 193.000
60.28629 190.000
60.30624 226.000
60.32618 210.000
60.34613 263.000
60.36608 220.000
60.38603 235.000
60.40597 253.000
60.42592 256.000
60.44587 232.000
60.46581 236.000
60.48576 253.000
60.50571 269.000
60.52565 283.000
60.54560 257.000
60.56555 268.000
60.58550 269.000
60.60544 297.000
60.62539 250.000
60.64534 265.000
60.66528 278.000
60.68523 266.000
60.70518 264.000
60.72512 265.000
60.74507 298.000
60.76502 276.000
60.78496 263.000
60.80491 244.000
60.82486 248.000
60.84481 242.000
60.86475 253.000
60.88470 247.000
60.90465 241.000
60.92459 212.000
60.94454 236.000
60.96449 214.000
60.98443 202.000
61.00438 196.000
61.02433 201.000
61.04428 184.000
61.06422 174.000
61.08417 176.000
61.10412 166.000
61.12406 196.000
61.14401 195.000
61.16396 155.000
61.18390 159.000
61.20385 165.000
61.22380 155.000
61.24374 156.000
61.26369 151.000
61.28364 170.000
61.30359 154.000
61.32353 145.000
61.34348 140.000
61.36343 149.000
61.38337 160.000
61.40332 160.000
61.42327 106.000
61.44321 135.000
61.46316 137.000
61.48311 139.000
61.50306 135.000
61.52300 123.000
61.54295 111.000
61.56290 123.000
61.58284 118.000
61.60279 127.000
61.62274 106.000
61.64268 102.000
61.66263 123.000
61.68258 101.000
61.70252 112.000
61.72247 121.000
61.74242 95.000
61.76237 111.000
61.78231 105.000
61.80226 114.000
61.82221 101.000
61.84215 95.000
61.86210 111.000
61.88205 114.000
61.90199 105.000
61.92194 101.000
61.94189 94.000
61.96184 98.000
61.98178 93.000
62.00173 110.000
62.02168 101.000
62.04162 121.000
62.06157 109.000
62.08152 114.000
62.10146 125.000
62.12141 129.000
62.14136 108.000
62.16131 141.000
62.18125 141.000
62.20120 138.000
62.22115 126.000
62.24109 141.000
62.26104 134.000
62.28099 164.000
62.30093 161.000
62.32088 126.000
62.34083 140.000
62.36077 148.000
62.38072 153.000
62.40067 133.000
62.42062 126.000
62.44056 146.000
62.46051 133.000
62.48046 137.000
62.50040 134.000
62.52035 152.000
62.54030 135.000
62.56024 151.000
62.58019 127.000
62.60014 129.000
62.62009 142.000
62.64003 161.000
62.65998 128.000
62.67993 151.000
62.69987 129.000
62.71982 146.000
62.73977 120.000
62.75971 127.000
62.77966 128.000
62.79961 114.000
62.81955 127.000
62.83950 121.000
62.85945 126.000
62.87940 88.000
62.89934 129.000
62.91929 103.000
62.93924 113.000
62.95918 95.000
62.97913 108.000
62.99908 94.000
63.01902 113.000
63.03897 103.000
63.05892 99.000
63.07887 94.000
63.09881 102.000
63.11876 106.000
63.13871 85.000
63.15865 103.000
63.17860 95.000
63.19855 96.000
63.21849 83.000
63.23844 93.000
63.25839 85.000
63.27833 91.000
63.29828 82.000
63.31823 82.000
63.33818 91.000
63.35812 86.000
63.37807 106.000
63.39802 82.000
63.41796 79.000
63.43791 106.000
63.45786 100.000
63.47780 84.000
63.49775 91.000
63.51770 93.000
63.53765 96.000
63.55759 97.000
63.57754 81.000
63.59749 97.000
63.61743 96.000
63.63738 104.000
63.65733 101.000
63.67727 108.000
63.69722 118.000
63.71717 121.000
63.73712 101.000
63.75706 117.000
63.77701 108.000
63.79696 135.000
63.81690 131.000
63.83685 119.000
63.85680 132.000
63.87674 123.000
63.89669 125.000
63.91664 105.000
63.93658 103.000
63.95653 106.000
63.97648 120.000
63.99643 118.000
64.01637 122.000
64.03632 104.000
64.05627 104.000
64.07621 98.000
64.09616 96.000
64.11611 102.000
64.13605 95.000
64.15600 98.000
64.17595 115.000
64.19590 84.000
64.21584 109.000
64.23579 96.000
64.25574 71.000
64.27568 94.000
64.29563 86.000
64.31558 104.000
64.33552 114.000
64.35547 98.000
64.37542 89.000
64.39536 93.000
64.41531 106.000
64.43526 104.000
64.45521 105.000
64.47515 96.000
64.49510 98.000
64.51505 107.000
64.53499 114.000
64.55494 89.000
64.57489 78.000
64.59483 104.000
64.61478 114.000
64.63473 118.000
64.65468 101.000
64.67462 91.000
64.69457 115.000
64.71452 103.000
64.73446 109.000
64.75441 110.000
64.77436 101.000
64.79430 110.000
64.81425 113.000
64.83420 114.000
64.85414 95.000
64.87409 102.000
64.89404 118.000
64.91399 97.000
64.93393 119.000
64.95388 106.000
64.97383 98.000
64.99377 118.000
65.01372 103.000
65.03367 104.000
65.05361 125.000
65.07356 107.000
65.09351 74.000
65.11346 107.000
65.13340 104.000
65.15335 102.000
65.17330 79.000
65.19324 90.000
65.21319 94.000
65.23314 110.000
65.25308 98.000
65.27303 102.000
65.29298 82.000
65.31293 86.000
65.33287 92.000
65.35282 84.000
65.37277 109.000
65.39271 82.000
65.41266 83.000
65.43261 98.000
65.45255 91.000
65.47250 116.000
65.49245 112.000
65.51239 101.000
65.53234 108.000
65.55229 93.000
65.57224 85.000
65.59218 85.000
65.61213 87.000
65.63208 92.000
65.65202 88.000
65.67197 77.000
65.69192 84.000
65.71186 73.000
65.73181 112.000
65.75176 88.000
65.77171 90.000
65.79165 96.000
65.81160 88.000
65.83155 88.000
65.85149 89.000
65.87144 93.000
65.89139 93.000
65.91133 81.000
65.93128 75.000
65.95123 83.000
65.97117 74.000
65.99112 87.000
66.01107 83.000
66.03102 71.000
66.05096 86.000
66.07091 66.000
66.09086 82.000
66.11080 93.000
66.13075 90.000
66.15070 79.000
66.17064 90.000
66.19059 77.000
66.21054 75.000
66.23049 90.000
66.25043 66.000
66.27038 102.000
66.29033 77.000
66.31027 78.000
66.33022 74.000
66.35017 77.000
66.37011 86.000
66.39006 79.000
66.41001 71.000
66.42995 80.000
66.44990 84.000
66.46985 72.000
66.48980 82.000
66.50974 82.000
66.52969 79.000
66.54964 88.000
66.56958 70.000
66.58953 89.000
66.60948 84.000
66.62942 85.000
66.64937 81.000
66.66932 70.000
66.68927 83.000
66.70921 78.000
66.72916 92.000
66.74911 88.000
66.76905 83.000
66.78900 84.000
66.80895 80.000
66.82889 77.000
66.84884 84.000
66.86879 82.000
66.88874 75.000
66.90868 83.000
66.92863 87.000
66.94858 78.000
66.96852 80.000
66.98847 75.000
67.00842 73.000
67.02836 93.000
67.04831 85.000
67.06826 85.000
67.08820 82.000
67.10815 102.000
67.12810 78.000
67.14805 79.000
67.16799 78.000
67.18794 80.000
67.20789 73.000
67.22783 82.000
67.24778 86.000
67.26773 65.000
67.28767 86.000
67.30762 76.000
67.32757 75.000
67.34752 88.000
67.36746 74.000
67.38741 79.000
67.40736 84.000
67.42730 91.000
67.44725 92.000
67.46720 100.000
67.48714 83.000
67.50709 74.000
67.52704 66.000
67.54698 71.000
67.56693 86.000
67.58688 70.000
67.60683 82.000
67.62677 76.000
67.64672 82.000
67.66667 86.000
67.68661 64.000
67.70656 70.000
67.72651 77.000
67.74645 82.000
67.76640 78.000
67.78635 67.000
67.80630 81.000
67.82624 76.000
67.84619 76.000
67.86614 74.000
67.88608 71.000
67.90603 84.000
67.92598 74.000
67.94592 79.000
67.96587 83.000
67.98582 88.000
68.00576 79.000
68.02571 84.000
68.04566 84.000
68.06561 69.000
68.08555 84.000
68.10550 84.000
68.12545 64.000
68.14539 70.000
68.16534 95.000
68.18529 80.000
68.20523 89.000
68.22518 84.000
68.24513 73.000
68.26508 69.000
68.28502 81.000
68.30497 83.000
68.32492 84.000
68.34486 65.000
68.36481 70.000
68.38476 102.000
68.40470 74.000
68.42465 82.000
68.44460 92.000
68.46455 79.000
68.48449 84.000
68.50444 73.000
68.52439 77.000
68.54433 66.000
68.56428 78.000
68.58423 50.000
68.60417 86.000
68.62412 53.000
68.64407 76.000
68.66401 77.000
68.68396 67.000
68.70391 73.000
68.72386 64.000
68.74380 70.000
68.76375 68.000
68.78370 81.000
68.80364 82.000
68.82359 79.000
68.84354 69.000
68.86348 74.000
68.88343 90.000
68.90338 74.000
68.92333 63.000
68.94327 71.000
68.96322 87.000
68.98317 73.000
69.00311 65.000
69.02306 78.000
69.04301 74.000
69.06295 75.000
69.08290 72.000
69.10285 89.000
69.12279 74.000
69.14274 93.000
69.16269 78.000
69.18264 72.000
69.20258 75.000
69.22253 58.000
69.24248 76.000
69.26242 93.000
69.28237 66.000
69.30232 72.000
69.32226 75.000
69.34221 83.000
69.36216 73.000
69.38211 72.000
69.40205 72.000
69.42200 68.000
69.44195 65.000
69.46189 74.000
69.48184 67.000
69.50179 92.000
69.52173 67.000
69.54168 78.000
69.56163 75.000
69.58157 68.000
69.60152 66.000
69.62147 67.000
69.64142 62.000
69.66136 74.000
69.68131 77.000
69.70126 71.000
69.72120 76.000
69.74115 65.000
69.76110 73.000
69.78104 81.000
69.80099 71.000
69.82094 77.000
69.84089 79.000
69.86083 77.000
69.88078 59.000
69.90073 74.000
69.92067 63.000
69.94062 57.000
69.96057 78.000
69.98051 89.000
70.00046 75.000
70.02041 73.000
70.04035 65.000
70.06030 75.000
70.08025 73.000
70.10020 79.000
70.12014 64.000
70.14009 67.000
70.16004 75.000
70.17998 61.000
70.19993 74.000
70.21988 78.000
70.23982 73.000
70.25977 70.000
70.27972 61.000
70.29967 71.000
70.31961 70.000
70.33956 62.000
70.35951 67.000
70.37945 80.000
70.39940 79.000
70.41935 62.000
70.43929 69.000
70.45924 83.000
70.47919 61.000
70.49914 84.000
70.51908 76.000
70.53903 80.000
70.55898 70.000
70.57892 91.000
70.59887 93.000
70.61882 72.000
70.63876 82.000
70.65871 73.000
70.67866 69.000
70.69860 98.000
70.71855 72.000
70.73850 90.000
70.75845 89.000
70.77839 96.000
70.79834 89.000
70.81829 94.000
70.83823 98.000
70.85818 87.000
70.87813 76.000
70.89807 81.000
70.91802 80.000
70.93797 101.000
70.95792 83.000
70.97786 99.000
70.99781 94.000
71.01776 111.000
71.03770 113.000
71.05765 98.000
71.07760 105.000
71.09754 95.000
71.11749 102.000
71.13744 100.000
71.15738 90.000
71.17733 108.000
71.19728 97.000
71.21723 113.000
71.23717 97.000
71.25712 113.000
71.27707 120.000
71.29701 108.000
71.31696 90.000
71.33691 115.000
71.35685 105.000
71.37680 113.000
71.39675 127.000
71.41670 115.000
71.43664 126.000
71.45659 92.000
71.47654 85.000
71.49648 119.000
71.51643 93.000
71.53638 97.000
71.55632 121.000
71.57627 115.000
71.59622 105.000
71.61616 101.000
71.63611 134.000
71.65606 98.000
71.67601 100.000
71.69595 116.000
71.71590 93.000
71.73585 116.000
71.75579 99.000
71.77574 97.000
71.79569 94.000
71.81563 123.000
71.83558 106.000
71.85553 97.000
71.87548 110.000
71.89542 97.000
71.91537 93.000
71.93532 76.000
71.95526 95.000
71.97521 104.000
71.99516 88.000
72.01510 90.000
72.03505 100.000
72.05500 98.000
72.07495 94.000
72.09489 69.000
72.11484 106.000
72.13479 88.000
72.15473 87.000
72.17468 89.000
72.19463 99.000
72.21457 77.000
72.23452 70.000
72.25447 100.000
72.27441 90.000
72.29436 94.000
72.31431 79.000
72.33426 76.000
72.35420 87.000
72.37415 84.000
72.39410 67.000
72.41404 71.000
72.43399 81.000
72.45394 77.000
72.47388 68.000
72.49383 86.000
72.51378 88.000
72.53373 68.000
72.55367 70.000
72.57362 68.000
72.59357 72.000
72.61351 72.000
72.63346 81.000
72.65341 78.000
72.67335 66.000
72.69330 73.000
72.71325 77.000
72.73319 76.000
72.75314 80.000
72.77309 66.000
72.79304 75.000
72.81298 67.000
72.83293 69.000
72.85288 72.000
72.87282 61.000
72.89277 70.000
72.91272 81.000
72.93266 63.000
72.95261 61.000
72.97256 68.000
72.99251 69.000
73.01245 63.000
73.03240 56.000
73.05235 74.000
73.07229 86.000
73.09224 77.000
73.11219 67.000
73.13213 68.000
73.15208 69.000
73.17203 78.000
73.19197 68.000
73.21192 66.000
73.23187 66.000
73.25182 70.000
73.27176 62.000
73.29171 74.000
73.31166 73.000
73.33160 80.000
73.35155 71.000
73.37150 69.000
73.39144 72.000
73.41139 60.000
73.43134 78.000
73.45129 74.000
73.47123 65.000
73.49118 70.000
73.51113 76.000
73.53107 70.000
73.55102 73.000
73.57097 76.000
73.59091 77.000
73.61086 60.000
73.63081 75.000
73.65076 68.000
73.67070 86.000
73.69065 63.000
73.71060 85.000
73.73054 60.000
73.75049 61.000
73.77044 77.000
73.79038 79.000
73.81033 82.000
73.83028 73.000
73.85022 71.000
73.87017 67.000
73.89012 89.000
73.91007 77.000
73.93001 70.000
73.94996 91.000
73.96991 85.000
73.98985 84.000
74.00980 83.000
74.02975 76.000
74.04969 85.000
74.06964 80.000
74.08959 102.000
74.10954 69.000
74.12948 89.000
74.14943 87.000
74.16938 71.000
74.18932 69.000
74.20927 66.000
74.22922 88.000
74.24916 65.000
74.26911 92.000
74.28906 93.000
74.30900 86.000
74.32895 82.000
74.34890 77.000
74.36885 77.000
74.38879 91.000
74.40874 73.000
74.42869 83.000
74.44863 79.000
74.46858 63.000
74.48853 72.000
74.50847 61.000
74.52842 75.000
74.54837 54.000
74.56832 56.000
74.58826 88.000
74.60821 79.000
74.62816 74.000
74.64810 79.000
74.66805 67.000
74.68800 73.000
74.70794 62.000
74.72789 89.000
74.74784 66.000
74.76778 74.000
74.78773 78.000
74.80768 82.000
74.82763 75.000
74.84757 77.000
74.86752 68.000
74.88747 85.000
74.90741 93.000
74.92736 72.000
74.94731 89.000
74.96725 80.000
74.98720 66.000
75.00715 79.000
75.02710 85.000
75.04704 77.000
75.06699 67.000
75.08694 82.000
75.10688 76.000
75.12683 96.000
75.14678 78.000
75.16672 86.000
75.18667 99.000
75.20662 69.000
75.22657 77.000
75.24651 103.000
75.26646 89.000
75.28641 91.000
75.30635 82.000
75.32630 87.000
75.34625 78.000
75.36619 85.000
75.38614 81.000
75.40609 80.000
75.42603 90.000
75.44598 82.000
75.46593 89.000
75.48588 86.000
75.50582 100.000
75.52577 80.000
75.54572 94.000
75.56566 72.000
75.58561 73.000
75.60556 75.000
75.62550 91.000
75.64545 59.000
75.66540 62.000
75.68535 55.000
75.70529 68.000
75.72524 83.000
75.74519 89.000
75.76513 66.000
75.78508 76.000
75.80503 62.000
75.82497 69.000
75.84492 66.000
75.86487 61.000
75.88481 57.000
75.90476 76.000
75.92471 62.000
75.94466 69.000
75.96460 69.000
75.98455 61.000
76.00450 69.000
76.02444 76.000
76.04439 66.000
76.06434 74.000
76.08428 82.000
76.10423 61.000
76.12418 58.000
76.14413 77.000
76.16407 94.000
76.18402 55.000
76.20397 61.000
76.22391 76.000
76.24386 69.000
76.26381 60.000
76.28375 73.000
76.30370 79.000
76.32365 72.000
76.34359 65.000
76.36354 72.000
76.38349 68.000
76.40344 63.000
76.42338 58.000
76.44333 73.000
76.46328 53.000
76.48322 67.000
76.50317 73.000
76.52312 67.000
76.54306 58.000
76.56301 71.000
76.58296 78.000
76.60291 74.000
76.62285 65.000
76.64280 76.000
76.66275 80.000
76.68269 73.000
76.70264 70.000
76.72259 68.000
76.74253 62.000
76.76248 71.000
76.78243 59.000
76.80238 70.000
76.82232 57.000
76.84227 66.000
76.86222 65.000
76.88216 67.000
76.90211 71.000
76.92206 78.000
76.94200 77.000
76.96195 65.000
76.98190 61.000
77.00184 68.000
77.02179 85.000
77.04174 56.000
77.06169 64.000
77.08163 58.000
77.10158 47.000
77.12153 63.000
77.14147 71.000
77.16142 69.000
77.18137 59.000
77.20131 63.000
77.22126 80.000
77.24121 65.000
77.26116 51.000
77.28110 54.000
77.30105 62.000
77.32100 55.000
77.34094 59.000
77.36089 69.000
77.38084 72.000
77.40078 74.000
77.42073 63.000
77.44068 64.000
77.46062 68.000
77.48057 80.000
77.50052 76.000
77.52047 68.000
77.54041 72.000
77.56036 59.000
77.58031 73.000
77.60025 52.000
77.62020 76.000
77.64015 54.000
77.66009 79.000
77.68004 74.000
77.69999 57.000
77.71994 64.000
77.73988 51.000
77.75983 79.000
77.77978 82.000
77.79972 75.000
77.81967 71.000
77.83962 75.000
77.85956 52.000
77.87951 76.000
77.89946 68.000
77.91940 58.000
77.93935 68.000
77.95930 58.000
77.97925 57.000
77.99919 63.000
78.01914 73.000
78.03909 63.000
78.05903 54.000
78.07898 70.000
78.09893 75.000
78.11887 65.000
78.13882 62.000
78.15877 57.000
78.17872 75.000
78.19866 64.000
78.21861 72.000
78.23856 54.000
78.25850 58.000
78.27845 66.000
78.29840 67.000
78.31834 55.000
78.33829 75.000
78.35824 59.000
78.37819 64.000
78.39813 62.000
78.41808 60.000
78.43803 83.000
78.45797 67.000
78.47792 66.000
78.49787 66.000
78.51781 56.000
78.53776 66.000
78.55771 59.000
78.57765 59.000
78.59760 65.000
78.61755 64.000
78.63750 59.000
78.65744 62.000
78.67739 74.000
78.69734 69.000
78.71728 75.000
78.73723 70.000
78.75718 59.000
78.77712 47.000
78.79707 58.000
78.81702 66.000
78.83697 62.000
78.85691 62.000
78.87686 56.000
78.89681 61.000
78.91675 70.000
78.93670 63.000
78.95665 86.000
78.97659 71.000
78.99654 60.000
79.01649 65.000
79.03643 80.000
79.05638 59.000
79.07633 59.000
79.09628 55.000
79.11622 73.000
79.13617 76.000
79.15612 63.000
79.17606 68.000
79.19601 73.000
79.21596 83.000
79.23590 56.000
79.25585 60.000
79.27580 70.000
79.29575 62.000
79.31569 68.000
79.33564 57.000
79.35559 73.000
79.37553 56.000
79.39548 57.000
79.41543 52.000
79.43537 56.000
79.45532 76.000
79.47527 50.000
79.49521 67.000
79.51516 71.000
79.53511 64.000
79.55506 57.000
79.57500 59.000
79.59495 73.000
79.61490 94.000
79.63484 85.000
79.65479 74.000
79.67474 59.000
79.69468 65.000
79.71463 75.000
79.73458 73.000
79.75453 56.000
79.77447 70.000
79.79442 73.000
79.81437 58.000
79.83431 55.000
79.85426 77.000
79.87421 77.000
79.89415 62.000
79.91410 66.000
79.93405 62.000
79.95399 64.000
79.97394 59.000
79.99389 74.000
80.01384 59.000
80.03378 55.000
80.05373 74.000
80.07368 56.000
80.09362 77.000
80.11357 72.000
80.13352 65.000
80.15346 57.000
80.17341 78.000
80.19336 70.000
80.21331 49.000
80.23325 75.000
80.25320 75.000
80.27315 76.000
80.29309 77.000
80.31304 84.000
80.33299 70.000
80.35293 86.000
80.37288 63.000
80.39283 71.000
80.41278 72.000
80.43272 71.000
80.45267 55.000
80.47262 81.000
80.49256 103.000
80.51251 89.000
80.53246 77.000
80.55240 85.000
80.57235 68.000
80.59230 65.000
80.61224 74.000
80.63219 75.000
80.65214 69.000
80.67209 76.000
80.69203 65.000
80.71198 61.000
80.73193 70.000
80.75187 72.000
80.77182 80.000
80.79177 93.000
80.81171 59.000
80.83166 101.000
80.85161 78.000
80.87156 59.000
80.89150 76.000
80.91145 79.000
80.93140 80.000
80.95134 91.000
80.97129 77.000
80.99124 61.000
81.01118 84.000
81.03113 76.000
81.05108 66.000
81.07102 75.000
81.09097 79.000
81.11092 73.000
81.13087 87.000
81.15081 61.000
81.17076 75.000
81.19071 85.000
81.21065 84.000
81.23060 83.000
81.25055 75.000
81.27049 80.000
81.29044 76.000
81.31039 83.000
81.33034 75.000
81.35028 85.000
81.37023 86.000
81.39018 71.000
81.41012 77.000
81.43007 93.000
81.45002 98.000
81.46996 90.000
81.48991 91.000
81.50986 90.000
81.52980 95.000
81.54975 96.000
81.56970 102.000
81.58965 101.000
81.60959 87.000
81.62954 77.000
81.64949 95.000
81.66943 101.000
81.68938 83.000
81.70933 77.000
81.72927 94.000
81.74922 86.000
81.76917 98.000
81.78912 93.000
81.80906 75.000
81.82901 86.000
81.84896 80.000
81.86890 88.000
81.88885 75.000
81.90880 78.000
81.92874 75.000
81.94869 87.000
81.96864 84.000
81.98859 81.000
82.00853 73.000
82.02848 78.000
82.04843 85.000
82.06837 74.000
82.08832 77.000
82.10827 85.000
82.12821 93.000
82.14816 79.000
82.16811 90.000
82.18805 65.000
82.20800 88.000
82.22795 79.000
82.24790 73.000
82.26784 68.000
82.28779 78.000
82.30774 89.000
82.32768 62.000
82.34763 76.000
82.36758 62.000
82.38752 78.000
82.40747 76.000
82.42742 77.000
82.44737 70.000
82.46731 71.000
82.48726 61.000
82.50721 73.000
82.52715 58.000
82.54710 71.000
82.56705 71.000
82.58699 67.000
82.60694 87.000
82.62689 79.000
82.64683 79.000
82.66678 70.000
82.68673 78.000
82.70668 68.000
82.72662 64.000
82.74657 77.000
82.76652 72.000
82.78646 69.000
82.80641 66.000
82.82636 56.000
82.84630 68.000
82.86625 63.000
82.88620 68.000
82.90615 66.000
82.92609 89.000
82.94604 59.000
82.96599 60.000
82.98593 64.000
83.00588 72.000
83.02583 57.000
83.04577 64.000
83.06572 62.000
83.08567 72.000
83.10561 64.000
83.12556 80.000
83.14551 60.000
83.16546 66.000
83.18540 61.000
83.20535 58.000
83.22530 58.000
83.24524 56.000
83.26519 53.000
83.28514 67.000
83.30508 64.000
83.32503 48.000
83.34498 65.000
83.36493 59.000
83.38487 63.000
83.40482 57.000
83.42477 63.000
83.44471 73.000
83.46466 72.000
83.48461 68.000
83.50455 51.000
83.52450 66.000
83.54445 76.000
83.56440 62.000
83.58434 49.000
83.60429 62.000
83.62424 71.000
83.64418 62.000
83.66413 62.000
83.68408 50.000
83.70402 62.000
83.72397 70.000
83.74392 77.000
83.76386 66.000
83.78381 59.000
83.80376 68.000
83.82371 49.000
83.84365 71.000
83.86360 68.000
83.88355 57.000
83.90349 75.000
83.92344 73.000
83.94339 69.000
83.96333 72.000
83.98328 64.000
84.00323 57.000
84.02318 59.000
84.04312 66.000
84.06307 57.000
84.08302 73.000
84.10296 61.000
84.12291 67.000
84.14286 58.000
84.16280 59.000
84.18275 63.000
84.20270 83.000
84.22264 64.000
84.24259 68.000
84.26254 57.000
84.28249 63.000
84.30243 62.000
84.32238 71.000
84.34233 67.000
84.36227 74.000
84.38222 57.000
84.40217 59.000
84.42211 65.000
84.44206 63.000
84.46201 62.000
84.48196 52.000
84.50190 56.000
84.52185 53.000
84.54180 64.000
84.56174 79.000
84.58169 73.000
84.60164 71.000
84.62158 67.000
84.64153 83.000
84.66148 58.000
84.68142 68.000
84.70137 58.000
84.72132 67.000
84.74127 81.000
84.76121 72.000
84.78116 74.000
84.80111 60.000
84.82105 71.000
84.84100 67.000
84.86095 77.000
84.88089 72.000
84.90084 89.000
84.92079 80.000
84.94074 70.000
84.96068 84.000
84.98063 73.000
85.00058 76.000
85.02052 67.000
85.04047 65.000
85.06042 69.000
85.08036 61.000
85.10031 74.000
85.12026 71.000
85.14021 76.000
85.16015 64.000
85.18010 70.000
85.20005 55.000
85.21999 66.000
85.23994 55.000
85.25989 72.000
85.27983 60.000
85.29978 73.000
85.31973 85.000
85.33967 71.000
85.35962 67.000
85.37957 69.000
85.39952 56.000
85.41946 68.000
85.43941 79.000
85.45936 57.000
85.47930 75.000
85.49925 68.000
85.51920 59.000
85.53914 76.000
85.55909 71.000
85.57904 63.000
85.59899 45.000
85.61893 60.000
85.63888 53.000
85.65883 74.000
85.67877 54.000
85.69872 59.000
85.71867 64.000
85.73861 58.000
85.75856 65.000
85.77851 58.000
85.79845 64.000
85.81840 56.000
85.83835 52.000
85.85830 59.000
85.87824 61.000
85.89819 61.000
85.91814 65.000
85.93808 61.000
85.95803 70.000
85.97798 49.000
85.99792 64.000
86.01787 56.000
86.03782 55.000
86.05777 68.000
86.07771 69.000
86.09766 57.000
86.11761 58.000
86.13755 57.000
86.15750 56.000
86.17745 64.000
86.19739 62.000
86.21734 71.000
86.23729 64.000
86.25723 55.000
86.27718 49.000
86.29713 61.000
86.31708 57.000
86.33702 57.000
86.35697 74.000
86.37692 74.000
86.39686 70.000
86.41681 56.000
86.43676 59.000
86.45670 68.000
86.47665 67.000
86.49660 56.000
86.51655 80.000
86.53649 57.000
86.55644 52.000
86.57639 73.000
86.59633 63.000
86.61628 65.000
86.63623 58.000
86.65617 68.000
86.67612 46.000
86.69607 60.000
86.71602 65.000
86.73596 60.000
86.75591 70.000
86.77586 69.000
86.79580 62.000
86.81575 73.000
86.83570 69.000
86.85564 63.000
86.87559 82.000
86.89554 70.000
86.91548 58.000
86.93543 73.000
86.95538 57.000
86.97533 69.000
86.99527 79.000
87.01522 75.000
87.03517 66.000
87.05511 73.000
87.07506 61.000
87.09501 62.000
87.11495 58.000
87.13490 62.000
87.15485 61.000
87.17480 61.000
87.19474 67.000
87.21469 62.000
87.23464 60.000
87.25458 57.000
87.27453 65.000
87.29448 57.000
87.31442 63.000
87.33437 62.000
87.35432 62.000
87.37426 50.000
87.39421 70.000
87.41416 51.000
87.43411 66.000
87.45405 68.000
87.47400 48.000
87.49395 61.000
87.51389 55.000
87.53384 68.000
87.55379 61.000
87.57373 60.000
87.59368 60.000
87.61363 58.000
87.63358 61.000
87.65352 55.000
87.67347 46.000
87.69342 63.000
87.71336 61.000
87.73331 59.000
87.75326 57.000
87.77320 55.000
87.79315 49.000
87.81310 58.000
87.83304 55.000
87.85299 65.000
87.87294 58.000
87.89289 69.000
87.91283 72.000
87.93278 75.000
87.95273 60.000
87.97267 57.000
87.99262 57.000
88.01257 61.000
88.03251 50.000
88.05246 53.000
88.07241 68.000
88.09236 59.000
88.11230 74.000
88.13225 59.000
88.15220 57.000
88.17214 60.000
88.19209 61.000
88.21204 53.000
88.23198 69.000
88.25193 50.000
88.27188 77.000
88.29183 54.000
88.31177 72.000
88.33172 64.000
88.35167 65.000
88.37161 49.000
88.39156 59.000
88.41151 61.000
88.43145 79.000
88.45140 76.000
88.47135 55.000
88.49129 63.000
88.51124 75.000
88.53119 70.000
88.55114 83.000
88.57108 62.000
88.59103 70.000
88.61098 58.000
88.63092 71.000
88.65087 60.000
88.67082 71.000
88.69076 74.000
88.71071 71.000
88.73066 77.000
88.75061 68.000
88.77055 51.000
88.79050 59.000
88.81045 80.000
88.83039 65.000
88.85034 57.000
88.87029 40.000
88.89023 64.000
88.91018 48.000
88.93013 45.000
88.95007 54.000
88.97002 60.000
88.98997 52.000
89.00992 53.000
89.02986 46.000
89.04981 75.000
89.06976 51.000
89.08970 79.000
89.10965 53.000
89.12960 51.000
89.14954 54.000
89.16949 51.000
89.18944 49.000
89.20939 62.000
89.22933 55.000
89.24928 60.000
89.26923 60.000
89.28917 65.000
89.30912 66.000
89.32907 67.000
89.34901 68.000
89.36896 59.000
89.38891 66.000
89.40885 60.000
89.42880 57.000
89.44875 66.000
89.46870 55.000
89.48864 57.000
89.50859 63.000
89.52854 69.000
89.54848 56.000
89.56843 74.000
89.58838 49.000
89.60832 71.000
89.62827 77.000
89.64822 57.000
89.66817 53.000
89.68811 62.000
89.70806 79.000
89.72801 67.000
89.74795 66.000
89.76790 59.000
89.78785 68.000
89.80779 66.000
89.82774 61.000
89.84769 75.000
89.86764 63.000
89.88758 84.000
89.90753 60.000
89.92748 72.000
89.94742 73.000
89.96737 73.000
89.98732 67.000
90.00726 63.000
