10.00000 113.000
10.01995 115.000
10.03989 104.000
10.05984 123.000
10.07979 105.000
10.09973 123.000
10.11968 122.000
10.13963 98.000
10.15958 101.000
10.17952 119.000
10.19947 104.000
10.21942 118.000
10.23936 105.000
10.25931 139.000
10.27926 97.000
10.29920 121.000
10.31915 105.000
10.33910 110.000
10.35905 126.000
10.37899 110.000
10.39894 114.000
10.41889 108.000
10.43883 130.000
10.45878 119.000
10.47873 119.000
10.49867 103.000
10.51862 114.000
10.53857 108.000
10.55851 105.000
10.57846 113.000
10.59841 101.000
10.61836 114.000
10.63830 117.000
10.65825 119.000
10.67820 119.000
10.69814 108.000
10.71809 102.000
10.73804 112.000
10.75798 115.000
10.77793 104.000
10.79788 111.000
10.81783 143.000
10.83777 112.000
10.85772 107.000
10.87767 94.000
10.89761 104.000
10.91756 126.000
10.93751 112.000
10.95745 126.000
10.97740 132.000
10.99735 119.000
11.01730 100.000
11.03724 115.000
11.05719 106.000
11.07714 100.000
11.09708 113.000
11.11703 96.000
11.13698 117.000
11.15692 100.000
11.17687 102.000
11.19682 104.000
11.21676 108.000
11.23671 113.000
11.25666 109.000
11.27661 109.000
11.29655 123.000
11.31650 106.000
11.33645 107.000
11.35639 113.000
11.37634 103.000
11.39629 111.000
11.41623 119.000
11.43618 112.000
11.45613 129.000
11.47608 115.000
11.49602 123.000
11.51597 112.000
11.53592 104.000
11.55586 134.000
11.57581 119.000
11.59576 123.000
11.61570 110.000
11.63565 96.000
11.65560 115.000
11.67554 104.000
11.69549 124.000
11.71544 112.000
11.73539 121.000
11.75533 132.000
11.77528 141.000
11.79523 122.000
11.81517 96.000
11.83512 108.000
11.85507 127.000
11.87501 125.000
11.89496 102.000
11.91491 132.000
11.93486 125.000
11.95480 114.000
11.97475 141.000
11.99470 104.000
12.01464 118.000
12.03459 122.000
12.05454 96.000
12.07448 115.000
12.09443 112.000
12.11438 107.000
12.13432 104.000
12.15427 129.000
12.17422 115.000
12.19417 112.000
12.21411 103.000
12.23406 96.000
12.25401 138.000
12.27395 112.000
12.29390 115.000
12.31385 127.000
12.33379 108.000
12.35374 121.000
12.37369 120.000
12.39364 109.000
12.41358 109.000
12.43353 106.000
12.45348 116.000
12.47342 120.000
12.49337 109.000
12.51332 130.000
12.53326 123.000
12.55321 108.000
12.57316 106.000
12.59311 122.000
12.61305 120.000
12.63300 118.000
12.65295 117.000
12.67289 120.000
12.69284 97.000
12.71279 120.000
12.73273 120.000
12.75268 113.000
12.77263 120.000
12.79257 141.000
12.81252 111.000
12.83247 127.000
12.85242 114.000
12.87236 116.000
12.89231 126.000
12.91226 97.000
12.93220 107.000
12.95215 120.000
12.97210 124.000
12.99204 117.000
13.01199 111.000
13.03194 102.000
13.05189 120.000
13.07183 114.000
13.09178 118.000
13.11173 124.000
13.13167 114.000
13.15162 118.000
13.17157 122.000
13.19151 103.000
13.21146 120.000
13.23141 100.000
13.25135 122.000
13.27130 110.000
13.29125 121.000
13.31120 112.000
13.33114 106.000
13.35109 122.000
13.37104 118.000
13.39098 120.000
13.41093 125.000
13.43088 119.000
13.45082 122.000
13.47077 110.000
13.49072 119.000
13.51067 131.000
13.53061 111.000
13.55056 116.000
13.57051 117.000
13.59045 123.000
13.61040 135.000
13.63035 146.000
13.65029 119.000
13.67024 120.000
13.69019 129.000
13.71013 121.000
13.73008 108.000
13.75003 124.000
13.76998 114.000
13.78992 120.000
13.80987 98.000
13.82982 123.000
13.84976 114.000
13.86971 114.000
13.88966 122.000
13.90960 138.000
13.92955 112.000
13.94950 128.000
13.96945 104.000
13.98939 99.000
14.00934 122.000
14.02929 135.000
14.04923 112.000
14.06918 127.000
14.08913 121.000
14.10907 113.000
14.12902 126.000
14.14897 124.000
14.16892 127.000
14.18886 102.000
14.20881 111.000
14.22876 107.000
14.24870 146.000
14.26865 151.000
14.28860 139.000
14.30854 141.000
14.32849 146.000
14.34844 137.000
14.36838 101.000
14.38833 116.000
14.40828 120.000
14.42823 130.000
14.44817 113.000
14.46812 123.000
14.48807 115.000
14.50801 125.000
14.52796 120.000
14.54791 100.000
14.56785 125.000
14.58780 132.000
14.60775 140.000
14.62770 119.000
14.64764 122.000
14.66759 132.000
14.68754 133.000
14.70748 115.000
14.72743 136.000
14.74738 142.000
14.76732 118.000
14.78727 145.000
14.80722 140.000
14.82716 102.000
14.84711 125.000
14.86706 131.000
14.88701 115.000
14.90695 132.000
14.92690 128.000
14.94685 149.000
14.96679 154.000
14.98674 165.000
15.00669 140.000
15.02663 157.000
15.04658 152.000
15.06653 154.000
15.08648 162.000
15.10642 176.000
15.12637 148.000
15.14632 177.000
15.16626 171.000
15.18621 185.000
15.20616 155.000
15.22610 191.000
15.24605 211.000
15.26600 168.000
15.28594 214.000
15.30589 191.000
15.32584 201.000
15.34579 210.000
15.36573 231.000
15.38568 203.000
15.40563 200.000
15.42557 264.000
15.44552 239.000
15.46547 276.000
15.48541 256.000
15.50536 297.000
15.52531 328.000
15.54526 336.000
15.56520 386.000
15.58515 489.000
15.60510 615.000
15.62504 702.000
15.64499 994.000
15.66494 1337.000
15.68488 1765.000
15.70483 2372.000
15.72478 3316.000
15.74472 4312.000
15.76467 5738.000
15.78462 7156.000
15.80457 7891.000
15.82451 7447.000
15.84446 5656.000
15.86441 3554.000
15.88435 1992.000
15.90430 1112.000
15.92425 704.000
15.94419 503.000
15.96414 449.000
15.98409 296.000
16.00404 323.000
16.02398 288.000
16.04393 247.000
16.06388 242.000
16.08382 225.000
16.10377 221.000
16.12372 195.000
16.14366 220.000
16.16361 196.000
16.18356 210.000
16.20351 167.000
16.22345 164.000
16.24340 189.000
16.26335 187.000
16.28329 178.000
16.30324 183.000
16.32319 149.000
16.34313 156.000
16.36308 177.000
16.38303 165.000
16.40297 172.000
16.42292 160.000
16.44287 155.000
16.46282 156.000
16.48276 153.000
16.50271 145.000
16.52266 152.000
16.54260 150.000
16.56255 138.000
16.58250 124.000
16.60244 146.000
16.62239 143.000
16.64234 152.000
16.66229 122.000
16.68223 141.000
16.70218 144.000
16.72213 152.000
16.74207 128.000
16.76202 136.000
16.78197 146.000
16.80191 123.000
16.82186 119.000
16.84181 134.000
16.86175 126.000
16.88170 117.000
16.90165 139.000
16.92160 130.000
16.94154 151.000
16.96149 126.000
16.98144 134.000
17.00138 132.000
17.02133 130.000
17.04128 110.000
17.06122 113.000
17.08117 133.000
17.10112 119.000
17.12107 122.000
17.14101 139.000
17.16096 131.000
17.18091 123.000
17.20085 110.000
17.22080 146.000
17.24075 103.000
17.26069 113.000
17.28064 103.000
17.30059 142.000
17.32053 114.000
17.34048 129.000
17.36043 114.000
17.38038 111.000
17.40032 115.000
17.42027 132.000
17.44022 114.000
17.46016 126.000
17.48011 135.000
17.50006 108.000
17.52000 143.000
17.53995 99.000
17.55990 138.000
17.57985 123.000
17.59979 132.000
17.61974 109.000
17.63969 115.000
17.65963 121.000
17.67958 124.000
17.69953 100.000
17.71947 126.000
17.73942 101.000
17.75937 122.000
17.77932 129.000
17.79926 104.000
17.81921 135.000
17.83916 147.000
17.85910 128.000
17.87905 109.000
17.89900 125.000
17.91894 139.000
17.93889 118.000
17.95884 141.000
17.97878 117.000
17.99873 160.000
18.01868 121.000
18.03863 120.000
18.05857 143.000
18.07852 144.000
18.09847 131.000
18.11841 116.000
18.13836 133.000
18.15831 133.000
18.17825 140.000
18.19820 139.000
18.21815 175.000
18.23810 158.000
18.25804 208.000
18.27799 213.000
18.29794 227.000
18.31788 261.000
18.33783 279.000
18.35778 264.000
18.37772 267.000
18.39767 236.000
18.41762 224.000
18.43756 205.000
18.45751 198.000
18.47746 188.000
18.49741 174.000
18.51735 159.000
18.53730 143.000
18.55725 145.000
18.57719 150.000
18.59714 151.000
18.61709 135.000
18.63703 125.000
18.65698 121.000
18.67693 128.000
18.69688 141.000
18.71682 125.000
18.73677 123.000
18.75672 129.000
18.77666 139.000
18.79661 126.000
18.81656 117.000
18.83650 131.000
18.85645 111.000
18.87640 129.000
18.89634 140.000
18.91629 118.000
18.93624 136.000
18.95619 118.000
18.97613 136.000
18.99608 125.000
19.01603 118.000
19.03597 104.000
19.05592 134.000
19.07587 126.000
19.09581 140.000
19.11576 115.000
19.13571 136.000
19.15566 127.000
19.17560 125.000
19.19555 139.000
19.21550 98.000
19.23544 114.000
19.25539 132.000
19.27534 149.000
19.29528 127.000
19.31523 143.000
19.33518 134.000
19.35513 124.000
19.37507 115.000
19.39502 110.000
19.41497 145.000
19.43491 124.000
19.45486 120.000
19.47481 117.000
19.49475 128.000
19.51470 135.000
19.53465 162.000
19.55459 138.000
19.57454 135.000
19.59449 120.000
19.61444 129.000
19.63438 135.000
19.65433 125.000
19.67428 131.000
19.69422 125.000
19.71417 106.000
19.73412 133.000
19.75406 140.000
19.77401 127.000
19.79396 146.000
19.81391 117.000
19.83385 125.000
19.85380 147.000
19.87375 133.000
19.89369 128.000
19.91364 125.000
19.93359 124.000
19.95353 131.000
19.97348 122.000
19.99343 134.000
20.01337 132.000
20.03332 130.000
20.05327 128.000
20.07322 125.000
20.09316 128.000
20.11311 127.000
20.13306 141.000
20.15300 131.000
20.17295 132.000
20.19290 122.000
20.21284 116.000
20.23279 129.000
20.25274 120.000
20.27269 143.000
20.29263 105.000
20.31258 133.000
20.33253 118.000
20.35247 125.000
20.37242 117.000
20.39237 115.000
20.41231 146.000
20.43226 119.000
20.45221 157.000
20.47215 142.000
20.49210 130.000
20.51205 131.000
20.53200 133.000
20.55194 135.000
20.57189 118.000
20.59184 129.000
20.61178 130.000
20.63173 131.000
20.65168 133.000
20.67162 125.000
20.69157 137.000
20.71152 140.000
20.73147 116.000
20.75141 143.000
20.77136 124.000
20.79131 115.000
20.81125 145.000
20.83120 140.000
20.85115 132.000
20.87109 116.000
20.89104 143.000
20.91099 132.000
20.93094 134.000
20.95088 135.000
20.97083 133.000
20.99078 99.000
21.01072 119.000
21.03067 124.000
21.05062 135.000
21.07056 134.000
21.09051 142.000
21.11046 125.000
21.13040 116.000
21.15035 149.000
21.17030 141.000
21.19025 128.000
21.21019 137.000
21.23014 142.000
21.25009 157.000
21.27003 134.000
21.28998 148.000
21.30993 144.000
21.32987 161.000
21.34982 124.000
21.36977 129.000
21.38972 126.000
21.40966 136.000
21.42961 122.000
21.44956 128.000
21.46950 140.000
21.48945 143.000
21.50940 107.000
21.52934 116.000
21.54929 126.000
21.56924 138.000
21.58918 136.000
21.60913 130.000
21.62908 113.000
21.64903 118.000
21.66897 129.000
21.68892 151.000
21.70887 136.000
21.72881 113.000
21.74876 136.000
21.76871 133.000
21.78865 134.000
21.80860 124.000
21.82855 130.000
21.84850 129.000
21.86844 126.000
21.88839 127.000
21.90834 132.000
21.92828 137.000
21.94823 112.000
21.96818 159.000
21.98812 155.000
22.00807 152.000
22.02802 149.000
22.04796 138.000
22.06791 156.000
22.08786 158.000
22.10781 142.000
22.12775 123.000
22.14770 149.000
22.16765 115.000
22.18759 135.000
22.20754 140.000
22.22749 136.000
22.24743 137.000
22.26738 120.000
22.28733 112.000
22.30728 137.000
22.32722 122.000
22.34717 129.000
22.36712 139.000
22.38706 123.000
22.40701 130.000
22.42696 140.000
22.44690 153.000
22.46685 150.000
22.48680 136.000
22.50675 126.000
22.52669 146.000
22.54664 143.000
22.56659 167.000
22.58653 132.000
22.60648 148.000
22.62643 136.000
22.64637 129.000
22.66632 130.000
22.68627 121.000
22.70621 161.000
22.72616 113.000
22.74611 125.000
22.76606 131.000
22.78600 123.000
22.80595 125.000
22.82590 146.000
22.84584 144.000
22.86579 120.000
22.88574 159.000
22.90568 146.000
22.92563 147.000
22.94558 136.000
22.96553 109.000
22.98547 148.000
23.00542 146.000
23.02537 127.000
23.04531 152.000
23.06526 119.000
23.08521 152.000
23.10515 148.000
23.12510 141.000
23.14505 135.000
23.16499 130.000
23.18494 143.000
23.20489 134.000
23.22484 137.000
23.24478 136.000
23.26473 132.000
23.28468 132.000
23.30462 121.000
23.32457 144.000
23.34452 130.000
23.36446 136.000
23.38441 142.000
23.40436 139.000
23.42431 137.000
23.44425 155.000
23.46420 145.000
23.48415 131.000
23.50409 134.000
23.52404 121.000
23.54399 130.000
23.56393 132.000
23.58388 140.000
23.60383 135.000
23.62377 139.000
23.64372 141.000
23.66367 138.000
23.68362 137.000
23.70356 136.000
23.72351 117.000
23.74346 132.000
23.76340 141.000
23.78335 125.000
23.80330 140.000
23.82324 147.000
23.84319 127.000
23.86314 132.000
23.88309 149.000
23.90303 139.000
23.92298 126.000
23.94293 161.000
23.96287 128.000
23.98282 148.000
24.00277 126.000
24.02271 164.000
24.04266 142.000
24.06261 131.000
24.08256 156.000
24.10250 109.000
24.12245 154.000
24.14240 158.000
24.16234 148.000
24.18229 134.000
24.20224 123.000
24.22218 127.000
24.24213 121.000
24.26208 133.000
24.28202 155.000
24.30197 154.000
24.32192 148.000
24.34187 133.000
24.36181 128.000
24.38176 143.000
24.40171 130.000
24.42165 144.000
24.44160 117.000
24.46155 152.000
24.48149 167.000
24.50144 140.000
24.52139 131.000
24.54134 155.000
24.56128 138.000
24.58123 123.000
24.60118 136.000
24.62112 159.000
24.64107 155.000
24.66102 156.000
24.68096 136.000
24.70091 159.000
24.72086 151.000
24.74080 139.000
24.76075 148.000
24.78070 157.000
24.80065 148.000
24.82059 151.000
24.84054 152.000
24.86049 161.000
24.88043 142.000
24.90038 163.000
24.92033 140.000
24.94027 154.000
24.96022 135.000
24.98017 137.000
25.00012 123.000
25.02006 124.000
25.04001 141.000
25.05996 148.000
25.07990 143.000
25.09985 132.000
25.11980 143.000
25.13974 141.000
25.15969 130.000
25.17964 139.000
25.19958 145.000
25.21953 118.000
25.23948 152.000
25.25943 138.000
25.27937 141.000
25.29932 157.000
25.31927 150.000
25.33921 147.000
25.35916 147.000
25.37911 145.000
25.39905 151.000
25.41900 155.000
25.43895 147.000
25.45890 145.000
25.47884 137.000
25.49879 131.000
25.51874 170.000
25.53868 133.000
25.55863 151.000
25.57858 160.000
25.59852 148.000
25.61847 147.000
25.63842 142.000
25.65837 138.000
25.67831 173.000
25.69826 145.000
25.71821 159.000
25.73815 128.000
25.75810 160.000
25.77805 158.000
25.79799 157.000
25.81794 142.000
25.83789 119.000
25.85783 154.000
25.87778 159.000
25.89773 158.000
25.91768 172.000
25.93762 148.000
25.95757 151.000
25.97752 159.000
25.99746 148.000
26.01741 162.000
26.03736 152.000
26.05730 140.000
26.07725 134.000
26.09720 162.000
26.11715 175.000
26.13709 160.000
26.15704 135.000
26.17699 173.000
26.19693 155.000
26.21688 155.000
26.23683 165.000
26.25677 153.000
26.27672 175.000
26.29667 146.000
26.31661 148.000
26.33656 145.000
26.35651 157.000
26.37646 138.000
26.39640 187.000
26.41635 183.000
26.43630 166.000
26.45624 133.000
26.47619 153.000
26.49614 156.000
26.51608 157.000
26.53603 162.000
26.55598 178.000
26.57593 172.000
26.59587 159.000
26.61582 162.000
26.63577 166.000
26.65571 163.000
26.67566 166.000
26.69561 157.000
26.71555 169.000
26.73550 165.000
26.75545 160.000
26.77539 168.000
26.79534 153.000
26.81529 154.000
26.83524 167.000
26.85518 165.000
26.87513 164.000
26.89508 156.000
26.91502 161.000
26.93497 176.000
26.95492 143.000
26.97486 166.000
26.99481 157.000
27.01476 161.000
27.03471 177.000
27.05465 141.000
27.07460 167.000
27.09455 156.000
27.11449 174.000
27.13444 143.000
27.15439 158.000
27.17433 172.000
27.19428 171.000
27.21423 153.000
27.23417 160.000
27.25412 171.000
27.27407 160.000
27.29402 166.000
27.31396 145.000
27.33391 180.000
27.35386 147.000
27.37380 176.000
27.39375 173.000
27.41370 174.000
27.43364 179.000
27.45359 172.000
27.47354 171.000
27.49349 158.000
27.51343 161.000
27.53338 173.000
27.55333 166.000
27.57327 166.000
27.59322 164.000
27.61317 160.000
27.63311 165.000
27.65306 177.000
27.67301 167.000
27.69296 164.000
27.71290 157.000
27.73285 168.000
27.75280 165.000
27.77274 175.000
27.79269 161.000
27.81264 160.000
27.83258 149.000
27.85253 173.000
27.87248 143.000
27.89242 175.000
27.91237 181.000
27.93232 154.000
27.95227 175.000
27.97221 168.000
27.99216 147.000
28.01211 155.000
28.03205 186.000
28.05200 146.000
28.07195 180.000
28.09189 161.000
28.11184 146.000
28.13179 194.000
28.15174 183.000
28.17168 175.000
28.19163 173.000
28.21158 178.000
28.23152 171.000
28.25147 165.000
28.27142 163.000
28.29136 175.000
28.31131 178.000
28.33126 161.000
28.35120 169.000
28.37115 176.000
28.39110 174.000
28.41105 148.000
28.43099 149.000
28.45094 165.000
28.47089 175.000
28.49083 152.000
28.51078 170.000
28.53073 170.000
28.55067 214.000
28.57062 187.000
28.59057 187.000
28.61052 185.000
28.63046 164.000
28.65041 194.000
28.67036 161.000
28.69030 161.000
28.71025 153.000
28.73020 198.000
28.75014 157.000
28.77009 170.000
28.79004 180.000
28.80998 181.000
28.82993 158.000
28.84988 182.000
28.86983 166.000
28.88977 169.000
28.90972 161.000
28.92967 182.000
28.94961 174.000
28.96956 191.000
28.98951 163.000
29.00945 170.000
29.02940 168.000
29.04935 177.000
29.06930 164.000
29.08924 172.000
29.10919 174.000
29.12914 171.000
29.14908 179.000
29.16903 170.000
29.18898 173.000
29.20892 154.000
29.22887 197.000
29.24882 181.000
29.26877 168.000
29.28871 169.000
29.30866 179.000
29.32861 172.000
29.34855 187.000
29.36850 181.000
29.38845 181.000
29.40839 155.000
29.42834 186.000
29.44829 167.000
29.46823 149.000
29.48818 170.000
29.50813 191.000
29.52808 173.000
29.54802 174.000
29.56797 203.000
29.58792 179.000
29.60786 175.000
29.62781 167.000
29.64776 185.000
29.66770 187.000
29.68765 199.000
29.70760 192.000
29.72755 194.000
29.74749 166.000
29.76744 167.000
29.78739 177.000
29.80733 165.000
29.82728 172.000
29.84723 187.000
29.86717 184.000
29.88712 170.000
29.90707 185.000
29.92701 162.000
29.94696 200.000
29.96691 201.000
29.98686 197.000
30.00680 190.000
30.02675 208.000
30.04670 235.000
30.06664 246.000
30.08659 282.000
30.10654 248.000
30.12648 312.000
30.14643 318.000
30.16638 315.000
30.18633 285.000
30.20627 275.000
30.22622 260.000
30.24617 263.000
30.26611 254.000
30.28606 257.000
30.30601 216.000
30.32595 213.000
30.34590 195.000
30.36585 184.000
30.38579 195.000
30.40574 194.000
30.42569 193.000
30.44564 181.000
30.46558 197.000
30.48553 188.000
30.50548 182.000
30.52542 196.000
30.54537 158.000
30.56532 168.000
30.58526 188.000
30.60521 181.000
30.62516 185.000
30.64511 188.000
30.66505 165.000
30.68500 191.000
30.70495 163.000
30.72489 203.000
30.74484 180.000
30.76479 157.000
30.78473 183.000
30.80468 166.000
30.82463 171.000
30.84458 172.000
30.86452 202.000
30.88447 206.000
30.90442 162.000
30.92436 176.000
30.94431 181.000
30.96426 174.000
30.98420 183.000
31.00415 178.000
31.02410 155.000
31.04404 178.000
31.06399 176.000
31.08394 173.000
31.10389 186.000
31.12383 193.000
31.14378 192.000
31.16373 178.000
31.18367 180.000
31.20362 198.000
31.22357 196.000
31.24351 183.000
31.26346 173.000
31.28341 166.000
31.30336 182.000
31.32330 189.000
31.34325 175.000
31.36320 204.000
31.38314 190.000
31.40309 181.000
31.42304 168.000
31.44298 172.000
31.46293 181.000
31.48288 188.000
31.50282 200.000
31.52277 214.000
31.54272 187.000
31.56267 188.000
31.58261 182.000
31.60256 240.000
31.62251 180.000
31.64245 217.000
31.66240 201.000
31.68235 229.000
31.70229 219.000
31.72224 235.000
31.74219 238.000
31.76214 280.000
31.78208 308.000
31.80203 350.000
31.82198 419.000
31.84192 473.000
31.86187 554.000
31.88182 691.000
31.90176 801.000
31.92171 853.000
31.94166 733.000
31.96160 730.000
31.98155 635.000
32.00150 547.000
32.02145 450.000
32.04139 403.000
32.06134 348.000
32.08129 276.000
32.10123 259.000
32.12118 194.000
32.14113 202.000
32.16107 214.000
32.18102 193.000
32.20097 206.000
32.22092 196.000
32.24086 200.000
32.26081 205.000
32.28076 162.000
32.30070 188.000
32.32065 191.000
32.34060 183.000
32.36054 188.000
32.38049 197.000
32.40044 158.000
32.42039 203.000
32.44033 165.000
32.46028 167.000
32.48023 150.000
32.50017 175.000
32.52012 177.000
32.54007 185.000
32.56001 177.000
32.57996 174.000
32.59991 187.000
32.61985 157.000
32.63980 177.000
32.65975 138.000
32.67970 163.000
32.69964 176.000
32.71959 162.000
32.73954 184.000
32.75948 187.000
32.77943 156.000
32.79938 157.000
32.81932 161.000
32.83927 168.000
32.85922 174.000
32.87917 183.000
32.89911 184.000
32.91906 166.000
32.93901 169.000
32.95895 167.000
32.97890 166.000
32.99885 144.000
33.01879 153.000
33.03874 180.000
33.05869 174.000
33.07863 173.000
33.09858 155.000
33.11853 161.000
33.13848 181.000
33.15842 147.000
33.17837 160.000
33.19832 151.000
33.21826 156.000
33.23821 163.000
33.25816 169.000
33.27810 184.000
33.29805 169.000
33.31800 196.000
33.33795 180.000
33.35789 166.000
33.37784 183.000
33.39779 177.000
33.41773 173.000
33.43768 183.000
33.45763 169.000
33.47757 137.000
33.49752 162.000
33.51747 151.000
33.53741 190.000
33.55736 162.000
33.57731 169.000
33.59726 181.000
33.61720 185.000
33.63715 156.000
33.65710 174.000
33.67704 158.000
33.69699 165.000
33.71694 184.000
33.73688 176.000
33.75683 167.000
33.77678 164.000
33.79673 173.000
33.81667 161.000
33.83662 173.000
33.85657 168.000
33.87651 153.000
33.89646 169.000
33.91641 157.000
33.93635 174.000
33.95630 166.000
33.97625 178.000
33.99620 164.000
34.01614 162.000
34.03609 170.000
34.05604 159.000
34.07598 181.000
34.09593 178.000
34.11588 142.000
34.13582 168.000
34.15577 156.000
34.17572 169.000
34.19566 165.000
34.21561 165.000
34.23556 170.000
34.25551 171.000
34.27545 162.000
34.29540 170.000
34.31535 164.000
34.33529 165.000
34.35524 171.000
34.37519 172.000
34.39513 172.000
34.41508 158.000
34.43503 148.000
34.45498 156.000
34.47492 157.000
34.49487 163.000
34.51482 151.000
34.53476 162.000
34.55471 168.000
34.57466 176.000
34.59460 145.000
34.61455 170.000
34.63450 170.000
34.65444 152.000
34.67439 191.000
34.69434 168.000
34.71429 142.000
34.73423 165.000
34.75418 157.000
34.77413 168.000
34.79407 177.000
34.81402 157.000
34.83397 157.000
34.85391 177.000
34.87386 166.000
34.89381 166.000
34.91376 164.000
34.93370 185.000
34.95365 181.000
34.97360 166.000
34.99354 179.000
35.01349 155.000
35.03344 181.000
35.05338 184.000
35.07333 172.000
35.09328 176.000
35.11322 166.000
35.13317 209.000
35.15312 192.000
35.17307 186.000
35.19301 154.000
35.21296 184.000
35.23291 176.000
35.25285 193.000
35.27280 188.000
35.29275 179.000
35.31269 205.000
35.33264 244.000
35.35259 250.000
35.37254 243.000
35.39248 285.000
35.41243 357.000
35.43238 391.000
35.45232 448.000
35.47227 521.000
35.49222 557.000
35.51216 514.000
35.53211 545.000
35.55206 537.000
35.57201 565.000
35.59195 483.000
35.61190 489.000
35.63185 421.000
35.65179 425.000
35.67174 382.000
35.69169 363.000
35.71163 344.000
35.73158 346.000
35.75153 267.000
35.77147 317.000
35.79142 303.000
35.81137 350.000
35.83132 402.000
35.85126 402.000
35.87121 417.000
35.89116 531.000
35.91110 694.000
35.93105 907.000
35.95100 1144.000
35.97094 1199.000
35.99089 1100.000
36.01084 863.000
36.03079 810.000
36.05073 725.000
36.07068 680.000
36.09063 522.000
36.11057 337.000
36.13052 296.000
36.15047 267.000
36.17041 261.000
36.19036 238.000
36.21031 204.000
36.23025 193.000
36.25020 195.000
36.27015 183.000
36.29010 187.000
36.31004 191.000
36.32999 165.000
36.34994 201.000
36.36988 182.000
36.38983 198.000
36.40978 199.000
36.42972 186.000
36.44967 194.000
36.46962 198.000
36.48957 198.000
36.50951 211.000
36.52946 194.000
36.54941 178.000
36.56935 195.000
36.58930 172.000
36.60925 200.000
36.62919 201.000
36.64914 177.000
36.66909 192.000
36.68903 189.000
36.70898 197.000
36.72893 203.000
36.74888 206.000
36.76882 221.000
36.78877 207.000
36.80872 211.000
36.82866 265.000
36.84861 261.000
36.86856 263.000
36.88850 295.000
36.90845 283.000
36.92840 260.000
36.94835 262.000
36.96829 308.000
36.98824 272.000
37.00819 247.000
37.02813 295.000
37.04808 313.000
37.06803 316.000
37.08797 350.000
37.10792 412.000
37.12787 445.000
37.14781 598.000
37.16776 691.000
37.18771 949.000
37.20766 1287.000
37.22760 1596.000
37.24755 1641.000
37.26750 1413.000
37.28744 1291.000
37.30739 1117.000
37.32734 1080.000
37.34728 938.000
37.36723 806.000
37.38718 557.000
37.40713 462.000
37.42707 355.000
37.44702 322.000
37.46697 278.000
37.48691 255.000
37.50686 238.000
37.52681 197.000
37.54675 227.000
37.56670 250.000
37.58665 237.000
37.60660 215.000
37.62654 200.000
37.64649 210.000
37.66644 186.000
37.68638 194.000
37.70633 199.000
37.72628 201.000
37.74622 173.000
37.76617 180.000
37.78612 170.000
37.80606 168.000
37.82601 155.000
37.84596 169.000
37.86591 151.000
37.88585 193.000
37.90580 157.000
37.92575 156.000
37.94569 168.000
37.96564 171.000
37.98559 192.000
38.00553 176.000
38.02548 157.000
38.04543 164.000
38.06538 163.000
38.08532 175.000
38.10527 183.000
38.12522 169.000
38.14516 143.000
38.16511 133.000
38.18506 154.000
38.20500 151.000
38.22495 157.000
38.24490 147.000
38.26484 143.000
38.28479 157.000
38.30474 137.000
38.32469 159.000
38.34463 158.000
38.36458 178.000
38.38453 171.000
38.40447 157.000
38.42442 158.000
38.44437 140.000
38.46431 166.000
38.48426 154.000
38.50421 181.000
38.52416 157.000
38.54410 169.000
38.56405 153.000
38.58400 154.000
38.60394 159.000
38.62389 162.000
38.64384 170.000
38.66378 159.000
38.68373 155.000
38.70368 167.000
38.72362 167.000
38.74357 152.000
38.76352 161.000
38.78347 175.000
38.80341 177.000
38.82336 156.000
38.84331 177.000
38.86325 154.000
38.88320 183.000
38.90315 171.000
38.92309 178.000
38.94304 182.000
38.96299 199.000
38.98294 199.000
39.00288 189.000
39.02283 216.000
39.04278 190.000
39.06272 193.000
39.08267 213.000
39.10262 195.000
39.12256 247.000
39.14251 215.000
39.16246 229.000
39.18241 232.000
39.20235 250.000
39.22230 239.000
39.24225 242.000
39.26219 291.000
39.28214 275.000
39.30209 306.000
39.32203 345.000
39.34198 405.000
39.36193 464.000
39.38187 574.000
39.40182 696.000
39.42177 818.000
39.44172 1071.000
39.46166 1354.000
39.48161 1816.000
39.50156 1981.000
39.52150 2022.000
39.54145 1708.000
39.56140 1399.000
39.58134 1220.000
39.60129 1244.000
39.62124 1113.000
39.64119 880.000
39.66113 696.000
39.68108 447.000
39.70103 371.000
39.72097 304.000
39.74092 256.000
39.76087 253.000
39.78081 220.000
39.80076 219.000
39.82071 220.000
39.84065 226.000
39.86060 205.000
39.88055 219.000
39.90050 191.000
39.92044 176.000
39.94039 174.000
39.96034 164.000
39.98028 194.000
40.00023 175.000
40.02018 170.000
40.04012 180.000
40.06007 184.000
40.08002 167.000
40.09997 166.000
40.11991 194.000
40.13986 162.000
40.15981 144.000
40.17975 159.000
40.19970 164.000
40.21965 161.000
40.23959 150.000
40.25954 142.000
40.27949 151.000
40.29943 151.000
40.31938 160.000
40.33933 155.000
40.35928 172.000
40.37922 140.000
40.39917 143.000
40.41912 175.000
40.43906 143.000
40.45901 164.000
40.47896 130.000
40.49890 153.000
40.51885 151.000
40.53880 152.000
40.55875 169.000
40.57869 159.000
40.59864 164.000
40.61859 158.000
40.63853 172.000
40.65848 147.000
40.67843 156.000
40.69837 147.000
40.71832 144.000
40.73827 157.000
40.75822 154.000
40.77816 150.000
40.79811 152.000
40.81806 148.000
40.83800 161.000
40.85795 145.000
40.87790 143.000
40.89784 140.000
40.91779 149.000
40.93774 138.000
40.95768 131.000
40.97763 142.000
40.99758 146.000
41.01753 136.000
41.03747 152.000
41.05742 142.000
41.07737 133.000
41.09731 159.000
41.11726 147.000
41.13721 144.000
41.15715 155.000
41.17710 146.000
41.19705 149.000
41.21700 142.000
41.23694 158.000
41.25689 137.000
41.27684 143.000
41.29678 156.000
41.31673 158.000
41.33668 162.000
41.35662 157.000
41.37657 162.000
41.39652 151.000
41.41646 184.000
41.43641 142.000
41.45636 131.000
41.47631 140.000
41.49625 122.000
41.51620 157.000
41.53615 162.000
41.55609 166.000
41.57604 152.000
41.59599 141.000
41.61593 148.000
41.63588 130.000
41.65583 146.000
41.67578 142.000
41.69572 160.000
41.71567 160.000
41.73562 191.000
41.75556 135.000
41.77551 142.000
41.79546 160.000
41.81540 156.000
41.83535 146.000
41.85530 140.000
41.87524 150.000
41.89519 195.000
41.91514 161.000
41.93509 163.000
41.95503 146.000
41.97498 151.000
41.99493 164.000
42.01487 160.000
42.03482 188.000
42.05477 142.000
42.07471 148.000
42.09466 141.000
42.11461 148.000
42.13456 159.000
42.15450 158.000
42.17445 162.000
42.19440 152.000
42.21434 163.000
42.23429 156.000
42.25424 161.000
42.27418 142.000
42.29413 167.000
42.31408 155.000
42.33403 161.000
42.35397 157.000
42.37392 192.000
42.39387 163.000
42.41381 174.000
42.43376 154.000
42.45371 176.000
42.47365 158.000
42.49360 164.000
42.51355 172.000
42.53349 170.000
42.55344 201.000
42.57339 178.000
42.59334 165.000
42.61328 182.000
42.63323 186.000
42.65318 182.000
42.67312 200.000
42.69307 216.000
42.71302 168.000
42.73296 164.000
42.75291 190.000
42.77286 219.000
42.79281 202.000
42.81275 215.000
42.83270 191.000
42.85265 228.000
42.87259 212.000
42.89254 226.000
42.91249 231.000
42.93243 233.000
42.95238 237.000
42.97233 252.000
42.99227 299.000
43.01222 324.000
43.03217 323.000
43.05212 360.000
43.07206 360.000
43.09201 436.000
43.11196 485.000
43.13190 554.000
43.15185 656.000
43.17180 782.000
43.19174 1045.000
43.21169 1279.000
43.23164 1759.000
43.25159 2399.000
43.27153 2633.000
43.29148 2691.000
43.31143 1969.000
43.33137 1620.000
43.35132 1414.000
43.37127 1546.000
43.39121 1650.000
43.41116 1329.000
43.43111 1043.000
43.45105 755.000
43.47100 651.000
43.49095 598.000
43.51090 661.000
43.53084 681.000
43.55079 773.000
43.57074 862.000
43.59068 852.000
43.61063 908.000
43.63058 734.000
43.65052 627.000
43.67047 582.000
43.69042 591.000
43.71037 509.000
43.73031 467.000
43.75026 373.000
43.77021 329.000
43.79015 267.000
43.81010 253.000
43.83005 219.000
43.84999 229.000
43.86994 234.000
43.88989 176.000
43.90984 186.000
43.92978 157.000
43.94973 143.000
43.96968 182.000
43.98962 161.000
44.00957 168.000
44.02952 171.000
44.04946 174.000
44.06941 166.000
44.08936 176.000
44.10930 146.000
44.12925 145.000
44.14920 148.000
44.16915 177.000
44.18909 161.000
44.20904 148.000
44.22899 182.000
44.24893 161.000
44.26888 158.000
44.28883 141.000
44.30877 162.000
44.32872 159.000
44.34867 148.000
44.36862 152.000
44.38856 147.000
44.40851 184.000
44.42846 156.000
44.44840 171.000
44.46835 165.000
44.48830 140.000
44.50824 150.000
44.52819 163.000
44.54814 160.000
44.56808 142.000
44.58803 148.000
44.60798 175.000
44.62793 125.000
44.64787 156.000
44.66782 145.000
44.68777 140.000
44.70771 137.000
44.72766 151.000
44.74761 157.000
44.76755 149.000
44.78750 148.000
44.80745 150.000
44.82740 150.000
44.84734 147.000
44.86729 164.000
44.88724 165.000
44.90718 153.000
44.92713 167.000
44.94708 156.000
44.96702 138.000
44.98697 150.000
45.00692 149.000
45.02686 193.000
45.04681 162.000
45.06676 172.000
45.08671 166.000
45.10665 176.000
45.12660 183.000
45.14655 166.000
45.16649 176.000
45.18644 182.000
45.20639 204.000
45.22633 188.000
45.24628 174.000
45.26623 187.000
45.28618 179.000
45.30612 187.000
45.32607 189.000
45.34602 165.000
45.36596 186.000
45.38591 170.000
45.40586 148.000
45.42580 164.000
45.44575 162.000
45.46570 136.000
45.48565 154.000
45.50559 126.000
45.52554 155.000
45.54549 146.000
45.56543 141.000
45.58538 140.000
45.60533 152.000
45.62527 110.000
45.64522 163.000
45.66517 145.000
45.68511 140.000
45.70506 152.000
45.72501 134.000
45.74496 157.000
45.76490 122.000
45.78485 136.000
45.80480 143.000
45.82474 127.000
45.84469 143.000
45.86464 128.000
45.88458 122.000
45.90453 147.000
45.92448 126.000
45.94443 157.000
45.96437 162.000
45.98432 152.000
46.00427 132.000
46.02421 136.000
46.04416 122.000
46.06411 138.000
46.08405 140.000
46.10400 131.000
46.12395 141.000
46.14389 144.000
46.16384 144.000
46.18379 129.000
46.20374 141.000
46.22368 151.000
46.24363 139.000
46.26358 136.000
46.28352 124.000
46.30347 137.000
46.32342 134.000
46.34336 131.000
46.36331 135.000
46.38326 133.000
46.40321 148.000
46.42315 133.000
46.44310 124.000
46.46305 137.000
46.48299 144.000
46.50294 138.000
46.52289 142.000
46.54283 151.000
46.56278 122.000
46.58273 137.000
46.60267 139.000
46.62262 129.000
46.64257 119.000
46.66252 139.000
46.68246 123.000
46.70241 126.000
46.72236 131.000
46.74230 155.000
46.76225 143.000
46.78220 113.000
46.80214 124.000
46.82209 148.000
46.84204 141.000
46.86199 132.000
46.88193 136.000
46.90188 120.000
46.92183 140.000
46.94177 129.000
46.96172 141.000
46.98167 142.000
47.00161 143.000
47.02156 133.000
47.04151 128.000
47.06146 151.000
47.08140 128.000
47.10135 146.000
47.12130 140.000
47.14124 151.000
47.16119 134.000
47.18114 140.000
47.20108 145.000
47.22103 147.000
47.24098 123.000
47.26092 133.000
47.28087 130.000
47.30082 158.000
47.32077 135.000
47.34071 133.000
47.36066 153.000
47.38061 114.000
47.40055 132.000
47.42050 137.000
47.44045 146.000
47.46039 149.000
47.48034 144.000
47.50029 130.000
47.52024 133.000
47.54018 140.000
47.56013 134.000
47.58008 122.000
47.60002 138.000
47.61997 132.000
47.63992 135.000
47.65986 143.000
47.67981 141.000
47.69976 129.000
47.71970 129.000
47.73965 145.000
47.75960 118.000
47.77955 148.000
47.79949 121.000
47.81944 143.000
47.83939 133.000
47.85933 152.000
47.87928 150.000
47.89923 153.000
47.91917 129.000
47.93912 163.000
47.95907 163.000
47.97902 150.000
47.99896 143.000
48.01891 140.000
48.03886 135.000
48.05880 166.000
48.07875 146.000
48.09870 179.000
48.11864 133.000
48.13859 143.000
48.15854 164.000
48.17848 170.000
48.19843 136.000
48.21838 172.000
48.23833 171.000
48.25827 195.000
48.27822 170.000
48.29817 166.000
48.31811 182.000
48.33806 195.000
48.35801 180.000
48.37795 201.000
48.39790 199.000
48.41785 205.000
48.43780 191.000
48.45774 211.000
48.47769 209.000
48.49764 249.000
48.51758 211.000
48.53753 241.000
48.55748 251.000
48.57742 278.000
48.59737 294.000
48.61732 318.000
48.63726 347.000
48.65721 391.000
48.67716 436.000
48.69711 522.000
48.71705 615.000
48.73700 697.000
48.75695 848.000
48.77689 1058.000
48.79684 1278.000
48.81679 1451.000
48.83673 1497.000
48.85668 1610.000
48.87663 1365.000
48.89658 1274.000
48.91652 1096.000
48.93647 1032.000
48.95642 1007.000
48.97636 943.000
48.99631 788.000
49.01626 662.000
49.03620 536.000
49.05615 439.000
49.07610 330.000
49.09605 309.000
49.11599 251.000
49.13594 233.000
49.15589 224.000
49.17583 212.000
49.19578 206.000
49.21573 186.000
49.23567 177.000
49.25562 178.000
49.27557 159.000
49.29551 166.000
49.31546 180.000
49.33541 182.000
49.35536 138.000
49.37530 150.000
49.39525 139.000
49.41520 161.000
49.43514 165.000
49.45509 148.000
49.47504 149.000
49.49498 145.000
49.51493 127.000
49.53488 140.000
49.55483 134.000
49.57477 142.000
49.59472 157.000
49.61467 149.000
49.63461 135.000
49.65456 153.000
49.67451 151.000
49.69445 140.000
49.71440 159.000
49.73435 139.000
49.75429 132.000
49.77424 153.000
49.79419 136.000
49.81414 144.000
49.83408 132.000
49.85403 139.000
49.87398 144.000
49.89392 146.000
49.91387 118.000
49.93382 136.000
49.95376 132.000
49.97371 126.000
49.99366 159.000
50.01361 127.000
50.03355 139.000
50.05350 119.000
50.07345 136.000
50.09339 122.000
50.11334 140.000
50.13329 149.000
50.15323 128.000
50.17318 127.000
50.19313 145.000
50.21307 163.000
50.23302 121.000
50.25297 134.000
50.27292 129.000
50.29286 129.000
50.31281 128.000
50.33276 129.000
50.35270 133.000
50.37265 119.000
50.39260 152.000
50.41254 133.000
50.43249 113.000
50.45244 143.000
50.47239 109.000
50.49233 145.000
50.51228 137.000
50.53223 134.000
50.55217 137.000
50.57212 122.000
50.59207 137.000
50.61201 130.000
50.63196 128.000
50.65191 133.000
50.67186 128.000
50.69180 133.000
50.71175 125.000
50.73170 131.000
50.75164 135.000
50.77159 128.000
50.79154 141.000
50.81148 128.000
50.83143 123.000
50.85138 120.000
50.87132 125.000
50.89127 142.000
50.91122 113.000
50.93117 151.000
50.95111 103.000
50.97106 132.000
50.99101 114.000
51.01095 123.000
51.03090 136.000
51.05085 123.000
51.07079 147.000
51.09074 126.000
51.11069 126.000
51.13064 138.000
51.15058 121.000
51.17053 125.000
51.19048 138.000
51.21042 142.000
51.23037 136.000
51.25032 141.000
51.27026 127.000
51.29021 160.000
51.31016 117.000
51.33010 130.000
51.35005 126.000
51.37000 117.000
51.38995 119.000
51.40989 137.000
51.42984 113.000
51.44979 127.000
51.46973 133.000
51.48968 142.000
51.50963 148.000
51.52957 119.000
51.54952 127.000
51.56947 134.000
51.58942 144.000
51.60936 152.000
51.62931 146.000
51.64926 127.000
51.66920 108.000
51.68915 141.000
51.70910 133.000
51.72904 123.000
51.74899 136.000
51.76894 130.000
51.78888 127.000
51.80883 134.000
51.82878 121.000
51.84873 117.000
51.86867 141.000
51.88862 139.000
51.90857 134.000
51.92851 126.000
51.94846 136.000
51.96841 110.000
51.98835 112.000
52.00830 138.000
52.02825 120.000
52.04820 110.000
52.06814 136.000
52.08809 130.000
52.10804 135.000
52.12798 129.000
52.14793 131.000
52.16788 130.000
52.18782 118.000
52.20777 121.000
52.22772 143.000
52.24767 135.000
52.26761 136.000
52.28756 121.000
52.30751 117.000
52.32745 129.000
52.34740 118.000
52.36735 110.000
52.38729 119.000
52.40724 115.000
52.42719 124.000
52.44713 149.000
52.46708 122.000
52.48703 130.000
52.50698 102.000
52.52692 106.000
52.54687 137.000
52.56682 130.000
52.58676 130.000
52.60671 151.000
52.62666 122.000
52.64660 130.000
52.66655 119.000
52.68650 119.000
52.70645 124.000
52.72639 145.000
52.74634 126.000
52.76629 115.000
52.78623 139.000
52.80618 129.000
52.82613 151.000
52.84607 131.000
52.86602 128.000
52.88597 139.000
52.90591 126.000
52.92586 138.000
52.94581 136.000
52.96576 138.000
52.98570 127.000
53.00565 116.000
53.02560 122.000
53.04554 138.000
53.06549 135.000
53.08544 130.000
53.10538 107.000
53.12533 143.000
53.14528 120.000
53.16523 139.000
53.18517 150.000
53.20512 138.000
53.22507 129.000
53.24501 124.000
53.26496 128.000
53.28491 129.000
53.30485 116.000
53.32480 118.000
53.34475 130.000
53.36469 125.000
53.38464 113.000
53.40459 162.000
53.42454 133.000
53.44448 157.000
53.46443 146.000
53.48438 151.000
53.50432 141.000
53.52427 154.000
53.54422 159.000
53.56416 138.000
53.58411 124.000
53.60406 132.000
53.62401 153.000
53.64395 182.000
53.66390 160.000
53.68385 134.000
53.70379 122.000
53.72374 137.000
53.74369 133.000
53.76363 150.000
53.78358 143.000
53.80353 124.000
53.82348 116.000
53.84342 122.000
53.86337 160.000
53.88332 124.000
53.90326 137.000
53.92321 137.000
53.94316 122.000
53.96310 105.000
53.98305 130.000
54.00300 138.000
54.02294 136.000
54.04289 125.000
54.06284 124.000
54.08279 108.000
54.10273 125.000
54.12268 124.000
54.14263 131.000
54.16257 107.000
54.18252 127.000
54.20247 112.000
54.22241 95.000
54.24236 127.000
54.26231 129.000
54.28226 133.000
54.30220 142.000
54.32215 128.000
54.34210 129.000
54.36204 102.000
54.38199 111.000
54.40194 143.000
54.42188 127.000
54.44183 126.000
54.46178 129.000
54.48172 119.000
54.50167 133.000
54.52162 124.000
54.54157 107.000
54.56151 122.000
54.58146 131.000
54.60141 123.000
54.62135 125.000
54.64130 101.000
54.66125 115.000
54.68119 129.000
54.70114 119.000
54.72109 107.000
54.74104 121.000
54.76098 140.000
54.78093 127.000
54.80088 129.000
54.82082 107.000
54.84077 113.000
54.86072 130.000
54.88066 138.000
54.90061 124.000
54.92056 150.000
54.94050 132.000
54.96045 144.000
54.98040 134.000
55.00035 120.000
55.02029 139.000
55.04024 119.000
55.06019 122.000
55.08013 126.000
55.10008 128.000
55.12003 115.000
55.13997 116.000
55.15992 117.000
55.17987 138.000
55.19982 122.000
55.21976 120.000
55.23971 110.000
55.25966 124.000
55.27960 110.000
55.29955 132.000
55.31950 135.000
55.33944 121.000
55.35939 114.000
55.37934 123.000
55.39929 126.000
55.41923 134.000
55.43918 105.000
55.45913 129.000
55.47907 124.000
55.49902 114.000
55.51897 113.000
55.53891 127.000
55.55886 125.000
55.57881 131.000
55.59875 127.000
55.61870 121.000
55.63865 129.000
55.65860 114.000
55.67854 112.000
55.69849 138.000
55.71844 120.000
55.73838 120.000
55.75833 129.000
55.77828 139.000
55.79822 126.000
55.81817 134.000
55.83812 132.000
55.85807 110.000
55.87801 120.000
55.89796 125.000
55.91791 128.000
55.93785 122.000
55.95780 115.000
55.97775 120.000
55.99769 119.000
56.01764 115.000
56.03759 115.000
56.05753 122.000
56.07748 128.000
56.09743 139.000
56.11738 137.000
56.13732 134.000
56.15727 105.000
56.17722 130.000
56.19716 117.000
56.21711 135.000
56.23706 130.000
56.25700 138.000
56.27695 135.000
56.29690 126.000
56.31685 132.000
56.33679 109.000
56.35674 129.000
56.37669 127.000
56.39663 122.000
56.41658 145.000
56.43653 130.000
56.45647 147.000
56.47642 127.000
56.49637 142.000
56.51631 122.000
56.53626 139.000
56.55621 127.000
56.57616 114.000
56.59610 129.000
56.61605 99.000
56.63600 129.000
56.65594 114.000
56.67589 120.000
56.69584 136.000
56.71578 117.000
56.73573 146.000
56.75568 133.000
56.77563 137.000
56.79557 129.000
56.81552 134.000
56.83547 133.000
56.85541 179.000
56.87536 132.000
56.89531 176.000
56.91525 137.000
56.93520 173.000
56.95515 168.000
56.97510 192.000
56.99504 192.000
57.01499 196.000
57.03494 202.000
57.05488 221.000
57.07483 210.000
57.09478 226.000
57.11472 244.000
57.13467 205.000
57.15462 223.000
57.17456 211.000
57.19451 198.000
57.21446 219.000
57.23441 166.000
57.25435 201.000
57.27430 183.000
57.29425 156.000
57.31419 183.000
57.33414 164.000
57.35409 202.000
57.37403 156.000
57.39398 174.000
57.41393 160.000
57.43388 163.000
57.45382 171.000
57.47377 143.000
57.49372 144.000
57.51366 146.000
57.53361 143.000
57.55356 154.000
57.57350 154.000
57.59345 143.000
57.61340 140.000
57.63334 164.000
57.65329 147.000
57.67324 147.000
57.69319 145.000
57.71313 132.000
57.73308 136.000
57.75303 120.000
57.77297 155.000
57.79292 132.000
57.81287 126.000
57.83281 135.000
57.85276 128.000
57.87271 128.000
57.89266 123.000
57.91260 125.000
57.93255 126.000
57.95250 113.000
57.97244 129.000
57.99239 152.000
58.01234 125.000
58.03228 118.000
58.05223 116.000
58.07218 125.000
58.09212 130.000
58.11207 148.000
58.13202 121.000
58.15197 124.000
58.17191 124.000
58.19186 140.000
58.21181 116.000
58.23175 125.000
58.25170 129.000
58.27165 123.000
58.29159 146.000
58.31154 140.000
58.33149 135.000
58.35144 122.000
58.37138 115.000
58.39133 142.000
58.41128 116.000
58.43122 110.000
58.45117 137.000
58.47112 137.000
58.49106 123.000
58.51101 120.000
58.53096 134.000
58.55090 127.000
58.57085 127.000
58.59080 128.000
58.61075 107.000
58.63069 113.000
58.65064 138.000
58.67059 109.000
58.69053 124.000
58.71048 144.000
58.73043 133.000
58.75037 89.000
58.77032 138.000
58.79027 137.000
58.81022 113.000
58.83016 114.000
58.85011 153.000
58.87006 138.000
58.89000 138.000
58.90995 124.000
58.92990 157.000
58.94984 124.000
58.96979 123.000
58.98974 136.000
59.00969 131.000
59.02963 133.000
59.04958 125.000
59.06953 132.000
59.08947 127.000
59.10942 120.000
59.12937 123.000
59.14931 116.000
59.16926 118.000
59.18921 145.000
59.20915 127.000
59.22910 131.000
59.24905 127.000
59.26900 131.000
59.28894 136.000
59.30889 125.000
59.32884 150.000
59.34878 109.000
59.36873 141.000
59.38868 130.000
59.40862 119.000
59.42857 108.000
59.44852 144.000
59.46847 126.000
59.48841 111.000
59.50836 116.000
59.52831 129.000
59.54825 113.000
59.56820 125.000
59.58815 133.000
59.60809 121.000
59.62804 131.000
59.64799 133.000
59.66793 119.000
59.68788 118.000
59.70783 120.000
59.72778 124.000
59.74772 130.000
59.76767 115.000
59.78762 132.000
59.80756 111.000
59.82751 130.000
59.84746 112.000
59.86740 125.000
59.88735 118.000
59.90730 117.000
59.92725 126.000
59.94719 116.000
59.96714 106.000
59.98709 130.000
60.00703 131.000
60.02698 126.000
60.04693 125.000
60.06687 125.000
60.08682 127.000
60.10677 115.000
60.12671 137.000
60.14666 113.000
60.16661 122.000
60.18656 103.000
60.20650 127.000
60.22645 130.000
60.24640 153.000
60.26634 125.000
60.28629 134.000
60.30624 140.000
60.32618 126.000
60.34613 126.000
60.36608 127.000
60.38603 140.000
60.40597 142.000
60.42592 108.000
60.44587 133.000
60.46581 126.000
60.48576 122.000
60.50571 127.000
60.52565 137.000
60.54560 142.000
60.56555 142.000
60.58550 132.000
60.60544 120.000
60.62539 121.000
60.64534 126.000
60.66528 131.000
60.68523 130.000
60.70518 120.000
60.72512 134.000
60.74507 105.000
60.76502 122.000
60.78496 117.000
60.80491 107.000
60.82486 148.000
60.84481 121.000
60.86475 152.000
60.88470 126.000
60.90465 133.000
60.92459 126.000
60.94454 121.000
60.96449 132.000
60.98443 140.000
61.00438 137.000
61.02433 130.000
61.04428 127.000
61.06422 142.000
61.08417 124.000
61.10412 135.000
61.12406 118.000
61.14401 145.000
61.16396 135.000
61.18390 147.000
61.20385 122.000
61.22380 125.000
61.24374 129.000
61.26369 128.000
61.28364 136.000
61.30359 134.000
61.32353 126.000
61.34348 126.000
61.36343 158.000
61.38337 141.000
61.40332 138.000
61.42327 158.000
61.44321 151.000
61.46316 150.000
61.48311 145.000
61.50306 167.000
61.52300 169.000
61.54295 146.000
61.56290 165.000
61.58284 163.000
61.60279 152.000
61.62274 184.000
61.64268 155.000
61.66263 161.000
61.68258 176.000
61.70252 207.000
61.72247 194.000
61.74242 191.000
61.76237 190.000
61.78231 201.000
61.80226 229.000
61.82221 257.000
61.84215 245.000
61.86210 289.000
61.88205 353.000
61.90199 394.000
61.92194 400.000
61.94189 465.000
61.96184 503.000
61.98178 534.000
62.00173 580.000
62.02168 594.000
62.04162 603.000
62.06157 569.000
62.08152 520.000
62.10146 530.000
62.12141 470.000
62.14136 481.000
62.16131 434.000
62.18125 440.000
62.20120 408.000
62.22115 383.000
62.24109 349.000
62.26104 350.000
62.28099 291.000
62.30093 296.000
62.32088 235.000
62.34083 218.000
62.36077 216.000
62.38072 209.000
62.40067 210.000
62.42062 172.000
62.44056 220.000
62.46051 195.000
62.48046 219.000
62.50040 232.000
62.52035 247.000
62.54030 256.000
62.56024 252.000
62.58019 277.000
62.60014 300.000
62.62009 279.000
62.64003 349.000
62.65998 332.000
62.67993 334.000
62.69987 403.000
62.71982 437.000
62.73977 502.000
62.75971 555.000
62.77966 694.000
62.79961 786.000
62.81955 961.000
62.83950 1046.000
62.85945 974.000
62.87940 963.000
62.89934 898.000
62.91929 808.000
62.93924 729.000
62.95918 711.000
62.97913 658.000
62.99908 606.000
63.01902 664.000
63.03897 616.000
63.05892 518.000
63.07887 487.000
63.09881 453.000
63.11876 369.000
63.13871 321.000
63.15865 248.000
63.17860 228.000
63.19855 220.000
63.21849 204.000
63.23844 208.000
63.25839 188.000
63.27833 195.000
63.29828 194.000
63.31823 177.000
63.33818 186.000
63.35812 170.000
63.37807 184.000
63.39802 172.000
63.41796 155.000
63.43791 154.000
63.45786 154.000
63.47780 141.000
63.49775 140.000
63.51770 169.000
63.53765 142.000
63.55759 122.000
63.57754 130.000
63.59749 128.000
63.61743 135.000
63.63738 116.000
63.65733 137.000
63.67727 143.000
63.69722 130.000
63.71717 130.000
63.73712 134.000
63.75706 149.000
63.77701 122.000
63.79696 128.000
63.81690 135.000
63.83685 137.000
63.85680 148.000
63.87674 138.000
63.89669 125.000
63.91664 136.000
63.93658 139.000
63.95653 149.000
63.97648 128.000
63.99643 148.000
64.01637 137.000
64.03632 123.000
64.05627 140.000
64.07621 148.000
64.09616 153.000
64.11611 128.000
64.13605 137.000
64.15600 135.000
64.17595 151.000
64.19590 143.000
64.21584 178.000
64.23579 129.000
64.25574 171.000
64.27568 169.000
64.29563 157.000
64.31558 152.000
64.33552 155.000
64.35547 179.000
64.37542 173.000
64.39536 181.000
64.41531 188.000
64.43526 193.000
64.45521 221.000
64.47515 197.000
64.49510 239.000
64.51505 247.000
64.53499 270.000
64.55494 299.000
64.57489 382.000
64.59483 439.000
64.61478 530.000
64.63473 593.000
64.65468 674.000
64.67462 602.000
64.69457 556.000
64.71452 481.000
64.73446 362.000
64.75441 408.000
64.77436 386.000
64.79430 388.000
64.81425 375.000
64.83420 411.000
64.85414 385.000
64.87409 359.000
64.89404 274.000
64.91399 268.000
64.93393 218.000
64.95388 198.000
64.97383 174.000
64.99377 181.000
65.01372 153.000
65.03367 152.000
65.05361 152.000
65.07356 177.000
65.09351 141.000
65.11346 145.000
65.13340 114.000
65.15335 147.000
65.17330 139.000
65.19324 116.000
65.21319 123.000
65.23314 150.000
65.25308 148.000
65.27303 144.000
65.29298 149.000
65.31293 120.000
65.33287 137.000
65.35282 138.000
65.37277 127.000
65.39271 147.000
65.41266 134.000
65.43261 145.000
65.45255 139.000
65.47250 136.000
65.49245 130.000
65.51239 118.000
65.53234 114.000
65.55229 139.000
65.57224 137.000
65.59218 130.000
65.61213 129.000
65.63208 156.000
65.65202 127.000
65.67197 107.000
65.69192 133.000
65.71186 154.000
65.73181 110.000
65.75176 137.000
65.77171 131.000
65.79165 145.000
65.81160 134.000
65.83155 142.000
65.85149 147.000
65.87144 146.000
65.89139 134.000
65.91133 147.000
65.93128 129.000
65.95123 124.000
65.97117 147.000
65.99112 141.000
66.01107 136.000
66.03102 136.000
66.05096 129.000
66.07091 148.000
66.09086 130.000
66.11080 136.000
66.13075 117.000
66.15070 135.000
66.17064 136.000
66.19059 138.000
66.21054 136.000
66.23049 115.000
66.25043 137.000
66.27038 142.000
66.29033 153.000
66.31027 137.000
66.33022 143.000
66.35017 148.000
66.37011 134.000
66.39006 150.000
66.41001 133.000
66.42995 132.000
66.44990 152.000
66.46985 147.000
66.48980 139.000
66.50974 152.000
66.52969 169.000
66.54964 152.000
66.56958 172.000
66.58953 160.000
66.60948 187.000
66.62942 191.000
66.64937 192.000
66.66932 174.000
66.68927 208.000
66.70921 229.000
66.72916 221.000
66.74911 223.000
66.76905 222.000
66.78900 214.000
66.80895 237.000
66.82889 240.000
66.84884 214.000
66.86879 254.000
66.88874 255.000
66.90868 257.000
66.92863 266.000
66.94858 290.000
66.96852 354.000
66.98847 416.000
67.00842 425.000
67.02836 458.000
67.04831 443.000
67.06826 402.000
67.08820 362.000
67.10815 322.000
67.12810 310.000
67.14805 285.000
67.16799 295.000
67.18794 297.000
67.20789 304.000
67.22783 306.000
67.24778 279.000
67.26773 245.000
67.28767 227.000
67.30762 218.000
67.32757 184.000
67.34752 178.000
67.36746 145.000
67.38741 167.000
67.40736 150.000
67.42730 123.000
67.44725 130.000
67.46720 132.000
67.48714 121.000
67.50709 129.000
67.52704 118.000
67.54698 124.000
67.56693 123.000
67.58688 124.000
67.60683 145.000
67.62677 151.000
67.64672 128.000
67.66667 129.000
67.68661 127.000
67.70656 123.000
67.72651 127.000
67.74645 110.000
67.76640 132.000
67.78635 139.000
67.80630 110.000
67.82624 151.000
67.84619 131.000
67.86614 125.000
67.88608 127.000
67.90603 130.000
67.92598 106.000
67.94592 121.000
67.96587 134.000
67.98582 125.000
68.00576 131.000
68.02571 108.000
68.04566 115.000
68.06561 130.000
68.08555 135.000
68.10550 144.000
68.12545 117.000
68.14539 137.000
68.16534 127.000
68.18529 127.000
68.20523 158.000
68.22518 120.000
68.24513 122.000
68.26508 123.000
68.28502 110.000
68.30497 123.000
68.32492 140.000
68.34486 114.000
68.36481 125.000
68.38476 141.000
68.40470 106.000
68.42465 105.000
68.44460 137.000
68.46455 114.000
68.48449 129.000
68.50444 131.000
68.52439 116.000
68.54433 115.000
68.56428 130.000
68.58423 115.000
68.60417 126.000
68.62412 122.000
68.64407 120.000
68.66401 117.000
68.68396 116.000
68.70391 106.000
68.72386 116.000
68.74380 128.000
68.76375 121.000
68.78370 123.000
68.80364 120.000
68.82359 126.000
68.84354 119.000
68.86348 112.000
68.88343 116.000
68.90338 137.000
68.92333 137.000
68.94327 113.000
68.96322 125.000
68.98317 129.000
69.00311 101.000
69.02306 111.000
69.04301 109.000
69.06295 123.000
69.08290 113.000
69.10285 116.000
69.12279 142.000
69.14274 104.000
69.16269 111.000
69.18264 136.000
69.20258 98.000
69.22253 123.000
69.24248 133.000
69.26242 135.000
69.28237 135.000
69.30232 138.000
69.32226 93.000
69.34221 128.000
69.36216 101.000
69.38211 126.000
69.40205 108.000
69.42200 112.000
69.44195 125.000
69.46189 109.000
69.48184 119.000
69.50179 137.000
69.52173 116.000
69.54168 135.000
69.56163 101.000
69.58157 130.000
69.60152 118.000
69.62147 114.000
69.64142 131.000
69.66136 120.000
69.68131 133.000
69.70126 105.000
69.72120 114.000
69.74115 125.000
69.76110 140.000
69.78104 125.000
69.80099 122.000
69.82094 121.000
69.84089 130.000
69.86083 133.000
69.88078 120.000
69.90073 110.000
69.92067 122.000
69.94062 118.000
69.96057 106.000
69.98051 122.000
70.00046 109.000
70.02041 125.000
70.04035 102.000
70.06030 147.000
70.08025 124.000
70.10020 112.000
70.12014 110.000
70.14009 104.000
70.16004 119.000
70.17998 144.000
70.19993 117.000
70.21988 125.000
70.23982 131.000
70.25977 125.000
70.27972 87.000
70.29967 106.000
70.31961 102.000
70.33956 109.000
70.35951 112.000
70.37945 118.000
70.39940 115.000
70.41935 122.000
70.43929 119.000
70.45924 112.000
70.47919 113.000
70.49914 120.000
70.51908 109.000
70.53903 133.000
70.55898 120.000
70.57892 113.000
70.59887 102.000
70.61882 98.000
70.63876 107.000
70.65871 111.000
70.67866 117.000
70.69860 118.000
70.71855 129.000
70.73850 124.000
70.75845 109.000
70.77839 116.000
70.79834 142.000
70.81829 116.000
70.83823 112.000
70.85818 115.000
70.87813 104.000
70.89807 135.000
70.91802 91.000
70.93797 127.000
70.95792 95.000
70.97786 116.000
70.99781 104.000
71.01776 121.000
71.03770 133.000
71.05765 134.000
71.07760 125.000
71.09754 116.000
71.11749 113.000
71.13744 113.000
71.15738 125.000
71.17733 122.000
71.19728 153.000
71.21723 119.000
71.23717 121.000
71.25712 136.000
71.27707 121.000
71.29701 130.000
71.31696 125.000
71.33691 106.000
71.35685 130.000
71.37680 112.000
71.39675 124.000
71.41670 124.000
71.43664 120.000
71.45659 144.000
71.47654 129.000
71.49648 133.000
71.51643 114.000
71.53638 104.000
71.55632 125.000
71.57627 104.000
71.59622 113.000
71.61616 125.000
71.63611 124.000
71.65606 126.000
71.67601 114.000
71.69595 124.000
71.71590 128.000
71.73585 138.000
71.75579 112.000
71.77574 127.000
71.79569 111.000
71.81563 125.000
71.83558 120.000
71.85553 100.000
71.87548 127.000
71.89542 101.000
71.91537 111.000
71.93532 119.000
71.95526 109.000
71.97521 116.000
71.99516 115.000
72.01510 124.000
72.03505 119.000
72.05500 107.000
72.07495 111.000
72.09489 127.000
72.11484 117.000
72.13479 133.000
72.15473 107.000
72.17468 113.000
72.19463 120.000
72.21457 118.000
72.23452 130.000
72.25447 99.000
72.27441 126.000
72.29436 124.000
72.31431 116.000
72.33426 129.000
72.35420 127.000
72.37415 114.000
72.39410 110.000
72.41404 130.000
72.43399 102.000
72.45394 119.000
72.47388 127.000
72.49383 105.000
72.51378 123.000
72.53373 110.000
72.55367 135.000
72.57362 129.000
72.59357 110.000
72.61351 134.000
72.63346 118.000
72.65341 119.000
72.67335 126.000
72.69330 139.000
72.71325 131.000
72.73319 103.000
72.75314 123.000
72.77309 112.000
72.79304 117.000
72.81298 94.000
72.83293 116.000
72.85288 118.000
72.87282 127.000
72.89277 140.000
72.91272 107.000
72.93266 106.000
72.95261 136.000
72.97256 103.000
72.99251 118.000
73.01245 103.000
73.03240 117.000
73.05235 109.000
73.07229 118.000
73.09224 109.000
73.11219 119.000
73.13213 99.000
73.15208 147.000
73.17203 105.000
73.19197 98.000
73.21192 126.000
73.23187 131.000
73.25182 105.000
73.27176 124.000
73.29171 112.000
73.31166 112.000
73.33160 127.000
73.35155 113.000
73.37150 130.000
73.39144 127.000
73.41139 135.000
73.43134 126.000
73.45129 143.000
73.47123 120.000
73.49118 118.000
73.51113 119.000
73.53107 140.000
73.55102 126.000
73.57097 137.000
73.59091 131.000
73.61086 162.000
73.63081 163.000
73.65076 146.000
73.67070 140.000
73.69065 136.000
73.71060 166.000
73.73054 136.000
73.75049 154.000
73.77044 138.000
73.79038 194.000
73.81033 169.000
73.83028 181.000
73.85022 192.000
73.87017 209.000
73.89012 281.000
73.91007 242.000
73.93001 233.000
73.94996 256.000
73.96991 245.000
73.98985 228.000
74.00980 203.000
74.02975 187.000
74.04969 193.000
74.06964 205.000
74.08959 197.000
74.10954 207.000
74.12948 218.000
74.14943 192.000
74.16938 192.000
74.18932 218.000
74.20927 201.000
74.22922 165.000
74.24916 170.000
74.26911 156.000
74.28906 138.000
74.30900 135.000
74.32895 152.000
74.34890 138.000
74.36885 127.000
74.38879 155.000
74.40874 143.000
74.42869 136.000
74.44863 122.000
74.46858 124.000
74.48853 137.000
74.50847 125.000
74.52842 126.000
74.54837 136.000
74.56832 124.000
74.58826 127.000
74.60821 127.000
74.62816 108.000
74.64810 123.000
74.66805 126.000
74.68800 133.000
74.70794 110.000
74.72789 128.000
74.74784 124.000
74.76778 138.000
74.78773 119.000
74.80768 123.000
74.82763 116.000
74.84757 129.000
74.86752 139.000
74.88747 132.000
74.90741 111.000
74.92736 143.000
74.94731 120.000
74.96725 129.000
74.98720 135.000
75.00715 139.000
75.02710 145.000
75.04704 135.000
75.06699 167.000
75.08694 150.000
75.10688 157.000
75.12683 138.000
75.14678 133.000
75.16672 161.000
75.18667 165.000
75.20662 169.000
75.22657 190.000
75.24651 189.000
75.26646 209.000
75.28641 227.000
75.30635 274.000
75.32630 292.000
75.34625 341.000
75.36619 417.000
75.38614 393.000
75.40609 378.000
75.42603 363.000
75.44598 286.000
75.46593 284.000
75.48588 286.000
75.50582 235.000
75.52577 256.000
75.54572 254.000
75.56566 269.000
75.58561 269.000
75.60556 277.000
75.62550 286.000
75.64545 250.000
75.66540 226.000
75.68535 210.000
75.70529 214.000
75.72524 174.000
75.74519 146.000
75.76513 152.000
75.78508 140.000
75.80503 160.000
75.82497 141.000
75.84492 123.000
75.86487 161.000
75.88481 127.000
75.90476 113.000
75.92471 130.000
75.94466 117.000
75.96460 131.000
75.98455 120.000
76.00450 131.000
76.02444 121.000
76.04439 129.000
76.06434 147.000
76.08428 136.000
76.10423 115.000
76.12418 144.000
76.14413 156.000
76.16407 127.000
76.18402 142.000
76.20397 161.000
76.22391 185.000
76.24386 169.000
76.26381 181.000
76.28375 179.000
76.30370 150.000
76.32365 156.000
76.34359 165.000
76.36354 174.000
76.38349 156.000
76.40344 151.000
76.42338 140.000
76.44333 155.000
76.46328 152.000
76.48322 143.000
76.50317 140.000
76.52312 148.000
76.54306 154.000
76.56301 112.000
76.58296 141.000
76.60291 118.000
76.62285 109.000
76.64280 137.000
76.66275 125.000
76.68269 131.000
76.70264 128.000
76.72259 109.000
76.74253 122.000
76.76248 107.000
76.78243 138.000
76.80238 126.000
76.82232 141.000
76.84227 136.000
76.86222 127.000
76.88216 136.000
76.90211 120.000
76.92206 122.000
76.94200 122.000
76.96195 134.000
76.98190 108.000
77.00184 116.000
77.02179 114.000
77.04174 136.000
77.06169 119.000
77.08163 118.000
77.10158 127.000
77.12153 120.000
77.14147 120.000
77.16142 129.000
77.18137 107.000
77.20131 115.000
77.22126 101.000
77.24121 120.000
77.26116 105.000
77.28110 123.000
77.30105 122.000
77.32100 124.000
77.34094 113.000
77.36089 108.000
77.38084 124.000
77.40078 119.000
77.42073 102.000
77.44068 121.000
77.46062 114.000
77.48057 123.000
77.50052 103.000
77.52047 109.000
77.54041 137.000
77.56036 130.000
77.58031 133.000
77.60025 146.000
77.62020 134.000
77.64015 132.000
77.66009 139.000
77.68004 117.000
77.69999 135.000
77.71994 136.000
77.73988 132.000
77.75983 139.000
77.77978 131.000
77.79972 134.000
77.81967 139.000
77.83962 134.000
77.85956 148.000
77.87951 152.000
77.89946 144.000
77.91940 132.000
77.93935 160.000
77.95930 158.000
77.97925 144.000
77.99919 187.000
78.01914 169.000
78.03909 176.000
78.05903 185.000
78.07898 166.000
78.09893 216.000
78.11887 217.000
78.13882 229.000
78.15877 260.000
78.17872 241.000
78.19866 243.000
78.21861 220.000
78.23856 245.000
78.25850 218.000
78.27845 222.000
78.29840 261.000
78.31834 242.000
78.33829 225.000
78.35824 214.000
78.37819 219.000
78.39813 266.000
78.41808 270.000
78.43803 298.000
78.45797 315.000
78.47792 301.000
78.49787 308.000
78.51781 280.000
78.53776 256.000
78.55771 240.000
78.57765 210.000
78.59760 199.000
78.61755 168.000
78.63750 190.000
78.65744 202.000
78.67739 164.000
78.69734 180.000
78.71728 189.000
78.73723 191.000
78.75718 199.000
78.77712 153.000
78.79707 161.000
78.81702 133.000
78.83697 150.000
78.85691 165.000
78.87686 107.000
78.89681 143.000
78.91675 118.000
78.93670 144.000
78.95665 155.000
78.97659 135.000
78.99654 141.000
79.01649 123.000
79.03643 131.000
79.05638 142.000
79.07633 139.000
79.09628 139.000
79.11622 153.000
79.13617 147.000
79.15612 130.000
79.17606 145.000
79.19601 157.000
79.21596 196.000
79.23590 157.000
79.25585 195.000
79.27580 216.000
79.29575 235.000
79.31569 282.000
79.33564 324.000
79.35559 316.000
79.37553 314.000
79.39548 289.000
79.41543 241.000
79.43537 238.000
79.45532 225.000
79.47527 227.000
79.49521 230.000
79.51516 235.000
79.53511 220.000
79.55506 239.000
79.57500 222.000
79.59495 235.000
79.61490 222.000
79.63484 225.000
79.65479 193.000
79.67474 182.000
79.69468 156.000
79.71463 168.000
79.73458 179.000
79.75453 157.000
79.77447 122.000
79.79442 139.000
79.81437 136.000
79.83431 135.000
79.85426 135.000
79.87421 151.000
79.89415 126.000
79.91410 96.000
79.93405 140.000
79.95399 122.000
79.97394 121.000
79.99389 122.000
80.01384 114.000
80.03378 115.000
80.05373 119.000
80.07368 123.000
80.09362 110.000
80.11357 110.000
80.13352 106.000
80.15346 121.000
80.17341 116.000
80.19336 136.000
80.21331 120.000
80.23325 130.000
80.25320 107.000
80.27315 104.000
80.29309 98.000
80.31304 98.000
80.33299 112.000
80.35293 120.000
80.37288 100.000
80.39283 130.000
80.41278 106.000
80.43272 97.000
80.45267 122.000
80.47262 118.000
80.49256 113.000
80.51251 127.000
80.53246 107.000
80.55240 102.000
80.57235 106.000
80.59230 122.000
80.61224 118.000
80.63219 117.000
80.65214 115.000
80.67209 121.000
80.69203 105.000
80.71198 120.000
80.73193 135.000
80.75187 110.000
80.77182 123.000
80.79177 105.000
80.81171 106.000
80.83166 125.000
80.85161 110.000
80.87156 130.000
80.89150 115.000
80.91145 116.000
80.93140 121.000
80.95134 117.000
80.97129 104.000
80.99124 108.000
81.01118 119.000
81.03113 117.000
81.05108 116.000
81.07102 139.000
81.09097 125.000
81.11092 111.000
81.13087 102.000
81.15081 128.000
81.17076 121.000
81.19071 130.000
81.21065 116.000
81.23060 130.000
81.25055 139.000
81.27049 134.000
81.29044 128.000
81.31039 138.000
81.33034 118.000
81.35028 127.000
81.37023 123.000
81.39018 158.000
81.41012 112.000
81.43007 128.000
81.45002 131.000
81.46996 124.000
81.48991 125.000
81.50986 128.000
81.52980 122.000
81.54975 122.000
81.56970 124.000
81.58965 116.000
81.60959 116.000
81.62954 110.000
81.64949 113.000
81.66943 110.000
81.68938 106.000
81.70933 96.000
81.72927 90.000
81.74922 110.000
81.76917 115.000
81.78912 121.000
81.80906 107.000
81.82901 116.000
81.84896 108.000
81.86890 122.000
81.88885 114.000
81.90880 107.000
81.92874 93.000
81.94869 129.000
81.96864 95.000
81.98859 109.000
82.00853 108.000
82.02848 111.000
82.04843 109.000
82.06837 112.000
82.08832 108.000
82.10827 105.000
82.12821 106.000
82.14816 117.000
82.16811 114.000
82.18805 118.000
82.20800 111.000
82.22795 114.000
82.24790 112.000
82.26784 123.000
82.28779 129.000
82.30774 115.000
82.32768 104.000
82.34763 107.000
82.36758 116.000
82.38752 112.000
82.40747 121.000
82.42742 110.000
82.44737 109.000
82.46731 110.000
82.48726 109.000
82.50721 116.000
82.52715 118.000
82.54710 118.000
82.56705 134.000
82.58699 126.000
82.60694 102.000
82.62689 118.000
82.64683 101.000
82.66678 117.000
82.68673 113.000
82.70668 87.000
82.72662 130.000
82.74657 119.000
82.76652 107.000
82.78646 120.000
82.80641 121.000
82.82636 122.000
82.84630 114.000
82.86625 104.000
82.88620 107.000
82.90615 122.000
82.92609 104.000
82.94604 112.000
82.96599 127.000
82.98593 118.000
83.00588 122.000
83.02583 121.000
83.04577 103.000
83.06572 107.000
83.08567 104.000
83.10561 104.000
83.12556 109.000
83.14551 112.000
83.16546 133.000
83.18540 108.000
83.20535 118.000
83.22530 114.000
83.24524 114.000
83.26519 115.000
83.28514 123.000
83.30508 114.000
83.32503 107.000
83.34498 105.000
83.36493 117.000
83.38487 103.000
83.40482 102.000
83.42477 88.000
83.44471 117.000
83.46466 112.000
83.48461 118.000
83.50455 107.000
83.52450 110.000
83.54445 111.000
83.56440 105.000
83.58434 98.000
83.60429 114.000
83.62424 114.000
83.64418 108.000
83.66413 112.000
83.68408 119.000
83.70402 121.000
83.72397 127.000
83.74392 107.000
83.76386 117.000
83.78381 117.000
83.80376 107.000
83.82371 123.000
83.84365 117.000
83.86360 118.000
83.88355 101.000
83.90349 110.000
83.92344 119.000
83.94339 119.000
83.96333 119.000
83.98328 128.000
84.00323 111.000
84.02318 117.000
84.04312 113.000
84.06307 103.000
84.08302 110.000
84.10296 127.000
84.12291 119.000
84.14286 97.000
84.16280 113.000
84.18275 108.000
84.20270 105.000
84.22264 141.000
84.24259 110.000
84.26254 100.000
84.28249 106.000
84.30243 140.000
84.32238 116.000
84.34233 119.000
84.36227 108.000
84.38222 97.000
84.40217 102.000
84.42211 96.000
84.44206 107.000
84.46201 103.000
84.48196 141.000
84.50190 129.000
84.52185 113.000
84.54180 118.000
84.56174 140.000
84.58169 115.000
84.60164 137.000
84.62158 122.000
84.64153 125.000
84.66148 145.000
84.68142 129.000
84.70137 110.000
84.72132 140.000
84.74127 129.000
84.76121 116.000
84.78116 149.000
84.80111 133.000
84.82105 145.000
84.84100 142.000
84.86095 160.000
84.88089 173.000
84.90084 182.000
84.92079 189.000
84.94074 195.000
84.96068 204.000
84.98063 232.000
85.00058 228.000
85.02052 257.000
85.04047 244.000
85.06042 219.000
85.08036 266.000
85.10031 247.000
85.12026 240.000
85.14021 199.000
85.16015 197.000
85.18010 182.000
85.20005 166.000
85.21999 220.000
85.23994 191.000
85.25989 181.000
85.27983 215.000
85.29978 169.000
85.31973 193.000
85.33967 190.000
85.35962 169.000
85.37957 146.000
85.39952 153.000
85.41946 141.000
85.43941 151.000
85.45936 134.000
85.47930 130.000
85.49925 146.000
85.51920 115.000
85.53914 134.000
85.55909 119.000
85.57904 120.000
85.59899 128.000
85.61893 130.000
85.63888 117.000
85.65883 107.000
85.67877 114.000
85.69872 103.000
85.71867 120.000
85.73861 110.000
85.75856 124.000
85.77851 108.000
85.79845 116.000
85.81840 83.000
85.83835 109.000
85.85830 112.000
85.87824 118.000
85.89819 133.000
85.91814 105.000
85.93808 104.000
85.95803 103.000
85.97798 118.000
85.99792 122.000
86.01787 113.000
86.03782 114.000
86.05777 113.000
86.07771 116.000
86.09766 115.000
86.11761 107.000
86.13755 111.000
86.15750 107.000
86.17745 120.000
86.19739 122.000
86.21734 106.000
86.23729 120.000
86.25723 120.000
86.27718 124.000
86.29713 108.000
86.31708 116.000
86.33702 119.000
86.35697 123.000
86.37692 121.000
86.39686 105.000
86.41681 94.000
86.43676 120.000
86.45670 127.000
86.47665 87.000
86.49660 121.000
86.51655 115.000
86.53649 112.000
86.55644 117.000
86.57639 121.000
86.59633 115.000
86.61628 126.000
86.63623 131.000
86.65617 127.000
86.67612 127.000
86.69607 119.000
86.71602 144.000
86.73596 104.000
86.75591 114.000
86.77586 142.000
86.79580 131.000
86.81575 127.000
86.83570 128.000
86.85564 107.000
86.87559 126.000
86.89554 134.000
86.91548 138.000
86.93543 134.000
86.95538 118.000
86.97533 134.000
86.99527 116.000
87.01522 135.000
87.03517 121.000
87.05511 125.000
87.07506 133.000
87.09501 126.000
87.11495 139.000
87.13490 129.000
87.15485 116.000
87.17480 123.000
87.19474 123.000
87.21469 124.000
87.23464 117.000
87.25458 139.000
87.27453 124.000
87.29448 130.000
87.31442 127.000
87.33437 120.000
87.35432 110.000
87.37426 116.000
87.39421 129.000
87.41416 124.000
87.43411 132.000
87.45405 119.000
87.47400 123.000
87.49395 148.000
87.51389 127.000
87.53384 141.000
87.55379 158.000
87.57373 107.000
87.59368 101.000
87.61363 130.000
87.63358 127.000
87.65352 109.000
87.67347 159.000
87.69342 113.000
87.71336 110.000
87.73331 129.000
87.75326 123.000
87.77320 119.000
87.79315 112.000
87.81310 131.000
87.83304 134.000
87.85299 119.000
87.87294 127.000
87.89289 100.000
87.91283 119.000
87.93278 114.000
87.95273 116.000
87.97267 115.000
87.99262 120.000
88.01257 108.000
88.03251 95.000
88.05246 120.000
88.07241 113.000
88.09236 106.000
88.11230 103.000
88.13225 96.000
88.15220 124.000
88.17214 108.000
88.19209 103.000
88.21204 107.000
88.23198 99.000
88.25193 107.000
88.27188 104.000
88.29183 120.000
88.31177 116.000
88.33172 113.000
88.35167 125.000
88.37161 102.000
88.39156 111.000
88.41151 105.000
88.43145 109.000
88.45140 129.000
88.47135 114.000
88.49129 116.000
88.51124 91.000
88.53119 103.000
88.55114 93.000
88.57108 95.000
88.59103 117.000
88.61098 118.000
88.63092 134.000
88.65087 117.000
88.67082 105.000
88.69076 123.000
88.71071 125.000
88.73066 130.000
88.75061 111.000
88.77055 109.000
88.79050 112.000
88.81045 107.000
88.83039 117.000
88.85034 130.000
88.87029 113.000
88.89023 134.000
88.91018 115.000
88.93013 106.000
88.95007 103.000
88.97002 108.000
88.98997 135.000
89.00992 111.000
89.02986 119.000
89.04981 115.000
89.06976 125.000
89.08970 104.000
89.10965 95.000
89.12960 106.000
89.14954 115.000
89.16949 80.000
89.18944 103.000
89.20939 120.000
89.22933 92.000
89.24928 109.000
89.26923 106.000
89.28917 115.000
89.30912 122.000
89.32907 109.000
89.34901 112.000
89.36896 110.000
89.38891 125.000
89.40885 112.000
89.42880 118.000
89.44875 116.000
89.46870 106.000
89.48864 103.000
89.50859 98.000
89.52854 136.000
89.54848 109.000
89.56843 110.000
89.58838 115.000
89.60832 112.000
89.62827 128.000
89.64822 117.000
89.66817 125.000
89.68811 129.000
89.70806 125.000
89.72801 139.000
89.74795 121.000
89.76790 122.000
89.78785 119.000
89.80779 132.000
89.82774 117.000
89.84769 141.000
89.86764 137.000
89.88758 125.000
89.90753 125.000
89.92748 118.000
89.94742 128.000
89.96737 129.000
89.98732 126.000
90.00726 121.000
