10.00000 135.000
10.01995 163.000
10.03989 154.000
10.05984 134.000
10.07979 145.000
10.09973 161.000
10.11968 154.000
10.13963 144.000
10.15958 136.000
10.17952 151.000
10.19947 147.000
10.21942 138.000
10.23936 137.000
10.25931 135.000
10.27926 141.000
10.29920 139.000
10.31915 135.000
10.33910 145.000
10.35905 159.000
10.37899 149.000
10.39894 138.000
10.41889 149.000
10.43883 129.000
10.45878 126.000
10.47873 128.000
10.49867 133.000
10.51862 163.000
10.53857 130.000
10.55851 113.000
10.57846 151.000
10.59841 144.000
10.61836 139.000
10.63830 127.000
10.65825 130.000
10.67820 134.000
10.69814 138.000
10.71809 119.000
10.73804 130.000
10.75798 128.000
10.77793 150.000
10.79788 134.000
10.81783 134.000
10.83777 117.000
10.85772 151.000
10.87767 140.000
10.89761 128.000
10.91756 156.000
10.93751 116.000
10.95745 125.000
10.97740 132.000
10.99735 128.000
11.01730 145.000
11.03724 122.000
11.05719 128.000
11.07714 136.000
11.09708 130.000
11.11703 124.000
11.13698 120.000
11.15692 123.000
11.17687 137.000
11.19682 116.000
11.21676 132.000
11.23671 147.000
11.25666 155.000
11.27661 126.000
11.29655 133.000
11.31650 127.000
11.33645 137.000
11.35639 150.000
11.37634 136.000
11.39629 152.000
11.41623 113.000
11.43618 124.000
11.45613 118.000
11.47608 118.000
11.49602 117.000
11.51597 131.000
11.53592 144.000
11.55586 127.000
11.57581 131.000
11.59576 130.000
11.61570 125.000
11.63565 114.000
11.65560 132.000
11.67554 115.000
11.69549 130.000
11.71544 118.000
11.73539 129.000
11.75533 115.000
11.77528 114.000
11.79523 122.000
11.81517 110.000
11.83512 117.000
11.85507 130.000
11.87501 106.000
11.89496 118.000
11.91491 124.000
11.93486 135.000
11.95480 104.000
11.97475 124.000
11.99470 117.000
12.01464 122.000
12.03459 121.000
12.05454 136.000
12.07448 123.000
12.09443 128.000
12.11438 123.000
12.13432 124.000
12.15427 121.000
12.17422 130.000
12.19417 119.000
12.21411 140.000
12.23406 110.000
12.25401 133.000
12.27395 111.000
12.29390 120.000
12.31385 130.000
12.33379 135.000
12.35374 125.000
12.37369 123.000
12.39364 121.000
12.41358 109.000
12.43353 123.000
12.45348 128.000
12.47342 137.000
12.49337 95.000
12.51332 138.000
12.53326 130.000
12.55321 132.000
12.57316 115.000
12.59311 134.000
12.61305 108.000
12.63300 126.000
12.65295 117.000
12.67289 108.000
12.69284 126.000
12.71279 130.000
12.73273 116.000
12.75268 109.000
12.77263 107.000
12.79257 104.000
12.81252 119.000
12.83247 106.000
12.85242 114.000
12.87236 120.000
12.89231 148.000
12.91226 132.000
12.93220 140.000
12.95215 121.000
12.97210 123.000
12.99204 132.000
13.01199 147.000
13.03194 109.000
13.05189 118.000
13.07183 120.000
13.09178 114.000
13.11173 100.000
13.13167 108.000
13.15162 124.000
13.17157 138.000
13.19151 87.000
13.21146 132.000
13.23141 106.000
13.25135 117.000
13.27130 107.000
13.29125 127.000
13.31120 122.000
13.33114 133.000
13.35109 142.000
13.37104 125.000
13.39098 113.000
13.41093 106.000
13.43088 95.000
13.45082 130.000
13.47077 127.000
13.49072 112.000
13.51067 126.000
13.53061 107.000
13.55056 118.000
13.57051 133.000
13.59045 113.000
13.61040 106.000
13.63035 114.000
13.65029 132.000
13.67024 132.000
13.69019 129.000
13.71013 123.000
13.73008 110.000
13.75003 120.000
13.76998 114.000
13.78992 120.000
13.80987 121.000
13.82982 129.000
13.84976 110.000
13.86971 131.000
13.88966 122.000
13.90960 131.000
13.92955 120.000
13.94950 128.000
13.96945 96.000
13.98939 140.000
14.00934 137.000
14.02929 126.000
14.04923 120.000
14.06918 119.000
14.08913 121.000
14.10907 134.000
14.12902 141.000
14.14897 145.000
14.16892 107.000
14.18886 129.000
14.20881 133.000
14.22876 150.000
14.24870 143.000
14.26865 127.000
14.28860 122.000
14.30854 146.000
14.32849 146.000
14.34844 147.000
14.36838 137.000
14.38833 147.000
14.40828 175.000
14.42823 151.000
14.44817 151.000
14.46812 167.000
14.48807 162.000
14.50801 187.000
14.52796 172.000
14.54791 180.000
14.56785 203.000
14.58780 194.000
14.60775 227.000
14.62770 267.000
14.64764 319.000
14.66759 343.000
14.68754 399.000
14.70748 396.000
14.72743 360.000
14.74738 348.000
14.76732 381.000
14.78727 288.000
14.80722 277.000
14.82716 241.000
14.84711 226.000
14.86706 239.000
14.88701 194.000
14.90695 201.000
14.92690 196.000
14.94685 196.000
14.96679 185.000
14.98674 149.000
15.00669 150.000
15.02663 161.000
15.04658 160.000
15.06653 126.000
15.08648 138.000
15.10642 144.000
15.12637 137.000
15.14632 147.000
15.16626 150.000
15.18621 139.000
15.20616 144.000
15.22610 126.000
15.24605 127.000
15.26600 135.000
15.28594 146.000
15.30589 137.000
15.32584 137.000
15.34579 133.000
15.36573 137.000
15.38568 133.000
15.40563 136.000
15.42557 125.000
15.44552 136.000
15.46547 121.000
15.48541 127.000
15.50536 129.000
15.52531 132.000
15.54526 110.000
15.56520 114.000
15.58515 130.000
15.60510 126.000
15.62504 122.000
15.64499 122.000
15.66494 103.000
15.68488 141.000
15.70483 100.000
15.72478 104.000
15.74472 127.000
15.76467 113.000
15.78462 128.000
15.80457 138.000
15.82451 131.000
15.84446 118.000
15.86441 139.000
15.88435 115.000
15.90430 146.000
15.92425 113.000
15.94419 121.000
15.96414 119.000
15.98409 115.000
16.00404 113.000
16.02398 137.000
16.04393 114.000
16.06388 124.000
16.08382 123.000
16.10377 130.000
16.12372 124.000
16.14366 122.000
16.16361 122.000
16.18356 142.000
16.20351 134.000
16.22345 128.000
16.24340 110.000
16.26335 137.000
16.28329 105.000
16.30324 99.000
16.32319 98.000
16.34313 107.000
16.36308 124.000
16.38303 119.000
16.40297 127.000
16.42292 110.000
16.44287 115.000
16.46282 121.000
16.48276 114.000
16.50271 106.000
16.52266 118.000
16.54260 105.000
16.56255 108.000
16.58250 126.000
16.60244 123.000
16.62239 137.000
16.64234 107.000
16.66229 141.000
16.68223 142.000
16.70218 111.000
16.72213 115.000
16.74207 132.000
16.76202 131.000
16.78197 129.000
16.80191 129.000
16.82186 131.000
16.84181 134.000
16.86175 114.000
16.88170 144.000
16.90165 124.000
16.92160 121.000
16.94154 129.000
16.96149 147.000
16.98144 134.000
17.00138 131.000
17.02133 124.000
17.04128 152.000
17.06122 109.000
17.08117 130.000
17.10112 152.000
17.12107 128.000
17.14101 116.000
17.16096 133.000
17.18091 114.000
17.20085 148.000
17.22080 132.000
17.24075 148.000
17.26069 133.000
17.28064 122.000
17.30059 113.000
17.32053 134.000
17.34048 130.000
17.36043 149.000
17.38038 127.000
17.40032 142.000
17.42027 115.000
17.44022 121.000
17.46016 135.000
17.48011 133.000
17.50006 161.000
17.52000 141.000
17.53995 119.000
17.55990 127.000
17.57985 119.000
17.59979 138.000
17.61974 122.000
17.63969 114.000
17.65963 122.000
17.67958 127.000
17.69953 134.000
17.71947 132.000
17.73942 106.000
17.75937 118.000
17.77932 124.000
17.79926 120.000
17.81921 116.000
17.83916 126.000
17.85910 112.000
17.87905 88.000
17.89900 133.000
17.91894 123.000
17.93889 129.000
17.95884 102.000
17.97878 128.000
17.99873 124.000
18.01868 110.000
18.03863 108.000
18.05857 117.000
18.07852 114.000
18.09847 120.000
18.11841 111.000
18.13836 115.000
18.15831 100.000
18.17825 129.000
18.19820 107.000
18.21815 136.000
18.23810 124.000
18.25804 112.000
18.27799 148.000
18.29794 129.000
18.31788 172.000
18.33783 185.000
18.35778 245.000
18.37772 310.000
18.39767 447.000
18.41762 464.000
18.43756 446.000
18.45751 338.000
18.47746 280.000
18.49741 199.000
18.51735 136.000
18.53730 117.000
18.55725 125.000
18.57719 122.000
18.59714 116.000
18.61709 105.000
18.63703 121.000
18.65698 121.000
18.67693 125.000
18.69688 135.000
18.71682 120.000
18.73677 104.000
18.75672 118.000
18.77666 113.000
18.79661 103.000
18.81656 103.000
18.83650 117.000
18.85645 117.000
18.87640 116.000
18.89634 129.000
18.91629 150.000
18.93624 116.000
18.95619 127.000
18.97613 121.000
18.99608 125.000
19.01603 105.000
19.03597 110.000
19.05592 120.000
19.07587 118.000
19.09581 113.000
19.11576 123.000
19.13571 107.000
19.15566 106.000
19.17560 109.000
19.19555 104.000
19.21550 127.000
19.23544 115.000
19.25539 109.000
19.27534 122.000
19.29528 118.000
19.31523 129.000
19.33518 126.000
19.35513 117.000
19.37507 127.000
19.39502 123.000
19.41497 113.000
19.43491 124.000
19.45486 107.000
19.47481 114.000
19.49475 120.000
19.51470 130.000
19.53465 91.000
19.55459 123.000
19.57454 125.000
19.59449 115.000
19.61444 103.000
19.63438 101.000
19.65433 124.000
19.67428 112.000
19.69422 102.000
19.71417 110.000
19.73412 107.000
19.75406 139.000
19.77401 113.000
19.79396 127.000
19.81391 104.000
19.83385 99.000
19.85380 96.000
19.87375 123.000
19.89369 115.000
19.91364 121.000
19.93359 116.000
19.95353 95.000
19.97348 112.000
19.99343 136.000
20.01337 113.000
20.03332 111.000
20.05327 116.000
20.07322 122.000
20.09316 116.000
20.11311 122.000
20.13306 107.000
20.15300 105.000
20.17295 137.000
20.19290 111.000
20.21284 100.000
20.23279 117.000
20.25274 127.000
20.27269 132.000
20.29263 113.000
20.31258 102.000
20.33253 122.000
20.35247 121.000
20.37242 107.000
20.39237 113.000
20.41231 118.000
20.43226 115.000
20.45221 148.000
20.47215 126.000
20.49210 146.000
20.51205 152.000
20.53200 148.000
20.55194 158.000
20.57189 138.000
20.59184 136.000
20.61178 156.000
20.63173 149.000
20.65168 150.000
20.67162 170.000
20.69157 164.000
20.71152 192.000
20.73147 183.000
20.75141 193.000
20.77136 192.000
20.79131 207.000
20.81125 212.000
20.83120 220.000
20.85115 164.000
20.87109 202.000
20.89104 202.000
20.91099 193.000
20.93094 165.000
20.95088 175.000
20.97083 200.000
20.99078 193.000
21.01072 190.000
21.03067 170.000
21.05062 190.000
21.07056 188.000
21.09051 142.000
21.11046 160.000
21.13040 137.000
21.15035 134.000
21.17030 125.000
21.19025 137.000
21.21019 94.000
21.23014 117.000
21.25009 112.000
21.27003 120.000
21.28998 110.000
21.30993 135.000
21.32987 129.000
21.34982 105.000
21.36977 130.000
21.38972 126.000
21.40966 108.000
21.42961 114.000
21.44956 120.000
21.46950 137.000
21.48945 125.000
21.50940 120.000
21.52934 125.000
21.54929 124.000
21.56924 123.000
21.58918 121.000
21.60913 120.000
21.62908 127.000
21.64903 108.000
21.66897 109.000
21.68892 126.000
21.70887 137.000
21.72881 130.000
21.74876 139.000
21.76871 128.000
21.78865 103.000
21.80860 125.000
21.82855 122.000
21.84850 132.000
21.86844 127.000
21.88839 118.000
21.90834 121.000
21.92828 128.000
21.94823 129.000
21.96818 135.000
21.98812 117.000
22.00807 113.000
22.02802 126.000
22.04796 133.000
22.06791 145.000
22.08786 132.000
22.10781 114.000
22.12775 120.000
22.14770 158.000
22.16765 152.000
22.18759 152.000
22.20754 145.000
22.22749 144.000
22.24743 121.000
22.26738 138.000
22.28733 130.000
22.30728 131.000
22.32722 114.000
22.34717 138.000
22.36712 136.000
22.38706 139.000
22.40701 123.000
22.42696 132.000
22.44690 125.000
22.46685 135.000
22.48680 114.000
22.50675 110.000
22.52669 130.000
22.54664 137.000
22.56659 110.000
22.58653 138.000
22.60648 118.000
22.62643 128.000
22.64637 115.000
22.66632 119.000
22.68627 137.000
22.70621 133.000
22.72616 126.000
22.74611 117.000
22.76606 130.000
22.78600 128.000
22.80595 108.000
22.82590 130.000
22.84584 135.000
22.86579 104.000
22.88574 125.000
22.90568 131.000
22.92563 124.000
22.94558 124.000
22.96553 135.000
22.98547 121.000
23.00542 121.000
23.02537 134.000
23.04531 110.000
23.06526 114.000
23.08521 122.000
23.10515 131.000
23.12510 123.000
23.14505 121.000
23.16499 118.000
23.18494 114.000
23.20489 111.000
23.22484 108.000
23.24478 127.000
23.26473 116.000
23.28468 93.000
23.30462 128.000
23.32457 96.000
23.34452 130.000
23.36446 129.000
23.38441 148.000
23.40436 134.000
23.42431 124.000
23.44425 133.000
23.46420 124.000
23.48415 130.000
23.50409 114.000
23.52404 123.000
23.54399 129.000
23.56393 137.000
23.58388 114.000
23.60383 128.000
23.62377 105.000
23.64372 132.000
23.66367 134.000
23.68362 119.000
23.70356 122.000
23.72351 112.000
23.74346 115.000
23.76340 120.000
23.78335 124.000
23.80330 113.000
23.82324 130.000
23.84319 109.000
23.86314 101.000
23.88309 113.000
23.90303 126.000
23.92298 143.000
23.94293 95.000
23.96287 112.000
23.98282 108.000
24.00277 117.000
24.02271 127.000
24.04266 122.000
24.06261 128.000
24.08256 131.000
24.10250 149.000
24.12245 114.000
24.14240 107.000
24.16234 132.000
24.18229 116.000
24.20224 117.000
24.22218 106.000
24.24213 129.000
24.26208 109.000
24.28202 133.000
24.30197 122.000
24.32192 135.000
24.34187 126.000
24.36181 93.000
24.38176 108.000
24.40171 129.000
24.42165 134.000
24.44160 121.000
24.46155 99.000
24.48149 123.000
24.50144 111.000
24.52139 117.000
24.54134 126.000
24.56128 124.000
24.58123 108.000
24.60118 125.000
24.62112 105.000
24.64107 128.000
24.66102 127.000
24.68096 138.000
24.70091 129.000
24.72086 132.000
24.74080 123.000
24.76075 137.000
24.78070 125.000
24.80065 119.000
24.82059 134.000
24.84054 119.000
24.86049 134.000
24.88043 126.000
24.90038 132.000
24.92033 131.000
24.94027 128.000
24.96022 149.000
24.98017 136.000
25.00012 120.000
25.02006 125.000
25.04001 99.000
25.05996 109.000
25.07990 135.000
25.09985 119.000
25.11980 139.000
25.13974 115.000
25.15969 151.000
25.17964 117.000
25.19958 117.000
25.21953 116.000
25.23948 142.000
25.25943 120.000
25.27937 121.000
25.29932 118.000
25.31927 134.000
25.33921 111.000
25.35916 145.000
25.37911 119.000
25.39905 118.000
25.41900 95.000
25.43895 113.000
25.45890 128.000
25.47884 106.000
25.49879 123.000
25.51874 104.000
25.53868 139.000
25.55863 124.000
25.57858 109.000
25.59852 116.000
25.61847 116.000
25.63842 118.000
25.65837 133.000
25.67831 119.000
25.69826 146.000
25.71821 124.000
25.73815 114.000
25.75810 143.000
25.77805 132.000
25.79799 106.000
25.81794 120.000
25.83789 139.000
25.85783 149.000
25.87778 126.000
25.89773 116.000
25.91768 145.000
25.93762 114.000
25.95757 137.000
25.97752 121.000
25.99746 135.000
26.01741 137.000
26.03736 133.000
26.05730 144.000
26.07725 141.000
26.09720 134.000
26.11715 147.000
26.13709 122.000
26.15704 128.000
26.17699 126.000
26.19693 128.000
26.21688 129.000
26.23683 113.000
26.25677 124.000
26.27672 134.000
26.29667 144.000
26.31661 123.000
26.33656 124.000
26.35651 137.000
26.37646 140.000
26.39640 128.000
26.41635 126.000
26.43630 111.000
26.45624 136.000
26.47619 125.000
26.49614 148.000
26.51608 124.000
26.53603 125.000
26.55598 132.000
26.57593 134.000
26.59587 131.000
26.61582 136.000
26.63577 131.000
26.65571 146.000
26.67566 119.000
26.69561 144.000
26.71555 118.000
26.73550 131.000
26.75545 126.000
26.77539 124.000
26.79534 137.000
26.81529 118.000
26.83524 136.000
26.85518 127.000
26.87513 123.000
26.89508 130.000
26.91502 132.000
26.93497 145.000
26.95492 133.000
26.97486 127.000
26.99481 121.000
27.01476 128.000
27.03471 136.000
27.05465 137.000
27.07460 130.000
27.09455 130.000
27.11449 140.000
27.13444 101.000
27.15439 123.000
27.17433 117.000
27.19428 157.000
27.21423 137.000
27.23417 133.000
27.25412 151.000
27.27407 113.000
27.29402 156.000
27.31396 125.000
27.33391 133.000
27.35386 139.000
27.37380 130.000
27.39375 137.000
27.41370 129.000
27.43364 113.000
27.45359 124.000
27.47354 122.000
27.49349 135.000
27.51343 132.000
27.53338 142.000
27.55333 149.000
27.57327 152.000
27.59322 145.000
27.61317 160.000
27.63311 145.000
27.65306 140.000
27.67301 147.000
27.69296 146.000
27.71290 150.000
27.73285 151.000
27.75280 154.000
27.77274 142.000
27.79269 174.000
27.81264 139.000
27.83258 153.000
27.85253 122.000
27.87248 140.000
27.89242 136.000
27.91237 124.000
27.93232 148.000
27.95227 152.000
27.97221 139.000
27.99216 136.000
28.01211 142.000
28.03205 126.000
28.05200 141.000
28.07195 140.000
28.09189 135.000
28.11184 127.000
28.13179 129.000
28.15174 150.000
28.17168 132.000
28.19163 132.000
28.21158 142.000
28.23152 101.000
28.25147 158.000
28.27142 124.000
28.29136 157.000
28.31131 140.000
28.33126 133.000
28.35120 137.000
28.37115 119.000
28.39110 139.000
28.41105 161.000
28.43099 166.000
28.45094 123.000
28.47089 115.000
28.49083 154.000
28.51078 159.000
28.53073 155.000
28.55067 132.000
28.57062 138.000
28.59057 130.000
28.61052 129.000
28.63046 156.000
28.65041 144.000
28.67036 148.000
28.69030 131.000
28.71025 138.000
28.73020 115.000
28.75014 137.000
28.77009 133.000
28.79004 150.000
28.80998 140.000
28.82993 167.000
28.84988 138.000
28.86983 125.000
28.88977 156.000
28.90972 138.000
28.92967 153.000
28.94961 152.000
28.96956 145.000
28.98951 130.000
29.00945 167.000
29.02940 145.000
29.04935 141.000
29.06930 129.000
29.08924 153.000
29.10919 138.000
29.12914 147.000
29.14908 169.000
29.16903 170.000
29.18898 159.000
29.20892 172.000
29.22887 170.000
29.24882 180.000
29.26877 189.000
29.28871 192.000
29.30866 195.000
29.32861 174.000
29.34855 219.000
29.36850 211.000
29.38845 210.000
29.40839 209.000
29.42834 228.000
29.44829 240.000
29.46823 228.000
29.48818 247.000
29.50813 249.000
29.52808 255.000
29.54802 268.000
29.56797 304.000
29.58792 285.000
29.60786 338.000
29.62781 374.000
29.64776 365.000
29.66770 336.000
29.68765 381.000
29.70760 372.000
29.72755 360.000
29.74749 345.000
29.76744 287.000
29.78739 276.000
29.80733 243.000
29.82728 239.000
29.84723 251.000
29.86717 219.000
29.88712 190.000
29.90707 207.000
29.92701 196.000
29.94696 188.000
29.96691 175.000
29.98686 193.000
30.00680 193.000
30.02675 204.000
30.04670 212.000
30.06664 233.000
30.08659 256.000
30.10654 271.000
30.12648 247.000
30.14643 285.000
30.16638 314.000
30.18633 338.000
30.20627 399.000
30.22622 417.000
30.24617 588.000
30.26611 766.000
30.28606 983.000
30.30601 895.000
30.32595 730.000
30.34590 674.000
30.36585 620.000
30.38579 587.000
30.40574 399.000
30.42569 308.000
30.44564 238.000
30.46558 221.000
30.48553 198.000
30.50548 186.000
30.52542 163.000
30.54537 151.000
30.56532 148.000
30.58526 167.000
30.60521 145.000
30.62516 154.000
30.64511 162.000
30.66505 152.000
30.68500 142.000
30.70495 143.000
30.72489 133.000
30.74484 148.000
30.76479 149.000
30.78473 173.000
30.80468 176.000
30.82463 133.000
30.84458 166.000
30.86452 127.000
30.88447 132.000
30.90442 130.000
30.92436 162.000
30.94431 153.000
30.96426 125.000
30.98420 156.000
31.00415 154.000
31.02410 144.000
31.04404 133.000
31.06399 136.000
31.08394 131.000
31.10389 120.000
31.12383 136.000
31.14378 140.000
31.16373 134.000
31.18367 129.000
31.20362 164.000
31.22357 147.000
31.24351 141.000
31.26346 136.000
31.28341 143.000
31.30336 126.000
31.32330 160.000
31.34325 146.000
31.36320 149.000
31.38314 114.000
31.40309 153.000
31.42304 157.000
31.44298 146.000
31.46293 119.000
31.48288 126.000
31.50282 146.000
31.52277 126.000
31.54272 139.000
31.56267 163.000
31.58261 134.000
31.60256 150.000
31.62251 134.000
31.64245 160.000
31.66240 133.000
31.68235 155.000
31.70229 109.000
31.72224 135.000
31.74219 136.000
31.76214 139.000
31.78208 149.000
31.80203 144.000
31.82198 153.000
31.84192 128.000
31.86187 128.000
31.88182 123.000
31.90176 148.000
31.92171 158.000
31.94166 134.000
31.96160 117.000
31.98155 127.000
32.00150 131.000
32.02145 101.000
32.04139 138.000
32.06134 128.000
32.08129 120.000
32.10123 126.000
32.12118 134.000
32.14113 103.000
32.16107 149.000
32.18102 156.000
32.20097 133.000
32.22092 133.000
32.24086 139.000
32.26081 125.000
32.28076 130.000
32.30070 136.000
32.32065 128.000
32.34060 139.000
32.36054 139.000
32.38049 135.000
32.40044 133.000
32.42039 140.000
32.44033 145.000
32.46028 181.000
32.48023 133.000
32.50017 147.000
32.52012 125.000
32.54007 121.000
32.56001 143.000
32.57996 121.000
32.59991 117.000
32.61985 138.000
32.63980 131.000
32.65975 140.000
32.67970 139.000
32.69964 130.000
32.71959 138.000
32.73954 140.000
32.75948 130.000
32.77943 122.000
32.79938 132.000
32.81932 141.000
32.83927 117.000
32.85922 123.000
32.87917 171.000
32.89911 126.000
32.91906 134.000
32.93901 161.000
32.95895 131.000
32.97890 135.000
32.99885 155.000
33.01879 133.000
33.03874 162.000
33.05869 160.000
33.07863 149.000
33.09858 164.000
33.11853 148.000
33.13848 168.000
33.15842 142.000
33.17837 142.000
33.19832 138.000
33.21826 171.000
33.23821 145.000
33.25816 154.000
33.27810 148.000
33.29805 141.000
33.31800 154.000
33.33795 139.000
33.35789 140.000
33.37784 155.000
33.39779 153.000
33.41773 144.000
33.43768 146.000
33.45763 128.000
33.47757 143.000
33.49752 155.000
33.51747 143.000
33.53741 144.000
33.55736 165.000
33.57731 170.000
33.59726 133.000
33.61720 127.000
33.63715 145.000
33.65710 155.000
33.67704 121.000
33.69699 143.000
33.71694 161.000
33.73688 170.000
33.75683 149.000
33.77678 172.000
33.79673 174.000
33.81667 174.000
33.83662 144.000
33.85657 144.000
33.87651 161.000
33.89646 152.000
33.91641 146.000
33.93635 168.000
33.95630 170.000
33.97625 176.000
33.99620 187.000
34.01614 200.000
34.03609 166.000
34.05604 196.000
34.07598 179.000
34.09593 207.000
34.11588 210.000
34.13582 235.000
34.15577 196.000
34.17572 207.000
34.19566 229.000
34.21561 248.000
34.23556 264.000
34.25551 257.000
34.27545 256.000
34.29540 229.000
34.31535 273.000
34.33529 254.000
34.35524 239.000
34.37519 298.000
34.39513 284.000
34.41508 278.000
34.43503 268.000
34.45498 324.000
34.47492 288.000
34.49487 247.000
34.51482 263.000
34.53476 300.000
34.55471 270.000
34.57466 236.000
34.59460 254.000
34.61455 271.000
34.63450 230.000
34.65444 215.000
34.67439 232.000
34.69434 216.000
34.71429 218.000
34.73423 207.000
34.75418 201.000
34.77413 235.000
34.79407 209.000
34.81402 218.000
34.83397 210.000
34.85391 224.000
34.87386 237.000
34.89381 222.000
34.91376 231.000
34.93370 248.000
34.95365 270.000
34.97360 286.000
34.99354 274.000
35.01349 308.000
35.03344 352.000
35.05338 358.000
35.07333 420.000
35.09328 405.000
35.11322 498.000
35.13317 522.000
35.15312 570.000
35.17307 603.000
35.19301 656.000
35.21296 676.000
35.23291 708.000
35.25285 649.000
35.27280 613.000
35.29275 596.000
35.31269 564.000
35.33264 509.000
35.35259 480.000
35.37254 439.000
35.39248 385.000
35.41243 372.000
35.43238 365.000
35.45232 362.000
35.47227 324.000
35.49222 374.000
35.51216 399.000
35.53211 412.000
35.55206 464.000
35.57201 579.000
35.59195 736.000
35.61190 974.000
35.63185 1333.000
35.65179 2026.000
35.67174 2604.000
35.69169 2543.000
35.71163 2183.000
35.73158 1833.000
35.75153 1838.000
35.77147 1735.000
35.79142 1530.000
35.81137 1099.000
35.83132 770.000
35.85126 574.000
35.87121 461.000
35.89116 372.000
35.91110 340.000
35.93105 304.000
35.95100 287.000
35.97094 215.000
35.99089 251.000
36.01084 216.000
36.03079 217.000
36.05073 200.000
36.07068 218.000
36.09063 199.000
36.11057 220.000
36.13052 195.000
36.15047 185.000
36.17041 215.000
36.19036 191.000
36.21031 203.000
36.23025 204.000
36.25020 220.000
36.27015 203.000
36.29010 218.000
36.31004 227.000
36.32999 247.000
36.34994 230.000
36.36988 252.000
36.38983 227.000
36.40978 257.000
36.42972 266.000
36.44967 271.000
36.46962 287.000
36.48957 266.000
36.50951 297.000
36.52946 241.000
36.54941 230.000
36.56935 251.000
36.58930 245.000
36.60925 239.000
36.62919 223.000
36.64914 220.000
36.66909 211.000
36.68903 202.000
36.70898 192.000
36.72893 179.000
36.74888 188.000
36.76882 203.000
36.78877 181.000
36.80872 161.000
36.82866 190.000
36.84861 193.000
36.86856 171.000
36.88850 198.000
36.90845 191.000
36.92840 218.000
36.94835 202.000
36.96829 212.000
36.98824 226.000
37.00819 206.000
37.02813 201.000
37.04808 234.000
37.06803 237.000
37.08797 243.000
37.10792 291.000
37.12787 315.000
37.14781 385.000
37.16776 449.000
37.18771 563.000
37.20766 594.000
37.22760 674.000
37.24755 761.000
37.26750 732.000
37.28744 728.000
37.30739 743.000
37.32734 718.000
37.34728 667.000
37.36723 589.000
37.38718 528.000
37.40713 507.000
37.42707 467.000
37.44702 419.000
37.46697 403.000
37.48691 355.000
37.50686 399.000
37.52681 386.000
37.54675 400.000
37.56670 390.000
37.58665 393.000
37.60660 379.000
37.62654 405.000
37.64649 378.000
37.66644 386.000
37.68638 336.000
37.70633 314.000
37.72628 330.000
37.74622 285.000
37.76617 278.000
37.78612 263.000
37.80606 254.000
37.82601 226.000
37.84596 223.000
37.86591 213.000
37.88585 213.000
37.90580 211.000
37.92575 212.000
37.94569 209.000
37.96564 231.000
37.98559 225.000
38.00553 210.000
38.02548 193.000
38.04543 196.000
38.06538 161.000
38.08532 179.000
38.10527 188.000
38.12522 194.000
38.14516 183.000
38.16511 173.000
38.18506 152.000
38.20500 163.000
38.22495 160.000
38.24490 154.000
38.26484 157.000
38.28479 125.000
38.30474 146.000
38.32469 147.000
38.34463 147.000
38.36458 124.000
38.38453 142.000
38.40447 126.000
38.42442 136.000
38.44437 134.000
38.46431 154.000
38.48426 149.000
38.50421 124.000
38.52416 153.000
38.54410 153.000
38.56405 143.000
38.58400 140.000
38.60394 138.000
38.62389 141.000
38.64384 131.000
38.66378 128.000
38.68373 121.000
38.70368 140.000
38.72362 144.000
38.74357 136.000
38.76352 151.000
38.78347 137.000
38.80341 117.000
38.82336 144.000
38.84331 130.000
38.86325 124.000
38.88320 133.000
38.90315 131.000
38.92309 133.000
38.94304 140.000
38.96299 147.000
38.98294 120.000
39.00288 143.000
39.02283 137.000
39.04278 139.000
39.06272 135.000
39.08267 115.000
39.10262 126.000
39.12256 128.000
39.14251 145.000
39.16246 135.000
39.18241 145.000
39.20235 136.000
39.22230 129.000
39.24225 135.000
39.26219 136.000
39.28214 123.000
39.30209 126.000
39.32203 121.000
39.34198 123.000
39.36193 135.000
39.38187 137.000
39.40182 135.000
39.42177 141.000
39.44172 135.000
39.46166 137.000
39.48161 140.000
39.50156 140.000
39.52150 128.000
39.54145 132.000
39.56140 120.000
39.58134 149.000
39.60129 126.000
39.62124 130.000
39.64119 161.000
39.66113 148.000
39.68108 118.000
39.70103 118.000
39.72097 145.000
39.74092 128.000
39.76087 146.000
39.78081 144.000
39.80076 161.000
39.82071 140.000
39.84065 162.000
39.86060 145.000
39.88055 149.000
39.90050 158.000
39.92044 180.000
39.94039 144.000
39.96034 154.000
39.98028 146.000
40.00023 163.000
40.02018 143.000
40.04012 186.000
40.06007 167.000
40.08002 164.000
40.09997 145.000
40.11991 145.000
40.13986 152.000
40.15981 151.000
40.17975 153.000
40.19970 133.000
40.21965 165.000
40.23959 134.000
40.25954 145.000
40.27949 153.000
40.29943 138.000
40.31938 157.000
40.33933 134.000
40.35928 129.000
40.37922 164.000
40.39917 157.000
40.41912 175.000
40.43906 140.000
40.45901 129.000
40.47896 132.000
40.49890 166.000
40.51885 154.000
40.53880 160.000
40.55875 158.000
40.57869 163.000
40.59864 146.000
40.61859 161.000
40.63853 170.000
40.65848 158.000
40.67843 156.000
40.69837 154.000
40.71832 181.000
40.73827 170.000
40.75822 188.000
40.77816 193.000
40.79811 237.000
40.81806 200.000
40.83800 195.000
40.85795 222.000
40.87790 218.000
40.89784 218.000
40.91779 244.000
40.93774 252.000
40.95768 275.000
40.97763 308.000
40.99758 314.000
41.01753 370.000
41.03747 347.000
41.05742 419.000
41.07737 431.000
41.09731 514.000
41.11726 501.000
41.13721 555.000
41.15715 552.000
41.17710 591.000
41.19705 715.000
41.21700 759.000
41.23694 749.000
41.25689 802.000
41.27684 818.000
41.29678 783.000
41.31673 827.000
41.33668 865.000
41.35662 817.000
41.37657 882.000
41.39652 832.000
41.41646 756.000
41.43641 720.000
41.45636 676.000
41.47631 705.000
41.49625 627.000
41.51620 578.000
41.53615 568.000
41.55609 509.000
41.57604 517.000
41.59599 487.000
41.61593 487.000
41.63588 434.000
41.65583 466.000
41.67578 444.000
41.69572 422.000
41.71567 385.000
41.73562 415.000
41.75556 410.000
41.77551 453.000
41.79546 437.000
41.81540 469.000
41.83535 455.000
41.85530 473.000
41.87524 533.000
41.89519 443.000
41.91514 496.000
41.93509 425.000
41.95503 450.000
41.97498 412.000
41.99493 390.000
42.01487 317.000
42.03482 340.000
42.05477 294.000
42.07471 310.000
42.09466 257.000
42.11461 261.000
42.13456 224.000
42.15450 201.000
42.17445 180.000
42.19440 203.000
42.21434 178.000
42.23429 165.000
42.25424 177.000
42.27418 174.000
42.29413 176.000
42.31408 168.000
42.33403 153.000
42.35397 158.000
42.37392 154.000
42.39387 152.000
42.41381 161.000
42.43376 166.000
42.45371 161.000
42.47365 155.000
42.49360 150.000
42.51355 179.000
42.53349 158.000
42.55344 143.000
42.57339 149.000
42.59334 161.000
42.61328 174.000
42.63323 173.000
42.65318 181.000
42.67312 159.000
42.69307 161.000
42.71302 153.000
42.73296 164.000
42.75291 142.000
42.77286 156.000
42.79281 145.000
42.81275 150.000
42.83270 150.000
42.85265 156.000
42.87259 148.000
42.89254 170.000
42.91249 169.000
42.93243 168.000
42.95238 173.000
42.97233 165.000
42.99227 187.000
43.01222 158.000
43.03217 211.000
43.05212 212.000
43.07206 221.000
43.09201 250.000
43.11196 244.000
43.13190 293.000
43.15185 362.000
43.17180 486.000
43.19174 581.000
43.21169 700.000
43.23164 819.000
43.25159 938.000
43.27153 1050.000
43.29148 1097.000
43.31143 1024.000
43.33137 1031.000
43.35132 1061.000
43.37127 1086.000
43.39121 978.000
43.41116 828.000
43.43111 746.000
43.45105 669.000
43.47100 576.000
43.49095 471.000
43.51090 404.000
43.53084 350.000
43.55079 279.000
43.57074 264.000
43.59068 235.000
43.61063 211.000
43.63058 198.000
43.65052 198.000
43.67047 162.000
43.69042 170.000
43.71037 142.000
43.73031 129.000
43.75026 155.000
43.77021 124.000
43.79015 167.000
43.81010 159.000
43.83005 153.000
43.84999 131.000
43.86994 164.000
43.88989 118.000
43.90984 149.000
43.92978 140.000
43.94973 138.000
43.96968 121.000
43.98962 132.000
44.00957 161.000
44.02952 160.000
44.04946 135.000
44.06941 119.000
44.08936 128.000
44.10930 147.000
44.12925 159.000
44.14920 120.000
44.16915 126.000
44.18909 116.000
44.20904 134.000
44.22899 150.000
44.24893 134.000
44.26888 126.000
44.28883 137.000
44.30877 127.000
44.32872 133.000
44.34867 149.000
44.36862 144.000
44.38856 138.000
44.40851 139.000
44.42846 147.000
44.44840 152.000
44.46835 128.000
44.48830 103.000
44.50824 129.000
44.52819 124.000
44.54814 153.000
44.56808 160.000
44.58803 134.000
44.60798 135.000
44.62793 142.000
44.64787 143.000
44.66782 140.000
44.68777 109.000
44.70771 122.000
44.72766 144.000
44.74761 117.000
44.76755 155.000
44.78750 118.000
44.80745 129.000
44.82740 119.000
44.84734 133.000
44.86729 151.000
44.88724 131.000
44.90718 139.000
44.92713 138.000
44.94708 123.000
44.96702 143.000
44.98697 155.000
45.00692 147.000
45.02686 124.000
45.04681 140.000
45.06676 143.000
45.08671 143.000
45.10665 151.000
45.12660 139.000
45.14655 126.000
45.16649 137.000
45.18644 131.000
45.20639 149.000
45.22633 166.000
45.24628 163.000
45.26623 136.000
45.28618 143.000
45.30612 130.000
45.32607 168.000
45.34602 146.000
45.36596 141.000
45.38591 153.000
45.40586 145.000
45.42580 135.000
45.44575 135.000
45.46570 168.000
45.48565 170.000
45.50559 163.000
45.52554 169.000
45.54549 135.000
45.56543 158.000
45.58538 169.000
45.60533 162.000
45.62527 181.000
45.64522 195.000
45.66517 162.000
45.68511 179.000
45.70506 209.000
45.72501 220.000
45.74496 188.000
45.76490 211.000
45.78485 229.000
45.80480 199.000
45.82474 234.000
45.84469 229.000
45.86464 233.000
45.88458 239.000
45.90453 223.000
45.92448 295.000
45.94443 287.000
45.96437 299.000
45.98432 325.000
46.00427 344.000
46.02421 345.000
46.04416 350.000
46.06411 350.000
46.08405 333.000
46.10400 396.000
46.12395 342.000
46.14389 371.000
46.16384 332.000
46.18379 334.000
46.20374 334.000
46.22368 296.000
46.24363 287.000
46.26358 300.000
46.28352 294.000
46.30347 276.000
46.32342 299.000
46.34336 250.000
46.36331 260.000
46.38326 257.000
46.40321 218.000
46.42315 226.000
46.44310 218.000
46.46305 229.000
46.48299 221.000
46.50294 214.000
46.52289 222.000
46.54283 202.000
46.56278 193.000
46.58273 170.000
46.60267 178.000
46.62262 172.000
46.64257 155.000
46.66252 161.000
46.68246 166.000
46.70241 141.000
46.72236 155.000
46.74230 153.000
46.76225 141.000
46.78220 185.000
46.80214 126.000
46.82209 146.000
46.84204 145.000
46.86199 119.000
46.88193 131.000
46.90188 145.000
46.92183 152.000
46.94177 140.000
46.96172 151.000
46.98167 140.000
47.00161 118.000
47.02156 167.000
47.04151 133.000
47.06146 158.000
47.08140 133.000
47.10135 155.000
47.12130 128.000
47.14124 140.000
47.16119 143.000
47.18114 135.000
47.20108 135.000
47.22103 136.000
47.24098 109.000
47.26092 134.000
47.28087 151.000
47.30082 109.000
47.32077 137.000
47.34071 123.000
47.36066 147.000
47.38061 138.000
47.40055 133.000
47.42050 129.000
47.44045 161.000
47.46039 121.000
47.48034 143.000
47.50029 126.000
47.52024 137.000
47.54018 144.000
47.56013 147.000
47.58008 137.000
47.60002 124.000
47.61997 144.000
47.63992 131.000
47.65986 134.000
47.67981 149.000
47.69976 137.000
47.71970 140.000
47.73965 138.000
47.75960 121.000
47.77955 144.000
47.79949 143.000
47.81944 143.000
47.83939 128.000
47.85933 104.000
47.87928 124.000
47.89923 119.000
47.91917 123.000
47.93912 127.000
47.95907 120.000
47.97902 126.000
47.99896 124.000
48.01891 119.000
48.03886 145.000
48.05880 139.000
48.07875 109.000
48.09870 142.000
48.11864 116.000
48.13859 151.000
48.15854 146.000
48.17848 134.000
48.19843 134.000
48.21838 112.000
48.23833 140.000
48.25827 159.000
48.27822 132.000
48.29817 126.000
48.31811 141.000
48.33806 139.000
48.35801 132.000
48.37795 143.000
48.39790 125.000
48.41785 132.000
48.43780 133.000
48.45774 131.000
48.47769 109.000
48.49764 122.000
48.51758 123.000
48.53753 121.000
48.55748 136.000
48.57742 111.000
48.59737 116.000
48.61732 123.000
48.63726 107.000
48.65721 138.000
48.67716 122.000
48.69711 130.000
48.71705 119.000
48.73700 121.000
48.75695 126.000
48.77689 132.000
48.79684 108.000
48.81679 126.000
48.83673 124.000
48.85668 122.000
48.87663 121.000
48.89658 114.000
48.91652 116.000
48.93647 116.000
48.95642 98.000
48.97636 122.000
48.99631 112.000
49.01626 126.000
49.03620 131.000
49.05615 135.000
49.07610 124.000
49.09605 105.000
49.11599 126.000
49.13594 129.000
49.15589 107.000
49.17583 116.000
49.19578 123.000
49.21573 122.000
49.23567 115.000
49.25562 114.000
49.27557 127.000
49.29551 137.000
49.31546 140.000
49.33541 117.000
49.35536 105.000
49.37530 132.000
49.39525 109.000
49.41520 114.000
49.43514 125.000
49.45509 120.000
49.47504 131.000
49.49498 144.000
49.51493 131.000
49.53488 141.000
49.55483 122.000
49.57477 121.000
49.59472 125.000
49.61467 127.000
49.63461 125.000
49.65456 116.000
49.67451 118.000
49.69445 116.000
49.71440 120.000
49.73435 114.000
49.75429 119.000
49.77424 116.000
49.79419 122.000
49.81414 135.000
49.83408 122.000
49.85403 101.000
49.87398 125.000
49.89392 114.000
49.91387 119.000
49.93382 112.000
49.95376 104.000
49.97371 133.000
49.99366 104.000
50.01361 96.000
50.03355 124.000
50.05350 117.000
50.07345 122.000
50.09339 124.000
50.11334 118.000
50.13329 121.000
50.15323 129.000
50.17318 125.000
50.19313 114.000
50.21307 113.000
50.23302 101.000
50.25297 122.000
50.27292 126.000
50.29286 124.000
50.31281 100.000
50.33276 109.000
50.35270 101.000
50.37265 123.000
50.39260 117.000
50.41254 132.000
50.43249 127.000
50.45244 99.000
50.47239 129.000
50.49233 97.000
50.51228 128.000
50.53223 124.000
50.55217 120.000
50.57212 116.000
50.59207 114.000
50.61201 114.000
50.63196 105.000
50.65191 97.000
50.67186 117.000
50.69180 104.000
50.71175 109.000
50.73170 121.000
50.75164 133.000
50.77159 126.000
50.79154 103.000
50.81148 105.000
50.83143 127.000
50.85138 112.000
50.87132 138.000
50.89127 106.000
50.91122 119.000
50.93117 115.000
50.95111 120.000
50.97106 120.000
50.99101 133.000
51.01095 111.000
51.03090 112.000
51.05085 100.000
51.07079 128.000
51.09074 105.000
51.11069 115.000
51.13064 102.000
51.15058 114.000
51.17053 111.000
51.19048 132.000
51.21042 95.000
51.23037 136.000
51.25032 122.000
51.27026 102.000
51.29021 122.000
51.31016 134.000
51.33010 105.000
51.35005 99.000
51.37000 132.000
51.38995 102.000
51.40989 120.000
51.42984 110.000
51.44979 137.000
51.46973 125.000
51.48968 117.000
51.50963 107.000
51.52957 123.000
51.54952 117.000
51.56947 123.000
51.58942 118.000
51.60936 134.000
51.62931 105.000
51.64926 110.000
51.66920 125.000
51.68915 116.000
51.70910 129.000
51.72904 115.000
51.74899 134.000
51.76894 107.000
51.78888 138.000
51.80883 118.000
51.82878 116.000
51.84873 109.000
51.86867 120.000
51.88862 128.000
51.90857 127.000
51.92851 114.000
51.94846 129.000
51.96841 118.000
51.98835 134.000
52.00830 121.000
52.02825 120.000
52.04820 106.000
52.06814 122.000
52.08809 121.000
52.10804 136.000
52.12798 116.000
52.14793 120.000
52.16788 110.000
52.18782 116.000
52.20777 114.000
52.22772 109.000
52.24767 127.000
52.26761 135.000
52.28756 129.000
52.30751 117.000
52.32745 107.000
52.34740 136.000
52.36735 124.000
52.38729 116.000
52.40724 118.000
52.42719 111.000
52.44713 122.000
52.46708 112.000
52.48703 122.000
52.50698 126.000
52.52692 98.000
52.54687 118.000
52.56682 115.000
52.58676 96.000
52.60671 108.000
52.62666 115.000
52.64660 105.000
52.66655 124.000
52.68650 109.000
52.70645 124.000
52.72639 143.000
52.74634 111.000
52.76629 134.000
52.78623 124.000
52.80618 126.000
52.82613 122.000
52.84607 110.000
52.86602 116.000
52.88597 111.000
52.90591 131.000
52.92586 127.000
52.94581 138.000
52.96576 108.000
52.98570 111.000
53.00565 126.000
53.02560 115.000
53.04554 128.000
53.06549 127.000
53.08544 111.000
53.10538 105.000
53.12533 124.000
53.14528 124.000
53.16523 117.000
53.18517 148.000
53.20512 128.000
53.22507 135.000
53.24501 102.000
53.26496 140.000
53.28491 114.000
53.30485 133.000
53.32480 122.000
53.34475 138.000
53.36469 129.000
53.38464 131.000
53.40459 121.000
53.42454 136.000
53.44448 137.000
53.46443 121.000
53.48438 129.000
53.50432 141.000
53.52427 136.000
53.54422 145.000
53.56416 143.000
53.58411 140.000
53.60406 124.000
53.62401 155.000
53.64395 129.000
53.66390 160.000
53.68385 160.000
53.70379 181.000
53.72374 181.000
53.74369 208.000
53.76363 201.000
53.78358 238.000
53.80353 281.000
53.82348 293.000
53.84342 278.000
53.86337 264.000
53.88332 232.000
53.90326 230.000
53.92321 239.000
53.94316 236.000
53.96310 210.000
53.98305 209.000
54.00300 185.000
54.02294 171.000
54.04289 166.000
54.06284 142.000
54.08279 124.000
54.10273 123.000
54.12268 136.000
54.14263 134.000
54.16257 118.000
54.18252 132.000
54.20247 122.000
54.22241 122.000
54.24236 113.000
54.26231 115.000
54.28226 134.000
54.30220 137.000
54.32215 113.000
54.34210 121.000
54.36204 127.000
54.38199 116.000
54.40194 134.000
54.42188 121.000
54.44183 112.000
54.46178 133.000
54.48172 99.000
54.50167 133.000
54.52162 111.000
54.54157 122.000
54.56151 131.000
54.58146 122.000
54.60141 135.000
54.62135 130.000
54.64130 155.000
54.66125 142.000
54.68119 140.000
54.70114 134.000
54.72109 128.000
54.74104 124.000
54.76098 122.000
54.78093 120.000
54.80088 150.000
54.82082 124.000
54.84077 137.000
54.86072 121.000
54.88066 128.000
54.90061 104.000
54.92056 147.000
54.94050 128.000
54.96045 127.000
54.98040 121.000
55.00035 118.000
55.02029 109.000
55.04024 89.000
55.06019 129.000
55.08013 122.000
55.10008 135.000
55.12003 108.000
55.13997 127.000
55.15992 102.000
55.17987 117.000
55.19982 97.000
55.21976 113.000
55.23971 116.000
55.25966 116.000
55.27960 132.000
55.29955 114.000
55.31950 111.000
55.33944 139.000
55.35939 125.000
55.37934 102.000
55.39929 95.000
55.41923 119.000
55.43918 113.000
55.45913 109.000
55.47907 123.000
55.49902 128.000
55.51897 118.000
55.53891 99.000
55.55886 130.000
55.57881 127.000
55.59875 117.000
55.61870 106.000
55.63865 117.000
55.65860 114.000
55.67854 126.000
55.69849 113.000
55.71844 116.000
55.73838 124.000
55.75833 120.000
55.77828 127.000
55.79822 118.000
55.81817 124.000
55.83812 119.000
55.85807 131.000
55.87801 131.000
55.89796 113.000
55.91791 145.000
55.93785 110.000
55.95780 121.000
55.97775 102.000
55.99769 114.000
56.01764 128.000
56.03759 128.000
56.05753 132.000
56.07748 125.000
56.09743 106.000
56.11738 94.000
56.13732 124.000
56.15727 105.000
56.17722 128.000
56.19716 122.000
56.21711 128.000
56.23706 100.000
56.25700 115.000
56.27695 137.000
56.29690 120.000
56.31685 141.000
56.33679 132.000
56.35674 118.000
56.37669 124.000
56.39663 128.000
56.41658 107.000
56.43653 130.000
56.45647 126.000
56.47642 130.000
56.49637 151.000
56.51631 135.000
56.53626 147.000
56.55621 137.000
56.57616 141.000
56.59610 129.000
56.61605 143.000
56.63600 133.000
56.65594 144.000
56.67589 141.000
56.69584 119.000
56.71578 136.000
56.73573 126.000
56.75568 133.000
56.77563 127.000
56.79557 138.000
56.81552 117.000
56.83547 113.000
56.85541 155.000
56.87536 142.000
56.89531 125.000
56.91525 138.000
56.93520 129.000
56.95515 134.000
56.97510 149.000
56.99504 149.000
57.01499 157.000
57.03494 130.000
57.05488 147.000
57.07483 145.000
57.09478 169.000
57.11472 165.000
57.13467 171.000
57.15462 187.000
57.17456 204.000
57.19451 211.000
57.21446 226.000
57.23441 255.000
57.25435 261.000
57.27430 308.000
57.29425 384.000
57.31419 460.000
57.33414 538.000
57.35409 618.000
57.37403 642.000
57.39398 611.000
57.41393 568.000
57.43388 488.000
57.45382 436.000
57.47377 442.000
57.49372 429.000
57.51366 454.000
57.53361 498.000
57.55356 465.000
57.57350 376.000
57.59345 279.000
57.61340 296.000
57.63334 257.000
57.65329 240.000
57.67324 264.000
57.69319 239.000
57.71313 205.000
57.73308 192.000
57.75303 211.000
57.77297 204.000
57.79292 207.000
57.81287 198.000
57.83281 213.000
57.85276 218.000
57.87271 214.000
57.89266 220.000
57.91260 237.000
57.93255 219.000
57.95250 220.000
57.97244 241.000
57.99239 217.000
58.01234 240.000
58.03228 202.000
58.05223 214.000
58.07218 203.000
58.09212 208.000
58.11207 206.000
58.13202 198.000
58.15197 201.000
58.17191 208.000
58.19186 233.000
58.21181 193.000
58.23175 177.000
58.25170 199.000
58.27165 192.000
58.29159 198.000
58.31154 170.000
58.33149 165.000
58.35144 176.000
58.37138 185.000
58.39133 201.000
58.41128 194.000
58.43122 155.000
58.45117 169.000
58.47112 163.000
58.49106 154.000
58.51101 155.000
58.53096 144.000
58.55090 156.000
58.57085 154.000
58.59080 157.000
58.61075 158.000
58.63069 156.000
58.65064 162.000
58.67059 157.000
58.69053 165.000
58.71048 133.000
58.73043 146.000
58.75037 142.000
58.77032 143.000
58.79027 136.000
58.81022 130.000
58.83016 153.000
58.85011 151.000
58.87006 143.000
58.89000 149.000
58.90995 154.000
58.92990 140.000
58.94984 131.000
58.96979 144.000
58.98974 134.000
59.00969 136.000
59.02963 130.000
59.04958 134.000
59.06953 146.000
59.08947 147.000
59.10942 154.000
59.12937 153.000
59.14931 162.000
59.16926 142.000
59.18921 126.000
59.20915 133.000
59.22910 142.000
59.24905 151.000
59.26900 151.000
59.28894 133.000
59.30889 151.000
59.32884 123.000
59.34878 143.000
59.36873 142.000
59.38868 148.000
59.40862 144.000
59.42857 155.000
59.44852 150.000
59.46847 136.000
59.48841 146.000
59.50836 137.000
59.52831 143.000
59.54825 129.000
59.56820 136.000
59.58815 144.000
59.60809 166.000
59.62804 153.000
59.64799 143.000
59.66793 170.000
59.68788 137.000
59.70783 158.000
59.72778 170.000
59.74772 180.000
59.76767 150.000
59.78762 165.000
59.80756 137.000
59.82751 169.000
59.84746 137.000
59.86740 149.000
59.88735 180.000
59.90730 152.000
59.92725 152.000
59.94719 147.000
59.96714 154.000
59.98709 158.000
60.00703 167.000
60.02698 170.000
60.04693 146.000
60.06687 144.000
60.08682 144.000
60.10677 160.000
60.12671 160.000
60.14666 143.000
60.16661 146.000
60.18656 146.000
60.20650 158.000
60.22645 134.000
60.24640 144.000
60.26634 141.000
60.28629 111.000
60.30624 130.000
60.32618 140.000
60.34613 145.000
60.36608 139.000
60.38603 116.000
60.40597 116.000
60.42592 123.000
60.44587 122.000
60.46581 137.000
60.48576 150.000
60.50571 130.000
60.52565 124.000
60.54560 139.000
60.56555 154.000
60.58550 160.000
60.60544 109.000
60.62539 141.000
60.64534 113.000
60.66528 147.000
60.68523 148.000
60.70518 142.000
60.72512 149.000
60.74507 136.000
60.76502 137.000
60.78496 132.000
60.80491 131.000
60.82486 124.000
60.84481 103.000
60.86475 132.000
60.88470 137.000
60.90465 143.000
60.92459 139.000
60.94454 130.000
60.96449 136.000
60.98443 134.000
61.00438 140.000
61.02433 136.000
61.04428 147.000
61.06422 158.000
61.08417 137.000
61.10412 152.000
61.12406 148.000
61.14401 155.000
61.16396 139.000
61.18390 142.000
61.20385 148.000
61.22380 169.000
61.24374 157.000
61.26369 161.000
61.28364 178.000
61.30359 174.000
61.32353 204.000
61.34348 186.000
61.36343 210.000
61.38337 230.000
61.40332 221.000
61.42327 237.000
61.44321 279.000
61.46316 298.000
61.48311 333.000
61.50306 318.000
61.52300 367.000
61.54295 384.000
61.56290 424.000
61.58284 410.000
61.60279 454.000
61.62274 483.000
61.64268 478.000
61.66263 481.000
61.68258 435.000
61.70252 477.000
61.72247 463.000
61.74242 458.000
61.76237 439.000
61.78231 378.000
61.80226 394.000
61.82221 370.000
61.84215 349.000
61.86210 356.000
61.88205 296.000
61.90199 286.000
61.92194 311.000
61.94189 262.000
61.96184 257.000
61.98178 261.000
62.00173 236.000
62.02168 222.000
62.04162 231.000
62.06157 223.000
62.08152 257.000
62.10146 253.000
62.12141 208.000
62.14136 228.000
62.16131 214.000
62.18125 205.000
62.20120 224.000
62.22115 229.000
62.24109 220.000
62.26104 222.000
62.28099 209.000
62.30093 208.000
62.32088 195.000
62.34083 173.000
62.36077 200.000
62.38072 198.000
62.40067 203.000
62.42062 192.000
62.44056 182.000
62.46051 165.000
62.48046 151.000
62.50040 165.000
62.52035 203.000
62.54030 185.000
62.56024 201.000
62.58019 176.000
62.60014 183.000
62.62009 220.000
62.64003 260.000
62.65998 221.000
62.67993 248.000
62.69987 269.000
62.71982 330.000
62.73977 323.000
62.75971 354.000
62.77966 401.000
62.79961 467.000
62.81955 471.000
62.83950 493.000
62.85945 543.000
62.87940 550.000
62.89934 594.000
62.91929 599.000
62.93924 695.000
62.95918 744.000
62.97913 922.000
62.99908 941.000
63.01902 949.000
63.03897 897.000
63.05892 770.000
63.07887 701.000
63.09881 601.000
63.11876 595.000
63.13871 607.000
63.15865 629.000
63.17860 592.000
63.19855 593.000
63.21849 484.000
63.23844 397.000
63.25839 351.000
63.27833 363.000
63.29828 248.000
63.31823 296.000
63.33818 216.000
63.35812 200.000
63.37807 193.000
63.39802 172.000
63.41796 182.000
63.43791 165.000
63.45786 142.000
63.47780 143.000
63.49775 174.000
63.51770 137.000
63.53765 154.000
63.55759 168.000
63.57754 144.000
63.59749 152.000
63.61743 143.000
63.63738 159.000
63.65733 143.000
63.67727 154.000
63.69722 150.000
63.71717 151.000
63.73712 168.000
63.75706 151.000
63.77701 170.000
63.79696 166.000
63.81690 158.000
63.83685 123.000
63.85680 153.000
63.87674 156.000
63.89669 159.000
63.91664 150.000
63.93658 142.000
63.95653 133.000
63.97648 149.000
63.99643 161.000
64.01637 146.000
64.03632 149.000
64.05627 132.000
64.07621 161.000
64.09616 143.000
64.11611 132.000
64.13605 137.000
64.15600 134.000
64.17595 151.000
64.19590 124.000
64.21584 136.000
64.23579 143.000
64.25574 138.000
64.27568 151.000
64.29563 143.000
64.31558 127.000
64.33552 131.000
64.35547 143.000
64.37542 129.000
64.39536 153.000
64.41531 131.000
64.43526 131.000
64.45521 143.000
64.47515 136.000
64.49510 160.000
64.51505 175.000
64.53499 145.000
64.55494 148.000
64.57489 127.000
64.59483 148.000
64.61478 135.000
64.63473 184.000
64.65468 173.000
64.67462 160.000
64.69457 149.000
64.71452 193.000
64.73446 152.000
64.75441 178.000
64.77436 182.000
64.79430 183.000
64.81425 172.000
64.83420 209.000
64.85414 192.000
64.87409 187.000
64.89404 179.000
64.91399 182.000
64.93393 171.000
64.95388 193.000
64.97383 222.000
64.99377 178.000
65.01372 189.000
65.03367 196.000
65.05361 208.000
65.07356 210.000
65.09351 189.000
65.11346 183.000
65.13340 222.000
65.15335 184.000
65.17330 178.000
65.19324 179.000
65.21319 185.000
65.23314 173.000
65.25308 170.000
65.27303 159.000
65.29298 161.000
65.31293 183.000
65.33287 164.000
65.35282 141.000
65.37277 150.000
65.39271 189.000
65.41266 196.000
65.43261 150.000
65.45255 158.000
65.47250 154.000
65.49245 161.000
65.51239 134.000
65.53234 140.000
65.55229 135.000
65.57224 117.000
65.59218 128.000
65.61213 124.000
65.63208 140.000
65.65202 131.000
65.67197 154.000
65.69192 135.000
65.71186 146.000
65.73181 148.000
65.75176 133.000
65.77171 134.000
65.79165 136.000
65.81160 159.000
65.83155 148.000
65.85149 127.000
65.87144 130.000
65.89139 132.000
65.91133 137.000
65.93128 129.000
65.95123 124.000
65.97117 120.000
65.99112 111.000
66.01107 144.000
66.03102 109.000
66.05096 133.000
66.07091 138.000
66.09086 135.000
66.11080 135.000
66.13075 126.000
66.15070 126.000
66.17064 115.000
66.19059 115.000
66.21054 138.000
66.23049 131.000
66.25043 129.000
66.27038 134.000
66.29033 142.000
66.31027 147.000
66.33022 130.000
66.35017 121.000
66.37011 140.000
66.39006 137.000
66.41001 129.000
66.42995 141.000
66.44990 130.000
66.46985 112.000
66.48980 138.000
66.50974 128.000
66.52969 111.000
66.54964 126.000
66.56958 122.000
66.58953 133.000
66.60948 134.000
66.62942 124.000
66.64937 144.000
66.66932 135.000
66.68927 124.000
66.70921 121.000
66.72916 103.000
66.74911 107.000
66.76905 89.000
66.78900 130.000
66.80895 126.000
66.82889 123.000
66.84884 107.000
66.86879 140.000
66.88874 105.000
66.90868 101.000
66.92863 97.000
66.94858 119.000
66.96852 116.000
66.98847 116.000
67.00842 123.000
67.02836 106.000
67.04831 120.000
67.06826 120.000
67.08820 124.000
67.10815 105.000
67.12810 109.000
67.14805 101.000
67.16799 105.000
67.18794 110.000
67.20789 106.000
67.22783 119.000
67.24778 111.000
67.26773 108.000
67.28767 129.000
67.30762 110.000
67.32757 138.000
67.34752 127.000
67.36746 117.000
67.38741 120.000
67.40736 127.000
67.42730 119.000
67.44725 121.000
67.46720 124.000
67.48714 115.000
67.50709 106.000
67.52704 122.000
67.54698 108.000
67.56693 118.000
67.58688 108.000
67.60683 117.000
67.62677 124.000
67.64672 116.000
67.66667 120.000
67.68661 101.000
67.70656 128.000
67.72651 111.000
67.74645 118.000
67.76640 112.000
67.78635 118.000
67.80630 98.000
67.82624 117.000
67.84619 110.000
67.86614 133.000
67.88608 126.000
67.90603 112.000
67.92598 130.000
67.94592 95.000
67.96587 112.000
67.98582 98.000
68.00576 114.000
68.02571 116.000
68.04566 108.000
68.06561 117.000
68.08555 120.000
68.10550 117.000
68.12545 118.000
68.14539 113.000
68.16534 112.000
68.18529 106.000
68.20523 124.000
68.22518 109.000
68.24513 123.000
68.26508 118.000
68.28502 120.000
68.30497 103.000
68.32492 129.000
68.34486 135.000
68.36481 127.000
68.38476 101.000
68.40470 116.000
68.42465 127.000
68.44460 113.000
68.46455 115.000
68.48449 129.000
68.50444 122.000
68.52439 123.000
68.54433 110.000
68.56428 103.000
68.58423 109.000
68.60417 120.000
68.62412 104.000
68.64407 127.000
68.66401 127.000
68.68396 129.000
68.70391 115.000
68.72386 124.000
68.74380 104.000
68.76375 114.000
68.78370 92.000
68.80364 119.000
68.82359 124.000
68.84354 123.000
68.86348 127.000
68.88343 131.000
68.90338 118.000
68.92333 87.000
68.94327 118.000
68.96322 118.000
68.98317 108.000
69.00311 111.000
69.02306 114.000
69.04301 109.000
69.06295 123.000
69.08290 124.000
69.10285 125.000
69.12279 126.000
69.14274 115.000
69.16269 112.000
69.18264 109.000
69.20258 129.000
69.22253 119.000
69.24248 116.000
69.26242 107.000
69.28237 116.000
69.30232 128.000
69.32226 137.000
69.34221 127.000
69.36216 120.000
69.38211 131.000
69.40205 114.000
69.42200 133.000
69.44195 129.000
69.46189 129.000
69.48184 115.000
69.50179 119.000
69.52173 131.000
69.54168 137.000
69.56163 110.000
69.58157 97.000
69.60152 145.000
69.62147 124.000
69.64142 121.000
69.66136 120.000
69.68131 133.000
69.70126 135.000
69.72120 148.000
69.74115 124.000
69.76110 126.000
69.78104 137.000
69.80099 141.000
69.82094 135.000
69.84089 149.000
69.86083 136.000
69.88078 137.000
69.90073 132.000
69.92067 141.000
69.94062 134.000
69.96057 113.000
69.98051 134.000
70.00046 138.000
70.02041 148.000
70.04035 151.000
70.06030 133.000
70.08025 128.000
70.10020 131.000
70.12014 132.000
70.14009 139.000
70.16004 135.000
70.17998 125.000
70.19993 136.000
70.21988 147.000
70.23982 135.000
70.25977 134.000
70.27972 126.000
70.29967 134.000
70.31961 130.000
70.33956 117.000
70.35951 138.000
70.37945 142.000
70.39940 111.000
70.41935 138.000
70.43929 135.000
70.45924 121.000
70.47919 114.000
70.49914 138.000
70.51908 129.000
70.53903 133.000
70.55898 130.000
70.57892 107.000
70.59887 121.000
70.61882 117.000
70.63876 124.000
70.65871 124.000
70.67866 137.000
70.69860 127.000
70.71855 115.000
70.73850 114.000
70.75845 108.000
70.77839 117.000
70.79834 112.000
70.81829 120.000
70.83823 104.000
70.85818 121.000
70.87813 116.000
70.89807 120.000
70.91802 137.000
70.93797 135.000
70.95792 107.000
70.97786 141.000
70.99781 129.000
71.01776 127.000
71.03770 123.000
71.05765 118.000
71.07760 135.000
71.09754 128.000
71.11749 142.000
71.13744 136.000
71.15738 134.000
71.17733 129.000
71.19728 146.000
71.21723 128.000
71.23717 133.000
71.25712 146.000
71.27707 131.000
71.29701 131.000
71.31696 145.000
71.33691 160.000
71.35685 122.000
71.37680 147.000
71.39675 158.000
71.41670 144.000
71.43664 161.000
71.45659 138.000
71.47654 156.000
71.49648 184.000
71.51643 164.000
71.53638 155.000
71.55632 177.000
71.57627 148.000
71.59622 170.000
71.61616 130.000
71.63611 138.000
71.65606 135.000
71.67601 150.000
71.69595 142.000
71.71590 161.000
71.73585 157.000
71.75579 156.000
71.77574 160.000
71.79569 122.000
71.81563 150.000
71.83558 114.000
71.85553 133.000
71.87548 137.000
71.89542 118.000
71.91537 139.000
71.93532 118.000
71.95526 138.000
71.97521 114.000
71.99516 126.000
72.01510 121.000
72.03505 105.000
72.05500 115.000
72.07495 128.000
72.09489 150.000
72.11484 115.000
72.13479 113.000
72.15473 113.000
72.17468 114.000
72.19463 131.000
72.21457 135.000
72.23452 134.000
72.25447 141.000
72.27441 145.000
72.29436 128.000
72.31431 156.000
72.33426 146.000
72.35420 138.000
72.37415 130.000
72.39410 143.000
72.41404 124.000
72.43399 137.000
72.45394 129.000
72.47388 129.000
72.49383 159.000
72.51378 126.000
72.53373 149.000
72.55367 127.000
72.57362 144.000
72.59357 156.000
72.61351 149.000
72.63346 136.000
72.65341 173.000
72.67335 145.000
72.69330 143.000
72.71325 133.000
72.73319 140.000
72.75314 135.000
72.77309 129.000
72.79304 137.000
72.81298 168.000
72.83293 151.000
72.85288 136.000
72.87282 161.000
72.89277 141.000
72.91272 159.000
72.93266 171.000
72.95261 168.000
72.97256 149.000
72.99251 161.000
73.01245 154.000
73.03240 180.000
73.05235 148.000
73.07229 172.000
73.09224 151.000
73.11219 177.000
73.13213 133.000
73.15208 160.000
73.17203 134.000
73.19197 148.000
73.21192 164.000
73.23187 144.000
73.25182 130.000
73.27176 141.000
73.29171 151.000
73.31166 136.000
73.33160 141.000
73.35155 132.000
73.37150 125.000
73.39144 146.000
73.41139 138.000
73.43134 165.000
73.45129 126.000
73.47123 133.000
73.49118 126.000
73.51113 138.000
73.53107 118.000
73.55102 141.000
73.57097 143.000
73.59091 120.000
73.61086 147.000
73.63081 137.000
73.65076 140.000
73.67070 123.000
73.69065 137.000
73.71060 153.000
73.73054 128.000
73.75049 135.000
73.77044 127.000
73.79038 112.000
73.81033 147.000
73.83028 134.000
73.85022 145.000
73.87017 152.000
73.89012 151.000
73.91007 153.000
73.93001 152.000
73.94996 165.000
73.96991 131.000
73.98985 140.000
74.00980 141.000
74.02975 164.000
74.04969 140.000
74.06964 163.000
74.08959 133.000
74.10954 158.000
74.12948 137.000
74.14943 159.000
74.16938 167.000
74.18932 157.000
74.20927 170.000
74.22922 159.000
74.24916 146.000
74.26911 152.000
74.28906 167.000
74.30900 204.000
74.32895 156.000
74.34890 184.000
74.36885 175.000
74.38879 178.000
74.40874 199.000
74.42869 183.000
74.44863 186.000
74.46858 164.000
74.48853 217.000
74.50847 254.000
74.52842 236.000
74.54837 286.000
74.56832 268.000
74.58826 258.000
74.60821 213.000
74.62816 232.000
74.64810 245.000
74.66805 213.000
74.68800 191.000
74.70794 225.000
74.72789 205.000
74.74784 208.000
74.76778 203.000
74.78773 183.000
74.80768 204.000
74.82763 196.000
74.84757 169.000
74.86752 162.000
74.88747 157.000
74.90741 150.000
74.92736 161.000
74.94731 151.000
74.96725 137.000
74.98720 134.000
75.00715 120.000
75.02710 145.000
75.04704 130.000
75.06699 139.000
75.08694 138.000
75.10688 145.000
75.12683 144.000
75.14678 134.000
75.16672 152.000
75.18667 145.000
75.20662 154.000
75.22657 154.000
75.24651 168.000
75.26646 163.000
75.28641 192.000
75.30635 156.000
75.32630 218.000
75.34625 189.000
75.36619 202.000
75.38614 194.000
75.40609 198.000
75.42603 205.000
75.44598 205.000
75.46593 205.000
75.48588 189.000
75.50582 212.000
75.52577 191.000
75.54572 197.000
75.56566 205.000
75.58561 189.000
75.60556 206.000
75.62550 205.000
75.64545 187.000
75.66540 174.000
75.68535 143.000
75.70529 154.000
75.72524 160.000
75.74519 163.000
75.76513 148.000
75.78508 154.000
75.80503 149.000
75.82497 160.000
75.84492 143.000
75.86487 135.000
75.88481 124.000
75.90476 141.000
75.92471 110.000
75.94466 130.000
75.96460 132.000
75.98455 140.000
76.00450 118.000
76.02444 119.000
76.04439 108.000
76.06434 142.000
76.08428 115.000
76.10423 122.000
76.12418 123.000
76.14413 124.000
76.16407 132.000
76.18402 107.000
76.20397 116.000
76.22391 121.000
76.24386 125.000
76.26381 136.000
76.28375 123.000
76.30370 107.000
76.32365 131.000
76.34359 127.000
76.36354 108.000
76.38349 137.000
76.40344 133.000
76.42338 127.000
76.44333 112.000
76.46328 89.000
76.48322 114.000
76.50317 124.000
76.52312 115.000
76.54306 119.000
76.56301 142.000
76.58296 132.000
76.60291 121.000
76.62285 143.000
76.64280 128.000
76.66275 144.000
76.68269 135.000
76.70264 148.000
76.72259 142.000
76.74253 136.000
76.76248 169.000
76.78243 135.000
76.80238 146.000
76.82232 150.000
76.84227 156.000
76.86222 144.000
76.88216 147.000
76.90211 159.000
76.92206 176.000
76.94200 149.000
76.96195 171.000
76.98190 182.000
77.00184 170.000
77.02179 139.000
77.04174 136.000
77.06169 167.000
77.08163 176.000
77.10158 167.000
77.12153 155.000
77.14147 144.000
77.16142 139.000
77.18137 146.000
77.20131 149.000
77.22126 169.000
77.24121 164.000
77.26116 150.000
77.28110 150.000
77.30105 149.000
77.32100 166.000
77.34094 145.000
77.36089 134.000
77.38084 113.000
77.40078 157.000
77.42073 125.000
77.44068 135.000
77.46062 154.000
77.48057 138.000
77.50052 157.000
77.52047 129.000
77.54041 136.000
77.56036 122.000
77.58031 127.000
77.60025 134.000
77.62020 117.000
77.64015 138.000
77.66009 124.000
77.68004 131.000
77.69999 149.000
77.71994 102.000
77.73988 115.000
77.75983 142.000
77.77978 124.000
77.79972 128.000
77.81967 119.000
77.83962 105.000
77.85956 123.000
77.87951 122.000
77.89946 124.000
77.91940 107.000
77.93935 99.000
77.95930 94.000
77.97925 120.000
77.99919 113.000
78.01914 123.000
78.03909 114.000
78.05903 123.000
78.07898 113.000
78.09893 96.000
78.11887 121.000
78.13882 116.000
78.15877 143.000
78.17872 96.000
78.19866 120.000
78.21861 100.000
78.23856 114.000
78.25850 109.000
78.27845 99.000
78.29840 102.000
78.31834 96.000
78.33829 98.000
78.35824 136.000
78.37819 99.000
78.39813 107.000
78.41808 100.000
78.43803 103.000
78.45797 126.000
78.47792 99.000
78.49787 98.000
78.51781 108.000
78.53776 97.000
78.55771 109.000
78.57765 110.000
78.59760 115.000
78.61755 106.000
78.63750 97.000
78.65744 112.000
78.67739 122.000
78.69734 119.000
78.71728 104.000
78.73723 93.000
78.75718 118.000
78.77712 120.000
78.79707 113.000
78.81702 112.000
78.83697 147.000
78.85691 116.000
78.87686 126.000
78.89681 112.000
78.91675 105.000
78.93670 106.000
78.95665 128.000
78.97659 115.000
78.99654 114.000
79.01649 128.000
79.03643 115.000
79.05638 136.000
79.07633 129.000
79.09628 109.000
79.11622 128.000
79.13617 139.000
79.15612 139.000
79.17606 136.000
79.19601 135.000
79.21596 150.000
79.23590 129.000
79.25585 163.000
79.27580 170.000
79.29575 160.000
79.31569 158.000
79.33564 176.000
79.35559 181.000
79.37553 192.000
79.39548 188.000
79.41543 183.000
79.43537 166.000
79.45532 183.000
79.47527 178.000
79.49521 176.000
79.51516 194.000
79.53511 162.000
79.55506 202.000
79.57500 210.000
79.59495 197.000
79.61490 200.000
79.63484 208.000
79.65479 185.000
79.67474 178.000
79.69468 201.000
79.71463 144.000
79.73458 163.000
79.75453 164.000
79.77447 167.000
79.79442 161.000
79.81437 139.000
79.83431 177.000
79.85426 164.000
79.87421 165.000
79.89415 131.000
79.91410 147.000
79.93405 156.000
79.95399 141.000
79.97394 131.000
79.99389 123.000
80.01384 151.000
80.03378 135.000
80.05373 122.000
80.07368 120.000
80.09362 115.000
80.11357 144.000
80.13352 131.000
80.15346 130.000
80.17341 152.000
80.19336 140.000
80.21331 144.000
80.23325 145.000
80.25320 137.000
80.27315 142.000
80.29309 129.000
80.31304 133.000
80.33299 145.000
80.35293 143.000
80.37288 137.000
80.39283 146.000
80.41278 117.000
80.43272 138.000
80.45267 128.000
80.47262 140.000
80.49256 145.000
80.51251 133.000
80.53246 128.000
80.55240 125.000
80.57235 135.000
80.59230 112.000
80.61224 112.000
80.63219 165.000
80.65214 127.000
80.67209 124.000
80.69203 135.000
80.71198 119.000
80.73193 134.000
80.75187 129.000
80.77182 99.000
80.79177 132.000
80.81171 140.000
80.83166 123.000
80.85161 110.000
80.87156 103.000
80.89150 127.000
80.91145 99.000
80.93140 122.000
80.95134 127.000
80.97129 92.000
80.99124 118.000
81.01118 121.000
81.03113 130.000
81.05108 123.000
81.07102 124.000
81.09097 119.000
81.11092 114.000
81.13087 113.000
81.15081 94.000
81.17076 113.000
81.19071 107.000
81.21065 118.000
81.23060 124.000
81.25055 124.000
81.27049 134.000
81.29044 102.000
81.31039 118.000
81.33034 122.000
81.35028 118.000
81.37023 110.000
81.39018 98.000
81.41012 101.000
81.43007 104.000
81.45002 127.000
81.46996 106.000
81.48991 103.000
81.50986 134.000
81.52980 117.000
81.54975 140.000
81.56970 103.000
81.58965 115.000
81.60959 117.000
81.62954 119.000
81.64949 121.000
81.66943 112.000
81.68938 113.000
81.70933 101.000
81.72927 114.000
81.74922 106.000
81.76917 98.000
81.78912 96.000
81.80906 100.000
81.82901 124.000
81.84896 112.000
81.86890 110.000
81.88885 117.000
81.90880 95.000
81.92874 105.000
81.94869 125.000
81.96864 114.000
81.98859 101.000
82.00853 118.000
82.02848 115.000
82.04843 111.000
82.06837 139.000
82.08832 127.000
82.10827 113.000
82.12821 112.000
82.14816 118.000
82.16811 118.000
82.18805 122.000
82.20800 97.000
82.22795 116.000
82.24790 121.000
82.26784 105.000
82.28779 93.000
82.30774 111.000
82.32768 117.000
82.34763 115.000
82.36758 94.000
82.38752 124.000
82.40747 112.000
82.42742 97.000
82.44737 115.000
82.46731 106.000
82.48726 116.000
82.50721 119.000
82.52715 128.000
82.54710 107.000
82.56705 113.000
82.58699 111.000
82.60694 108.000
82.62689 100.000
82.64683 120.000
82.66678 122.000
82.68673 124.000
82.70668 121.000
82.72662 102.000
82.74657 140.000
82.76652 112.000
82.78646 114.000
82.80641 129.000
82.82636 103.000
82.84630 103.000
82.86625 106.000
82.88620 98.000
82.90615 110.000
82.92609 114.000
82.94604 112.000
82.96599 127.000
82.98593 124.000
83.00588 104.000
83.02583 92.000
83.04577 100.000
83.06572 124.000
83.08567 99.000
83.10561 112.000
83.12556 112.000
83.14551 116.000
83.16546 109.000
83.18540 101.000
83.20535 93.000
83.22530 94.000
83.24524 107.000
83.26519 112.000
83.28514 116.000
83.30508 101.000
83.32503 111.000
83.34498 106.000
83.36493 119.000
83.38487 93.000
83.40482 115.000
83.42477 108.000
83.44471 116.000
83.46466 119.000
83.48461 120.000
83.50455 101.000
83.52450 108.000
83.54445 82.000
83.56440 89.000
83.58434 92.000
83.60429 102.000
83.62424 98.000
83.64418 106.000
83.66413 104.000
83.68408 106.000
83.70402 101.000
83.72397 109.000
83.74392 99.000
83.76386 124.000
83.78381 121.000
83.80376 115.000
83.82371 97.000
83.84365 108.000
83.86360 109.000
83.88355 110.000
83.90349 126.000
83.92344 114.000
83.94339 111.000
83.96333 108.000
83.98328 112.000
84.00323 105.000
84.02318 107.000
84.04312 115.000
84.06307 115.000
84.08302 105.000
84.10296 101.000
84.12291 115.000
84.14286 101.000
84.16280 114.000
84.18275 115.000
84.20270 107.000
84.22264 99.000
84.24259 98.000
84.26254 120.000
84.28249 107.000
84.30243 101.000
84.32238 122.000
84.34233 111.000
84.36227 106.000
84.38222 84.000
84.40217 99.000
84.42211 106.000
84.44206 113.000
84.46201 107.000
84.48196 95.000
84.50190 106.000
84.52185 104.000
84.54180 112.000
84.56174 94.000
84.58169 108.000
84.60164 96.000
84.62158 117.000
84.64153 109.000
84.66148 114.000
84.68142 111.000
84.70137 120.000
84.72132 104.000
84.74127 113.000
84.76121 96.000
84.78116 133.000
84.80111 115.000
84.82105 102.000
84.84100 124.000
84.86095 107.000
84.88089 121.000
84.90084 102.000
84.92079 107.000
84.94074 121.000
84.96068 106.000
84.98063 95.000
85.00058 118.000
85.02052 117.000
85.04047 93.000
85.06042 97.000
85.08036 113.000
85.10031 114.000
85.12026 114.000
85.14021 107.000
85.16015 105.000
85.18010 92.000
85.20005 111.000
85.21999 125.000
85.23994 97.000
85.25989 107.000
85.27983 100.000
85.29978 102.000
85.31973 103.000
85.33967 98.000
85.35962 115.000
85.37957 107.000
85.39952 107.000
85.41946 103.000
85.43941 107.000
85.45936 114.000
85.47930 93.000
85.49925 102.000
85.51920 125.000
85.53914 99.000
85.55909 93.000
85.57904 120.000
85.59899 97.000
85.61893 129.000
85.63888 98.000
85.65883 113.000
85.67877 98.000
85.69872 123.000
85.71867 126.000
85.73861 116.000
85.75856 105.000
85.77851 105.000
85.79845 94.000
85.81840 97.000
85.83835 105.000
85.85830 123.000
85.87824 105.000
85.89819 105.000
85.91814 104.000
85.93808 119.000
85.95803 88.000
85.97798 92.000
85.99792 113.000
86.01787 102.000
86.03782 103.000
86.05777 99.000
86.07771 100.000
86.09766 102.000
86.11761 100.000
86.13755 100.000
86.15750 109.000
86.17745 111.000
86.19739 126.000
86.21734 129.000
86.23729 108.000
86.25723 114.000
86.27718 117.000
86.29713 114.000
86.31708 111.000
86.33702 91.000
86.35697 99.000
86.37692 99.000
86.39686 95.000
86.41681 120.000
86.43676 96.000
86.45670 111.000
86.47665 124.000
86.49660 106.000
86.51655 125.000
86.53649 116.000
86.55644 121.000
86.57639 111.000
86.59633 114.000
86.61628 114.000
86.63623 117.000
86.65617 106.000
86.67612 115.000
86.69607 105.000
86.71602 110.000
86.73596 86.000
86.75591 97.000
86.77586 111.000
86.79580 116.000
86.81575 115.000
86.83570 124.000
86.85564 119.000
86.87559 119.000
86.89554 127.000
86.91548 90.000
86.93543 106.000
86.95538 118.000
86.97533 109.000
86.99527 105.000
87.01522 129.000
87.03517 108.000
87.05511 109.000
87.07506 116.000
87.09501 111.000
87.11495 100.000
87.13490 92.000
87.15485 107.000
87.17480 97.000
87.19474 101.000
87.21469 88.000
87.23464 111.000
87.25458 133.000
87.27453 110.000
87.29448 137.000
87.31442 104.000
87.33437 120.000
87.35432 121.000
87.37426 131.000
87.39421 141.000
87.41416 143.000
87.43411 171.000
87.45405 142.000
87.47400 156.000
87.49395 156.000
87.51389 157.000
87.53384 160.000
87.55379 133.000
87.57373 160.000
87.59368 133.000
87.61363 150.000
87.63358 130.000
87.65352 130.000
87.67347 133.000
87.69342 126.000
87.71336 145.000
87.73331 144.000
87.75326 118.000
87.77320 141.000
87.79315 136.000
87.81310 136.000
87.83304 139.000
87.85299 117.000
87.87294 114.000
87.89289 117.000
87.91283 108.000
87.93278 134.000
87.95273 103.000
87.97267 124.000
87.99262 110.000
88.01257 121.000
88.03251 108.000
88.05246 120.000
88.07241 126.000
88.09236 102.000
88.11230 126.000
88.13225 101.000
88.15220 94.000
88.17214 105.000
88.19209 106.000
88.21204 126.000
88.23198 104.000
88.25193 106.000
88.27188 97.000
88.29183 94.000
88.31177 106.000
88.33172 112.000
88.35167 115.000
88.37161 101.000
88.39156 120.000
88.41151 116.000
88.43145 95.000
88.45140 102.000
88.47135 117.000
88.49129 116.000
88.51124 121.000
88.53119 127.000
88.55114 123.000
88.57108 95.000
88.59103 90.000
88.61098 107.000
88.63092 124.000
88.65087 106.000
88.67082 107.000
88.69076 116.000
88.71071 128.000
88.73066 104.000
88.75061 108.000
88.77055 110.000
88.79050 114.000
88.81045 101.000
88.83039 100.000
88.85034 103.000
88.87029 100.000
88.89023 97.000
88.91018 105.000
88.93013 112.000
88.95007 114.000
88.97002 90.000
88.98997 123.000
89.00992 113.000
89.02986 127.000
89.04981 102.000
89.06976 124.000
89.08970 88.000
89.10965 115.000
89.12960 121.000
89.14954 119.000
89.16949 109.000
89.18944 117.000
89.20939 102.000
89.22933 130.000
89.24928 112.000
89.26923 106.000
89.28917 112.000
89.30912 117.000
89.32907 107.000
89.34901 133.000
89.36896 116.000
89.38891 119.000
89.40885 130.000
89.42880 120.000
89.44875 123.000
89.46870 141.000
89.48864 139.000
89.50859 112.000
89.52854 100.000
89.54848 108.000
89.56843 124.000
89.58838 141.000
89.60832 117.000
89.62827 138.000
89.64822 109.000
89.66817 109.000
89.68811 103.000
89.70806 113.000
89.72801 117.000
89.74795 146.000
89.76790 134.000
89.78785 118.000
89.80779 131.000
89.82774 138.000
89.84769 137.000
89.86764 111.000
89.88758 125.000
89.90753 126.000
89.92748 121.000
89.94742 125.000
89.96737 138.000
89.98732 128.000
90.00726 132.000
