10.00000 24.000
10.01995 25.000
10.03989 21.000
10.05984 29.000
10.07979 20.000
10.09973 27.000
10.11968 26.000
10.13963 29.000
10.15958 25.000
10.17952 26.000
10.19947 26.000
10.21942 24.000
10.23936 26.000
10.25931 36.000
10.27926 25.000
10.29920 17.000
10.31915 23.000
10.33910 22.000
10.35905 29.000
10.37899 24.000
10.39894 23.000
10.41889 28.000
10.43883 25.000
10.45878 26.000
10.47873 29.000
10.49867 23.000
10.51862 19.000
10.53857 30.000
10.55851 20.000
10.57846 21.000
10.59841 28.000
10.61836 28.000
10.63830 22.000
10.65825 31.000
10.67820 42.000
10.69814 29.000
10.71809 31.000
10.73804 28.000
10.75798 37.000
10.77793 34.000
10.79788 34.000
10.81783 26.000
10.83777 18.000
10.85772 26.000
10.87767 21.000
10.89761 26.000
10.91756 31.000
10.93751 33.000
10.95745 36.000
10.97740 25.000
10.99735 28.000
11.01730 23.000
11.03724 32.000
11.05719 21.000
11.07714 22.000
11.09708 26.000
11.11703 25.000
11.13698 27.000
11.15692 30.000
11.17687 30.000
11.19682 17.000
11.21676 29.000
11.23671 32.000
11.25666 29.000
11.27661 26.000
11.29655 33.000
11.31650 23.000
11.33645 21.000
11.35639 32.000
11.37634 27.000
11.39629 23.000
11.41623 39.000
11.43618 32.000
11.45613 33.000
11.47608 44.000
11.49602 33.000
11.51597 31.000
11.53592 32.000
11.55586 36.000
11.57581 33.000
11.59576 25.000
11.61570 31.000
11.63565 28.000
11.65560 20.000
11.67554 32.000
11.69549 26.000
11.71544 31.000
11.73539 26.000
11.75533 27.000
11.77528 36.000
11.79523 29.000
11.81517 30.000
11.83512 30.000
11.85507 32.000
11.87501 48.000
11.89496 39.000
11.91491 35.000
11.93486 34.000
11.95480 34.000
11.97475 39.000
11.99470 34.000
12.01464 41.000
12.03459 40.000
12.05454 35.000
12.07448 45.000
12.09443 42.000
12.11438 56.000
12.13432 41.000
12.15427 34.000
12.17422 56.000
12.19417 49.000
12.21411 37.000
12.23406 51.000
12.25401 58.000
12.27395 64.000
12.29390 68.000
12.31385 80.000
12.33379 87.000
12.35374 86.000
12.37369 112.000
12.39364 124.000
12.41358 116.000
12.43353 132.000
12.45348 150.000
12.47342 189.000
12.49337 174.000
12.51332 233.000
12.53326 245.000
12.55321 258.000
12.57316 256.000
12.59311 258.000
12.61305 228.000
12.63300 224.000
12.65295 184.000
12.67289 191.000
12.69284 157.000
12.71279 134.000
12.73273 148.000
12.75268 137.000
12.77263 116.000
12.79257 128.000
12.81252 106.000
12.83247 107.000
12.85242 79.000
12.87236 73.000
12.89231 78.000
12.91226 95.000
12.93220 85.000
12.95215 73.000
12.97210 71.000
12.99204 79.000
13.01199 65.000
13.03194 71.000
13.05189 81.000
13.07183 66.000
13.09178 58.000
13.11173 63.000
13.13167 72.000
13.15162 79.000
13.17157 79.000
13.19151 59.000
13.21146 53.000
13.23141 47.000
13.25135 55.000
13.27130 57.000
13.29125 50.000
13.31120 49.000
13.33114 44.000
13.35109 51.000
13.37104 55.000
13.39098 39.000
13.41093 66.000
13.43088 62.000
13.45082 64.000
13.47077 55.000
13.49072 66.000
13.51067 65.000
13.53061 65.000
13.55056 75.000
13.57051 57.000
13.59045 77.000
13.61040 86.000
13.63035 66.000
13.65029 80.000
13.67024 83.000
13.69019 70.000
13.71013 58.000
13.73008 62.000
13.75003 66.000
13.76998 57.000
13.78992 64.000
13.80987 68.000
13.82982 51.000
13.84976 53.000
13.86971 63.000
13.88966 69.000
13.90960 90.000
13.92955 86.000
13.94950 113.000
13.96945 93.000
13.98939 82.000
14.00934 87.000
14.02929 76.000
14.04923 72.000
14.06918 68.000
14.08913 64.000
14.10907 57.000
14.12902 62.000
14.14897 61.000
14.16892 68.000
14.18886 71.000
14.20881 52.000
14.22876 62.000
14.24870 61.000
14.26865 66.000
14.28860 61.000
14.30854 53.000
14.32849 84.000
14.34844 52.000
14.36838 54.000
14.38833 69.000
14.40828 63.000
14.42823 57.000
14.44817 58.000
14.46812 46.000
14.48807 68.000
14.50801 53.000
14.52796 48.000
14.54791 71.000
14.56785 52.000
14.58780 60.000
14.60775 51.000
14.62770 81.000
14.64764 57.000
14.66759 52.000
14.68754 57.000
14.70748 54.000
14.72743 66.000
14.74738 74.000
14.76732 65.000
14.78727 66.000
14.80722 60.000
14.82716 50.000
14.84711 68.000
14.86706 50.000
14.88701 59.000
14.90695 72.000
14.92690 75.000
14.94685 69.000
14.96679 75.000
14.98674 74.000
15.00669 76.000
15.02663 102.000
15.04658 81.000
15.06653 92.000
15.08648 89.000
15.10642 78.000
15.12637 120.000
15.14632 104.000
15.16626 111.000
15.18621 89.000
15.20616 109.000
15.22610 120.000
15.24605 121.000
15.26600 119.000
15.28594 117.000
15.30589 161.000
15.32584 131.000
15.34579 143.000
15.36573 186.000
15.38568 162.000
15.40563 228.000
15.42557 238.000
15.44552 258.000
15.46547 321.000
15.48541 368.000
15.50536 429.000
15.52531 562.000
15.54526 781.000
15.56520 989.000
15.58515 1403.000
15.60510 1955.000
15.62504 2700.000
15.64499 3384.000
15.66494 3664.000
15.68488 3709.000
15.70483 3333.000
15.72478 2907.000
15.74472 2570.000
15.76467 2359.000
15.78462 2163.000
15.80457 2242.000
15.82451 2265.000
15.84446 2444.000
15.86441 2453.000
15.88435 2395.000
15.90430 2373.000
15.92425 2639.000
15.94419 2666.000
15.96414 2673.000
15.98409 2373.000
16.00404 1852.000
16.02398 1378.000
16.04393 881.000
16.06388 562.000
16.08382 376.000
16.10377 284.000
16.12372 225.000
16.14366 178.000
16.16361 172.000
16.18356 137.000
16.20351 108.000
16.22345 115.000
16.24340 104.000
16.26335 112.000
16.28329 95.000
16.30324 77.000
16.32319 88.000
16.34313 91.000
16.36308 66.000
16.38303 78.000
16.40297 71.000
16.42292 72.000
16.44287 64.000
16.46282 49.000
16.48276 60.000
16.50271 70.000
16.52266 60.000
16.54260 53.000
16.56255 60.000
16.58250 57.000
16.60244 43.000
16.62239 54.000
16.64234 56.000
16.66229 64.000
16.68223 44.000
16.70218 54.000
16.72213 39.000
16.74207 36.000
16.76202 49.000
16.78197 53.000
16.80191 34.000
16.82186 34.000
16.84181 40.000
16.86175 55.000
16.88170 39.000
16.90165 43.000
16.92160 37.000
16.94154 31.000
16.96149 39.000
16.98144 36.000
17.00138 35.000
17.02133 40.000
17.04128 36.000
17.06122 34.000
17.08117 29.000
17.10112 37.000
17.12107 40.000
17.14101 30.000
17.16096 35.000
17.18091 41.000
17.20085 28.000
17.22080 38.000
17.24075 21.000
17.26069 39.000
17.28064 29.000
17.30059 42.000
17.32053 39.000
17.34048 41.000
17.36043 30.000
17.38038 31.000
17.40032 35.000
17.42027 37.000
17.44022 21.000
17.46016 25.000
17.48011 27.000
17.50006 21.000
17.52000 38.000
17.53995 31.000
17.55990 30.000
17.57985 27.000
17.59979 30.000
17.61974 26.000
17.63969 28.000
17.65963 21.000
17.67958 34.000
17.69953 20.000
17.71947 17.000
17.73942 32.000
17.75937 33.000
17.77932 28.000
17.79926 28.000
17.81921 23.000
17.83916 28.000
17.85910 24.000
17.87905 30.000
17.89900 34.000
17.91894 27.000
17.93889 29.000
17.95884 31.000
17.97878 28.000
17.99873 34.000
18.01868 31.000
18.03863 19.000
18.05857 28.000
18.07852 28.000
18.09847 27.000
18.11841 20.000
18.13836 14.000
18.15831 26.000
18.17825 28.000
18.19820 23.000
18.21815 24.000
18.23810 23.000
18.25804 13.000
18.27799 23.000
18.29794 28.000
18.31788 19.000
18.33783 17.000
18.35778 31.000
18.37772 30.000
18.39767 24.000
18.41762 27.000
18.43756 15.000
18.45751 31.000
18.47746 18.000
18.49741 16.000
18.51735 26.000
18.53730 11.000
18.55725 23.000
18.57719 25.000
18.59714 25.000
18.61709 27.000
18.63703 39.000
18.65698 28.000
18.67693 22.000
18.69688 16.000
18.71682 24.000
18.73677 21.000
18.75672 26.000
18.77666 27.000
18.79661 26.000
18.81656 21.000
18.83650 26.000
18.85645 21.000
18.87640 27.000
18.89634 20.000
18.91629 18.000
18.93624 20.000
18.95619 24.000
18.97613 17.000
18.99608 21.000
19.01603 15.000
19.03597 16.000
19.05592 28.000
19.07587 22.000
19.09581 26.000
19.11576 28.000
19.13571 25.000
19.15566 19.000
19.17560 27.000
19.19555 14.000
19.21550 23.000
19.23544 30.000
19.25539 25.000
19.27534 29.000
19.29528 18.000
19.31523 23.000
19.33518 30.000
19.35513 26.000
19.37507 28.000
19.39502 27.000
19.41497 26.000
19.43491 29.000
19.45486 31.000
19.47481 25.000
19.49475 19.000
19.51470 27.000
19.53465 31.000
19.55459 24.000
19.57454 22.000
19.59449 22.000
19.61444 20.000
19.63438 25.000
19.65433 25.000
19.67428 22.000
19.69422 32.000
19.71417 35.000
19.73412 22.000
19.75406 22.000
19.77401 26.000
19.79396 22.000
19.81391 31.000
19.83385 22.000
19.85380 19.000
19.87375 25.000
19.89369 38.000
19.91364 25.000
19.93359 22.000
19.95353 21.000
19.97348 22.000
19.99343 25.000
20.01337 29.000
20.03332 23.000
20.05327 17.000
20.07322 23.000
20.09316 34.000
20.11311 26.000
20.13306 30.000
20.15300 24.000
20.17295 32.000
20.19290 25.000
20.21284 21.000
20.23279 21.000
20.25274 20.000
20.27269 18.000
20.29263 25.000
20.31258 21.000
20.33253 30.000
20.35247 36.000
20.37242 31.000
20.39237 31.000
20.41231 30.000
20.43226 24.000
20.45221 29.000
20.47215 39.000
20.49210 29.000
20.51205 32.000
20.53200 32.000
20.55194 42.000
20.57189 42.000
20.59184 31.000
20.61178 33.000
20.63173 35.000
20.65168 29.000
20.67162 30.000
20.69157 31.000
20.71152 26.000
20.73147 27.000
20.75141 28.000
20.77136 29.000
20.79131 26.000
20.81125 29.000
20.83120 22.000
20.85115 23.000
20.87109 34.000
20.89104 41.000
20.91099 32.000
20.93094 31.000
20.95088 35.000
20.97083 35.000
20.99078 31.000
21.01072 29.000
21.03067 37.000
21.05062 21.000
21.07056 21.000
21.09051 27.000
21.11046 22.000
21.13040 29.000
21.15035 30.000
21.17030 24.000
21.19025 26.000
21.21019 21.000
21.23014 22.000
21.25009 19.000
21.27003 18.000
21.28998 22.000
21.30993 31.000
21.32987 19.000
21.34982 30.000
21.36977 24.000
21.38972 23.000
21.40966 21.000
21.42961 19.000
21.44956 32.000
21.46950 28.000
21.48945 19.000
21.50940 20.000
21.52934 19.000
21.54929 24.000
21.56924 30.000
21.58918 26.000
21.60913 36.000
21.62908 29.000
21.64903 27.000
21.66897 37.000
21.68892 26.000
21.70887 34.000
21.72881 25.000
21.74876 29.000
21.76871 30.000
21.78865 23.000
21.80860 28.000
21.82855 23.000
21.84850 24.000
21.86844 23.000
21.88839 27.000
21.90834 22.000
21.92828 27.000
21.94823 33.000
21.96818 25.000
21.98812 32.000
22.00807 15.000
22.02802 15.000
22.04796 27.000
22.06791 34.000
22.08786 37.000
22.10781 26.000
22.12775 23.000
22.14770 24.000
22.16765 29.000
22.18759 18.000
22.20754 31.000
22.22749 38.000
22.24743 24.000
22.26738 35.000
22.28733 21.000
22.30728 34.000
22.32722 24.000
22.34717 31.000
22.36712 31.000
22.38706 21.000
22.40701 31.000
22.42696 26.000
22.44690 35.000
22.46685 34.000
22.48680 21.000
22.50675 29.000
22.52669 30.000
22.54664 32.000
22.56659 32.000
22.58653 23.000
22.60648 32.000
22.62643 38.000
22.64637 27.000
22.66632 27.000
22.68627 24.000
22.70621 27.000
22.72616 26.000
22.74611 17.000
22.76606 43.000
22.78600 36.000
22.80595 24.000
22.82590 31.000
22.84584 32.000
22.86579 21.000
22.88574 23.000
22.90568 26.000
22.92563 25.000
22.94558 27.000
22.96553 25.000
22.98547 32.000
23.00542 23.000
23.02537 33.000
23.04531 22.000
23.06526 33.000
23.08521 28.000
23.10515 29.000
23.12510 35.000
23.14505 35.000
23.16499 28.000
23.18494 38.000
23.20489 39.000
23.22484 36.000
23.24478 31.000
23.26473 32.000
23.28468 34.000
23.30462 31.000
23.32457 30.000
23.34452 33.000
23.36446 28.000
23.38441 27.000
23.40436 36.000
23.42431 29.000
23.44425 32.000
23.46420 26.000
23.48415 34.000
23.50409 33.000
23.52404 38.000
23.54399 32.000
23.56393 39.000
23.58388 28.000
23.60383 34.000
23.62377 36.000
23.64372 47.000
23.66367 37.000
23.68362 35.000
23.70356 37.000
23.72351 45.000
23.74346 38.000
23.76340 30.000
23.78335 44.000
23.80330 30.000
23.82324 41.000
23.84319 47.000
23.86314 34.000
23.88309 33.000
23.90303 43.000
23.92298 38.000
23.94293 37.000
23.96287 54.000
23.98282 45.000
24.00277 38.000
24.02271 33.000
24.04266 29.000
24.06261 34.000
24.08256 38.000
24.10250 36.000
24.12245 23.000
24.14240 41.000
24.16234 38.000
24.18229 24.000
24.20224 46.000
24.22218 42.000
24.24213 28.000
24.26208 38.000
24.28202 38.000
24.30197 23.000
24.32192 37.000
24.34187 37.000
24.36181 28.000
24.38176 38.000
24.40171 27.000
24.42165 36.000
24.44160 45.000
24.46155 34.000
24.48149 37.000
24.50144 46.000
24.52139 30.000
24.54134 39.000
24.56128 31.000
24.58123 36.000
24.60118 33.000
24.62112 35.000
24.64107 41.000
24.66102 39.000
24.68096 44.000
24.70091 47.000
24.72086 41.000
24.74080 41.000
24.76075 41.000
24.78070 47.000
24.80065 48.000
24.82059 39.000
24.84054 37.000
24.86049 52.000
24.88043 51.000
24.90038 53.000
24.92033 44.000
24.94027 43.000
24.96022 50.000
24.98017 52.000
25.00012 49.000
25.02006 55.000
25.04001 38.000
25.05996 39.000
25.07990 37.000
25.09985 68.000
25.11980 62.000
25.13974 72.000
25.15969 44.000
25.17964 75.000
25.19958 74.000
25.21953 77.000
25.23948 90.000
25.25943 72.000
25.27937 73.000
25.29932 88.000
25.31927 77.000
25.33921 77.000
25.35916 72.000
25.37911 77.000
25.39905 80.000
25.41900 63.000
25.43895 60.000
25.45890 52.000
25.47884 54.000
25.49879 70.000
25.51874 62.000
25.53868 59.000
25.55863 55.000
25.57858 36.000
25.59852 60.000
25.61847 50.000
25.63842 58.000
25.65837 39.000
25.67831 45.000
25.69826 52.000
25.71821 57.000
25.73815 36.000
25.75810 28.000
25.77805 49.000
25.79799 44.000
25.81794 44.000
25.83789 44.000
25.85783 38.000
25.87778 46.000
25.89773 46.000
25.91768 41.000
25.93762 34.000
25.95757 52.000
25.97752 34.000
25.99746 43.000
26.01741 38.000
26.03736 41.000
26.05730 54.000
26.07725 44.000
26.09720 31.000
26.11715 43.000
26.13709 48.000
26.15704 35.000
26.17699 51.000
26.19693 29.000
26.21688 44.000
26.23683 36.000
26.25677 43.000
26.27672 37.000
26.29667 48.000
26.31661 49.000
26.33656 44.000
26.35651 49.000
26.37646 51.000
26.39640 52.000
26.41635 44.000
26.43630 41.000
26.45624 59.000
26.47619 51.000
26.49614 51.000
26.51608 55.000
26.53603 39.000
26.55598 55.000
26.57593 55.000
26.59587 52.000
26.61582 57.000
26.63577 45.000
26.65571 61.000
26.67566 46.000
26.69561 42.000
26.71555 36.000
26.73550 43.000
26.75545 49.000
26.77539 44.000
26.79534 44.000
26.81529 49.000
26.83524 38.000
26.85518 46.000
26.87513 44.000
26.89508 42.000
26.91502 46.000
26.93497 41.000
26.95492 38.000
26.97486 58.000
26.99481 46.000
27.01476 44.000
27.03471 43.000
27.05465 39.000
27.07460 32.000
27.09455 48.000
27.11449 38.000
27.13444 26.000
27.15439 37.000
27.17433 31.000
27.19428 30.000
27.21423 26.000
27.23417 39.000
27.25412 36.000
27.27407 40.000
27.29402 45.000
27.31396 36.000
27.33391 42.000
27.35386 42.000
27.37380 43.000
27.39375 44.000
27.41370 48.000
27.43364 43.000
27.45359 38.000
27.47354 37.000
27.49349 40.000
27.51343 32.000
27.53338 46.000
27.55333 39.000
27.57327 32.000
27.59322 53.000
27.61317 40.000
27.63311 44.000
27.65306 43.000
27.67301 49.000
27.69296 23.000
27.71290 36.000
27.73285 30.000
27.75280 51.000
27.77274 32.000
27.79269 33.000
27.81264 30.000
27.83258 45.000
27.85253 38.000
27.87248 38.000
27.89242 33.000
27.91237 35.000
27.93232 30.000
27.95227 29.000
27.97221 32.000
27.99216 39.000
28.01211 52.000
28.03205 31.000
28.05200 28.000
28.07195 39.000
28.09189 47.000
28.11184 38.000
28.13179 42.000
28.15174 29.000
28.17168 44.000
28.19163 28.000
28.21158 28.000
28.23152 27.000
28.25147 41.000
28.27142 38.000
28.29136 26.000
28.31131 38.000
28.33126 38.000
28.35120 44.000
28.37115 41.000
28.39110 27.000
28.41105 27.000
28.43099 42.000
28.45094 44.000
28.47089 34.000
28.49083 40.000
28.51078 31.000
28.53073 39.000
28.55067 42.000
28.57062 54.000
28.59057 44.000
28.61052 42.000
28.63046 41.000
28.65041 48.000
28.67036 51.000
28.69030 56.000
28.71025 53.000
28.73020 53.000
28.75014 43.000
28.77009 59.000
28.79004 48.000
28.80998 64.000
28.82993 64.000
28.84988 50.000
28.86983 47.000
28.88977 55.000
28.90972 51.000
28.92967 42.000
28.94961 45.000
28.96956 52.000
28.98951 44.000
29.00945 35.000
29.02940 28.000
29.04935 41.000
29.06930 41.000
29.08924 32.000
29.10919 36.000
29.12914 36.000
29.14908 24.000
29.16903 44.000
29.18898 35.000
29.20892 31.000
29.22887 39.000
29.24882 32.000
29.26877 35.000
29.28871 37.000
29.30866 42.000
29.32861 39.000
29.34855 38.000
29.36850 46.000
29.38845 48.000
29.40839 36.000
29.42834 40.000
29.44829 45.000
29.46823 42.000
29.48818 44.000
29.50813 26.000
29.52808 52.000
29.54802 44.000
29.56797 40.000
29.58792 39.000
29.60786 45.000
29.62781 37.000
29.64776 37.000
29.66770 35.000
29.68765 40.000
29.70760 27.000
29.72755 39.000
29.74749 45.000
29.76744 44.000
29.78739 46.000
29.80733 46.000
29.82728 33.000
29.84723 48.000
29.86717 40.000
29.88712 46.000
29.90707 42.000
29.92701 56.000
29.94696 50.000
29.96691 62.000
29.98686 50.000
30.00680 52.000
30.02675 60.000
30.04670 59.000
30.06664 61.000
30.08659 62.000
30.10654 80.000
30.12648 74.000
30.14643 53.000
30.16638 70.000
30.18633 61.000
30.20627 72.000
30.22622 60.000
30.24617 74.000
30.26611 61.000
30.28606 60.000
30.30601 42.000
30.32595 51.000
30.34590 49.000
30.36585 50.000
30.38579 51.000
30.40574 44.000
30.42569 50.000
30.44564 39.000
30.46558 43.000
30.48553 56.000
30.50548 45.000
30.52542 61.000
30.54537 53.000
30.56532 43.000
30.58526 48.000
30.60521 44.000
30.62516 44.000
30.64511 57.000
30.66505 46.000
30.68500 55.000
30.70495 58.000
30.72489 60.000
30.74484 38.000
30.76479 52.000
30.78473 62.000
30.80468 48.000
30.82463 41.000
30.84458 57.000
30.86452 59.000
30.88447 39.000
30.90442 64.000
30.92436 61.000
30.94431 47.000
30.96426 55.000
30.98420 46.000
31.00415 50.000
31.02410 73.000
31.04404 59.000
31.06399 43.000
31.08394 49.000
31.10389 75.000
31.12383 45.000
31.14378 49.000
31.16373 59.000
31.18367 72.000
31.20362 58.000
31.22357 66.000
31.24351 62.000
31.26346 62.000
31.28341 65.000
31.30336 61.000
31.32330 60.000
31.34325 79.000
31.36320 52.000
31.38314 75.000
31.40309 66.000
31.42304 82.000
31.44298 67.000
31.46293 80.000
31.48288 110.000
31.50282 101.000
31.52277 126.000
31.54272 149.000
31.56267 170.000
31.58261 216.000
31.60256 224.000
31.62251 244.000
31.64245 267.000
31.66240 266.000
31.68235 283.000
31.70229 265.000
31.72224 234.000
31.74219 233.000
31.76214 225.000
31.78208 218.000
31.80203 198.000
31.82198 141.000
31.84192 166.000
31.86187 147.000
31.88182 132.000
31.90176 157.000
31.92171 150.000
31.94166 149.000
31.96160 139.000
31.98155 142.000
32.00150 145.000
32.02145 170.000
32.04139 142.000
32.06134 132.000
32.08129 159.000
32.10123 157.000
32.12118 143.000
32.14113 136.000
32.16107 138.000
32.18102 158.000
32.20097 144.000
32.22092 168.000
32.24086 157.000
32.26081 204.000
32.28076 207.000
32.30070 191.000
32.32065 173.000
32.34060 152.000
32.36054 146.000
32.38049 140.000
32.40044 121.000
32.42039 97.000
32.44033 90.000
32.46028 70.000
32.48023 59.000
32.50017 56.000
32.52012 56.000
32.54007 61.000
32.56001 56.000
32.57996 56.000
32.59991 54.000
32.61985 44.000
32.63980 58.000
32.65975 44.000
32.67970 52.000
32.69964 59.000
32.71959 56.000
32.73954 48.000
32.75948 50.000
32.77943 44.000
32.79938 49.000
32.81932 40.000
32.83927 58.000
32.85922 45.000
32.87917 42.000
32.89911 44.000
32.91906 63.000
32.93901 63.000
32.95895 47.000
32.97890 46.000
32.99885 53.000
33.01879 46.000
33.03874 42.000
33.05869 48.000
33.07863 51.000
33.09858 47.000
33.11853 44.000
33.13848 49.000
33.15842 70.000
33.17837 48.000
33.19832 48.000
33.21826 49.000
33.23821 29.000
33.25816 43.000
33.27810 54.000
33.29805 34.000
33.31800 39.000
33.33795 42.000
33.35789 45.000
33.37784 32.000
33.39779 38.000
33.41773 47.000
33.43768 41.000
33.45763 37.000
33.47757 48.000
33.49752 38.000
33.51747 44.000
33.53741 59.000
33.55736 57.000
33.57731 54.000
33.59726 40.000
33.61720 38.000
33.63715 52.000
33.65710 55.000
33.67704 51.000
33.69699 49.000
33.71694 56.000
33.73688 52.000
33.75683 56.000
33.77678 78.000
33.79673 69.000
33.81667 62.000
33.83662 65.000
33.85657 47.000
33.87651 77.000
33.89646 57.000
33.91641 78.000
33.93635 70.000
33.95630 73.000
33.97625 57.000
33.99620 57.000
34.01614 58.000
34.03609 59.000
34.05604 52.000
34.07598 52.000
34.09593 46.000
34.11588 67.000
34.13582 57.000
34.15577 55.000
34.17572 79.000
34.19566 56.000
34.21561 68.000
34.23556 77.000
34.25551 65.000
34.27545 75.000
34.29540 65.000
34.31535 88.000
34.33529 91.000
34.35524 80.000
34.37519 77.000
34.39513 90.000
34.41508 91.000
34.43503 94.000
34.45498 93.000
34.47492 96.000
34.49487 84.000
34.51482 90.000
34.53476 92.000
34.55471 70.000
34.57466 78.000
34.59460 72.000
34.61455 67.000
34.63450 52.000
34.65444 70.000
34.67439 65.000
34.69434 57.000
34.71429 63.000
34.73423 54.000
34.75418 61.000
34.77413 68.000
34.79407 52.000
34.81402 70.000
34.83397 59.000
34.85391 54.000
34.87386 57.000
34.89381 62.000
34.91376 61.000
34.93370 64.000
34.95365 63.000
34.97360 66.000
34.99354 78.000
35.01349 67.000
35.03344 80.000
35.05338 70.000
35.07333 81.000
35.09328 78.000
35.11322 98.000
35.13317 79.000
35.15312 96.000
35.17307 102.000
35.19301 98.000
35.21296 101.000
35.23291 101.000
35.25285 78.000
35.27280 105.000
35.29275 113.000
35.31269 80.000
35.33264 89.000
35.35259 91.000
35.37254 73.000
35.39248 76.000
35.41243 96.000
35.43238 93.000
35.45232 82.000
35.47227 93.000
35.49222 74.000
35.51216 88.000
35.53211 85.000
35.55206 71.000
35.57201 80.000
35.59195 78.000
35.61190 83.000
35.63185 88.000
35.65179 92.000
35.67174 87.000
35.69169 62.000
35.71163 83.000
35.73158 82.000
35.75153 77.000
35.77147 102.000
35.79142 106.000
35.81137 111.000
35.83132 119.000
35.85126 145.000
35.87121 131.000
35.89116 154.000
35.91110 159.000
35.93105 174.000
35.95100 185.000
35.97094 181.000
35.99089 196.000
36.01084 189.000
36.03079 203.000
36.05073 223.000
36.07068 195.000
36.09063 204.000
36.11057 221.000
36.13052 205.000
36.15047 195.000
36.17041 171.000
36.19036 174.000
36.21031 168.000
36.23025 154.000
36.25020 167.000
36.27015 209.000
36.29010 196.000
36.31004 198.000
36.32999 192.000
36.34994 221.000
36.36988 216.000
36.38983 238.000
36.40978 241.000
36.42972 211.000
36.44967 212.000
36.46962 231.000
36.48957 216.000
36.50951 183.000
36.52946 173.000
36.54941 164.000
36.56935 148.000
36.58930 139.000
36.60925 135.000
36.62919 130.000
36.64914 119.000
36.66909 142.000
36.68903 104.000
36.70898 79.000
36.72893 90.000
36.74888 85.000
36.76882 92.000
36.78877 84.000
36.80872 81.000
36.82866 103.000
36.84861 71.000
36.86856 99.000
36.88850 92.000
36.90845 84.000
36.92840 96.000
36.94835 88.000
36.96829 78.000
36.98824 93.000
37.00819 102.000
37.02813 83.000
37.04808 93.000
37.06803 99.000
37.08797 72.000
37.10792 96.000
37.12787 88.000
37.14781 82.000
37.16776 86.000
37.18771 93.000
37.20766 84.000
37.22760 69.000
37.24755 83.000
37.26750 101.000
37.28744 77.000
37.30739 81.000
37.32734 109.000
37.34728 99.000
37.36723 79.000
37.38718 98.000
37.40713 104.000
37.42707 112.000
37.44702 100.000
37.46697 98.000
37.48691 130.000
37.50686 104.000
37.52681 144.000
37.54675 139.000
37.56670 145.000
37.58665 130.000
37.60660 127.000
37.62654 138.000
37.64649 103.000
37.66644 116.000
37.68638 115.000
37.70633 115.000
37.72628 106.000
37.74622 84.000
37.76617 91.000
37.78612 124.000
37.80606 104.000
37.82601 81.000
37.84596 116.000
37.86591 119.000
37.88585 129.000
37.90580 116.000
37.92575 116.000
37.94569 137.000
37.96564 115.000
37.98559 138.000
38.00553 138.000
38.02548 131.000
38.04543 131.000
38.06538 149.000
38.08532 113.000
38.10527 115.000
38.12522 130.000
38.14516 115.000
38.16511 99.000
38.18506 109.000
38.20500 114.000
38.22495 95.000
38.24490 100.000
38.26484 89.000
38.28479 93.000
38.30474 86.000
38.32469 90.000
38.34463 85.000
38.36458 86.000
38.38453 85.000
38.40447 97.000
38.42442 97.000
38.44437 89.000
38.46431 91.000
38.48426 94.000
38.50421 80.000
38.52416 90.000
38.54410 80.000
38.56405 78.000
38.58400 82.000
38.60394 69.000
38.62389 96.000
38.64384 84.000
38.66378 95.000
38.68373 93.000
38.70368 94.000
38.72362 103.000
38.74357 89.000
38.76352 90.000
38.78347 93.000
38.80341 78.000
38.82336 90.000
38.84331 94.000
38.86325 94.000
38.88320 105.000
38.90315 88.000
38.92309 101.000
38.94304 92.000
38.96299 110.000
38.98294 83.000
39.00288 109.000
39.02283 92.000
39.04278 118.000
39.06272 112.000
39.08267 101.000
39.10262 132.000
39.12256 117.000
39.14251 154.000
39.16246 136.000
39.18241 142.000
39.20235 170.000
39.22230 154.000
39.24225 163.000
39.26219 206.000
39.28214 217.000
39.30209 218.000
39.32203 241.000
39.34198 275.000
39.36193 259.000
39.38187 269.000
39.40182 289.000
39.42177 293.000
39.44172 312.000
39.46166 300.000
39.48161 364.000
39.50156 300.000
39.52150 320.000
39.54145 287.000
39.56140 318.000
39.58134 327.000
39.60129 288.000
39.62124 322.000
39.64119 289.000
39.66113 306.000
39.68108 266.000
39.70103 272.000
39.72097 253.000
39.74092 252.000
39.76087 221.000
39.78081 234.000
39.80076 239.000
39.82071 186.000
39.84065 205.000
39.86060 200.000
39.88055 188.000
39.90050 195.000
39.92044 180.000
39.94039 158.000
39.96034 167.000
39.98028 178.000
40.00023 152.000
40.02018 170.000
40.04012 174.000
40.06007 130.000
40.08002 122.000
40.09997 122.000
40.11991 108.000
40.13986 98.000
40.15981 111.000
40.17975 88.000
40.19970 104.000
40.21965 77.000
40.23959 95.000
40.25954 101.000
40.27949 81.000
40.29943 79.000
40.31938 78.000
40.33933 101.000
40.35928 64.000
40.37922 84.000
40.39917 77.000
40.41912 74.000
40.43906 79.000
40.45901 77.000
40.47896 75.000
40.49890 77.000
40.51885 75.000
40.53880 72.000
40.55875 96.000
40.57869 78.000
40.59864 77.000
40.61859 77.000
40.63853 71.000
40.65848 81.000
40.67843 78.000
40.69837 74.000
40.71832 77.000
40.73827 90.000
40.75822 105.000
40.77816 75.000
40.79811 95.000
40.81806 110.000
40.83800 92.000
40.85795 84.000
40.87790 99.000
40.89784 79.000
40.91779 101.000
40.93774 103.000
40.95768 90.000
40.97763 88.000
40.99758 99.000
41.01753 79.000
41.03747 84.000
41.05742 98.000
41.07737 86.000
41.09731 98.000
41.11726 91.000
41.13721 79.000
41.15715 93.000
41.17710 98.000
41.19705 82.000
41.21700 107.000
41.23694 103.000
41.25689 117.000
41.27684 118.000
41.29678 118.000
41.31673 124.000
41.33668 126.000
41.35662 98.000
41.37657 117.000
41.39652 100.000
41.41646 130.000
41.43641 116.000
41.45636 110.000
41.47631 116.000
41.49625 119.000
41.51620 107.000
41.53615 112.000
41.55609 97.000
41.57604 113.000
41.59599 111.000
41.61593 97.000
41.63588 85.000
41.65583 96.000
41.67578 90.000
41.69572 96.000
41.71567 85.000
41.73562 87.000
41.75556 110.000
41.77551 102.000
41.79546 116.000
41.81540 110.000
41.83535 94.000
41.85530 96.000
41.87524 112.000
41.89519 108.000
41.91514 108.000
41.93509 98.000
41.95503 101.000
41.97498 123.000
41.99493 108.000
42.01487 125.000
42.03482 92.000
42.05477 94.000
42.07471 103.000
42.09466 117.000
42.11461 101.000
42.13456 113.000
42.15450 99.000
42.17445 106.000
42.19440 87.000
42.21434 94.000
42.23429 84.000
42.25424 75.000
42.27418 85.000
42.29413 89.000
42.31408 65.000
42.33403 78.000
42.35397 86.000
42.37392 71.000
42.39387 67.000
42.41381 75.000
42.43376 67.000
42.45371 66.000
42.47365 82.000
42.49360 97.000
42.51355 107.000
42.53349 92.000
42.55344 118.000
42.57339 124.000
42.59334 133.000
42.61328 148.000
42.63323 148.000
42.65318 134.000
42.67312 117.000
42.69307 108.000
42.71302 106.000
42.73296 107.000
42.75291 94.000
42.77286 94.000
42.79281 63.000
42.81275 91.000
42.83270 71.000
42.85265 68.000
42.87259 94.000
42.89254 64.000
42.91249 83.000
42.93243 77.000
42.95238 56.000
42.97233 76.000
42.99227 69.000
43.01222 88.000
43.03217 66.000
43.05212 67.000
43.07206 87.000
43.09201 85.000
43.11196 78.000
43.13190 65.000
43.15185 85.000
43.17180 84.000
43.19174 70.000
43.21169 96.000
43.23164 83.000
43.25159 103.000
43.27153 94.000
43.29148 109.000
43.31143 111.000
43.33137 105.000
43.35132 118.000
43.37127 128.000
43.39121 126.000
43.41116 132.000
43.43111 133.000
43.45105 132.000
43.47100 141.000
43.49095 135.000
43.51090 138.000
43.53084 153.000
43.55079 170.000
43.57074 141.000
43.59068 127.000
43.61063 139.000
43.63058 144.000
43.65052 132.000
43.67047 138.000
43.69042 115.000
43.71037 107.000
43.73031 138.000
43.75026 118.000
43.77021 122.000
43.79015 123.000
43.81010 99.000
43.83005 142.000
43.84999 125.000
43.86994 121.000
43.88989 118.000
43.90984 93.000
43.92978 103.000
43.94973 115.000
43.96968 117.000
43.98962 113.000
44.00957 114.000
44.02952 111.000
44.04946 113.000
44.06941 99.000
44.08936 93.000
44.10930 94.000
44.12925 103.000
44.14920 82.000
44.16915 90.000
44.18909 99.000
44.20904 83.000
44.22899 79.000
44.24893 70.000
44.26888 86.000
44.28883 75.000
44.30877 82.000
44.32872 65.000
44.34867 96.000
44.36862 77.000
44.38856 81.000
44.40851 71.000
44.42846 72.000
44.44840 66.000
44.46835 73.000
44.48830 69.000
44.50824 73.000
44.52819 50.000
44.54814 80.000
44.56808 64.000
44.58803 77.000
44.60798 65.000
44.62793 83.000
44.64787 59.000
44.66782 53.000
44.68777 78.000
44.70771 45.000
44.72766 59.000
44.74761 64.000
44.76755 58.000
44.78750 46.000
44.80745 54.000
44.82740 56.000
44.84734 67.000
44.86729 55.000
44.88724 59.000
44.90718 51.000
44.92713 48.000
44.94708 57.000
44.96702 62.000
44.98697 56.000
45.00692 51.000
45.02686 60.000
45.04681 56.000
45.06676 54.000
45.08671 63.000
45.10665 46.000
45.12660 52.000
45.14655 64.000
45.16649 65.000
45.18644 57.000
45.20639 58.000
45.22633 51.000
45.24628 47.000
45.26623 47.000
45.28618 52.000
45.30612 56.000
45.32607 66.000
45.34602 48.000
45.36596 73.000
45.38591 64.000
45.40586 55.000
45.42580 51.000
45.44575 60.000
45.46570 54.000
45.48565 51.000
45.50559 50.000
45.52554 53.000
45.54549 45.000
45.56543 40.000
45.58538 49.000
45.60533 55.000
45.62527 46.000
45.64522 48.000
45.66517 36.000
45.68511 44.000
45.70506 36.000
45.72501 40.000
45.74496 31.000
45.76490 32.000
45.78485 39.000
45.80480 51.000
45.82474 41.000
45.84469 45.000
45.86464 32.000
45.88458 39.000
45.90453 43.000
45.92448 30.000
45.94443 25.000
45.96437 47.000
45.98432 40.000
46.00427 35.000
46.02421 28.000
46.04416 37.000
46.06411 44.000
46.08405 33.000
46.10400 33.000
46.12395 36.000
46.14389 36.000
46.16384 37.000
46.18379 38.000
46.20374 40.000
46.22368 34.000
46.24363 37.000
46.26358 42.000
46.28352 34.000
46.30347 37.000
46.32342 34.000
46.34336 46.000
46.36331 33.000
46.38326 38.000
46.40321 31.000
46.42315 43.000
46.44310 43.000
46.46305 53.000
46.48299 40.000
46.50294 47.000
46.52289 38.000
46.54283 39.000
46.56278 41.000
46.58273 44.000
46.60267 48.000
46.62262 50.000
46.64257 50.000
46.66252 44.000
46.68246 39.000
46.70241 31.000
46.72236 43.000
46.74230 38.000
46.76225 39.000
46.78220 44.000
46.80214 47.000
46.82209 46.000
46.84204 45.000
46.86199 48.000
46.88193 41.000
46.90188 35.000
46.92183 41.000
46.94177 69.000
46.96172 42.000
46.98167 47.000
47.00161 49.000
47.02156 49.000
47.04151 59.000
47.06146 60.000
47.08140 36.000
47.10135 48.000
47.12130 56.000
47.14124 49.000
47.16119 50.000
47.18114 64.000
47.20108 58.000
47.22103 53.000
47.24098 61.000
47.26092 64.000
47.28087 59.000
47.30082 62.000
47.32077 64.000
47.34071 51.000
47.36066 66.000
47.38061 50.000
47.40055 74.000
47.42050 78.000
47.44045 69.000
47.46039 72.000
47.48034 86.000
47.50029 83.000
47.52024 69.000
47.54018 90.000
47.56013 82.000
47.58008 77.000
47.60002 71.000
47.61997 78.000
47.63992 62.000
47.65986 59.000
47.67981 91.000
47.69976 76.000
47.71970 86.000
47.73965 64.000
47.75960 67.000
47.77955 74.000
47.79949 59.000
47.81944 83.000
47.83939 76.000
47.85933 75.000
47.87928 76.000
47.89923 73.000
47.91917 80.000
47.93912 84.000
47.95907 89.000
47.97902 87.000
47.99896 105.000
48.01891 83.000
48.03886 76.000
48.05880 96.000
48.07875 88.000
48.09870 84.000
48.11864 95.000
48.13859 102.000
48.15854 102.000
48.17848 99.000
48.19843 118.000
48.21838 109.000
48.23833 103.000
48.25827 114.000
48.27822 107.000
48.29817 122.000
48.31811 137.000
48.33806 132.000
48.35801 138.000
48.37795 155.000
48.39790 132.000
48.41785 166.000
48.43780 181.000
48.45774 185.000
48.47769 158.000
48.49764 187.000
48.51758 188.000
48.53753 232.000
48.55748 239.000
48.57742 182.000
48.59737 240.000
48.61732 260.000
48.63726 264.000
48.65721 260.000
48.67716 256.000
48.69711 256.000
48.71705 287.000
48.73700 280.000
48.75695 261.000
48.77689 257.000
48.79684 228.000
48.81679 238.000
48.83673 235.000
48.85668 221.000
48.87663 240.000
48.89658 214.000
48.91652 209.000
48.93647 230.000
48.95642 209.000
48.97636 172.000
48.99631 182.000
49.01626 202.000
49.03620 172.000
49.05615 168.000
49.07610 208.000
49.09605 197.000
49.11599 199.000
49.13594 149.000
49.15589 214.000
49.17583 178.000
49.19578 142.000
49.21573 170.000
49.23567 163.000
49.25562 177.000
49.27557 157.000
49.29551 160.000
49.31546 158.000
49.33541 136.000
49.35536 138.000
49.37530 154.000
49.39525 123.000
49.41520 128.000
49.43514 116.000
49.45509 133.000
49.47504 116.000
49.49498 141.000
49.51493 132.000
49.53488 115.000
49.55483 100.000
49.57477 114.000
49.59472 97.000
49.61467 101.000
49.63461 119.000
49.65456 79.000
49.67451 96.000
49.69445 91.000
49.71440 96.000
49.73435 75.000
49.75429 96.000
49.77424 72.000
49.79419 73.000
49.81414 80.000
49.83408 65.000
49.85403 67.000
49.87398 67.000
49.89392 64.000
49.91387 64.000
49.93382 69.000
49.95376 60.000
49.97371 69.000
49.99366 54.000
50.01361 63.000
50.03355 57.000
50.05350 47.000
50.07345 56.000
50.09339 55.000
50.11334 50.000
50.13329 50.000
50.15323 59.000
50.17318 65.000
50.19313 50.000
50.21307 63.000
50.23302 61.000
50.25297 55.000
50.27292 55.000
50.29286 57.000
50.31281 53.000
50.33276 56.000
50.35270 58.000
50.37265 54.000
50.39260 52.000
50.41254 63.000
50.43249 48.000
50.45244 57.000
50.47239 58.000
50.49233 68.000
50.51228 64.000
50.53223 59.000
50.55217 51.000
50.57212 64.000
50.59207 63.000
50.61201 58.000
50.63196 45.000
50.65191 48.000
50.67186 54.000
50.69180 58.000
50.71175 50.000
50.73170 60.000
50.75164 58.000
50.77159 58.000
50.79154 55.000
50.81148 44.000
50.83143 44.000
50.85138 45.000
50.87132 59.000
50.89127 61.000
50.91122 49.000
50.93117 44.000
50.95111 49.000
50.97106 47.000
50.99101 54.000
51.01095 49.000
51.03090 44.000
51.05085 40.000
51.07079 43.000
51.09074 40.000
51.11069 55.000
51.13064 53.000
51.15058 52.000
51.17053 41.000
51.19048 31.000
51.21042 41.000
51.23037 47.000
51.25032 48.000
51.27026 51.000
51.29021 36.000
51.31016 41.000
51.33010 45.000
51.35005 42.000
51.37000 36.000
51.38995 51.000
51.40989 42.000
51.42984 38.000
51.44979 40.000
51.46973 46.000
51.48968 42.000
51.50963 43.000
51.52957 45.000
51.54952 39.000
51.56947 39.000
51.58942 40.000
51.60936 50.000
51.62931 47.000
51.64926 54.000
51.66920 38.000
51.68915 36.000
51.70910 37.000
51.72904 50.000
51.74899 29.000
51.76894 46.000
51.78888 35.000
51.80883 41.000
51.82878 49.000
51.84873 44.000
51.86867 49.000
51.88862 41.000
51.90857 41.000
51.92851 45.000
51.94846 33.000
51.96841 45.000
51.98835 40.000
52.00830 51.000
52.02825 38.000
52.04820 47.000
52.06814 53.000
52.08809 42.000
52.10804 46.000
52.12798 44.000
52.14793 41.000
52.16788 40.000
52.18782 50.000
52.20777 52.000
52.22772 50.000
52.24767 45.000
52.26761 46.000
52.28756 33.000
52.30751 30.000
52.32745 37.000
52.34740 53.000
52.36735 55.000
52.38729 42.000
52.40724 35.000
52.42719 61.000
52.44713 43.000
52.46708 42.000
52.48703 41.000
52.50698 53.000
52.52692 72.000
52.54687 55.000
52.56682 39.000
52.58676 67.000
52.60671 59.000
52.62666 40.000
52.64660 44.000
52.66655 47.000
52.68650 46.000
52.70645 53.000
52.72639 48.000
52.74634 57.000
52.76629 49.000
52.78623 48.000
52.80618 50.000
52.82613 57.000
52.84607 38.000
52.86602 46.000
52.88597 46.000
52.90591 45.000
52.92586 42.000
52.94581 40.000
52.96576 41.000
52.98570 32.000
53.00565 41.000
53.02560 39.000
53.04554 36.000
53.06549 34.000
53.08544 41.000
53.10538 47.000
53.12533 35.000
53.14528 45.000
53.16523 26.000
53.18517 41.000
53.20512 36.000
53.22507 32.000
53.24501 38.000
53.26496 43.000
53.28491 29.000
53.30485 39.000
53.32480 40.000
53.34475 40.000
53.36469 35.000
53.38464 44.000
53.40459 43.000
53.42454 36.000
53.44448 50.000
53.46443 43.000
53.48438 38.000
53.50432 39.000
53.52427 31.000
53.54422 34.000
53.56416 37.000
53.58411 43.000
53.60406 49.000
53.62401 29.000
53.64395 25.000
53.66390 29.000
53.68385 27.000
53.70379 50.000
53.72374 43.000
53.74369 33.000
53.76363 35.000
53.78358 35.000
53.80353 34.000
53.82348 35.000
53.84342 30.000
53.86337 39.000
53.88332 30.000
53.90326 47.000
53.92321 37.000
53.94316 46.000
53.96310 36.000
53.98305 38.000
54.00300 31.000
54.02294 45.000
54.04289 33.000
54.06284 33.000
54.08279 35.000
54.10273 32.000
54.12268 39.000
54.14263 33.000
54.16257 36.000
54.18252 28.000
54.20247 34.000
54.22241 37.000
54.24236 27.000
54.26231 33.000
54.28226 28.000
54.30220 40.000
54.32215 51.000
54.34210 24.000
54.36204 25.000
54.38199 34.000
54.40194 17.000
54.42188 28.000
54.44183 37.000
54.46178 39.000
54.48172 30.000
54.50167 37.000
54.52162 31.000
54.54157 34.000
54.56151 27.000
54.58146 23.000
54.60141 40.000
54.62135 36.000
54.64130 39.000
54.66125 41.000
54.68119 33.000
54.70114 29.000
54.72109 32.000
54.74104 24.000
54.76098 37.000
54.78093 32.000
54.80088 33.000
54.82082 41.000
54.84077 33.000
54.86072 29.000
54.88066 31.000
54.90061 39.000
54.92056 32.000
54.94050 31.000
54.96045 37.000
54.98040 33.000
55.00035 31.000
55.02029 36.000
55.04024 34.000
55.06019 35.000
55.08013 28.000
55.10008 23.000
55.12003 42.000
55.13997 39.000
55.15992 30.000
55.17987 31.000
55.19982 34.000
55.21976 41.000
55.23971 41.000
55.25966 37.000
55.27960 44.000
55.29955 33.000
55.31950 33.000
55.33944 35.000
55.35939 36.000
55.37934 39.000
55.39929 36.000
55.41923 36.000
55.43918 35.000
55.45913 37.000
55.47907 33.000
55.49902 32.000
55.51897 42.000
55.53891 28.000
55.55886 46.000
55.57881 28.000
55.59875 36.000
55.61870 39.000
55.63865 32.000
55.65860 38.000
55.67854 27.000
55.69849 35.000
55.71844 40.000
55.73838 28.000
55.75833 26.000
55.77828 24.000
55.79822 32.000
55.81817 30.000
55.83812 34.000
55.85807 40.000
55.87801 28.000
55.89796 27.000
55.91791 29.000
55.93785 41.000
55.95780 36.000
55.97775 28.000
55.99769 33.000
56.01764 14.000
56.03759 24.000
56.05753 19.000
56.07748 34.000
56.09743 34.000
56.11738 35.000
56.13732 29.000
56.15727 32.000
56.17722 24.000
56.19716 34.000
56.21711 31.000
56.23706 30.000
56.25700 28.000
56.27695 36.000
56.29690 25.000
56.31685 25.000
56.33679 33.000
56.35674 17.000
56.37669 36.000
56.39663 27.000
56.41658 37.000
56.43653 23.000
56.45647 34.000
56.47642 36.000
56.49637 34.000
56.51631 30.000
56.53626 32.000
56.55621 25.000
56.57616 32.000
56.59610 32.000
56.61605 34.000
56.63600 39.000
56.65594 23.000
56.67589 36.000
56.69584 24.000
56.71578 30.000
56.73573 31.000
56.75568 41.000
56.77563 31.000
56.79557 22.000
56.81552 22.000
56.83547 47.000
56.85541 35.000
56.87536 30.000
56.89531 29.000
56.91525 25.000
56.93520 45.000
56.95515 28.000
56.97510 28.000
56.99504 33.000
57.01499 49.000
57.03494 28.000
57.05488 27.000
57.07483 41.000
57.09478 35.000
57.11472 49.000
57.13467 49.000
57.15462 35.000
57.17456 38.000
57.19451 35.000
57.21446 33.000
57.23441 30.000
57.25435 41.000
57.27430 36.000
57.29425 41.000
57.31419 48.000
57.33414 36.000
57.35409 39.000
57.37403 30.000
57.39398 37.000
57.41393 45.000
57.43388 39.000
57.45382 38.000
57.47377 44.000
57.49372 45.000
57.51366 54.000
57.53361 42.000
57.55356 55.000
57.57350 49.000
57.59345 55.000
57.61340 40.000
57.63334 51.000
57.65329 35.000
57.67324 36.000
57.69319 42.000
57.71313 41.000
57.73308 48.000
57.75303 55.000
57.77297 43.000
57.79292 70.000
57.81287 45.000
57.83281 54.000
57.85276 47.000
57.87271 48.000
57.89266 44.000
57.91260 40.000
57.93255 52.000
57.95250 59.000
57.97244 54.000
57.99239 61.000
58.01234 72.000
58.03228 56.000
58.05223 64.000
58.07218 67.000
58.09212 47.000
58.11207 64.000
58.13202 57.000
58.15197 28.000
58.17191 70.000
58.19186 62.000
58.21181 46.000
58.23175 58.000
58.25170 48.000
58.27165 49.000
58.29159 42.000
58.31154 53.000
58.33149 34.000
58.35144 40.000
58.37138 35.000
58.39133 47.000
58.41128 35.000
58.43122 45.000
58.45117 25.000
58.47112 30.000
58.49106 27.000
58.51101 37.000
58.53096 33.000
58.55090 32.000
58.57085 34.000
58.59080 25.000
58.61075 36.000
58.63069 36.000
58.65064 36.000
58.67059 20.000
58.69053 35.000
58.71048 34.000
58.73043 25.000
58.75037 33.000
58.77032 27.000
58.79027 22.000
58.81022 29.000
58.83016 29.000
58.85011 23.000
58.87006 29.000
58.89000 28.000
58.90995 36.000
58.92990 32.000
58.94984 32.000
58.96979 20.000
58.98974 42.000
59.00969 34.000
59.02963 27.000
59.04958 41.000
59.06953 28.000
59.08947 31.000
59.10942 40.000
59.12937 37.000
59.14931 34.000
59.16926 29.000
59.18921 36.000
59.20915 35.000
59.22910 29.000
59.24905 31.000
59.26900 27.000
59.28894 26.000
59.30889 33.000
59.32884 29.000
59.34878 34.000
59.36873 26.000
59.38868 32.000
59.40862 30.000
59.42857 34.000
59.44852 26.000
59.46847 28.000
59.48841 31.000
59.50836 30.000
59.52831 28.000
59.54825 24.000
59.56820 40.000
59.58815 37.000
59.60809 28.000
59.62804 35.000
59.64799 24.000
59.66793 34.000
59.68788 29.000
59.70783 35.000
59.72778 34.000
59.74772 27.000
59.76767 40.000
59.78762 33.000
59.80756 28.000
59.82751 37.000
59.84746 35.000
59.86740 34.000
59.88735 23.000
59.90730 32.000
59.92725 35.000
59.94719 37.000
59.96714 45.000
59.98709 40.000
60.00703 40.000
60.02698 53.000
60.04693 43.000
60.06687 36.000
60.08682 35.000
60.10677 28.000
60.12671 37.000
60.14666 37.000
60.16661 44.000
60.18656 32.000
60.20650 37.000
60.22645 38.000
60.24640 36.000
60.26634 29.000
60.28629 36.000
60.30624 41.000
60.32618 31.000
60.34613 36.000
60.36608 41.000
60.38603 43.000
60.40597 44.000
60.42592 42.000
60.44587 37.000
60.46581 63.000
60.48576 54.000
60.50571 39.000
60.52565 52.000
60.54560 31.000
60.56555 58.000
60.58550 55.000
60.60544 59.000
60.62539 53.000
60.64534 61.000
60.66528 56.000
60.68523 49.000
60.70518 44.000
60.72512 49.000
60.74507 56.000
60.76502 46.000
60.78496 45.000
60.80491 42.000
60.82486 59.000
60.84481 50.000
60.86475 40.000
60.88470 68.000
60.90465 64.000
60.92459 55.000
60.94454 50.000
60.96449 63.000
60.98443 64.000
61.00438 57.000
61.02433 70.000
61.04428 46.000
61.06422 61.000
61.08417 56.000
61.10412 62.000
61.12406 54.000
61.14401 72.000
61.16396 60.000
61.18390 61.000
61.20385 54.000
61.22380 65.000
61.24374 62.000
61.26369 58.000
61.28364 80.000
61.30359 75.000
61.32353 74.000
61.34348 74.000
61.36343 94.000
61.38337 95.000
61.40332 85.000
61.42327 100.000
61.44321 83.000
61.46316 85.000
61.48311 84.000
61.50306 107.000
61.52300 98.000
61.54295 102.000
61.56290 117.000
61.58284 113.000
61.60279 121.000
61.62274 130.000
61.64268 117.000
61.66263 131.000
61.68258 110.000
61.70252 134.000
61.72247 129.000
61.74242 133.000
61.76237 129.000
61.78231 116.000
61.80226 129.000
61.82221 129.000
61.84215 121.000
61.86210 121.000
61.88205 89.000
61.90199 126.000
61.92194 112.000
61.94189 114.000
61.96184 104.000
61.98178 89.000
62.00173 106.000
62.02168 113.000
62.04162 115.000
62.06157 93.000
62.08152 78.000
62.10146 102.000
62.12141 94.000
62.14136 110.000
62.16131 89.000
62.18125 65.000
62.20120 100.000
62.22115 87.000
62.24109 99.000
62.26104 92.000
62.28099 97.000
62.30093 89.000
62.32088 108.000
62.34083 93.000
62.36077 130.000
62.38072 107.000
62.40067 89.000
62.42062 115.000
62.44056 97.000
62.46051 126.000
62.48046 113.000
62.50040 106.000
62.52035 93.000
62.54030 117.000
62.56024 103.000
62.58019 106.000
62.60014 124.000
62.62009 85.000
62.64003 99.000
62.65998 122.000
62.67993 95.000
62.69987 92.000
62.71982 119.000
62.73977 104.000
62.75971 105.000
62.77966 98.000
62.79961 100.000
62.81955 105.000
62.83950 102.000
62.85945 78.000
62.87940 86.000
62.89934 97.000
62.91929 94.000
62.93924 94.000
62.95918 85.000
62.97913 83.000
62.99908 96.000
63.01902 75.000
63.03897 100.000
63.05892 71.000
63.07887 69.000
63.09881 57.000
63.11876 75.000
63.13871 64.000
63.15865 69.000
63.17860 65.000
63.19855 74.000
63.21849 69.000
63.23844 57.000
63.25839 55.000
63.27833 58.000
63.29828 69.000
63.31823 48.000
63.33818 76.000
63.35812 54.000
63.37807 58.000
63.39802 61.000
63.41796 56.000
63.43791 52.000
63.45786 57.000
63.47780 52.000
63.49775 65.000
63.51770 51.000
63.53765 49.000
63.55759 59.000
63.57754 53.000
63.59749 48.000
63.61743 54.000
63.63738 66.000
63.65733 41.000
63.67727 52.000
63.69722 50.000
63.71717 62.000
63.73712 42.000
63.75706 64.000
63.77701 48.000
63.79696 59.000
63.81690 71.000
63.83685 63.000
63.85680 53.000
63.87674 61.000
63.89669 55.000
63.91664 61.000
63.93658 53.000
63.95653 51.000
63.97648 45.000
63.99643 64.000
64.01637 64.000
64.03632 57.000
64.05627 57.000
64.07621 63.000
64.09616 74.000
64.11611 59.000
64.13605 61.000
64.15600 62.000
64.17595 76.000
64.19590 71.000
64.21584 77.000
64.23579 82.000
64.25574 84.000
64.27568 65.000
64.29563 66.000
64.31558 88.000
64.33552 77.000
64.35547 70.000
64.37542 77.000
64.39536 66.000
64.41531 70.000
64.43526 88.000
64.45521 65.000
64.47515 64.000
64.49510 82.000
64.51505 75.000
64.53499 77.000
64.55494 74.000
64.57489 70.000
64.59483 84.000
64.61478 78.000
64.63473 72.000
64.65468 81.000
64.67462 69.000
64.69457 73.000
64.71452 86.000
64.73446 77.000
64.75441 76.000
64.77436 62.000
64.79430 74.000
64.81425 84.000
64.83420 79.000
64.85414 83.000
64.87409 89.000
64.89404 91.000
64.91399 101.000
64.93393 92.000
64.95388 105.000
64.97383 97.000
64.99377 81.000
65.01372 93.000
65.03367 87.000
65.05361 98.000
65.07356 115.000
65.09351 113.000
65.11346 84.000
65.13340 117.000
65.15335 122.000
65.17330 127.000
65.19324 104.000
65.21319 118.000
65.23314 111.000
65.25308 118.000
65.27303 118.000
65.29298 131.000
65.31293 125.000
65.33287 118.000
65.35282 126.000
65.37277 128.000
65.39271 135.000
65.41266 155.000
65.43261 130.000
65.45255 165.000
65.47250 158.000
65.49245 179.000
65.51239 166.000
65.53234 153.000
65.55229 157.000
65.57224 134.000
65.59218 157.000
65.61213 159.000
65.63208 140.000
65.65202 151.000
65.67197 168.000
65.69192 157.000
65.71186 136.000
65.73181 142.000
65.75176 149.000
65.77171 134.000
65.79165 143.000
65.81160 140.000
65.83155 112.000
65.85149 112.000
65.87144 125.000
65.89139 106.000
65.91133 107.000
65.93128 105.000
65.95123 101.000
65.97117 109.000
65.99112 106.000
66.01107 108.000
66.03102 92.000
66.05096 82.000
66.07091 97.000
66.09086 99.000
66.11080 78.000
66.13075 92.000
66.15070 72.000
66.17064 82.000
66.19059 91.000
66.21054 81.000
66.23049 74.000
66.25043 82.000
66.27038 64.000
66.29033 68.000
66.31027 84.000
66.33022 71.000
66.35017 68.000
66.37011 60.000
66.39006 64.000
66.41001 66.000
66.42995 76.000
66.44990 69.000
66.46985 73.000
66.48980 82.000
66.50974 73.000
66.52969 59.000
66.54964 71.000
66.56958 80.000
66.58953 68.000
66.60948 80.000
66.62942 57.000
66.64937 66.000
66.66932 68.000
66.68927 53.000
66.70921 40.000
66.72916 70.000
66.74911 81.000
66.76905 46.000
66.78900 71.000
66.80895 65.000
66.82889 68.000
66.84884 85.000
66.86879 69.000
66.88874 65.000
66.90868 56.000
66.92863 65.000
66.94858 83.000
66.96852 71.000
66.98847 73.000
67.00842 69.000
67.02836 79.000
67.04831 57.000
67.06826 69.000
67.08820 69.000
67.10815 74.000
67.12810 69.000
67.14805 65.000
67.16799 78.000
67.18794 89.000
67.20789 78.000
67.22783 78.000
67.24778 82.000
67.26773 96.000
67.28767 85.000
67.30762 78.000
67.32757 82.000
67.34752 64.000
67.36746 69.000
67.38741 81.000
67.40736 82.000
67.42730 86.000
67.44725 78.000
67.46720 68.000
67.48714 87.000
67.50709 76.000
67.52704 78.000
67.54698 95.000
67.56693 82.000
67.58688 78.000
67.60683 52.000
67.62677 84.000
67.64672 75.000
67.66667 58.000
67.68661 72.000
67.70656 70.000
67.72651 50.000
67.74645 61.000
67.76640 81.000
67.78635 62.000
67.80630 59.000
67.82624 57.000
67.84619 58.000
67.86614 60.000
67.88608 47.000
67.90603 63.000
67.92598 74.000
67.94592 61.000
67.96587 54.000
67.98582 83.000
68.00576 64.000
68.02571 57.000
68.04566 49.000
68.06561 77.000
68.08555 79.000
68.10550 56.000
68.12545 62.000
68.14539 51.000
68.16534 49.000
68.18529 53.000
68.20523 63.000
68.22518 59.000
68.24513 45.000
68.26508 43.000
68.28502 51.000
68.30497 58.000
68.32492 53.000
68.34486 37.000
68.36481 39.000
68.38476 42.000
68.40470 55.000
68.42465 36.000
68.44460 46.000
68.46455 30.000
68.48449 38.000
68.50444 27.000
68.52439 40.000
68.54433 39.000
68.56428 34.000
68.58423 45.000
68.60417 36.000
68.62412 31.000
68.64407 34.000
68.66401 33.000
68.68396 38.000
68.70391 35.000
68.72386 34.000
68.74380 39.000
68.76375 29.000
68.78370 28.000
68.80364 18.000
68.82359 27.000
68.84354 24.000
68.86348 35.000
68.88343 35.000
68.90338 33.000
68.92333 30.000
68.94327 23.000
68.96322 36.000
68.98317 27.000
69.00311 27.000
69.02306 33.000
69.04301 24.000
69.06295 22.000
69.08290 31.000
69.10285 30.000
69.12279 27.000
69.14274 25.000
69.16269 38.000
69.18264 27.000
69.20258 33.000
69.22253 20.000
69.24248 30.000
69.26242 28.000
69.28237 33.000
69.30232 32.000
69.32226 31.000
69.34221 30.000
69.36216 27.000
69.38211 27.000
69.40205 22.000
69.42200 28.000
69.44195 19.000
69.46189 30.000
69.48184 28.000
69.50179 31.000
69.52173 24.000
69.54168 19.000
69.56163 29.000
69.58157 20.000
69.60152 22.000
69.62147 17.000
69.64142 24.000
69.66136 30.000
69.68131 30.000
69.70126 39.000
69.72120 22.000
69.74115 23.000
69.76110 28.000
69.78104 20.000
69.80099 17.000
69.82094 33.000
69.84089 29.000
69.86083 26.000
69.88078 16.000
69.90073 22.000
69.92067 23.000
69.94062 22.000
69.96057 27.000
69.98051 28.000
70.00046 21.000
70.02041 22.000
70.04035 21.000
70.06030 23.000
70.08025 26.000
70.10020 29.000
70.12014 24.000
70.14009 26.000
70.16004 23.000
70.17998 21.000
70.19993 27.000
70.21988 28.000
70.23982 27.000
70.25977 30.000
70.27972 22.000
70.29967 18.000
70.31961 24.000
70.33956 23.000
70.35951 29.000
70.37945 30.000
70.39940 31.000
70.41935 20.000
70.43929 21.000
70.45924 26.000
70.47919 19.000
70.49914 37.000
70.51908 21.000
70.53903 27.000
70.55898 22.000
70.57892 22.000
70.59887 31.000
70.61882 30.000
70.63876 30.000
70.65871 28.000
70.67866 33.000
70.69860 28.000
70.71855 42.000
70.73850 22.000
70.75845 31.000
70.77839 34.000
70.79834 30.000
70.81829 31.000
70.83823 34.000
70.85818 31.000
70.87813 30.000
70.89807 36.000
70.91802 24.000
70.93797 27.000
70.95792 29.000
70.97786 27.000
70.99781 27.000
71.01776 36.000
71.03770 34.000
71.05765 33.000
71.07760 30.000
71.09754 27.000
71.11749 29.000
71.13744 40.000
71.15738 39.000
71.17733 24.000
71.19728 32.000
71.21723 32.000
71.23717 35.000
71.25712 21.000
71.27707 21.000
71.29701 27.000
71.31696 20.000
71.33691 23.000
71.35685 28.000
71.37680 32.000
71.39675 32.000
71.41670 28.000
71.43664 36.000
71.45659 27.000
71.47654 29.000
71.49648 37.000
71.51643 31.000
71.53638 21.000
71.55632 40.000
71.57627 35.000
71.59622 25.000
71.61616 24.000
71.63611 31.000
71.65606 29.000
71.67601 26.000
71.69595 29.000
71.71590 32.000
71.73585 26.000
71.75579 30.000
71.77574 26.000
71.79569 34.000
71.81563 24.000
71.83558 32.000
71.85553 33.000
71.87548 30.000
71.89542 35.000
71.91537 39.000
71.93532 31.000
71.95526 46.000
71.97521 32.000
71.99516 28.000
72.01510 38.000
72.03505 31.000
72.05500 28.000
72.07495 45.000
72.09489 36.000
72.11484 50.000
72.13479 45.000
72.15473 37.000
72.17468 26.000
72.19463 30.000
72.21457 27.000
72.23452 30.000
72.25447 38.000
72.27441 28.000
72.29436 32.000
72.31431 35.000
72.33426 27.000
72.35420 27.000
72.37415 36.000
72.39410 41.000
72.41404 24.000
72.43399 31.000
72.45394 21.000
72.47388 30.000
72.49383 32.000
72.51378 21.000
72.53373 30.000
72.55367 40.000
72.57362 29.000
72.59357 21.000
72.61351 35.000
72.63346 25.000
72.65341 31.000
72.67335 28.000
72.69330 34.000
72.71325 37.000
72.73319 27.000
72.75314 34.000
72.77309 30.000
72.79304 25.000
72.81298 30.000
72.83293 28.000
72.85288 17.000
72.87282 31.000
72.89277 37.000
72.91272 31.000
72.93266 31.000
72.95261 33.000
72.97256 31.000
72.99251 18.000
73.01245 29.000
73.03240 33.000
73.05235 29.000
73.07229 24.000
73.09224 27.000
73.11219 28.000
73.13213 26.000
73.15208 28.000
73.17203 23.000
73.19197 30.000
73.21192 37.000
73.23187 39.000
73.25182 31.000
73.27176 26.000
73.29171 28.000
73.31166 28.000
73.33160 34.000
73.35155 27.000
73.37150 33.000
73.39144 29.000
73.41139 23.000
73.43134 37.000
73.45129 28.000
73.47123 36.000
73.49118 37.000
73.51113 37.000
73.53107 33.000
73.55102 35.000
73.57097 27.000
73.59091 27.000
73.61086 34.000
73.63081 30.000
73.65076 35.000
73.67070 30.000
73.69065 22.000
73.71060 31.000
73.73054 40.000
73.75049 20.000
73.77044 26.000
73.79038 38.000
73.81033 29.000
73.83028 38.000
73.85022 32.000
73.87017 25.000
73.89012 30.000
73.91007 28.000
73.93001 36.000
73.94996 32.000
73.96991 23.000
73.98985 32.000
74.00980 23.000
74.02975 22.000
74.04969 30.000
74.06964 27.000
74.08959 31.000
74.10954 42.000
74.12948 39.000
74.14943 34.000
74.16938 24.000
74.18932 32.000
74.20927 26.000
74.22922 33.000
74.24916 22.000
74.26911 38.000
74.28906 28.000
74.30900 33.000
74.32895 35.000
74.34890 45.000
74.36885 36.000
74.38879 21.000
74.40874 30.000
74.42869 38.000
74.44863 36.000
74.46858 45.000
74.48853 31.000
74.50847 34.000
74.52842 44.000
74.54837 43.000
74.56832 35.000
74.58826 38.000
74.60821 33.000
74.62816 33.000
74.64810 41.000
74.66805 41.000
74.68800 45.000
74.70794 48.000
74.72789 45.000
74.74784 33.000
74.76778 39.000
74.78773 34.000
74.80768 38.000
74.82763 36.000
74.84757 46.000
74.86752 35.000
74.88747 26.000
74.90741 33.000
74.92736 43.000
74.94731 40.000
74.96725 36.000
74.98720 30.000
75.00715 31.000
75.02710 34.000
75.04704 38.000
75.06699 43.000
75.08694 27.000
75.10688 32.000
75.12683 46.000
75.14678 24.000
75.16672 32.000
75.18667 41.000
75.20662 31.000
75.22657 27.000
75.24651 33.000
75.26646 30.000
75.28641 22.000
75.30635 20.000
75.32630 34.000
75.34625 30.000
75.36619 24.000
75.38614 26.000
75.40609 28.000
75.42603 24.000
75.44598 19.000
75.46593 35.000
75.48588 31.000
75.50582 24.000
75.52577 23.000
75.54572 23.000
75.56566 36.000
75.58561 30.000
75.60556 22.000
75.62550 26.000
75.64545 31.000
75.66540 21.000
75.68535 29.000
75.70529 28.000
75.72524 38.000
75.74519 27.000
75.76513 24.000
75.78508 34.000
75.80503 40.000
75.82497 20.000
75.84492 23.000
75.86487 45.000
75.88481 19.000
75.90476 26.000
75.92471 34.000
75.94466 30.000
75.96460 34.000
75.98455 36.000
76.00450 40.000
76.02444 39.000
76.04439 33.000
76.06434 29.000
76.08428 32.000
76.10423 32.000
76.12418 27.000
76.14413 43.000
76.16407 22.000
76.18402 43.000
76.20397 29.000
76.22391 40.000
76.24386 41.000
76.26381 46.000
76.28375 36.000
76.30370 41.000
76.32365 36.000
76.34359 41.000
76.36354 43.000
76.38349 47.000
76.40344 39.000
76.42338 33.000
76.44333 33.000
76.46328 44.000
76.48322 44.000
76.50317 32.000
76.52312 50.000
76.54306 41.000
76.56301 31.000
76.58296 29.000
76.60291 43.000
76.62285 45.000
76.64280 40.000
76.66275 34.000
76.68269 28.000
76.70264 45.000
76.72259 28.000
76.74253 36.000
76.76248 50.000
76.78243 44.000
76.80238 52.000
76.82232 33.000
76.84227 43.000
76.86222 37.000
76.88216 31.000
76.90211 33.000
76.92206 43.000
76.94200 48.000
76.96195 39.000
76.98190 45.000
77.00184 44.000
77.02179 35.000
77.04174 45.000
77.06169 51.000
77.08163 39.000
77.10158 46.000
77.12153 45.000
77.14147 33.000
77.16142 42.000
77.18137 37.000
77.20131 51.000
77.22126 55.000
77.24121 62.000
77.26116 41.000
77.28110 53.000
77.30105 58.000
77.32100 39.000
77.34094 45.000
77.36089 47.000
77.38084 57.000
77.40078 45.000
77.42073 59.000
77.44068 49.000
77.46062 56.000
77.48057 48.000
77.50052 56.000
77.52047 51.000
77.54041 55.000
77.56036 62.000
77.58031 57.000
77.60025 50.000
77.62020 47.000
77.64015 57.000
77.66009 57.000
77.68004 53.000
77.69999 60.000
77.71994 61.000
77.73988 54.000
77.75983 66.000
77.77978 54.000
77.79972 61.000
77.81967 50.000
77.83962 67.000
77.85956 58.000
77.87951 46.000
77.89946 52.000
77.91940 47.000
77.93935 42.000
77.95930 39.000
77.97925 51.000
77.99919 39.000
78.01914 55.000
78.03909 49.000
78.05903 43.000
78.07898 32.000
78.09893 46.000
78.11887 39.000
78.13882 40.000
78.15877 37.000
78.17872 46.000
78.19866 50.000
78.21861 41.000
78.23856 50.000
78.25850 35.000
78.27845 37.000
78.29840 44.000
78.31834 43.000
78.33829 53.000
78.35824 40.000
78.37819 52.000
78.39813 40.000
78.41808 56.000
78.43803 45.000
78.45797 46.000
78.47792 41.000
78.49787 40.000
78.51781 51.000
78.53776 56.000
78.55771 53.000
78.57765 50.000
78.59760 54.000
78.61755 43.000
78.63750 52.000
78.65744 44.000
78.67739 57.000
78.69734 56.000
78.71728 53.000
78.73723 51.000
78.75718 41.000
78.77712 65.000
78.79707 55.000
78.81702 47.000
78.83697 49.000
78.85691 47.000
78.87686 32.000
78.89681 61.000
78.91675 58.000
78.93670 60.000
78.95665 53.000
78.97659 60.000
78.99654 42.000
79.01649 44.000
79.03643 40.000
79.05638 40.000
79.07633 42.000
79.09628 38.000
79.11622 33.000
79.13617 39.000
79.15612 36.000
79.17606 41.000
79.19601 28.000
79.21596 42.000
79.23590 38.000
79.25585 44.000
79.27580 39.000
79.29575 36.000
79.31569 32.000
79.33564 43.000
79.35559 35.000
79.37553 45.000
79.39548 45.000
79.41543 31.000
79.43537 36.000
79.45532 35.000
79.47527 26.000
79.49521 41.000
79.51516 48.000
79.53511 36.000
79.55506 37.000
79.57500 34.000
79.59495 48.000
79.61490 30.000
79.63484 40.000
79.65479 40.000
79.67474 40.000
79.69468 33.000
79.71463 29.000
79.73458 33.000
79.75453 32.000
79.77447 36.000
79.79442 33.000
79.81437 38.000
79.83431 30.000
79.85426 27.000
79.87421 24.000
79.89415 34.000
79.91410 33.000
79.93405 31.000
79.95399 18.000
79.97394 25.000
79.99389 37.000
80.01384 32.000
80.03378 31.000
80.05373 36.000
80.07368 30.000
80.09362 25.000
80.11357 25.000
80.13352 35.000
80.15346 26.000
80.17341 29.000
80.19336 36.000
80.21331 23.000
80.23325 24.000
80.25320 21.000
80.27315 30.000
80.29309 25.000
80.31304 33.000
80.33299 29.000
80.35293 19.000
80.37288 32.000
80.39283 25.000
80.41278 20.000
80.43272 25.000
80.45267 31.000
80.47262 30.000
80.49256 25.000
80.51251 31.000
80.53246 26.000
80.55240 39.000
80.57235 30.000
80.59230 23.000
80.61224 25.000
80.63219 29.000
80.65214 29.000
80.67209 36.000
80.69203 28.000
80.71198 26.000
80.73193 28.000
80.75187 29.000
80.77182 23.000
80.79177 17.000
80.81171 30.000
80.83166 30.000
80.85161 18.000
80.87156 27.000
80.89150 25.000
80.91145 27.000
80.93140 23.000
80.95134 29.000
80.97129 31.000
80.99124 20.000
81.01118 31.000
81.03113 34.000
81.05108 25.000
81.07102 28.000
81.09097 36.000
81.11092 36.000
81.13087 30.000
81.15081 31.000
81.17076 23.000
81.19071 41.000
81.21065 28.000
81.23060 27.000
81.25055 21.000
81.27049 37.000
81.29044 28.000
81.31039 35.000
81.33034 37.000
81.35028 18.000
81.37023 18.000
81.39018 30.000
81.41012 37.000
81.43007 37.000
81.45002 40.000
81.46996 31.000
81.48991 38.000
81.50986 24.000
81.52980 20.000
81.54975 38.000
81.56970 27.000
81.58965 23.000
81.60959 38.000
81.62954 25.000
81.64949 23.000
81.66943 22.000
81.68938 32.000
81.70933 23.000
81.72927 34.000
81.74922 38.000
81.76917 21.000
81.78912 24.000
81.80906 22.000
81.82901 21.000
81.84896 32.000
81.86890 25.000
81.88885 32.000
81.90880 26.000
81.92874 28.000
81.94869 16.000
81.96864 22.000
81.98859 26.000
82.00853 32.000
82.02848 33.000
82.04843 19.000
82.06837 24.000
82.08832 19.000
82.10827 33.000
82.12821 28.000
82.14816 19.000
82.16811 25.000
82.18805 21.000
82.20800 22.000
82.22795 25.000
82.24790 22.000
82.26784 23.000
82.28779 20.000
82.30774 22.000
82.32768 31.000
82.34763 27.000
82.36758 25.000
82.38752 27.000
82.40747 23.000
82.42742 20.000
82.44737 22.000
82.46731 30.000
82.48726 26.000
82.50721 20.000
82.52715 27.000
82.54710 29.000
82.56705 24.000
82.58699 30.000
82.60694 32.000
82.62689 27.000
82.64683 22.000
82.66678 22.000
82.68673 29.000
82.70668 24.000
82.72662 24.000
82.74657 19.000
82.76652 33.000
82.78646 25.000
82.80641 15.000
82.82636 26.000
82.84630 30.000
82.86625 31.000
82.88620 18.000
82.90615 28.000
82.92609 21.000
82.94604 19.000
82.96599 25.000
82.98593 17.000
83.00588 25.000
83.02583 30.000
83.04577 33.000
83.06572 26.000
83.08567 23.000
83.10561 26.000
83.12556 19.000
83.14551 19.000
83.16546 27.000
83.18540 18.000
83.20535 26.000
83.22530 20.000
83.24524 21.000
83.26519 17.000
83.28514 15.000
83.30508 34.000
83.32503 14.000
83.34498 25.000
83.36493 26.000
83.38487 27.000
83.40482 19.000
83.42477 29.000
83.44471 17.000
83.46466 26.000
83.48461 20.000
83.50455 25.000
83.52450 21.000
83.54445 22.000
83.56440 23.000
83.58434 27.000
83.60429 19.000
83.62424 21.000
83.64418 28.000
83.66413 25.000
83.68408 20.000
83.70402 27.000
83.72397 16.000
83.74392 22.000
83.76386 16.000
83.78381 21.000
83.80376 30.000
83.82371 29.000
83.84365 29.000
83.86360 19.000
83.88355 18.000
83.90349 29.000
83.92344 20.000
83.94339 26.000
83.96333 27.000
83.98328 27.000
84.00323 25.000
84.02318 22.000
84.04312 23.000
84.06307 20.000
84.08302 16.000
84.10296 26.000
84.12291 22.000
84.14286 20.000
84.16280 17.000
84.18275 19.000
84.20270 25.000
84.22264 13.000
84.24259 29.000
84.26254 33.000
84.28249 25.000
84.30243 20.000
84.32238 19.000
84.34233 27.000
84.36227 26.000
84.38222 30.000
84.40217 25.000
84.42211 21.000
84.44206 14.000
84.46201 28.000
84.48196 22.000
84.50190 25.000
84.52185 25.000
84.54180 28.000
84.56174 27.000
84.58169 28.000
84.60164 32.000
84.62158 39.000
84.64153 22.000
84.66148 38.000
84.68142 26.000
84.70137 33.000
84.72132 25.000
84.74127 34.000
84.76121 27.000
84.78116 30.000
84.80111 28.000
84.82105 27.000
84.84100 30.000
84.86095 24.000
84.88089 25.000
84.90084 37.000
84.92079 28.000
84.94074 35.000
84.96068 27.000
84.98063 37.000
85.00058 40.000
85.02052 34.000
85.04047 20.000
85.06042 32.000
85.08036 25.000
85.10031 28.000
85.12026 30.000
85.14021 35.000
85.16015 47.000
85.18010 36.000
85.20005 40.000
85.21999 43.000
85.23994 29.000
85.25989 45.000
85.27983 28.000
85.29978 36.000
85.31973 33.000
85.33967 35.000
85.35962 45.000
85.37957 43.000
85.39952 29.000
85.41946 38.000
85.43941 31.000
85.45936 32.000
85.47930 34.000
85.49925 41.000
85.51920 22.000
85.53914 36.000
85.55909 41.000
85.57904 19.000
85.59899 33.000
85.61893 40.000
85.63888 40.000
85.65883 27.000
85.67877 43.000
85.69872 31.000
85.71867 36.000
85.73861 33.000
85.75856 41.000
85.77851 29.000
85.79845 33.000
85.81840 28.000
85.83835 37.000
85.85830 36.000
85.87824 30.000
85.89819 50.000
85.91814 32.000
85.93808 30.000
85.95803 33.000
85.97798 28.000
85.99792 27.000
86.01787 37.000
86.03782 33.000
86.05777 38.000
86.07771 34.000
86.09766 40.000
86.11761 34.000
86.13755 29.000
86.15750 37.000
86.17745 46.000
86.19739 35.000
86.21734 34.000
86.23729 31.000
86.25723 36.000
86.27718 39.000
86.29713 27.000
86.31708 33.000
86.33702 27.000
86.35697 30.000
86.37692 28.000
86.39686 26.000
86.41681 33.000
86.43676 31.000
86.45670 25.000
86.47665 33.000
86.49660 35.000
86.51655 33.000
86.53649 25.000
86.55644 32.000
86.57639 36.000
86.59633 34.000
86.61628 29.000
86.63623 31.000
86.65617 38.000
86.67612 21.000
86.69607 34.000
86.71602 31.000
86.73596 38.000
86.75591 26.000
86.77586 25.000
86.79580 19.000
86.81575 24.000
86.83570 25.000
86.85564 29.000
86.87559 34.000
86.89554 21.000
86.91548 19.000
86.93543 28.000
86.95538 29.000
86.97533 26.000
86.99527 24.000
87.01522 23.000
87.03517 19.000
87.05511 30.000
87.07506 35.000
87.09501 20.000
87.11495 21.000
87.13490 23.000
87.15485 20.000
87.17480 19.000
87.19474 14.000
87.21469 26.000
87.23464 15.000
87.25458 23.000
87.27453 21.000
87.29448 35.000
87.31442 22.000
87.33437 25.000
87.35432 16.000
87.37426 16.000
87.39421 24.000
87.41416 20.000
87.43411 22.000
87.45405 16.000
87.47400 21.000
87.49395 23.000
87.51389 28.000
87.53384 17.000
87.55379 23.000
87.57373 25.000
87.59368 21.000
87.61363 25.000
87.63358 17.000
87.65352 26.000
87.67347 19.000
87.69342 31.000
87.71336 14.000
87.73331 22.000
87.75326 31.000
87.77320 28.000
87.79315 20.000
87.81310 30.000
87.83304 25.000
87.85299 22.000
87.87294 22.000
87.89289 23.000
87.91283 33.000
87.93278 20.000
87.95273 27.000
87.97267 36.000
87.99262 20.000
88.01257 36.000
88.03251 19.000
88.05246 28.000
88.07241 27.000
88.09236 21.000
88.11230 20.000
88.13225 18.000
88.15220 24.000
88.17214 22.000
88.19209 33.000
88.21204 27.000
88.23198 28.000
88.25193 20.000
88.27188 26.000
88.29183 32.000
88.31177 24.000
88.33172 22.000
88.35167 21.000
88.37161 25.000
88.39156 20.000
88.41151 21.000
88.43145 18.000
88.45140 32.000
88.47135 23.000
88.49129 26.000
88.51124 32.000
88.53119 17.000
88.55114 18.000
88.57108 25.000
88.59103 24.000
88.61098 23.000
88.63092 21.000
88.65087 23.000
88.67082 24.000
88.69076 23.000
88.71071 27.000
88.73066 24.000
88.75061 23.000
88.77055 22.000
88.79050 18.000
88.81045 17.000
88.83039 21.000
88.85034 20.000
88.87029 18.000
88.89023 13.000
88.91018 24.000
88.93013 22.000
88.95007 31.000
88.97002 15.000
88.98997 20.000
89.00992 16.000
89.02986 21.000
89.04981 21.000
89.06976 18.000
89.08970 16.000
89.10965 16.000
89.12960 9.000
89.14954 20.000
89.16949 17.000
89.18944 16.000
89.20939 23.000
89.22933 25.000
89.24928 21.000
89.26923 15.000
89.28917 13.000
89.30912 19.000
89.32907 17.000
89.34901 18.000
89.36896 25.000
89.38891 15.000
89.40885 24.000
89.42880 10.000
89.44875 20.000
89.46870 24.000
89.48864 18.000
89.50859 19.000
89.52854 15.000
89.54848 17.000
89.56843 20.000
89.58838 16.000
89.60832 18.000
89.62827 16.000
89.64822 22.000
89.66817 19.000
89.68811 20.000
89.70806 13.000
89.72801 16.000
89.74795 28.000
89.76790 13.000
89.78785 23.000
89.80779 12.000
89.82774 23.000
89.84769 21.000
89.86764 18.000
89.88758 11.000
89.90753 21.000
89.92748 26.000
89.94742 13.000
89.96737 13.000
89.98732 16.000
90.00726 14.000
