10.00000 78.000
10.01995 99.000
10.03989 85.000
10.05984 86.000
10.07979 80.000
10.09973 89.000
10.11968 88.000
10.13963 84.000
10.15958 91.000
10.17952 85.000
10.19947 83.000
10.21942 102.000
10.23936 94.000
10.25931 73.000
10.27926 86.000
10.29920 92.000
10.31915 79.000
10.33910 96.000
10.35905 89.000
10.37899 92.000
10.39894 89.000
10.41889 101.000
10.43883 94.000
10.45878 81.000
10.47873 105.000
10.49867 85.000
10.51862 78.000
10.53857 81.000
10.55851 89.000
10.57846 69.000
10.59841 94.000
10.61836 89.000
10.63830 102.000
10.65825 93.000
10.67820 88.000
10.69814 97.000
10.71809 85.000
10.73804 89.000
10.75798 105.000
10.77793 84.000
10.79788 105.000
10.81783 100.000
10.83777 92.000
10.85772 80.000
10.87767 82.000
10.89761 84.000
10.91756 86.000
10.93751 101.000
10.95745 90.000
10.97740 93.000
10.99735 95.000
11.01730 94.000
11.03724 99.000
11.05719 91.000
11.07714 77.000
11.09708 83.000
11.11703 73.000
11.13698 119.000
11.15692 89.000
11.17687 99.000
11.19682 88.000
11.21676 99.000
11.23671 104.000
11.25666 76.000
11.27661 89.000
11.29655 107.000
11.31650 89.000
11.33645 102.000
11.35639 99.000
11.37634 107.000
11.39629 94.000
11.41623 113.000
11.43618 111.000
11.45613 101.000
11.47608 111.000
11.49602 115.000
11.51597 104.000
11.53592 88.000
11.55586 120.000
11.57581 102.000
11.59576 94.000
11.61570 114.000
11.63565 111.000
11.65560 89.000
11.67554 91.000
11.69549 89.000
11.71544 103.000
11.73539 113.000
11.75533 80.000
11.77528 111.000
11.79523 104.000
11.81517 119.000
11.83512 107.000
11.85507 92.000
11.87501 93.000
11.89496 95.000
11.91491 99.000
11.93486 104.000
11.95480 106.000
11.97475 93.000
11.99470 106.000
12.01464 96.000
12.03459 99.000
12.05454 101.000
12.07448 103.000
12.09443 93.000
12.11438 99.000
12.13432 97.000
12.15427 96.000
12.17422 96.000
12.19417 115.000
12.21411 121.000
12.23406 105.000
12.25401 104.000
12.27395 131.000
12.29390 93.000
12.31385 85.000
12.33379 103.000
12.35374 116.000
12.37369 100.000
12.39364 101.000
12.41358 110.000
12.43353 129.000
12.45348 92.000
12.47342 117.000
12.49337 103.000
12.51332 102.000
12.53326 126.000
12.55321 125.000
12.57316 105.000
12.59311 122.000
12.61305 108.000
12.63300 105.000
12.65295 123.000
12.67289 108.000
12.69284 116.000
12.71279 131.000
12.73273 110.000
12.75268 116.000
12.77263 87.000
12.79257 92.000
12.81252 104.000
12.83247 112.000
12.85242 88.000
12.87236 103.000
12.89231 112.000
12.91226 115.000
12.93220 106.000
12.95215 125.000
12.97210 105.000
12.99204 109.000
13.01199 99.000
13.03194 99.000
13.05189 108.000
13.07183 114.000
13.09178 117.000
13.11173 115.000
13.13167 93.000
13.15162 109.000
13.17157 108.000
13.19151 116.000
13.21146 122.000
13.23141 109.000
13.25135 115.000
13.27130 112.000
13.29125 128.000
13.31120 118.000
13.33114 137.000
13.35109 119.000
13.37104 110.000
13.39098 118.000
13.41093 124.000
13.43088 146.000
13.45082 107.000
13.47077 116.000
13.49072 117.000
13.51067 113.000
13.53061 101.000
13.55056 121.000
13.57051 123.000
13.59045 125.000
13.61040 133.000
13.63035 120.000
13.65029 127.000
13.67024 126.000
13.69019 148.000
13.71013 126.000
13.73008 121.000
13.75003 126.000
13.76998 110.000
13.78992 123.000
13.80987 97.000
13.82982 119.000
13.84976 127.000
13.86971 130.000
13.88966 106.000
13.90960 143.000
13.92955 118.000
13.94950 121.000
13.96945 114.000
13.98939 110.000
14.00934 123.000
14.02929 122.000
14.04923 117.000
14.06918 116.000
14.08913 126.000
14.10907 125.000
14.12902 126.000
14.14897 119.000
14.16892 119.000
14.18886 130.000
14.20881 139.000
14.22876 140.000
14.24870 131.000
14.26865 123.000
14.28860 119.000
14.30854 109.000
14.32849 117.000
14.34844 125.000
14.36838 110.000
14.38833 138.000
14.40828 109.000
14.42823 107.000
14.44817 128.000
14.46812 109.000
14.48807 116.000
14.50801 139.000
14.52796 130.000
14.54791 128.000
14.56785 138.000
14.58780 132.000
14.60775 139.000
14.62770 125.000
14.64764 131.000
14.66759 124.000
14.68754 119.000
14.70748 124.000
14.72743 144.000
14.74738 125.000
14.76732 126.000
14.78727 162.000
14.80722 149.000
14.82716 138.000
14.84711 133.000
14.86706 114.000
14.88701 141.000
14.90695 105.000
14.92690 116.000
14.94685 145.000
14.96679 136.000
14.98674 174.000
15.00669 125.000
15.02663 130.000
15.04658 133.000
15.06653 138.000
15.08648 133.000
15.10642 129.000
15.12637 134.000
15.14632 151.000
15.16626 122.000
15.18621 134.000
15.20616 133.000
15.22610 133.000
15.24605 161.000
15.26600 140.000
15.28594 145.000
15.30589 145.000
15.32584 154.000
15.34579 160.000
15.36573 164.000
15.38568 116.000
15.40563 157.000
15.42557 129.000
15.44552 164.000
15.46547 151.000
15.48541 133.000
15.50536 148.000
15.52531 160.000
15.54526 145.000
15.56520 145.000
15.58515 137.000
15.60510 128.000
15.62504 140.000
15.64499 135.000
15.66494 167.000
15.68488 130.000
15.70483 128.000
15.72478 186.000
15.74472 144.000
15.76467 168.000
15.78462 145.000
15.80457 172.000
15.82451 185.000
15.84446 154.000
15.86441 139.000
15.88435 191.000
15.90430 159.000
15.92425 163.000
15.94419 144.000
15.96414 171.000
15.98409 147.000
16.00404 166.000
16.02398 170.000
16.04393 181.000
16.06388 187.000
16.08382 188.000
16.10377 177.000
16.12372 153.000
16.14366 169.000
16.16361 185.000
16.18356 163.000
16.20351 180.000
16.22345 187.000
16.24340 170.000
16.26335 185.000
16.28329 158.000
16.30324 173.000
16.32319 182.000
16.34313 181.000
16.36308 168.000
16.38303 182.000
16.40297 163.000
16.42292 201.000
16.44287 186.000
16.46282 168.000
16.48276 203.000
16.50271 204.000
16.52266 186.000
16.54260 226.000
16.56255 195.000
16.58250 188.000
16.60244 181.000
16.62239 187.000
16.64234 179.000
16.66229 194.000
16.68223 210.000
16.70218 192.000
16.72213 205.000
16.74207 187.000
16.76202 207.000
16.78197 204.000
16.80191 202.000
16.82186 230.000
16.84181 211.000
16.86175 180.000
16.88170 191.000
16.90165 210.000
16.92160 228.000
16.94154 191.000
16.96149 194.000
16.98144 221.000
17.00138 218.000
17.02133 226.000
17.04128 220.000
17.06122 216.000
17.08117 214.000
17.10112 235.000
17.12107 242.000
17.14101 257.000
17.16096 232.000
17.18091 240.000
17.20085 225.000
17.22080 229.000
17.24075 223.000
17.26069 246.000
17.28064 241.000
17.30059 229.000
17.32053 244.000
17.34048 237.000
17.36043 255.000
17.38038 230.000
17.40032 211.000
17.42027 231.000
17.44022 275.000
17.46016 269.000
17.48011 246.000
17.50006 253.000
17.52000 265.000
17.53995 282.000
17.55990 264.000
17.57985 241.000
17.59979 273.000
17.61974 272.000
17.63969 262.000
17.65963 243.000
17.67958 301.000
17.69953 296.000
17.71947 280.000
17.73942 282.000
17.75937 286.000
17.77932 258.000
17.79926 255.000
17.81921 265.000
17.83916 326.000
17.85910 289.000
17.87905 299.000
17.89900 288.000
17.91894 287.000
17.93889 278.000
17.95884 305.000
17.97878 341.000
17.99873 295.000
18.01868 309.000
18.03863 311.000
18.05857 320.000
18.07852 295.000
18.09847 305.000
18.11841 285.000
18.13836 303.000
18.15831 345.000
18.17825 330.000
18.19820 332.000
18.21815 308.000
18.23810 295.000
18.25804 328.000
18.27799 302.000
18.29794 295.000
18.31788 284.000
18.33783 337.000
18.35778 337.000
18.37772 341.000
18.39767 319.000
18.41762 332.000
18.43756 323.000
18.45751 322.000
18.47746 324.000
18.49741 338.000
18.51735 365.000
18.53730 335.000
18.55725 348.000
18.57719 353.000
18.59714 369.000
18.61709 328.000
18.63703 344.000
18.65698 335.000
18.67693 319.000
18.69688 345.000
18.71682 357.000
18.73677 399.000
18.75672 346.000
18.77666 328.000
18.79661 314.000
18.81656 346.000
18.83650 352.000
18.85645 369.000
18.87640 341.000
18.89634 357.000
18.91629 371.000
18.93624 356.000
18.95619 360.000
18.97613 364.000
18.99608 392.000
19.01603 394.000
19.03597 385.000
19.05592 366.000
19.07587 358.000
19.09581 364.000
19.11576 372.000
19.13571 380.000
19.15566 384.000
19.17560 356.000
19.19555 395.000
19.21550 423.000
19.23544 383.000
19.25539 366.000
19.27534 427.000
19.29528 346.000
19.31523 385.000
19.33518 383.000
19.35513 400.000
19.37507 377.000
19.39502 400.000
19.41497 417.000
19.43491 401.000
19.45486 381.000
19.47481 370.000
19.49475 440.000
19.51470 373.000
19.53465 424.000
19.55459 424.000
19.57454 387.000
19.59449 398.000
19.61444 450.000
19.63438 388.000
19.65433 393.000
19.67428 424.000
19.69422 445.000
19.71417 404.000
19.73412 409.000
19.75406 396.000
19.77401 408.000
19.79396 418.000
19.81391 429.000
19.83385 407.000
19.85380 424.000
19.87375 406.000
19.89369 441.000
19.91364 444.000
19.93359 453.000
19.95353 473.000
19.97348 416.000
19.99343 459.000
20.01337 413.000
20.03332 428.000
20.05327 428.000
20.07322 474.000
20.09316 454.000
20.11311 433.000
20.13306 492.000
20.15300 417.000
20.17295 422.000
20.19290 406.000
20.21284 437.000
20.23279 447.000
20.25274 436.000
20.27269 428.000
20.29263 456.000
20.31258 439.000
20.33253 434.000
20.35247 433.000
20.37242 459.000
20.39237 494.000
20.41231 476.000
20.43226 437.000
20.45221 388.000
20.47215 489.000
20.49210 471.000
20.51205 477.000
20.53200 505.000
20.55194 448.000
20.57189 487.000
20.59184 463.000
20.61178 449.000
20.63173 473.000
20.65168 480.000
20.67162 473.000
20.69157 434.000
20.71152 496.000
20.73147 474.000
20.75141 452.000
20.77136 475.000
20.79131 507.000
20.81125 497.000
20.83120 477.000
20.85115 501.000
20.87109 465.000
20.89104 476.000
20.91099 490.000
20.93094 484.000
20.95088 438.000
20.97083 497.000
20.99078 470.000
21.01072 491.000
21.03067 534.000
21.05062 493.000
21.07056 476.000
21.09051 476.000
21.11046 470.000
21.13040 480.000
21.15035 508.000
21.17030 522.000
21.19025 531.000
21.21019 492.000
21.23014 526.000
21.25009 533.000
21.27003 496.000
21.28998 498.000
21.30993 556.000
21.32987 521.000
21.34982 521.000
21.36977 468.000
21.38972 515.000
21.40966 493.000
21.42961 515.000
21.44956 508.000
21.46950 539.000
21.48945 496.000
21.50940 540.000
21.52934 467.000
21.54929 525.000
21.56924 527.000
21.58918 512.000
21.60913 534.000
21.62908 516.000
21.64903 510.000
21.66897 529.000
21.68892 549.000
21.70887 510.000
21.72881 537.000
21.74876 525.000
21.76871 542.000
21.78865 475.000
21.80860 492.000
21.82855 548.000
21.84850 503.000
21.86844 506.000
21.88839 558.000
21.90834 563.000
21.92828 570.000
21.94823 541.000
21.96818 541.000
21.98812 557.000
22.00807 560.000
22.02802 568.000
22.04796 531.000
22.06791 510.000
22.08786 538.000
22.10781 486.000
22.12775 549.000
22.14770 520.000
22.16765 562.000
22.18759 578.000
22.20754 550.000
22.22749 504.000
22.24743 542.000
22.26738 555.000
22.28733 543.000
22.30728 579.000
22.32722 549.000
22.34717 564.000
22.36712 525.000
22.38706 561.000
22.40701 579.000
22.42696 555.000
22.44690 562.000
22.46685 539.000
22.48680 584.000
22.50675 541.000
22.52669 558.000
22.54664 558.000
22.56659 569.000
22.58653 585.000
22.60648 536.000
22.62643 607.000
22.64637 559.000
22.66632 572.000
22.68627 636.000
22.70621 572.000
22.72616 559.000
22.74611 635.000
22.76606 535.000
22.78600 619.000
22.80595 554.000
22.82590 579.000
22.84584 585.000
22.86579 564.000
22.88574 614.000
22.90568 550.000
22.92563 559.000
22.94558 579.000
22.96553 554.000
22.98547 597.000
23.00542 605.000
23.02537 640.000
23.04531 597.000
23.06526 634.000
23.08521 613.000
23.10515 619.000
23.12510 659.000
23.14505 635.000
23.16499 613.000
23.18494 603.000
23.20489 594.000
23.22484 655.000
23.24478 601.000
23.26473 591.000
23.28468 652.000
23.30462 644.000
23.32457 626.000
23.34452 645.000
23.36446 663.000
23.38441 600.000
23.40436 606.000
23.42431 616.000
23.44425 639.000
23.46420 658.000
23.48415 636.000
23.50409 605.000
23.52404 637.000
23.54399 642.000
23.56393 646.000
23.58388 606.000
23.60383 639.000
23.62377 639.000
23.64372 606.000
23.66367 645.000
23.68362 604.000
23.70356 643.000
23.72351 616.000
23.74346 664.000
23.76340 682.000
23.78335 637.000
23.80330 634.000
23.82324 644.000
23.84319 576.000
23.86314 668.000
23.88309 653.000
23.90303 644.000
23.92298 648.000
23.94293 673.000
23.96287 641.000
23.98282 664.000
24.00277 659.000
24.02271 681.000
24.04266 672.000
24.06261 670.000
24.08256 655.000
24.10250 691.000
24.12245 668.000
24.14240 674.000
24.16234 694.000
24.18229 661.000
24.20224 667.000
24.22218 707.000
24.24213 673.000
24.26208 694.000
24.28202 695.000
24.30197 676.000
24.32192 693.000
24.34187 668.000
24.36181 711.000
24.38176 699.000
24.40171 679.000
24.42165 653.000
24.44160 665.000
24.46155 723.000
24.48149 678.000
24.50144 753.000
24.52139 724.000
24.54134 743.000
24.56128 665.000
24.58123 674.000
24.60118 681.000
24.62112 686.000
24.64107 698.000
24.66102 731.000
24.68096 721.000
24.70091 682.000
24.72086 778.000
24.74080 749.000
24.76075 750.000
24.78070 741.000
24.80065 723.000
24.82059 735.000
24.84054 696.000
24.86049 698.000
24.88043 729.000
24.90038 778.000
24.92033 734.000
24.94027 798.000
24.96022 767.000
24.98017 784.000
25.00012 804.000
25.02006 740.000
25.04001 731.000
25.05996 772.000
25.07990 728.000
25.09985 754.000
25.11980 787.000
25.13974 769.000
25.15969 768.000
25.17964 783.000
25.19958 735.000
25.21953 772.000
25.23948 820.000
25.25943 751.000
25.27937 800.000
25.29932 796.000
25.31927 798.000
25.33921 822.000
25.35916 765.000
25.37911 825.000
25.39905 784.000
25.41900 801.000
25.43895 785.000
25.45890 777.000
25.47884 824.000
25.49879 820.000
25.51874 735.000
25.53868 799.000
25.55863 826.000
25.57858 807.000
25.59852 875.000
25.61847 816.000
25.63842 832.000
25.65837 800.000
25.67831 868.000
25.69826 871.000
25.71821 863.000
25.73815 819.000
25.75810 876.000
25.77805 806.000
25.79799 873.000
25.81794 818.000
25.83789 846.000
25.85783 869.000
25.87778 883.000
25.89773 905.000
25.91768 835.000
25.93762 865.000
25.95757 825.000
25.97752 854.000
25.99746 847.000
26.01741 824.000
26.03736 928.000
26.05730 854.000
26.07725 879.000
26.09720 845.000
26.11715 861.000
26.13709 878.000
26.15704 851.000
26.17699 864.000
26.19693 879.000
26.21688 921.000
26.23683 911.000
26.25677 948.000
26.27672 913.000
26.29667 878.000
26.31661 940.000
26.33656 907.000
26.35651 877.000
26.37646 884.000
26.39640 881.000
26.41635 923.000
26.43630 904.000
26.45624 925.000
26.47619 951.000
26.49614 882.000
26.51608 928.000
26.53603 961.000
26.55598 923.000
26.57593 956.000
26.59587 910.000
26.61582 871.000
26.63577 1004.000
26.65571 924.000
26.67566 988.000
26.69561 946.000
26.71555 924.000
26.73550 979.000
26.75545 942.000
26.77539 887.000
26.79534 1014.000
26.81529 965.000
26.83524 979.000
26.85518 975.000
26.87513 946.000
26.89508 986.000
26.91502 1006.000
26.93497 959.000
26.95492 931.000
26.97486 968.000
26.99481 955.000
27.01476 1010.000
27.03471 1052.000
27.05465 1012.000
27.07460 1031.000
27.09455 1032.000
27.11449 1046.000
27.13444 970.000
27.15439 1065.000
27.17433 984.000
27.19428 1015.000
27.21423 1020.000
27.23417 1012.000
27.25412 960.000
27.27407 1010.000
27.29402 982.000
27.31396 1013.000
27.33391 1023.000
27.35386 1026.000
27.37380 996.000
27.39375 1049.000
27.41370 1000.000
27.43364 1105.000
27.45359 1042.000
27.47354 1066.000
27.49349 1072.000
27.51343 1090.000
27.53338 1044.000
27.55333 1072.000
27.57327 1120.000
27.59322 1066.000
27.61317 1085.000
27.63311 1105.000
27.65306 1063.000
27.67301 1047.000
27.69296 1032.000
27.71290 1044.000
27.73285 1103.000
27.75280 1058.000
27.77274 1034.000
27.79269 1111.000
27.81264 1106.000
27.83258 1053.000
27.85253 1082.000
27.87248 1160.000
27.89242 1072.000
27.91237 1067.000
27.93232 1137.000
27.95227 1082.000
27.97221 1130.000
27.99216 1119.000
28.01211 1112.000
28.03205 1099.000
28.05200 1088.000
28.07195 1096.000
28.09189 1112.000
28.11184 1068.000
28.13179 1063.000
28.15174 1092.000
28.17168 1160.000
28.19163 1136.000
28.21158 1135.000
28.23152 1122.000
28.25147 1166.000
28.27142 1122.000
28.29136 1164.000
28.31131 1183.000
28.33126 1104.000
28.35120 1166.000
28.37115 1124.000
28.39110 1163.000
28.41105 1112.000
28.43099 1133.000
28.45094 1123.000
28.47089 1121.000
28.49083 1206.000
28.51078 1132.000
28.53073 1129.000
28.55067 1171.000
28.57062 1203.000
28.59057 1182.000
28.61052 1176.000
28.63046 1140.000
28.65041 1165.000
28.67036 1120.000
28.69030 1132.000
28.71025 1155.000
28.73020 1168.000
28.75014 1047.000
28.77009 1166.000
28.79004 1189.000
28.80998 1162.000
28.82993 1179.000
28.84988 1131.000
28.86983 1105.000
28.88977 1211.000
28.90972 1130.000
28.92967 1145.000
28.94961 1151.000
28.96956 1178.000
28.98951 1124.000
29.00945 1172.000
29.02940 1150.000
29.04935 1149.000
29.06930 1169.000
29.08924 1184.000
29.10919 1144.000
29.12914 1164.000
29.14908 1172.000
29.16903 1233.000
29.18898 1234.000
29.20892 1176.000
29.22887 1196.000
29.24882 1194.000
29.26877 1199.000
29.28871 1183.000
29.30866 1187.000
29.32861 1169.000
29.34855 1212.000
29.36850 1147.000
29.38845 1107.000
29.40839 1194.000
29.42834 1163.000
29.44829 1208.000
29.46823 1164.000
29.48818 1151.000
29.50813 1141.000
29.52808 1206.000
29.54802 1146.000
29.56797 1094.000
29.58792 1144.000
29.60786 1188.000
29.62781 1161.000
29.64776 1259.000
29.66770 1183.000
29.68765 1193.000
29.70760 1176.000
29.72755 1203.000
29.74749 1174.000
29.76744 1153.000
29.78739 1146.000
29.80733 1201.000
29.82728 1144.000
29.84723 1185.000
29.86717 1142.000
29.88712 1166.000
29.90707 1134.000
29.92701 1212.000
29.94696 1181.000
29.96691 1195.000
29.98686 1156.000
30.00680 1166.000
30.02675 1176.000
30.04670 1209.000
30.06664 1150.000
30.08659 1172.000
30.10654 1214.000
30.12648 1157.000
30.14643 1212.000
30.16638 1134.000
30.18633 1136.000
30.20627 1163.000
30.22622 1130.000
30.24617 1118.000
30.26611 1191.000
30.28606 1183.000
30.30601 1163.000
30.32595 1152.000
30.34590 1079.000
30.36585 1059.000
30.38579 1151.000
30.40574 1081.000
30.42569 1199.000
30.44564 1142.000
30.46558 1118.000
30.48553 1183.000
30.50548 1111.000
30.52542 1095.000
30.54537 1176.000
30.56532 1174.000
30.58526 1226.000
30.60521 1146.000
30.62516 1161.000
30.64511 1149.000
30.66505 1145.000
30.68500 1129.000
30.70495 1144.000
30.72489 1117.000
30.74484 1089.000
30.76479 1170.000
30.78473 1066.000
30.80468 1153.000
30.82463 1140.000
30.84458 1129.000
30.86452 1154.000
30.88447 1132.000
30.90442 1137.000
30.92436 1099.000
30.94431 1182.000
30.96426 1083.000
30.98420 1204.000
31.00415 1163.000
31.02410 1089.000
31.04404 1154.000
31.06399 1038.000
31.08394 1114.000
31.10389 1188.000
31.12383 1127.000
31.14378 1101.000
31.16373 1068.000
31.18367 1110.000
31.20362 1103.000
31.22357 1105.000
31.24351 1114.000
31.26346 1111.000
31.28341 1124.000
31.30336 1067.000
31.32330 1122.000
31.34325 1117.000
31.36320 1177.000
31.38314 1114.000
31.40309 1090.000
31.42304 1122.000
31.44298 1074.000
31.46293 1098.000
31.48288 1155.000
31.50282 1059.000
31.52277 1138.000
31.54272 1087.000
31.56267 1105.000
31.58261 1170.000
31.60256 1118.000
31.62251 1130.000
31.64245 1096.000
31.66240 1107.000
31.68235 1079.000
31.70229 1114.000
31.72224 1092.000
31.74219 1088.000
31.76214 1065.000
31.78208 1141.000
31.80203 1146.000
31.82198 1183.000
31.84192 1089.000
31.86187 1091.000
31.88182 1129.000
31.90176 1181.000
31.92171 1152.000
31.94166 1177.000
31.96160 1171.000
31.98155 1161.000
32.00150 1147.000
32.02145 1110.000
32.04139 1171.000
32.06134 1043.000
32.08129 1180.000
32.10123 1087.000
32.12118 1135.000
32.14113 1057.000
32.16107 1102.000
32.18102 1080.000
32.20097 1088.000
32.22092 1063.000
32.24086 1079.000
32.26081 1076.000
32.28076 1056.000
32.30070 1003.000
32.32065 1040.000
32.34060 1053.000
32.36054 1082.000
32.38049 1070.000
32.40044 1039.000
32.42039 1009.000
32.44033 1012.000
32.46028 1032.000
32.48023 1099.000
32.50017 1083.000
32.52012 1043.000
32.54007 1023.000
32.56001 1026.000
32.57996 1032.000
32.59991 1044.000
32.61985 1009.000
32.63980 1041.000
32.65975 1069.000
32.67970 1004.000
32.69964 1030.000
32.71959 1050.000
32.73954 967.000
32.75948 1005.000
32.77943 1036.000
32.79938 1055.000
32.81932 1032.000
32.83927 1002.000
32.85922 998.000
32.87917 963.000
32.89911 1037.000
32.91906 984.000
32.93901 982.000
32.95895 998.000
32.97890 982.000
32.99885 1010.000
33.01879 953.000
33.03874 968.000
33.05869 1005.000
33.07863 1000.000
33.09858 910.000
33.11853 962.000
33.13848 981.000
33.15842 961.000
33.17837 953.000
33.19832 1059.000
33.21826 992.000
33.23821 999.000
33.25816 948.000
33.27810 1007.000
33.29805 995.000
33.31800 952.000
33.33795 960.000
33.35789 975.000
33.37784 950.000
33.39779 976.000
33.41773 987.000
33.43768 943.000
33.45763 959.000
33.47757 959.000
33.49752 905.000
33.51747 962.000
33.53741 949.000
33.55736 903.000
33.57731 939.000
33.59726 969.000
33.61720 981.000
33.63715 924.000
33.65710 988.000
33.67704 944.000
33.69699 1000.000
33.71694 958.000
33.73688 932.000
33.75683 968.000
33.77678 924.000
33.79673 919.000
33.81667 948.000
33.83662 931.000
33.85657 963.000
33.87651 935.000
33.89646 927.000
33.91641 945.000
33.93635 926.000
33.95630 952.000
33.97625 957.000
33.99620 903.000
34.01614 894.000
34.03609 923.000
34.05604 947.000
34.07598 923.000
34.09593 923.000
34.11588 940.000
34.13582 943.000
34.15577 860.000
34.17572 903.000
34.19566 896.000
34.21561 894.000
34.23556 960.000
34.25551 892.000
34.27545 902.000
34.29540 947.000
34.31535 941.000
34.33529 947.000
34.35524 940.000
34.37519 953.000
34.39513 897.000
34.41508 972.000
34.43503 956.000
34.45498 948.000
34.47492 941.000
34.49487 929.000
34.51482 922.000
34.53476 974.000
34.55471 977.000
34.57466 958.000
34.59460 969.000
34.61455 947.000
34.63450 1020.000
34.65444 993.000
34.67439 935.000
34.69434 980.000
34.71429 1000.000
34.73423 988.000
34.75418 1012.000
34.77413 1040.000
34.79407 1051.000
34.81402 1108.000
34.83397 1146.000
34.85391 1145.000
34.87386 1241.000
34.89381 1281.000
34.91376 1386.000
34.93370 1473.000
34.95365 1532.000
34.97360 1605.000
34.99354 1619.000
35.01349 1712.000
35.03344 1820.000
35.05338 1894.000
35.07333 1903.000
35.09328 1806.000
35.11322 1862.000
35.13317 1873.000
35.15312 1696.000
35.17307 1690.000
35.19301 1613.000
35.21296 1545.000
35.23291 1426.000
35.25285 1335.000
35.27280 1224.000
35.29275 1191.000
35.31269 1067.000
35.33264 1107.000
35.35259 987.000
35.37254 974.000
35.39248 965.000
35.41243 894.000
35.43238 966.000
35.45232 901.000
35.47227 989.000
35.49222 933.000
35.51216 946.000
35.53211 885.000
35.55206 868.000
35.57201 836.000
35.59195 862.000
35.61190 842.000
35.63185 885.000
35.65179 868.000
35.67174 942.000
35.69169 922.000
35.71163 884.000
35.73158 807.000
35.75153 855.000
35.77147 913.000
35.79142 899.000
35.81137 815.000
35.83132 889.000
35.85126 853.000
35.87121 886.000
35.89116 886.000
35.91110 839.000
35.93105 817.000
35.95100 845.000
35.97094 872.000
35.99089 846.000
36.01084 836.000
36.03079 838.000
36.05073 844.000
36.07068 840.000
36.09063 881.000
36.11057 904.000
36.13052 857.000
36.15047 900.000
36.17041 872.000
36.19036 876.000
36.21031 869.000
36.23025 851.000
36.25020 936.000
36.27015 875.000
36.29010 977.000
36.31004 878.000
36.32999 1006.000
36.34994 1074.000
36.36988 981.000
36.38983 1100.000
36.40978 1088.000
36.42972 1177.000
36.44967 1218.000
36.46962 1292.000
36.48957 1479.000
36.50951 1681.000
36.52946 1875.000
36.54941 2131.000
36.56935 2354.000
36.58930 2655.000
36.60925 3057.000
36.62919 3314.000
36.64914 3826.000
36.66909 3940.000
36.68903 4099.000
36.70898 3889.000
36.72893 3828.000
36.74888 3464.000
36.76882 3087.000
36.78877 2600.000
36.80872 2368.000
36.82866 2081.000
36.84861 1696.000
36.86856 1459.000
36.88850 1172.000
36.90845 1101.000
36.92840 985.000
36.94835 954.000
36.96829 954.000
36.98824 888.000
37.00819 980.000
37.02813 923.000
37.04808 870.000
37.06803 936.000
37.08797 852.000
37.10792 857.000
37.12787 929.000
37.14781 806.000
37.16776 889.000
37.18771 878.000
37.20766 816.000
37.22760 857.000
37.24755 801.000
37.26750 945.000
37.28744 854.000
37.30739 847.000
37.32734 830.000
37.34728 911.000
37.36723 843.000
37.38718 845.000
37.40713 856.000
37.42707 875.000
37.44702 844.000
37.46697 878.000
37.48691 856.000
37.50686 862.000
37.52681 907.000
37.54675 834.000
37.56670 914.000
37.58665 816.000
37.60660 879.000
37.62654 853.000
37.64649 855.000
37.66644 873.000
37.68638 916.000
37.70633 911.000
37.72628 922.000
37.74622 881.000
37.76617 937.000
37.78612 940.000
37.80606 934.000
37.82601 909.000
37.84596 963.000
37.86591 964.000
37.88585 962.000
37.90580 1001.000
37.92575 1097.000
37.94569 1022.000
37.96564 1097.000
37.98559 1111.000
38.00553 1158.000
38.02548 1239.000
38.04543 1257.000
38.06538 1363.000
38.08532 1426.000
38.10527 1511.000
38.12522 1660.000
38.14516 1621.000
38.16511 1761.000
38.18506 1761.000
38.20500 1840.000
38.22495 1848.000
38.24490 1692.000
38.26484 1625.000
38.28479 1628.000
38.30474 1543.000
38.32469 1450.000
38.34463 1327.000
38.36458 1290.000
38.38453 1263.000
38.40447 1204.000
38.42442 1117.000
38.44437 1046.000
38.46431 1091.000
38.48426 995.000
38.50421 1026.000
38.52416 1033.000
38.54410 1019.000
38.56405 1053.000
38.58400 1000.000
38.60394 1021.000
38.62389 1005.000
38.64384 1062.000
38.66378 971.000
38.68373 1082.000
38.70368 984.000
38.72362 1035.000
38.74357 929.000
38.76352 990.000
38.78347 951.000
38.80341 954.000
38.82336 931.000
38.84331 870.000
38.86325 910.000
38.88320 931.000
38.90315 830.000
38.92309 874.000
38.94304 883.000
38.96299 863.000
38.98294 796.000
39.00288 867.000
39.02283 776.000
39.04278 824.000
39.06272 811.000
39.08267 834.000
39.10262 811.000
39.12256 815.000
39.14251 838.000
39.16246 822.000
39.18241 768.000
39.20235 780.000
39.22230 802.000
39.24225 865.000
39.26219 812.000
39.28214 795.000
39.30209 811.000
39.32203 824.000
39.34198 803.000
39.36193 799.000
39.38187 789.000
39.40182 768.000
39.42177 804.000
39.44172 812.000
39.46166 751.000
39.48161 801.000
39.50156 815.000
39.52150 807.000
39.54145 816.000
39.56140 819.000
39.58134 779.000
39.60129 815.000
39.62124 792.000
39.64119 818.000
39.66113 779.000
39.68108 829.000
39.70103 830.000
39.72097 777.000
39.74092 827.000
39.76087 767.000
39.78081 841.000
39.80076 803.000
39.82071 797.000
39.84065 860.000
39.86060 769.000
39.88055 807.000
39.90050 768.000
39.92044 802.000
39.94039 776.000
39.96034 795.000
39.98028 767.000
40.00023 777.000
40.02018 794.000
40.04012 789.000
40.06007 850.000
40.08002 822.000
40.09997 827.000
40.11991 827.000
40.13986 794.000
40.15981 768.000
40.17975 789.000
40.19970 768.000
40.21965 795.000
40.23959 834.000
40.25954 763.000
40.27949 776.000
40.29943 761.000
40.31938 819.000
40.33933 821.000
40.35928 775.000
40.37922 855.000
40.39917 786.000
40.41912 791.000
40.43906 792.000
40.45901 776.000
40.47896 782.000
40.49890 825.000
40.51885 762.000
40.53880 816.000
40.55875 765.000
40.57869 791.000
40.59864 807.000
40.61859 806.000
40.63853 832.000
40.65848 793.000
40.67843 766.000
40.69837 783.000
40.71832 775.000
40.73827 859.000
40.75822 807.000
40.77816 789.000
40.79811 762.000
40.81806 789.000
40.83800 778.000
40.85795 821.000
40.87790 795.000
40.89784 746.000
40.91779 796.000
40.93774 780.000
40.95768 836.000
40.97763 752.000
40.99758 814.000
41.01753 813.000
41.03747 831.000
41.05742 795.000
41.07737 827.000
41.09731 767.000
41.11726 820.000
41.13721 831.000
41.15715 841.000
41.17710 839.000
41.19705 768.000
41.21700 803.000
41.23694 825.000
41.25689 787.000
41.27684 810.000
41.29678 802.000
41.31673 816.000
41.33668 765.000
41.35662 784.000
41.37657 824.000
41.39652 788.000
41.41646 852.000
41.43641 829.000
41.45636 856.000
41.47631 832.000
41.49625 798.000
41.51620 833.000
41.53615 875.000
41.55609 826.000
41.57604 796.000
41.59599 855.000
41.61593 837.000
41.63588 865.000
41.65583 827.000
41.67578 843.000
41.69572 829.000
41.71567 820.000
41.73562 865.000
41.75556 853.000
41.77551 856.000
41.79546 818.000
41.81540 783.000
41.83535 856.000
41.85530 943.000
41.87524 854.000
41.89519 886.000
41.91514 864.000
41.93509 851.000
41.95503 946.000
41.97498 880.000
41.99493 872.000
42.01487 910.000
42.03482 865.000
42.05477 977.000
42.07471 940.000
42.09466 983.000
42.11461 988.000
42.13456 969.000
42.15450 962.000
42.17445 1028.000
42.19440 980.000
42.21434 1059.000
42.23429 1068.000
42.25424 1098.000
42.27418 1207.000
42.29413 1176.000
42.31408 1228.000
42.33403 1269.000
42.35397 1343.000
42.37392 1403.000
42.39387 1503.000
42.41381 1645.000
42.43376 1674.000
42.45371 1846.000
42.47365 1941.000
42.49360 2064.000
42.51355 2317.000
42.53349 2424.000
42.55344 2524.000
42.57339 2796.000
42.59334 2904.000
42.61328 3148.000
42.63323 3218.000
42.65318 3359.000
42.67312 3477.000
42.69307 3544.000
42.71302 3666.000
42.73296 3500.000
42.75291 3384.000
42.77286 3289.000
42.79281 3281.000
42.81275 3027.000
42.83270 2908.000
42.85265 2653.000
42.87259 2525.000
42.89254 2261.000
42.91249 2083.000
42.93243 2017.000
42.95238 1869.000
42.97233 1645.000
42.99227 1551.000
43.01222 1495.000
43.03217 1408.000
43.05212 1317.000
43.07206 1255.000
43.09201 1154.000
43.11196 1199.000
43.13190 1111.000
43.15185 1080.000
43.17180 1062.000
43.19174 1039.000
43.21169 959.000
43.23164 1020.000
43.25159 957.000
43.27153 918.000
43.29148 873.000
43.31143 929.000
43.33137 864.000
43.35132 887.000
43.37127 906.000
43.39121 838.000
43.41116 827.000
43.43111 825.000
43.45105 862.000
43.47100 810.000
43.49095 814.000
43.51090 801.000
43.53084 836.000
43.55079 801.000
43.57074 824.000
43.59068 792.000
43.61063 831.000
43.63058 839.000
43.65052 775.000
43.67047 776.000
43.69042 756.000
43.71037 770.000
43.73031 749.000
43.75026 783.000
43.77021 782.000
43.79015 820.000
43.81010 761.000
43.83005 767.000
43.84999 760.000
43.86994 791.000
43.88989 762.000
43.90984 715.000
43.92978 702.000
43.94973 801.000
43.96968 774.000
43.98962 782.000
44.00957 699.000
44.02952 776.000
44.04946 728.000
44.06941 704.000
44.08936 724.000
44.10930 755.000
44.12925 797.000
44.14920 748.000
44.16915 775.000
44.18909 753.000
44.20904 754.000
44.22899 734.000
44.24893 755.000
44.26888 734.000
44.28883 720.000
44.30877 717.000
44.32872 755.000
44.34867 762.000
44.36862 704.000
44.38856 686.000
44.40851 681.000
44.42846 734.000
44.44840 760.000
44.46835 741.000
44.48830 684.000
44.50824 700.000
44.52819 759.000
44.54814 723.000
44.56808 748.000
44.58803 702.000
44.60798 709.000
44.62793 731.000
44.64787 661.000
44.66782 696.000
44.68777 705.000
44.70771 689.000
44.72766 735.000
44.74761 684.000
44.76755 703.000
44.78750 709.000
44.80745 746.000
44.82740 739.000
44.84734 724.000
44.86729 701.000
44.88724 710.000
44.90718 665.000
44.92713 703.000
44.94708 675.000
44.96702 671.000
44.98697 697.000
45.00692 634.000
45.02686 717.000
45.04681 728.000
45.06676 653.000
45.08671 657.000
45.10665 734.000
45.12660 702.000
45.14655 664.000
45.16649 745.000
45.18644 708.000
45.20639 702.000
45.22633 674.000
45.24628 668.000
45.26623 640.000
45.28618 682.000
45.30612 652.000
45.32607 692.000
45.34602 695.000
45.36596 670.000
45.38591 664.000
45.40586 638.000
45.42580 693.000
45.44575 672.000
45.46570 690.000
45.48565 687.000
45.50559 652.000
45.52554 652.000
45.54549 671.000
45.56543 698.000
45.58538 694.000
45.60533 696.000
45.62527 704.000
45.64522 654.000
45.66517 671.000
45.68511 681.000
45.70506 643.000
45.72501 712.000
45.74496 677.000
45.76490 703.000
45.78485 687.000
45.80480 675.000
45.82474 672.000
45.84469 763.000
45.86464 681.000
45.88458 657.000
45.90453 678.000
45.92448 651.000
45.94443 634.000
45.96437 733.000
45.98432 675.000
46.00427 701.000
46.02421 683.000
46.04416 678.000
46.06411 672.000
46.08405 673.000
46.10400 631.000
46.12395 679.000
46.14389 686.000
46.16384 647.000
46.18379 647.000
46.20374 665.000
46.22368 635.000
46.24363 640.000
46.26358 640.000
46.28352 665.000
46.30347 647.000
46.32342 667.000
46.34336 647.000
46.36331 679.000
46.38326 638.000
46.40321 663.000
46.42315 652.000
46.44310 707.000
46.46305 657.000
46.48299 662.000
46.50294 682.000
46.52289 661.000
46.54283 572.000
46.56278 693.000
46.58273 642.000
46.60267 651.000
46.62262 660.000
46.64257 626.000
46.66252 656.000
46.68246 622.000
46.70241 624.000
46.72236 703.000
46.74230 632.000
46.76225 647.000
46.78220 686.000
46.80214 636.000
46.82209 665.000
46.84204 650.000
46.86199 645.000
46.88193 634.000
46.90188 616.000
46.92183 639.000
46.94177 667.000
46.96172 633.000
46.98167 625.000
47.00161 639.000
47.02156 661.000
47.04151 632.000
47.06146 627.000
47.08140 632.000
47.10135 609.000
47.12130 614.000
47.14124 579.000
47.16119 618.000
47.18114 618.000
47.20108 609.000
47.22103 634.000
47.24098 583.000
47.26092 608.000
47.28087 627.000
47.30082 633.000
47.32077 598.000
47.34071 643.000
47.36066 607.000
47.38061 618.000
47.40055 630.000
47.42050 645.000
47.44045 645.000
47.46039 628.000
47.48034 584.000
47.50029 642.000
47.52024 636.000
47.54018 605.000
47.56013 609.000
47.58008 630.000
47.60002 652.000
47.61997 583.000
47.63992 627.000
47.65986 625.000
47.67981 602.000
47.69976 625.000
47.71970 619.000
47.73965 650.000
47.75960 650.000
47.77955 606.000
47.79949 650.000
47.81944 647.000
47.83939 629.000
47.85933 635.000
47.87928 600.000
47.89923 658.000
47.91917 620.000
47.93912 631.000
47.95907 628.000
47.97902 629.000
47.99896 610.000
48.01891 683.000
48.03886 634.000
48.05880 638.000
48.07875 652.000
48.09870 614.000
48.11864 607.000
48.13859 628.000
48.15854 670.000
48.17848 630.000
48.19843 690.000
48.21838 607.000
48.23833 595.000
48.25827 683.000
48.27822 674.000
48.29817 665.000
48.31811 666.000
48.33806 682.000
48.35801 699.000
48.37795 765.000
48.39790 704.000
48.41785 755.000
48.43780 727.000
48.45774 755.000
48.47769 755.000
48.49764 770.000
48.51758 843.000
48.53753 819.000
48.55748 866.000
48.57742 901.000
48.59737 869.000
48.61732 894.000
48.63726 889.000
48.65721 863.000
48.67716 872.000
48.69711 820.000
48.71705 817.000
48.73700 794.000
48.75695 807.000
48.77689 732.000
48.79684 768.000
48.81679 765.000
48.83673 694.000
48.85668 700.000
48.87663 637.000
48.89658 685.000
48.91652 658.000
48.93647 674.000
48.95642 659.000
48.97636 641.000
48.99631 635.000
49.01626 614.000
49.03620 643.000
49.05615 675.000
49.07610 637.000
49.09605 624.000
49.11599 643.000
49.13594 615.000
49.15589 627.000
49.17583 584.000
49.19578 571.000
49.21573 606.000
49.23567 623.000
49.25562 620.000
49.27557 628.000
49.29551 627.000
49.31546 604.000
49.33541 581.000
49.35536 658.000
49.37530 656.000
49.39525 574.000
49.41520 600.000
49.43514 588.000
49.45509 573.000
49.47504 655.000
49.49498 627.000
49.51493 581.000
49.53488 629.000
49.55483 600.000
49.57477 593.000
49.59472 559.000
49.61467 637.000
49.63461 598.000
49.65456 585.000
49.67451 587.000
49.69445 606.000
49.71440 599.000
49.73435 620.000
49.75429 611.000
49.77424 608.000
49.79419 581.000
49.81414 589.000
49.83408 551.000
49.85403 600.000
49.87398 602.000
49.89392 605.000
49.91387 610.000
49.93382 641.000
49.95376 593.000
49.97371 599.000
49.99366 574.000
50.01361 585.000
50.03355 588.000
50.05350 634.000
50.07345 587.000
50.09339 583.000
50.11334 606.000
50.13329 601.000
50.15323 604.000
50.17318 648.000
50.19313 591.000
50.21307 588.000
50.23302 615.000
50.25297 615.000
50.27292 619.000
50.29286 600.000
50.31281 563.000
50.33276 603.000
50.35270 582.000
50.37265 621.000
50.39260 665.000
50.41254 579.000
50.43249 593.000
50.45244 585.000
50.47239 577.000
50.49233 629.000
50.51228 628.000
50.53223 575.000
50.55217 583.000
50.57212 582.000
50.59207 612.000
50.61201 570.000
50.63196 595.000
50.65191 583.000
50.67186 547.000
50.69180 548.000
50.71175 643.000
50.73170 607.000
50.75164 587.000
50.77159 617.000
50.79154 627.000
50.81148 520.000
50.83143 598.000
50.85138 582.000
50.87132 572.000
50.89127 607.000
50.91122 602.000
50.93117 573.000
50.95111 611.000
50.97106 580.000
50.99101 589.000
51.01095 584.000
51.03090 598.000
51.05085 560.000
51.07079 598.000
51.09074 614.000
51.11069 575.000
51.13064 561.000
51.15058 616.000
51.17053 606.000
51.19048 557.000
51.21042 610.000
51.23037 553.000
51.25032 598.000
51.27026 584.000
51.29021 568.000
51.31016 605.000
51.33010 601.000
51.35005 528.000
51.37000 579.000
51.38995 622.000
51.40989 631.000
51.42984 557.000
51.44979 646.000
51.46973 590.000
51.48968 619.000
51.50963 539.000
51.52957 583.000
51.54952 534.000
51.56947 545.000
51.58942 589.000
51.60936 556.000
51.62931 550.000
51.64926 537.000
51.66920 595.000
51.68915 608.000
51.70910 578.000
51.72904 616.000
51.74899 550.000
51.76894 648.000
51.78888 596.000
51.80883 596.000
51.82878 590.000
51.84873 567.000
51.86867 622.000
51.88862 574.000
51.90857 583.000
51.92851 613.000
51.94846 588.000
51.96841 634.000
51.98835 587.000
52.00830 557.000
52.02825 553.000
52.04820 585.000
52.06814 618.000
52.08809 565.000
52.10804 578.000
52.12798 592.000
52.14793 563.000
52.16788 594.000
52.18782 569.000
52.20777 554.000
52.22772 589.000
52.24767 584.000
52.26761 549.000
52.28756 596.000
52.30751 575.000
52.32745 562.000
52.34740 548.000
52.36735 602.000
52.38729 541.000
52.40724 629.000
52.42719 595.000
52.44713 612.000
52.46708 590.000
52.48703 611.000
52.50698 616.000
52.52692 584.000
52.54687 620.000
52.56682 598.000
52.58676 593.000
52.60671 594.000
52.62666 643.000
52.64660 657.000
52.66655 629.000
52.68650 580.000
52.70645 660.000
52.72639 598.000
52.74634 613.000
52.76629 601.000
52.78623 584.000
52.80618 633.000
52.82613 640.000
52.84607 594.000
52.86602 664.000
52.88597 617.000
52.90591 604.000
52.92586 616.000
52.94581 639.000
52.96576 617.000
52.98570 638.000
53.00565 666.000
53.02560 617.000
53.04554 653.000
53.06549 616.000
53.08544 576.000
53.10538 600.000
53.12533 624.000
53.14528 604.000
53.16523 631.000
53.18517 572.000
53.20512 594.000
53.22507 592.000
53.24501 562.000
53.26496 566.000
53.28491 573.000
53.30485 569.000
53.32480 590.000
53.34475 507.000
53.36469 617.000
53.38464 597.000
53.40459 563.000
53.42454 597.000
53.44448 582.000
53.46443 572.000
53.48438 547.000
53.50432 591.000
53.52427 608.000
53.54422 605.000
53.56416 582.000
53.58411 558.000
53.60406 561.000
53.62401 582.000
53.64395 589.000
53.66390 600.000
53.68385 602.000
53.70379 564.000
53.72374 537.000
53.74369 561.000
53.76363 569.000
53.78358 525.000
53.80353 582.000
53.82348 562.000
53.84342 626.000
53.86337 545.000
53.88332 587.000
53.90326 520.000
53.92321 521.000
53.94316 585.000
53.96310 561.000
53.98305 547.000
54.00300 558.000
54.02294 556.000
54.04289 574.000
54.06284 554.000
54.08279 550.000
54.10273 532.000
54.12268 548.000
54.14263 503.000
54.16257 596.000
54.18252 596.000
54.20247 568.000
54.22241 561.000
54.24236 572.000
54.26231 547.000
54.28226 510.000
54.30220 575.000
54.32215 560.000
54.34210 509.000
54.36204 564.000
54.38199 567.000
54.40194 547.000
54.42188 526.000
54.44183 592.000
54.46178 566.000
54.48172 551.000
54.50167 560.000
54.52162 564.000
54.54157 563.000
54.56151 587.000
54.58146 589.000
54.60141 597.000
54.62135 593.000
54.64130 609.000
54.66125 548.000
54.68119 547.000
54.70114 566.000
54.72109 561.000
54.74104 576.000
54.76098 565.000
54.78093 572.000
54.80088 557.000
54.82082 546.000
54.84077 579.000
54.86072 535.000
54.88066 537.000
54.90061 571.000
54.92056 586.000
54.94050 534.000
54.96045 536.000
54.98040 553.000
55.00035 531.000
55.02029 571.000
55.04024 620.000
55.06019 556.000
55.08013 585.000
55.10008 533.000
55.12003 602.000
55.13997 555.000
55.15992 548.000
55.17987 543.000
55.19982 534.000
55.21976 579.000
55.23971 566.000
55.25966 614.000
55.27960 565.000
55.29955 574.000
55.31950 563.000
55.33944 585.000
55.35939 572.000
55.37934 560.000
55.39929 520.000
55.41923 537.000
55.43918 556.000
55.45913 548.000
55.47907 560.000
55.49902 588.000
55.51897 566.000
55.53891 579.000
55.55886 570.000
55.57881 587.000
55.59875 580.000
55.61870 593.000
55.63865 526.000
55.65860 544.000
55.67854 543.000
55.69849 572.000
55.71844 588.000
55.73838 561.000
55.75833 599.000
55.77828 594.000
55.79822 566.000
55.81817 586.000
55.83812 556.000
55.85807 556.000
55.87801 527.000
55.89796 549.000
55.91791 552.000
55.93785 549.000
55.95780 506.000
55.97775 600.000
55.99769 550.000
56.01764 586.000
56.03759 526.000
56.05753 563.000
56.07748 583.000
56.09743 527.000
56.11738 541.000
56.13732 574.000
56.15727 581.000
56.17722 532.000
56.19716 500.000
56.21711 544.000
56.23706 573.000
56.25700 550.000
56.27695 544.000
56.29690 541.000
56.31685 574.000
56.33679 543.000
56.35674 540.000
56.37669 570.000
56.39663 585.000
56.41658 553.000
56.43653 599.000
56.45647 545.000
56.47642 559.000
56.49637 573.000
56.51631 547.000
56.53626 578.000
56.55621 558.000
56.57616 592.000
56.59610 564.000
56.61605 540.000
56.63600 554.000
56.65594 564.000
56.67589 565.000
56.69584 595.000
56.71578 570.000
56.73573 592.000
56.75568 547.000
56.77563 537.000
56.79557 576.000
56.81552 539.000
56.83547 561.000
56.85541 559.000
56.87536 532.000
56.89531 540.000
56.91525 551.000
56.93520 550.000
56.95515 565.000
56.97510 558.000
56.99504 572.000
57.01499 564.000
57.03494 554.000
57.05488 584.000
57.07483 592.000
57.09478 535.000
57.11472 539.000
57.13467 577.000
57.15462 569.000
57.17456 534.000
57.19451 546.000
57.21446 557.000
57.23441 536.000
57.25435 596.000
57.27430 582.000
57.29425 552.000
57.31419 555.000
57.33414 549.000
57.35409 596.000
57.37403 596.000
57.39398 544.000
57.41393 511.000
57.43388 579.000
57.45382 606.000
57.47377 601.000
57.49372 582.000
57.51366 590.000
57.53361 534.000
57.55356 576.000
57.57350 652.000
57.59345 562.000
57.61340 563.000
57.63334 610.000
57.65329 584.000
57.67324 612.000
57.69319 597.000
57.71313 619.000
57.73308 641.000
57.75303 687.000
57.77297 679.000
57.79292 696.000
57.81287 690.000
57.83281 684.000
57.85276 739.000
57.87271 672.000
57.89266 664.000
57.91260 693.000
57.93255 616.000
57.95250 686.000
57.97244 590.000
57.99239 648.000
58.01234 626.000
58.03228 625.000
58.05223 612.000
58.07218 617.000
58.09212 574.000
58.11207 610.000
58.13202 628.000
58.15197 604.000
58.17191 588.000
58.19186 572.000
58.21181 586.000
58.23175 553.000
58.25170 557.000
58.27165 552.000
58.29159 553.000
58.31154 580.000
58.33149 541.000
58.35144 565.000
58.37138 609.000
58.39133 520.000
58.41128 553.000
58.43122 535.000
58.45117 551.000
58.47112 590.000
58.49106 574.000
58.51101 588.000
58.53096 571.000
58.55090 526.000
58.57085 553.000
58.59080 563.000
58.61075 595.000
58.63069 528.000
58.65064 526.000
58.67059 553.000
58.69053 542.000
58.71048 582.000
58.73043 553.000
58.75037 545.000
58.77032 551.000
58.79027 561.000
58.81022 551.000
58.83016 572.000
58.85011 578.000
58.87006 554.000
58.89000 520.000
58.90995 528.000
58.92990 552.000
58.94984 593.000
58.96979 552.000
58.98974 599.000
59.00969 590.000
59.02963 561.000
59.04958 590.000
59.06953 554.000
59.08947 525.000
59.10942 533.000
59.12937 580.000
59.14931 543.000
59.16926 597.000
59.18921 535.000
59.20915 544.000
59.22910 572.000
59.24905 572.000
59.26900 528.000
59.28894 552.000
59.30889 527.000
59.32884 577.000
59.34878 533.000
59.36873 532.000
59.38868 575.000
59.40862 544.000
59.42857 592.000
59.44852 514.000
59.46847 596.000
59.48841 494.000
59.50836 588.000
59.52831 574.000
59.54825 552.000
59.56820 550.000
59.58815 598.000
59.60809 518.000
59.62804 587.000
59.64799 560.000
59.66793 568.000
59.68788 582.000
59.70783 564.000
59.72778 551.000
59.74772 593.000
59.76767 596.000
59.78762 585.000
59.80756 535.000
59.82751 581.000
59.84746 544.000
59.86740 561.000
59.88735 594.000
59.90730 584.000
59.92725 592.000
59.94719 579.000
59.96714 546.000
59.98709 572.000
60.00703 516.000
60.02698 586.000
60.04693 587.000
60.06687 618.000
60.08682 553.000
60.10677 548.000
60.12671 555.000
60.14666 544.000
60.16661 604.000
60.18656 537.000
60.20650 576.000
60.22645 580.000
60.24640 592.000
60.26634 520.000
60.28629 546.000
60.30624 559.000
60.32618 535.000
60.34613 556.000
60.36608 538.000
60.38603 546.000
60.40597 542.000
60.42592 567.000
60.44587 561.000
60.46581 545.000
60.48576 587.000
60.50571 557.000
60.52565 609.000
60.54560 619.000
60.56555 513.000
60.58550 590.000
60.60544 589.000
60.62539 568.000
60.64534 582.000
60.66528 548.000
60.68523 562.000
60.70518 585.000
60.72512 600.000
60.74507 610.000
60.76502 598.000
60.78496 587.000
60.80491 590.000
60.82486 592.000
60.84481 586.000
60.86475 609.000
60.88470 642.000
60.90465 621.000
60.92459 636.000
60.94454 611.000
60.96449 626.000
60.98443 649.000
61.00438 727.000
61.02433 651.000
61.04428 698.000
61.06422 692.000
61.08417 697.000
61.10412 738.000
61.12406 791.000
61.14401 783.000
61.16396 787.000
61.18390 770.000
61.20385 810.000
61.22380 800.000
61.24374 845.000
61.26369 782.000
61.28364 707.000
61.30359 768.000
61.32353 750.000
61.34348 663.000
61.36343 742.000
61.38337 731.000
61.40332 698.000
61.42327 728.000
61.44321 722.000
61.46316 683.000
61.48311 695.000
61.50306 682.000
61.52300 668.000
61.54295 616.000
61.56290 652.000
61.58284 668.000
61.60279 661.000
61.62274 628.000
61.64268 706.000
61.66263 694.000
61.68258 711.000
61.70252 730.000
61.72247 732.000
61.74242 735.000
61.76237 787.000
61.78231 797.000
61.80226 803.000
61.82221 788.000
61.84215 871.000
61.86210 894.000
61.88205 954.000
61.90199 1008.000
61.92194 960.000
61.94189 1090.000
61.96184 1151.000
61.98178 1151.000
62.00173 1257.000
62.02168 1305.000
62.04162 1472.000
62.06157 1559.000
62.08152 1574.000
62.10146 1737.000
62.12141 1835.000
62.14136 1947.000
62.16131 2074.000
62.18125 2138.000
62.20120 2181.000
62.22115 2196.000
62.24109 2345.000
62.26104 2315.000
62.28099 2216.000
62.30093 2172.000
62.32088 1988.000
62.34083 1972.000
62.36077 1823.000
62.38072 1888.000
62.40067 1666.000
62.42062 1536.000
62.44056 1461.000
62.46051 1410.000
62.48046 1301.000
62.50040 1209.000
62.52035 1178.000
62.54030 1094.000
62.56024 992.000
62.58019 933.000
62.60014 850.000
62.62009 809.000
62.64003 850.000
62.65998 777.000
62.67993 705.000
62.69987 747.000
62.71982 727.000
62.73977 679.000
62.75971 677.000
62.77966 634.000
62.79961 683.000
62.81955 671.000
62.83950 597.000
62.85945 567.000
62.87940 613.000
62.89934 621.000
62.91929 607.000
62.93924 607.000
62.95918 624.000
62.97913 595.000
62.99908 622.000
63.01902 618.000
63.03897 600.000
63.05892 608.000
63.07887 610.000
63.09881 596.000
63.11876 612.000
63.13871 552.000
63.15865 598.000
63.17860 541.000
63.19855 552.000
63.21849 598.000
63.23844 560.000
63.25839 611.000
63.27833 572.000
63.29828 545.000
63.31823 616.000
63.33818 557.000
63.35812 594.000
63.37807 602.000
63.39802 595.000
63.41796 576.000
63.43791 601.000
63.45786 556.000
63.47780 580.000
63.49775 565.000
63.51770 551.000
63.53765 575.000
63.55759 571.000
63.57754 530.000
63.59749 572.000
63.61743 559.000
63.63738 535.000
63.65733 559.000
63.67727 553.000
63.69722 552.000
63.71717 554.000
63.73712 616.000
63.75706 561.000
63.77701 543.000
63.79696 554.000
63.81690 536.000
63.83685 554.000
63.85680 543.000
63.87674 528.000
63.89669 526.000
63.91664 589.000
63.93658 570.000
63.95653 576.000
63.97648 581.000
63.99643 558.000
64.01637 544.000
64.03632 608.000
64.05627 557.000
64.07621 528.000
64.09616 538.000
64.11611 571.000
64.13605 569.000
64.15600 543.000
64.17595 533.000
64.19590 529.000
64.21584 586.000
64.23579 534.000
64.25574 528.000
64.27568 579.000
64.29563 543.000
64.31558 584.000
64.33552 539.000
64.35547 553.000
64.37542 587.000
64.39536 588.000
64.41531 545.000
64.43526 583.000
64.45521 593.000
64.47515 625.000
64.49510 559.000
64.51505 574.000
64.53499 558.000
64.55494 562.000
64.57489 548.000
64.59483 551.000
64.61478 583.000
64.63473 578.000
64.65468 536.000
64.67462 521.000
64.69457 564.000
64.71452 530.000
64.73446 610.000
64.75441 585.000
64.77436 584.000
64.79430 592.000
64.81425 606.000
64.83420 609.000
64.85414 613.000
64.87409 600.000
64.89404 618.000
64.91399 560.000
64.93393 598.000
64.95388 626.000
64.97383 569.000
64.99377 618.000
65.01372 639.000
65.03367 576.000
65.05361 624.000
65.07356 654.000
65.09351 610.000
65.11346 668.000
65.13340 654.000
65.15335 641.000
65.17330 641.000
65.19324 658.000
65.21319 645.000
65.23314 629.000
65.25308 602.000
65.27303 649.000
65.29298 613.000
65.31293 656.000
65.33287 610.000
65.35282 655.000
65.37277 629.000
65.39271 598.000
65.41266 589.000
65.43261 625.000
65.45255 636.000
65.47250 617.000
65.49245 592.000
65.51239 615.000
65.53234 620.000
65.55229 562.000
65.57224 552.000
65.59218 666.000
65.61213 613.000
65.63208 591.000
65.65202 594.000
65.67197 550.000
65.69192 576.000
65.71186 554.000
65.73181 573.000
65.75176 589.000
65.77171 543.000
65.79165 556.000
65.81160 618.000
65.83155 574.000
65.85149 592.000
65.87144 611.000
65.89139 568.000
65.91133 603.000
65.93128 598.000
65.95123 649.000
65.97117 654.000
65.99112 682.000
66.01107 648.000
66.03102 663.000
66.05096 650.000
66.07091 698.000
66.09086 661.000
66.11080 689.000
66.13075 699.000
66.15070 698.000
66.17064 707.000
66.19059 669.000
66.21054 663.000
66.23049 667.000
66.25043 672.000
66.27038 656.000
66.29033 686.000
66.31027 645.000
66.33022 633.000
66.35017 648.000
66.37011 595.000
66.39006 614.000
66.41001 587.000
66.42995 593.000
66.44990 611.000
66.46985 615.000
66.48980 577.000
66.50974 567.000
66.52969 583.000
66.54964 552.000
66.56958 541.000
66.58953 561.000
66.60948 522.000
66.62942 560.000
66.64937 590.000
66.66932 530.000
66.68927 566.000
66.70921 587.000
66.72916 564.000
66.74911 535.000
66.76905 546.000
66.78900 540.000
66.80895 527.000
66.82889 611.000
66.84884 528.000
66.86879 596.000
66.88874 550.000
66.90868 593.000
66.92863 550.000
66.94858 543.000
66.96852 571.000
66.98847 575.000
67.00842 596.000
67.02836 576.000
67.04831 624.000
67.06826 574.000
67.08820 616.000
67.10815 613.000
67.12810 635.000
67.14805 644.000
67.16799 639.000
67.18794 607.000
67.20789 638.000
67.22783 606.000
67.24778 634.000
67.26773 631.000
67.28767 671.000
67.30762 718.000
67.32757 685.000
67.34752 708.000
67.36746 661.000
67.38741 649.000
67.40736 653.000
67.42730 697.000
67.44725 685.000
67.46720 646.000
67.48714 692.000
67.50709 662.000
67.52704 733.000
67.54698 711.000
67.56693 681.000
67.58688 744.000
67.60683 715.000
67.62677 714.000
67.64672 713.000
67.66667 719.000
67.68661 654.000
67.70656 674.000
67.72651 665.000
67.74645 667.000
67.76640 652.000
67.78635 634.000
67.80630 628.000
67.82624 555.000
67.84619 619.000
67.86614 635.000
67.88608 563.000
67.90603 613.000
67.92598 534.000
67.94592 559.000
67.96587 624.000
67.98582 619.000
68.00576 550.000
68.02571 567.000
68.04566 530.000
68.06561 524.000
68.08555 562.000
68.10550 566.000
68.12545 554.000
68.14539 524.000
68.16534 530.000
68.18529 564.000
68.20523 549.000
68.22518 543.000
68.24513 575.000
68.26508 519.000
68.28502 513.000
68.30497 535.000
68.32492 538.000
68.34486 532.000
68.36481 548.000
68.38476 526.000
68.40470 514.000
68.42465 509.000
68.44460 512.000
68.46455 517.000
68.48449 553.000
68.50444 517.000
68.52439 543.000
68.54433 489.000
68.56428 523.000
68.58423 563.000
68.60417 510.000
68.62412 483.000
68.64407 504.000
68.66401 528.000
68.68396 525.000
68.70391 489.000
68.72386 529.000
68.74380 556.000
68.76375 525.000
68.78370 518.000
68.80364 541.000
68.82359 527.000
68.84354 574.000
68.86348 501.000
68.88343 566.000
68.90338 501.000
68.92333 547.000
68.94327 501.000
68.96322 548.000
68.98317 538.000
69.00311 543.000
69.02306 515.000
69.04301 509.000
69.06295 524.000
69.08290 524.000
69.10285 533.000
69.12279 508.000
69.14274 492.000
69.16269 523.000
69.18264 535.000
69.20258 526.000
69.22253 551.000
69.24248 521.000
69.26242 537.000
69.28237 497.000
69.30232 512.000
69.32226 522.000
69.34221 546.000
69.36216 501.000
69.38211 534.000
69.40205 483.000
69.42200 514.000
69.44195 533.000
69.46189 542.000
69.48184 502.000
69.50179 519.000
69.52173 526.000
69.54168 549.000
69.56163 522.000
69.58157 490.000
69.60152 502.000
69.62147 507.000
69.64142 528.000
69.66136 531.000
69.68131 525.000
69.70126 498.000
69.72120 535.000
69.74115 555.000
69.76110 495.000
69.78104 535.000
69.80099 534.000
69.82094 520.000
69.84089 522.000
69.86083 549.000
69.88078 593.000
69.90073 503.000
69.92067 501.000
69.94062 490.000
69.96057 506.000
69.98051 535.000
70.00046 471.000
70.02041 537.000
70.04035 562.000
70.06030 529.000
70.08025 507.000
70.10020 511.000
70.12014 499.000
70.14009 495.000
70.16004 556.000
70.17998 513.000
70.19993 477.000
70.21988 509.000
70.23982 536.000
70.25977 482.000
70.27972 538.000
70.29967 492.000
70.31961 524.000
70.33956 519.000
70.35951 515.000
70.37945 509.000
70.39940 502.000
70.41935 557.000
70.43929 520.000
70.45924 512.000
70.47919 517.000
70.49914 509.000
70.51908 505.000
70.53903 512.000
70.55898 522.000
70.57892 528.000
70.59887 510.000
70.61882 484.000
70.63876 506.000
70.65871 512.000
70.67866 506.000
70.69860 520.000
70.71855 522.000
70.73850 544.000
70.75845 541.000
70.77839 547.000
70.79834 558.000
70.81829 536.000
70.83823 552.000
70.85818 503.000
70.87813 477.000
70.89807 519.000
70.91802 531.000
70.93797 494.000
70.95792 482.000
70.97786 538.000
70.99781 526.000
71.01776 498.000
71.03770 499.000
71.05765 462.000
71.07760 518.000
71.09754 534.000
71.11749 532.000
71.13744 535.000
71.15738 520.000
71.17733 493.000
71.19728 508.000
71.21723 529.000
71.23717 530.000
71.25712 497.000
71.27707 533.000
71.29701 496.000
71.31696 539.000
71.33691 506.000
71.35685 538.000
71.37680 520.000
71.39675 544.000
71.41670 521.000
71.43664 512.000
71.45659 535.000
71.47654 482.000
71.49648 568.000
71.51643 525.000
71.53638 533.000
71.55632 528.000
71.57627 514.000
71.59622 556.000
71.61616 542.000
71.63611 546.000
71.65606 519.000
71.67601 519.000
71.69595 540.000
71.71590 545.000
71.73585 513.000
71.75579 515.000
71.77574 521.000
71.79569 530.000
71.81563 539.000
71.83558 539.000
71.85553 511.000
71.87548 522.000
71.89542 566.000
71.91537 567.000
71.93532 584.000
71.95526 571.000
71.97521 554.000
71.99516 592.000
72.01510 559.000
72.03505 612.000
72.05500 611.000
72.07495 637.000
72.09489 583.000
72.11484 616.000
72.13479 571.000
72.15473 592.000
72.17468 561.000
72.19463 561.000
72.21457 595.000
72.23452 561.000
72.25447 532.000
72.27441 591.000
72.29436 560.000
72.31431 554.000
72.33426 589.000
72.35420 536.000
72.37415 496.000
72.39410 537.000
72.41404 571.000
72.43399 523.000
72.45394 532.000
72.47388 539.000
72.49383 552.000
72.51378 553.000
72.53373 527.000
72.55367 523.000
72.57362 532.000
72.59357 525.000
72.61351 522.000
72.63346 521.000
72.65341 555.000
72.67335 524.000
72.69330 547.000
72.71325 495.000
72.73319 514.000
72.75314 503.000
72.77309 521.000
72.79304 516.000
72.81298 501.000
72.83293 545.000
72.85288 512.000
72.87282 544.000
72.89277 547.000
72.91272 527.000
72.93266 511.000
72.95261 527.000
72.97256 525.000
72.99251 520.000
73.01245 505.000
73.03240 571.000
73.05235 522.000
73.07229 493.000
73.09224 505.000
73.11219 548.000
73.13213 520.000
73.15208 513.000
73.17203 533.000
73.19197 526.000
73.21192 537.000
73.23187 521.000
73.25182 499.000
73.27176 516.000
73.29171 516.000
73.31166 572.000
73.33160 568.000
73.35155 577.000
73.37150 522.000
73.39144 501.000
73.41139 554.000
73.43134 534.000
73.45129 547.000
73.47123 575.000
73.49118 536.000
73.51113 540.000
73.53107 523.000
73.55102 557.000
73.57097 563.000
73.59091 491.000
73.61086 509.000
73.63081 548.000
73.65076 497.000
73.67070 550.000
73.69065 542.000
73.71060 540.000
73.73054 519.000
73.75049 505.000
73.77044 530.000
73.79038 564.000
73.81033 571.000
73.83028 625.000
73.85022 600.000
73.87017 539.000
73.89012 562.000
73.91007 537.000
73.93001 573.000
73.94996 553.000
73.96991 618.000
73.98985 551.000
74.00980 587.000
74.02975 571.000
74.04969 578.000
74.06964 543.000
74.08959 599.000
74.10954 606.000
74.12948 586.000
74.14943 582.000
74.16938 620.000
74.18932 607.000
74.20927 605.000
74.22922 673.000
74.24916 661.000
74.26911 648.000
74.28906 697.000
74.30900 729.000
74.32895 734.000
74.34890 707.000
74.36885 777.000
74.38879 789.000
74.40874 756.000
74.42869 822.000
74.44863 796.000
74.46858 891.000
74.48853 896.000
74.50847 946.000
74.52842 899.000
74.54837 936.000
74.56832 974.000
74.58826 1013.000
74.60821 995.000
74.62816 1027.000
74.64810 1093.000
74.66805 1001.000
74.68800 1086.000
74.70794 1084.000
74.72789 1070.000
74.74784 1116.000
74.76778 1077.000
74.78773 1029.000
74.80768 1074.000
74.82763 1055.000
74.84757 1000.000
74.86752 1004.000
74.88747 1014.000
74.90741 907.000
74.92736 984.000
74.94731 923.000
74.96725 925.000
74.98720 843.000
75.00715 835.000
75.02710 776.000
75.04704 802.000
75.06699 820.000
75.08694 761.000
75.10688 782.000
75.12683 693.000
75.14678 689.000
75.16672 711.000
75.18667 667.000
75.20662 632.000
75.22657 667.000
75.24651 640.000
75.26646 618.000
75.28641 565.000
75.30635 626.000
75.32630 640.000
75.34625 598.000
75.36619 622.000
75.38614 575.000
75.40609 558.000
75.42603 589.000
75.44598 568.000
75.46593 584.000
75.48588 534.000
75.50582 572.000
75.52577 562.000
75.54572 552.000
75.56566 588.000
75.58561 563.000
75.60556 580.000
75.62550 554.000
75.64545 534.000
75.66540 574.000
75.68535 541.000
75.70529 529.000
75.72524 558.000
75.74519 551.000
75.76513 586.000
75.78508 555.000
75.80503 531.000
75.82497 509.000
75.84492 518.000
75.86487 547.000
75.88481 527.000
75.90476 536.000
75.92471 509.000
75.94466 480.000
75.96460 547.000
75.98455 504.000
76.00450 526.000
76.02444 582.000
76.04439 501.000
76.06434 521.000
76.08428 488.000
76.10423 521.000
76.12418 491.000
76.14413 504.000
76.16407 563.000
76.18402 484.000
76.20397 502.000
76.22391 540.000
76.24386 525.000
76.26381 556.000
76.28375 534.000
76.30370 523.000
76.32365 519.000
76.34359 574.000
76.36354 500.000
76.38349 523.000
76.40344 527.000
76.42338 503.000
76.44333 553.000
76.46328 530.000
76.48322 539.000
76.50317 513.000
76.52312 517.000
76.54306 538.000
76.56301 531.000
76.58296 540.000
76.60291 546.000
76.62285 543.000
76.64280 490.000
76.66275 521.000
76.68269 508.000
76.70264 485.000
76.72259 497.000
76.74253 515.000
76.76248 508.000
76.78243 515.000
76.80238 523.000
76.82232 492.000
76.84227 529.000
76.86222 553.000
76.88216 533.000
76.90211 564.000
76.92206 505.000
76.94200 536.000
76.96195 551.000
76.98190 510.000
77.00184 527.000
77.02179 536.000
77.04174 547.000
77.06169 502.000
77.08163 453.000
77.10158 522.000
77.12153 520.000
77.14147 508.000
77.16142 497.000
77.18137 533.000
77.20131 526.000
77.22126 489.000
77.24121 500.000
77.26116 540.000
77.28110 491.000
77.30105 535.000
77.32100 534.000
77.34094 498.000
77.36089 484.000
77.38084 527.000
77.40078 516.000
77.42073 525.000
77.44068 505.000
77.46062 513.000
77.48057 486.000
77.50052 520.000
77.52047 494.000
77.54041 525.000
77.56036 475.000
77.58031 519.000
77.60025 491.000
77.62020 526.000
77.64015 534.000
77.66009 527.000
77.68004 492.000
77.69999 527.000
77.71994 505.000
77.73988 520.000
77.75983 511.000
77.77978 546.000
77.79972 515.000
77.81967 543.000
77.83962 447.000
77.85956 504.000
77.87951 537.000
77.89946 540.000
77.91940 554.000
77.93935 488.000
77.95930 539.000
77.97925 491.000
77.99919 538.000
78.01914 547.000
78.03909 499.000
78.05903 515.000
78.07898 516.000
78.09893 517.000
78.11887 579.000
78.13882 536.000
78.15877 561.000
78.17872 553.000
78.19866 512.000
78.21861 563.000
78.23856 606.000
78.25850 514.000
78.27845 606.000
78.29840 603.000
78.31834 624.000
78.33829 638.000
78.35824 609.000
78.37819 600.000
78.39813 597.000
78.41808 648.000
78.43803 638.000
78.45797 643.000
78.47792 721.000
78.49787 743.000
78.51781 730.000
78.53776 809.000
78.55771 847.000
78.57765 870.000
78.59760 915.000
78.61755 1014.000
78.63750 1151.000
78.65744 1125.000
78.67739 1051.000
78.69734 1143.000
78.71728 1056.000
78.73723 954.000
78.75718 864.000
78.77712 879.000
78.79707 911.000
78.81702 871.000
78.83697 851.000
78.85691 836.000
78.87686 829.000
78.89681 877.000
78.91675 780.000
78.93670 872.000
78.95665 797.000
78.97659 742.000
78.99654 758.000
79.01649 651.000
79.03643 639.000
79.05638 611.000
79.07633 597.000
79.09628 625.000
79.11622 515.000
79.13617 530.000
79.15612 579.000
79.17606 527.000
79.19601 563.000
79.21596 527.000
79.23590 545.000
79.25585 552.000
79.27580 510.000
79.29575 487.000
79.31569 544.000
79.33564 547.000
79.35559 562.000
79.37553 545.000
79.39548 507.000
79.41543 556.000
79.43537 505.000
79.45532 503.000
79.47527 484.000
79.49521 528.000
79.51516 531.000
79.53511 567.000
79.55506 510.000
79.57500 518.000
79.59495 515.000
79.61490 555.000
79.63484 491.000
79.65479 542.000
79.67474 491.000
79.69468 503.000
79.71463 492.000
79.73458 527.000
79.75453 471.000
79.77447 517.000
79.79442 492.000
79.81437 511.000
79.83431 523.000
79.85426 490.000
79.87421 543.000
79.89415 531.000
79.91410 514.000
79.93405 549.000
79.95399 538.000
79.97394 522.000
79.99389 534.000
80.01384 495.000
80.03378 518.000
80.05373 544.000
80.07368 539.000
80.09362 543.000
80.11357 497.000
80.13352 523.000
80.15346 537.000
80.17341 490.000
80.19336 521.000
80.21331 499.000
80.23325 524.000
80.25320 543.000
80.27315 486.000
80.29309 528.000
80.31304 504.000
80.33299 535.000
80.35293 514.000
80.37288 557.000
80.39283 514.000
80.41278 509.000
80.43272 495.000
80.45267 503.000
80.47262 503.000
80.49256 510.000
80.51251 510.000
80.53246 512.000
80.55240 515.000
80.57235 503.000
80.59230 491.000
80.61224 564.000
80.63219 515.000
80.65214 525.000
80.67209 481.000
80.69203 510.000
80.71198 488.000
80.73193 528.000
80.75187 491.000
80.77182 533.000
80.79177 505.000
80.81171 496.000
80.83166 482.000
80.85161 561.000
80.87156 493.000
80.89150 479.000
80.91145 475.000
80.93140 561.000
80.95134 508.000
80.97129 487.000
80.99124 515.000
81.01118 491.000
81.03113 512.000
81.05108 524.000
81.07102 528.000
81.09097 524.000
81.11092 524.000
81.13087 502.000
81.15081 464.000
81.17076 503.000
81.19071 537.000
81.21065 503.000
81.23060 507.000
81.25055 505.000
81.27049 491.000
81.29044 511.000
81.31039 493.000
81.33034 519.000
81.35028 502.000
81.37023 474.000
81.39018 506.000
81.41012 556.000
81.43007 476.000
81.45002 498.000
81.46996 479.000
81.48991 488.000
81.50986 515.000
81.52980 498.000
81.54975 525.000
81.56970 514.000
81.58965 473.000
81.60959 509.000
81.62954 555.000
81.64949 519.000
81.66943 507.000
81.68938 503.000
81.70933 506.000
81.72927 492.000
81.74922 546.000
81.76917 484.000
81.78912 516.000
81.80906 509.000
81.82901 521.000
81.84896 493.000
81.86890 486.000
81.88885 497.000
81.90880 511.000
81.92874 537.000
81.94869 532.000
81.96864 536.000
81.98859 511.000
82.00853 510.000
82.02848 500.000
82.04843 544.000
82.06837 530.000
82.08832 540.000
82.10827 511.000
82.12821 534.000
82.14816 540.000
82.16811 579.000
82.18805 519.000
82.20800 503.000
82.22795 524.000
82.24790 531.000
82.26784 545.000
82.28779 545.000
82.30774 582.000
82.32768 549.000
82.34763 525.000
82.36758 619.000
82.38752 544.000
82.40747 585.000
82.42742 606.000
82.44737 593.000
82.46731 565.000
82.48726 548.000
82.50721 547.000
82.52715 541.000
82.54710 567.000
82.56705 565.000
82.58699 525.000
82.60694 513.000
82.62689 521.000
82.64683 523.000
82.66678 497.000
82.68673 523.000
82.70668 539.000
82.72662 525.000
82.74657 536.000
82.76652 545.000
82.78646 573.000
82.80641 529.000
82.82636 556.000
82.84630 538.000
82.86625 478.000
82.88620 548.000
82.90615 539.000
82.92609 483.000
82.94604 539.000
82.96599 523.000
82.98593 512.000
83.00588 504.000
83.02583 541.000
83.04577 536.000
83.06572 536.000
83.08567 542.000
83.10561 489.000
83.12556 517.000
83.14551 524.000
83.16546 510.000
83.18540 518.000
83.20535 522.000
83.22530 530.000
83.24524 490.000
83.26519 502.000
83.28514 508.000
83.30508 501.000
83.32503 501.000
83.34498 513.000
83.36493 539.000
83.38487 524.000
83.40482 513.000
83.42477 488.000
83.44471 510.000
83.46466 518.000
83.48461 516.000
83.50455 531.000
83.52450 509.000
83.54445 536.000
83.56440 515.000
83.58434 545.000
83.60429 519.000
83.62424 557.000
83.64418 535.000
83.66413 524.000
83.68408 528.000
83.70402 537.000
83.72397 490.000
83.74392 501.000
83.76386 513.000
83.78381 507.000
83.80376 562.000
83.82371 517.000
83.84365 557.000
83.86360 480.000
83.88355 545.000
83.90349 482.000
83.92344 515.000
83.94339 553.000
83.96333 460.000
83.98328 460.000
84.00323 519.000
84.02318 529.000
84.04312 485.000
84.06307 502.000
84.08302 498.000
84.10296 480.000
84.12291 527.000
84.14286 505.000
84.16280 485.000
84.18275 513.000
84.20270 503.000
84.22264 524.000
84.24259 499.000
84.26254 486.000
84.28249 504.000
84.30243 470.000
84.32238 486.000
84.34233 516.000
84.36227 518.000
84.38222 491.000
84.40217 506.000
84.42211 520.000
84.44206 454.000
84.46201 514.000
84.48196 542.000
84.50190 500.000
84.52185 490.000
84.54180 515.000
84.56174 485.000
84.58169 497.000
84.60164 469.000
84.62158 454.000
84.64153 478.000
84.66148 462.000
84.68142 526.000
84.70137 504.000
84.72132 498.000
84.74127 462.000
84.76121 530.000
84.78116 473.000
84.80111 506.000
84.82105 487.000
84.84100 544.000
84.86095 465.000
84.88089 500.000
84.90084 488.000
84.92079 527.000
84.94074 516.000
84.96068 482.000
84.98063 517.000
85.00058 481.000
85.02052 446.000
85.04047 521.000
85.06042 463.000
85.08036 499.000
85.10031 447.000
85.12026 503.000
85.14021 523.000
85.16015 487.000
85.18010 475.000
85.20005 525.000
85.21999 470.000
85.23994 514.000
85.25989 505.000
85.27983 537.000
85.29978 502.000
85.31973 511.000
85.33967 476.000
85.35962 507.000
85.37957 529.000
85.39952 497.000
85.41946 533.000
85.43941 510.000
85.45936 468.000
85.47930 550.000
85.49925 521.000
85.51920 502.000
85.53914 527.000
85.55909 473.000
85.57904 490.000
85.59899 489.000
85.61893 489.000
85.63888 504.000
85.65883 461.000
85.67877 474.000
85.69872 505.000
85.71867 504.000
85.73861 474.000
85.75856 467.000
85.77851 474.000
85.79845 486.000
85.81840 472.000
85.83835 498.000
85.85830 488.000
85.87824 520.000
85.89819 474.000
85.91814 520.000
85.93808 501.000
85.95803 526.000
85.97798 470.000
85.99792 499.000
86.01787 513.000
86.03782 484.000
86.05777 456.000
86.07771 511.000
86.09766 503.000
86.11761 500.000
86.13755 533.000
86.15750 474.000
86.17745 461.000
86.19739 497.000
86.21734 466.000
86.23729 469.000
86.25723 500.000
86.27718 529.000
86.29713 512.000
86.31708 535.000
86.33702 468.000
86.35697 478.000
86.37692 503.000
86.39686 475.000
86.41681 475.000
86.43676 520.000
86.45670 522.000
86.47665 508.000
86.49660 500.000
86.51655 510.000
86.53649 499.000
86.55644 480.000
86.57639 513.000
86.59633 545.000
86.61628 495.000
86.63623 527.000
86.65617 524.000
86.67612 487.000
86.69607 518.000
86.71602 499.000
86.73596 533.000
86.75591 485.000
86.77586 526.000
86.79580 447.000
86.81575 500.000
86.83570 465.000
86.85564 539.000
86.87559 498.000
86.89554 483.000
86.91548 543.000
86.93543 519.000
86.95538 536.000
86.97533 527.000
86.99527 467.000
87.01522 508.000
87.03517 520.000
87.05511 502.000
87.07506 518.000
87.09501 501.000
87.11495 494.000
87.13490 506.000
87.15485 463.000
87.17480 552.000
87.19474 486.000
87.21469 514.000
87.23464 532.000
87.25458 482.000
87.27453 499.000
87.29448 535.000
87.31442 502.000
87.33437 509.000
87.35432 525.000
87.37426 491.000
87.39421 463.000
87.41416 502.000
87.43411 474.000
87.45405 507.000
87.47400 502.000
87.49395 511.000
87.51389 511.000
87.53384 491.000
87.55379 475.000
87.57373 485.000
87.59368 504.000
87.61363 512.000
87.63358 516.000
87.65352 534.000
87.67347 488.000
87.69342 503.000
87.71336 475.000
87.73331 506.000
87.75326 538.000
87.77320 498.000
87.79315 463.000
87.81310 502.000
87.83304 506.000
87.85299 480.000
87.87294 508.000
87.89289 479.000
87.91283 516.000
87.93278 537.000
87.95273 492.000
87.97267 500.000
87.99262 529.000
88.01257 477.000
88.03251 467.000
88.05246 487.000
88.07241 501.000
88.09236 485.000
88.11230 521.000
88.13225 512.000
88.15220 461.000
88.17214 474.000
88.19209 517.000
88.21204 467.000
88.23198 498.000
88.25193 501.000
88.27188 461.000
88.29183 457.000
88.31177 498.000
88.33172 472.000
88.35167 487.000
88.37161 518.000
88.39156 493.000
88.41151 504.000
88.43145 497.000
88.45140 488.000
88.47135 523.000
88.49129 511.000
88.51124 514.000
88.53119 515.000
88.55114 505.000
88.57108 525.000
88.59103 489.000
88.61098 519.000
88.63092 479.000
88.65087 514.000
88.67082 545.000
88.69076 495.000
88.71071 506.000
88.73066 512.000
88.75061 496.000
88.77055 483.000
88.79050 488.000
88.81045 505.000
88.83039 497.000
88.85034 532.000
88.87029 499.000
88.89023 519.000
88.91018 537.000
88.93013 508.000
88.95007 543.000
88.97002 514.000
88.98997 489.000
89.00992 503.000
89.02986 543.000
89.04981 550.000
89.06976 466.000
89.08970 550.000
89.10965 501.000
89.12960 523.000
89.14954 504.000
89.16949 510.000
89.18944 488.000
89.20939 537.000
89.22933 487.000
89.24928 547.000
89.26923 548.000
89.28917 506.000
89.30912 533.000
89.32907 553.000
89.34901 532.000
89.36896 486.000
89.38891 489.000
89.40885 533.000
89.42880 520.000
89.44875 492.000
89.46870 487.000
89.48864 484.000
89.50859 532.000
89.52854 512.000
89.54848 539.000
89.56843 494.000
89.58838 503.000
89.60832 498.000
89.62827 515.000
89.64822 508.000
89.66817 510.000
89.68811 526.000
89.70806 524.000
89.72801 491.000
89.74795 465.000
89.76790 500.000
89.78785 535.000
89.80779 499.000
89.82774 481.000
89.84769 510.000
89.86764 497.000
89.88758 511.000
89.90753 506.000
89.92748 494.000
89.94742 479.000
89.96737 488.000
89.98732 498.000
90.00726 489.000
