10.00000 150.000
10.01995 118.000
10.03989 120.000
10.05984 140.000
10.07979 123.000
10.09973 103.000
10.11968 120.000
10.13963 134.000
10.15958 119.000
10.17952 131.000
10.19947 134.000
10.21942 117.000
10.23936 116.000
10.25931 125.000
10.27926 114.000
10.29920 131.000
10.31915 125.000
10.33910 104.000
10.35905 125.000
10.37899 138.000
10.39894 127.000
10.41889 118.000
10.43883 138.000
10.45878 114.000
10.47873 117.000
10.49867 129.000
10.51862 127.000
10.53857 115.000
10.55851 122.000
10.57846 146.000
10.59841 138.000
10.61836 128.000
10.63830 121.000
10.65825 126.000
10.67820 123.000
10.69814 126.000
10.71809 118.000
10.73804 111.000
10.75798 112.000
10.77793 122.000
10.79788 121.000
10.81783 112.000
10.83777 133.000
10.85772 129.000
10.87767 108.000
10.89761 151.000
10.91756 148.000
10.93751 128.000
10.95745 131.000
10.97740 127.000
10.99735 109.000
11.01730 117.000
11.03724 128.000
11.05719 135.000
11.07714 129.000
11.09708 121.000
11.11703 126.000
11.13698 136.000
11.15692 142.000
11.17687 107.000
11.19682 146.000
11.21676 120.000
11.23671 110.000
11.25666 119.000
11.27661 102.000
11.29655 132.000
11.31650 123.000
11.33645 125.000
11.35639 143.000
11.37634 115.000
11.39629 131.000
11.41623 118.000
11.43618 141.000
11.45613 127.000
11.47608 131.000
11.49602 119.000
11.51597 142.000
11.53592 107.000
11.55586 131.000
11.57581 133.000
11.59576 124.000
11.61570 133.000
11.63565 143.000
11.65560 141.000
11.67554 123.000
11.69549 122.000
11.71544 114.000
11.73539 111.000
11.75533 116.000
11.77528 135.000
11.79523 132.000
11.81517 136.000
11.83512 119.000
11.85507 128.000
11.87501 146.000
11.89496 134.000
11.91491 124.000
11.93486 114.000
11.95480 121.000
11.97475 130.000
11.99470 130.000
12.01464 143.000
12.03459 124.000
12.05454 115.000
12.07448 101.000
12.09443 117.000
12.11438 134.000
12.13432 145.000
12.15427 151.000
12.17422 135.000
12.19417 141.000
12.21411 133.000
12.23406 126.000
12.25401 109.000
12.27395 133.000
12.29390 114.000
12.31385 143.000
12.33379 126.000
12.35374 123.000
12.37369 117.000
12.39364 120.000
12.41358 141.000
12.43353 120.000
12.45348 133.000
12.47342 117.000
12.49337 116.000
12.51332 125.000
12.53326 132.000
12.55321 112.000
12.57316 121.000
12.59311 120.000
12.61305 123.000
12.63300 122.000
12.65295 111.000
12.67289 136.000
12.69284 118.000
12.71279 130.000
12.73273 108.000
12.75268 109.000
12.77263 119.000
12.79257 132.000
12.81252 144.000
12.83247 128.000
12.85242 128.000
12.87236 126.000
12.89231 136.000
12.91226 135.000
12.93220 124.000
12.95215 143.000
12.97210 115.000
12.99204 137.000
13.01199 130.000
13.03194 129.000
13.05189 119.000
13.07183 117.000
13.09178 126.000
13.11173 115.000
13.13167 147.000
13.15162 125.000
13.17157 131.000
13.19151 147.000
13.21146 139.000
13.23141 126.000
13.25135 121.000
13.27130 131.000
13.29125 119.000
13.31120 132.000
13.33114 123.000
13.35109 138.000
13.37104 127.000
13.39098 139.000
13.41093 118.000
13.43088 143.000
13.45082 115.000
13.47077 124.000
13.49072 113.000
13.51067 129.000
13.53061 139.000
13.55056 134.000
13.57051 132.000
13.59045 136.000
13.61040 141.000
13.63035 124.000
13.65029 115.000
13.67024 128.000
13.69019 129.000
13.71013 125.000
13.73008 123.000
13.75003 132.000
13.76998 127.000
13.78992 114.000
13.80987 129.000
13.82982 151.000
13.84976 135.000
13.86971 111.000
13.88966 127.000
13.90960 127.000
13.92955 124.000
13.94950 134.000
13.96945 134.000
13.98939 119.000
14.00934 126.000
14.02929 130.000
14.04923 140.000
14.06918 158.000
14.08913 120.000
14.10907 114.000
14.12902 125.000
14.14897 125.000
14.16892 140.000
14.18886 129.000
14.20881 154.000
14.22876 134.000
14.24870 141.000
14.26865 154.000
14.28860 150.000
14.30854 140.000
14.32849 167.000
14.34844 126.000
14.36838 166.000
14.38833 146.000
14.40828 127.000
14.42823 154.000
14.44817 156.000
14.46812 146.000
14.48807 144.000
14.50801 116.000
14.52796 116.000
14.54791 135.000
14.56785 124.000
14.58780 128.000
14.60775 120.000
14.62770 145.000
14.64764 154.000
14.66759 131.000
14.68754 129.000
14.70748 106.000
14.72743 169.000
14.74738 143.000
14.76732 158.000
14.78727 149.000
14.80722 156.000
14.82716 150.000
14.84711 135.000
14.86706 154.000
14.88701 157.000
14.90695 149.000
14.92690 131.000
14.94685 137.000
14.96679 135.000
14.98674 175.000
15.00669 163.000
15.02663 150.000
15.04658 168.000
15.06653 163.000
15.08648 177.000
15.10642 182.000
15.12637 172.000
15.14632 225.000
15.16626 253.000
15.18621 221.000
15.20616 198.000
15.22610 198.000
15.24605 199.000
15.26600 189.000
15.28594 196.000
15.30589 186.000
15.32584 167.000
15.34579 190.000
15.36573 229.000
15.38568 191.000
15.40563 221.000
15.42557 210.000
15.44552 208.000
15.46547 228.000
15.48541 253.000
15.50536 250.000
15.52531 240.000
15.54526 267.000
15.56520 292.000
15.58515 303.000
15.60510 310.000
15.62504 380.000
15.64499 447.000
15.66494 622.000
15.68488 834.000
15.70483 1193.000
15.72478 1976.000
15.74472 3167.000
15.76467 5330.000
15.78462 9296.000
15.80457 14765.000
15.82451 19770.000
15.84446 19778.000
15.86441 15120.000
15.88435 8949.000
15.90430 4477.000
15.92425 1831.000
15.94419 895.000
15.96414 582.000
15.98409 453.000
16.00404 391.000
16.02398 383.000
16.04393 347.000
16.06388 329.000
16.08382 319.000
16.10377 290.000
16.12372 312.000
16.14366 263.000
16.16361 249.000
16.18356 242.000
16.20351 211.000
16.22345 215.000
16.24340 196.000
16.26335 190.000
16.28329 215.000
16.30324 172.000
16.32319 202.000
16.34313 199.000
16.36308 177.000
16.38303 197.000
16.40297 161.000
16.42292 174.000
16.44287 144.000
16.46282 161.000
16.48276 172.000
16.50271 161.000
16.52266 172.000
16.54260 173.000
16.56255 136.000
16.58250 171.000
16.60244 156.000
16.62239 142.000
16.64234 148.000
16.66229 144.000
16.68223 147.000
16.70218 164.000
16.72213 161.000
16.74207 139.000
16.76202 161.000
16.78197 118.000
16.80191 146.000
16.82186 146.000
16.84181 128.000
16.86175 128.000
16.88170 146.000
16.90165 135.000
16.92160 166.000
16.94154 137.000
16.96149 140.000
16.98144 138.000
17.00138 142.000
17.02133 135.000
17.04128 145.000
17.06122 114.000
17.08117 126.000
17.10112 159.000
17.12107 140.000
17.14101 133.000
17.16096 150.000
17.18091 138.000
17.20085 139.000
17.22080 113.000
17.24075 129.000
17.26069 125.000
17.28064 127.000
17.30059 146.000
17.32053 124.000
17.34048 140.000
17.36043 118.000
17.38038 120.000
17.40032 125.000
17.42027 135.000
17.44022 135.000
17.46016 151.000
17.48011 148.000
17.50006 139.000
17.52000 142.000
17.53995 144.000
17.55990 137.000
17.57985 123.000
17.59979 142.000
17.61974 134.000
17.63969 117.000
17.65963 130.000
17.67958 115.000
17.69953 108.000
17.71947 113.000
17.73942 126.000
17.75937 152.000
17.77932 117.000
17.79926 137.000
17.81921 135.000
17.83916 121.000
17.85910 121.000
17.87905 129.000
17.89900 110.000
17.91894 107.000
17.93889 130.000
17.95884 163.000
17.97878 113.000
17.99873 137.000
18.01868 136.000
18.03863 146.000
18.05857 119.000
18.07852 137.000
18.09847 137.000
18.11841 138.000
18.13836 153.000
18.15831 138.000
18.17825 140.000
18.19820 134.000
18.21815 143.000
18.23810 154.000
18.25804 180.000
18.27799 181.000
18.29794 138.000
18.31788 161.000
18.33783 141.000
18.35778 155.000
18.37772 132.000
18.39767 144.000
18.41762 129.000
18.43756 156.000
18.45751 124.000
18.47746 131.000
18.49741 140.000
18.51735 136.000
18.53730 115.000
18.55725 105.000
18.57719 131.000
18.59714 139.000
18.61709 135.000
18.63703 117.000
18.65698 130.000
18.67693 139.000
18.69688 110.000
18.71682 126.000
18.73677 122.000
18.75672 131.000
18.77666 157.000
18.79661 130.000
18.81656 131.000
18.83650 122.000
18.85645 125.000
18.87640 119.000
18.89634 116.000
18.91629 112.000
18.93624 147.000
18.95619 123.000
18.97613 130.000
18.99608 139.000
19.01603 159.000
19.03597 146.000
19.05592 127.000
19.07587 136.000
19.09581 141.000
19.11576 128.000
19.13571 134.000
19.15566 132.000
19.17560 133.000
19.19555 132.000
19.21550 128.000
19.23544 117.000
19.25539 134.000
19.27534 115.000
19.29528 122.000
19.31523 138.000
19.33518 130.000
19.35513 144.000
19.37507 129.000
19.39502 132.000
19.41497 140.000
19.43491 132.000
19.45486 131.000
19.47481 117.000
19.49475 157.000
19.51470 132.000
19.53465 136.000
19.55459 120.000
19.57454 120.000
19.59449 129.000
19.61444 108.000
19.63438 136.000
19.65433 120.000
19.67428 141.000
19.69422 136.000
19.71417 127.000
19.73412 137.000
19.75406 138.000
19.77401 123.000
19.79396 136.000
19.81391 121.000
19.83385 155.000
19.85380 135.000
19.87375 150.000
19.89369 153.000
19.91364 108.000
19.93359 128.000
19.95353 134.000
19.97348 127.000
19.99343 136.000
20.01337 157.000
20.03332 123.000
20.05327 118.000
20.07322 147.000
20.09316 147.000
20.11311 142.000
20.13306 121.000
20.15300 139.000
20.17295 126.000
20.19290 136.000
20.21284 150.000
20.23279 131.000
20.25274 128.000
20.27269 118.000
20.29263 127.000
20.31258 138.000
20.33253 127.000
20.35247 125.000
20.37242 142.000
20.39237 144.000
20.41231 120.000
20.43226 111.000
20.45221 137.000
20.47215 140.000
20.49210 131.000
20.51205 144.000
20.53200 114.000
20.55194 130.000
20.57189 121.000
20.59184 115.000
20.61178 115.000
20.63173 137.000
20.65168 164.000
20.67162 154.000
20.69157 129.000
20.71152 152.000
20.73147 126.000
20.75141 131.000
20.77136 134.000
20.79131 147.000
20.81125 163.000
20.83120 144.000
20.85115 171.000
20.87109 184.000
20.89104 212.000
20.91099 239.000
20.93094 249.000
20.95088 322.000
20.97083 356.000
20.99078 300.000
21.01072 316.000
21.03067 294.000
21.05062 264.000
21.07056 287.000
21.09051 234.000
21.11046 195.000
21.13040 180.000
21.15035 184.000
21.17030 181.000
21.19025 155.000
21.21019 148.000
21.23014 155.000
21.25009 135.000
21.27003 122.000
21.28998 145.000
21.30993 140.000
21.32987 146.000
21.34982 133.000
21.36977 133.000
21.38972 136.000
21.40966 134.000
21.42961 143.000
21.44956 120.000
21.46950 117.000
21.48945 124.000
21.50940 128.000
21.52934 129.000
21.54929 145.000
21.56924 127.000
21.58918 130.000
21.60913 138.000
21.62908 137.000
21.64903 127.000
21.66897 154.000
21.68892 133.000
21.70887 139.000
21.72881 125.000
21.74876 128.000
21.76871 155.000
21.78865 122.000
21.80860 132.000
21.82855 164.000
21.84850 123.000
21.86844 132.000
21.88839 117.000
21.90834 130.000
21.92828 134.000
21.94823 159.000
21.96818 123.000
21.98812 122.000
22.00807 139.000
22.02802 138.000
22.04796 132.000
22.06791 141.000
22.08786 159.000
22.10781 114.000
22.12775 124.000
22.14770 126.000
22.16765 124.000
22.18759 125.000
22.20754 132.000
22.22749 130.000
22.24743 146.000
22.26738 133.000
22.28733 113.000
22.30728 122.000
22.32722 136.000
22.34717 134.000
22.36712 147.000
22.38706 132.000
22.40701 132.000
22.42696 130.000
22.44690 153.000
22.46685 142.000
22.48680 148.000
22.50675 130.000
22.52669 131.000
22.54664 128.000
22.56659 141.000
22.58653 124.000
22.60648 131.000
22.62643 132.000
22.64637 127.000
22.66632 150.000
22.68627 129.000
22.70621 132.000
22.72616 139.000
22.74611 135.000
22.76606 140.000
22.78600 134.000
22.80595 137.000
22.82590 143.000
22.84584 142.000
22.86579 134.000
22.88574 128.000
22.90568 129.000
22.92563 141.000
22.94558 136.000
22.96553 125.000
22.98547 142.000
23.00542 137.000
23.02537 140.000
23.04531 128.000
23.06526 119.000
23.08521 137.000
23.10515 155.000
23.12510 123.000
23.14505 151.000
23.16499 140.000
23.18494 128.000
23.20489 168.000
23.22484 143.000
23.24478 120.000
23.26473 124.000
23.28468 143.000
23.30462 121.000
23.32457 122.000
23.34452 128.000
23.36446 138.000
23.38441 154.000
23.40436 127.000
23.42431 133.000
23.44425 117.000
23.46420 120.000
23.48415 127.000
23.50409 124.000
23.52404 119.000
23.54399 118.000
23.56393 139.000
23.58388 134.000
23.60383 123.000
23.62377 120.000
23.64372 150.000
23.66367 134.000
23.68362 116.000
23.70356 151.000
23.72351 130.000
23.74346 139.000
23.76340 132.000
23.78335 130.000
23.80330 124.000
23.82324 143.000
23.84319 141.000
23.86314 141.000
23.88309 132.000
23.90303 142.000
23.92298 131.000
23.94293 133.000
23.96287 143.000
23.98282 129.000
24.00277 135.000
24.02271 163.000
24.04266 160.000
24.06261 152.000
24.08256 108.000
24.10250 154.000
24.12245 151.000
24.14240 132.000
24.16234 121.000
24.18229 148.000
24.20224 140.000
24.22218 137.000
24.24213 136.000
24.26208 154.000
24.28202 136.000
24.30197 137.000
24.32192 144.000
24.34187 138.000
24.36181 139.000
24.38176 130.000
24.40171 146.000
24.42165 128.000
24.44160 145.000
24.46155 142.000
24.48149 132.000
24.50144 117.000
24.52139 137.000
24.54134 155.000
24.56128 111.000
24.58123 144.000
24.60118 135.000
24.62112 128.000
24.64107 127.000
24.66102 139.000
24.68096 126.000
24.70091 134.000
24.72086 135.000
24.74080 141.000
24.76075 158.000
24.78070 157.000
24.80065 151.000
24.82059 140.000
24.84054 129.000
24.86049 137.000
24.88043 138.000
24.90038 172.000
24.92033 136.000
24.94027 123.000
24.96022 142.000
24.98017 166.000
25.00012 134.000
25.02006 166.000
25.04001 162.000
25.05996 157.000
25.07990 148.000
25.09985 157.000
25.11980 144.000
25.13974 126.000
25.15969 137.000
25.17964 139.000
25.19958 145.000
25.21953 119.000
25.23948 142.000
25.25943 147.000
25.27937 153.000
25.29932 156.000
25.31927 126.000
25.33921 145.000
25.35916 141.000
25.37911 129.000
25.39905 156.000
25.41900 129.000
25.43895 136.000
25.45890 165.000
25.47884 136.000
25.49879 132.000
25.51874 143.000
25.53868 130.000
25.55863 162.000
25.57858 134.000
25.59852 136.000
25.61847 134.000
25.63842 113.000
25.65837 130.000
25.67831 140.000
25.69826 146.000
25.71821 149.000
25.73815 138.000
25.75810 155.000
25.77805 150.000
25.79799 146.000
25.81794 146.000
25.83789 119.000
25.85783 139.000
25.87778 124.000
25.89773 139.000
25.91768 138.000
25.93762 140.000
25.95757 118.000
25.97752 140.000
25.99746 158.000
26.01741 132.000
26.03736 157.000
26.05730 132.000
26.07725 136.000
26.09720 122.000
26.11715 150.000
26.13709 145.000
26.15704 142.000
26.17699 143.000
26.19693 138.000
26.21688 142.000
26.23683 152.000
26.25677 129.000
26.27672 138.000
26.29667 125.000
26.31661 143.000
26.33656 154.000
26.35651 142.000
26.37646 157.000
26.39640 129.000
26.41635 129.000
26.43630 130.000
26.45624 158.000
26.47619 143.000
26.49614 144.000
26.51608 147.000
26.53603 151.000
26.55598 148.000
26.57593 168.000
26.59587 133.000
26.61582 136.000
26.63577 142.000
26.65571 134.000
26.67566 124.000
26.69561 152.000
26.71555 144.000
26.73550 143.000
26.75545 154.000
26.77539 133.000
26.79534 139.000
26.81529 138.000
26.83524 135.000
26.85518 149.000
26.87513 126.000
26.89508 148.000
26.91502 132.000
26.93497 152.000
26.95492 146.000
26.97486 169.000
26.99481 143.000
27.01476 136.000
27.03471 157.000
27.05465 151.000
27.07460 154.000
27.09455 132.000
27.11449 149.000
27.13444 130.000
27.15439 158.000
27.17433 164.000
27.19428 146.000
27.21423 155.000
27.23417 149.000
27.25412 145.000
27.27407 173.000
27.29402 160.000
27.31396 154.000
27.33391 155.000
27.35386 129.000
27.37380 139.000
27.39375 158.000
27.41370 133.000
27.43364 139.000
27.45359 169.000
27.47354 145.000
27.49349 150.000
27.51343 143.000
27.53338 145.000
27.55333 144.000
27.57327 136.000
27.59322 133.000
27.61317 132.000
27.63311 162.000
27.65306 142.000
27.67301 165.000
27.69296 134.000
27.71290 163.000
27.73285 113.000
27.75280 132.000
27.77274 144.000
27.79269 168.000
27.81264 123.000
27.83258 133.000
27.85253 146.000
27.87248 145.000
27.89242 147.000
27.91237 142.000
27.93232 163.000
27.95227 157.000
27.97221 146.000
27.99216 140.000
28.01211 148.000
28.03205 135.000
28.05200 124.000
28.07195 166.000
28.09189 142.000
28.11184 135.000
28.13179 155.000
28.15174 161.000
28.17168 140.000
28.19163 150.000
28.21158 158.000
28.23152 143.000
28.25147 144.000
28.27142 128.000
28.29136 142.000
28.31131 149.000
28.33126 131.000
28.35120 139.000
28.37115 131.000
28.39110 155.000
28.41105 143.000
28.43099 147.000
28.45094 124.000
28.47089 137.000
28.49083 121.000
28.51078 132.000
28.53073 117.000
28.55067 156.000
28.57062 147.000
28.59057 129.000
28.61052 142.000
28.63046 154.000
28.65041 118.000
28.67036 159.000
28.69030 139.000
28.71025 150.000
28.73020 143.000
28.75014 155.000
28.77009 132.000
28.79004 145.000
28.80998 145.000
28.82993 151.000
28.84988 169.000
28.86983 145.000
28.88977 136.000
28.90972 172.000
28.92967 164.000
28.94961 157.000
28.96956 137.000
28.98951 140.000
29.00945 156.000
29.02940 156.000
29.04935 148.000
29.06930 160.000
29.08924 138.000
29.10919 155.000
29.12914 134.000
29.14908 148.000
29.16903 147.000
29.18898 117.000
29.20892 154.000
29.22887 149.000
29.24882 165.000
29.26877 159.000
29.28871 155.000
29.30866 145.000
29.32861 165.000
29.34855 150.000
29.36850 163.000
29.38845 170.000
29.40839 168.000
29.42834 170.000
29.44829 162.000
29.46823 157.000
29.48818 124.000
29.50813 181.000
29.52808 164.000
29.54802 164.000
29.56797 160.000
29.58792 167.000
29.60786 156.000
29.62781 157.000
29.64776 159.000
29.66770 145.000
29.68765 164.000
29.70760 153.000
29.72755 152.000
29.74749 158.000
29.76744 136.000
29.78739 132.000
29.80733 157.000
29.82728 144.000
29.84723 124.000
29.86717 153.000
29.88712 136.000
29.90707 180.000
29.92701 179.000
29.94696 193.000
29.96691 246.000
29.98686 284.000
30.00680 288.000
30.02675 294.000
30.04670 213.000
30.06664 222.000
30.08659 215.000
30.10654 196.000
30.12648 212.000
30.14643 175.000
30.16638 163.000
30.18633 159.000
30.20627 157.000
30.22622 157.000
30.24617 164.000
30.26611 163.000
30.28606 178.000
30.30601 150.000
30.32595 158.000
30.34590 153.000
30.36585 153.000
30.38579 150.000
30.40574 184.000
30.42569 160.000
30.44564 150.000
30.46558 165.000
30.48553 158.000
30.50548 155.000
30.52542 161.000
30.54537 152.000
30.56532 165.000
30.58526 163.000
30.60521 144.000
30.62516 151.000
30.64511 155.000
30.66505 159.000
30.68500 159.000
30.70495 147.000
30.72489 144.000
30.74484 159.000
30.76479 155.000
30.78473 140.000
30.80468 149.000
30.82463 150.000
30.84458 187.000
30.86452 143.000
30.88447 159.000
30.90442 153.000
30.92436 153.000
30.94431 138.000
30.96426 148.000
30.98420 155.000
31.00415 167.000
31.02410 158.000
31.04404 166.000
31.06399 167.000
31.08394 152.000
31.10389 152.000
31.12383 145.000
31.14378 178.000
31.16373 163.000
31.18367 166.000
31.20362 127.000
31.22357 156.000
31.24351 170.000
31.26346 140.000
31.28341 161.000
31.30336 162.000
31.32330 147.000
31.34325 155.000
31.36320 158.000
31.38314 154.000
31.40309 158.000
31.42304 152.000
31.44298 152.000
31.46293 186.000
31.48288 148.000
31.50282 157.000
31.52277 160.000
31.54272 185.000
31.56267 165.000
31.58261 151.000
31.60256 166.000
31.62251 176.000
31.64245 137.000
31.66240 195.000
31.68235 184.000
31.70229 238.000
31.72224 214.000
31.74219 226.000
31.76214 271.000
31.78208 292.000
31.80203 409.000
31.82198 499.000
31.84192 735.000
31.86187 922.000
31.88182 1255.000
31.90176 1703.000
31.92171 1965.000
31.94166 2000.000
31.96160 1718.000
31.98155 1431.000
32.00150 1245.000
32.02145 1004.000
32.04139 800.000
32.06134 516.000
32.08129 352.000
32.10123 257.000
32.12118 240.000
32.14113 187.000
32.16107 180.000
32.18102 187.000
32.20097 171.000
32.22092 178.000
32.24086 164.000
32.26081 183.000
32.28076 193.000
32.30070 190.000
32.32065 171.000
32.34060 143.000
32.36054 185.000
32.38049 159.000
32.40044 137.000
32.42039 146.000
32.44033 173.000
32.46028 188.000
32.48023 187.000
32.50017 188.000
32.52012 185.000
32.54007 222.000
32.56001 246.000
32.57996 236.000
32.59991 263.000
32.61985 226.000
32.63980 181.000
32.65975 230.000
32.67970 206.000
32.69964 171.000
32.71959 192.000
32.73954 130.000
32.75948 153.000
32.77943 171.000
32.79938 135.000
32.81932 156.000
32.83927 157.000
32.85922 168.000
32.87917 144.000
32.89911 173.000
32.91906 167.000
32.93901 156.000
32.95895 164.000
32.97890 160.000
32.99885 152.000
33.01879 165.000
33.03874 157.000
33.05869 176.000
33.07863 162.000
33.09858 163.000
33.11853 187.000
33.13848 140.000
33.15842 144.000
33.17837 173.000
33.19832 144.000
33.21826 137.000
33.23821 154.000
33.25816 188.000
33.27810 156.000
33.29805 164.000
33.31800 124.000
33.33795 171.000
33.35789 181.000
33.37784 180.000
33.39779 161.000
33.41773 165.000
33.43768 165.000
33.45763 161.000
33.47757 166.000
33.49752 138.000
33.51747 140.000
33.53741 164.000
33.55736 142.000
33.57731 160.000
33.59726 124.000
33.61720 155.000
33.63715 172.000
33.65710 164.000
33.67704 183.000
33.69699 144.000
33.71694 171.000
33.73688 155.000
33.75683 152.000
33.77678 154.000
33.79673 159.000
33.81667 159.000
33.83662 156.000
33.85657 139.000
33.87651 165.000
33.89646 162.000
33.91641 150.000
33.93635 159.000
33.95630 167.000
33.97625 187.000
33.99620 177.000
34.01614 164.000
34.03609 167.000
34.05604 169.000
34.07598 175.000
34.09593 154.000
34.11588 169.000
34.13582 171.000
34.15577 181.000
34.17572 180.000
34.19566 172.000
34.21561 173.000
34.23556 191.000
34.25551 191.000
34.27545 185.000
34.29540 178.000
34.31535 204.000
34.33529 205.000
34.35524 217.000
34.37519 229.000
34.39513 240.000
34.41508 227.000
34.43503 249.000
34.45498 274.000
34.47492 275.000
34.49487 261.000
34.51482 336.000
34.53476 310.000
34.55471 273.000
34.57466 280.000
34.59460 295.000
34.61455 302.000
34.63450 301.000
34.65444 285.000
34.67439 281.000
34.69434 269.000
34.71429 270.000
34.73423 241.000
34.75418 227.000
34.77413 213.000
34.79407 231.000
34.81402 217.000
34.83397 180.000
34.85391 189.000
34.87386 185.000
34.89381 184.000
34.91376 167.000
34.93370 192.000
34.95365 174.000
34.97360 192.000
34.99354 162.000
35.01349 175.000
35.03344 169.000
35.05338 183.000
35.07333 157.000
35.09328 202.000
35.11322 179.000
35.13317 206.000
35.15312 184.000
35.17307 189.000
35.19301 206.000
35.21296 222.000
35.23291 249.000
35.25285 275.000
35.27280 276.000
35.29275 364.000
35.31269 369.000
35.33264 400.000
35.35259 425.000
35.37254 491.000
35.39248 540.000
35.41243 667.000
35.43238 880.000
35.45232 1141.000
35.47227 1196.000
35.49222 1307.000
35.51216 1356.000
35.53211 1326.000
35.55206 1395.000
35.57201 1514.000
35.59195 1567.000
35.61190 1539.000
35.63185 1211.000
35.65179 1005.000
35.67174 988.000
35.69169 861.000
35.71163 713.000
35.73158 566.000
35.75153 459.000
35.77147 407.000
35.79142 323.000
35.81137 293.000
35.83132 268.000
35.85126 247.000
35.87121 218.000
35.89116 203.000
35.91110 200.000
35.93105 195.000
35.95100 217.000
35.97094 196.000
35.99089 159.000
36.01084 177.000
36.03079 145.000
36.05073 181.000
36.07068 142.000
36.09063 172.000
36.11057 166.000
36.13052 187.000
36.15047 177.000
36.17041 181.000
36.19036 174.000
36.21031 148.000
36.23025 188.000
36.25020 179.000
36.27015 149.000
36.29010 168.000
36.31004 173.000
36.32999 185.000
36.34994 192.000
36.36988 191.000
36.38983 192.000
36.40978 241.000
36.42972 210.000
36.44967 217.000
36.46962 217.000
36.48957 204.000
36.50951 204.000
36.52946 169.000
36.54941 179.000
36.56935 203.000
36.58930 176.000
36.60925 152.000
36.62919 166.000
36.64914 189.000
36.66909 169.000
36.68903 172.000
36.70898 170.000
36.72893 162.000
36.74888 149.000
36.76882 160.000
36.78877 156.000
36.80872 170.000
36.82866 162.000
36.84861 181.000
36.86856 177.000
36.88850 172.000
36.90845 195.000
36.92840 183.000
36.94835 169.000
36.96829 204.000
36.98824 174.000
37.00819 156.000
37.02813 166.000
37.04808 193.000
37.06803 174.000
37.08797 161.000
37.10792 167.000
37.12787 172.000
37.14781 160.000
37.16776 156.000
37.18771 164.000
37.20766 151.000
37.22760 162.000
37.24755 173.000
37.26750 157.000
37.28744 180.000
37.30739 165.000
37.32734 146.000
37.34728 146.000
37.36723 138.000
37.38718 162.000
37.40713 150.000
37.42707 149.000
37.44702 171.000
37.46697 147.000
37.48691 172.000
37.50686 170.000
37.52681 183.000
37.54675 165.000
37.56670 171.000
37.58665 157.000
37.60660 164.000
37.62654 153.000
37.64649 170.000
37.66644 157.000
37.68638 153.000
37.70633 132.000
37.72628 170.000
37.74622 159.000
37.76617 142.000
37.78612 176.000
37.80606 160.000
37.82601 159.000
37.84596 165.000
37.86591 152.000
37.88585 183.000
37.90580 158.000
37.92575 150.000
37.94569 186.000
37.96564 156.000
37.98559 156.000
38.00553 162.000
38.02548 164.000
38.04543 174.000
38.06538 157.000
38.08532 163.000
38.10527 171.000
38.12522 172.000
38.14516 196.000
38.16511 184.000
38.18506 169.000
38.20500 167.000
38.22495 155.000
38.24490 170.000
38.26484 183.000
38.28479 171.000
38.30474 189.000
38.32469 170.000
38.34463 169.000
38.36458 159.000
38.38453 182.000
38.40447 189.000
38.42442 206.000
38.44437 208.000
38.46431 195.000
38.48426 194.000
38.50421 223.000
38.52416 213.000
38.54410 194.000
38.56405 226.000
38.58400 230.000
38.60394 236.000
38.62389 243.000
38.64384 323.000
38.66378 341.000
38.68373 403.000
38.70368 513.000
38.72362 594.000
38.74357 794.000
38.76352 983.000
38.78347 1166.000
38.80341 1283.000
38.82336 1150.000
38.84331 1021.000
38.86325 986.000
38.88320 1032.000
38.90315 994.000
38.92309 941.000
38.94304 967.000
38.96299 986.000
38.98294 1079.000
39.00288 1255.000
39.02283 1340.000
39.04278 1485.000
39.06272 1539.000
39.08267 1486.000
39.10262 1430.000
39.12256 1302.000
39.14251 1162.000
39.16246 1088.000
39.18241 996.000
39.20235 833.000
39.22230 691.000
39.24225 610.000
39.26219 537.000
39.28214 521.000
39.30209 451.000
39.32203 388.000
39.34198 365.000
39.36193 307.000
39.38187 294.000
39.40182 289.000
39.42177 241.000
39.44172 241.000
39.46166 199.000
39.48161 201.000
39.50156 205.000
39.52150 171.000
39.54145 188.000
39.56140 171.000
39.58134 168.000
39.60129 176.000
39.62124 178.000
39.64119 155.000
39.66113 170.000
39.68108 166.000
39.70103 162.000
39.72097 181.000
39.74092 177.000
39.76087 179.000
39.78081 161.000
39.80076 174.000
39.82071 148.000
39.84065 153.000
39.86060 160.000
39.88055 151.000
39.90050 158.000
39.92044 149.000
39.94039 170.000
39.96034 167.000
39.98028 186.000
40.00023 152.000
40.02018 157.000
40.04012 135.000
40.06007 166.000
40.08002 156.000
40.09997 168.000
40.11991 149.000
40.13986 166.000
40.15981 147.000
40.17975 145.000
40.19970 136.000
40.21965 184.000
40.23959 167.000
40.25954 185.000
40.27949 151.000
40.29943 151.000
40.31938 163.000
40.33933 150.000
40.35928 158.000
40.37922 162.000
40.39917 151.000
40.41912 153.000
40.43906 167.000
40.45901 132.000
40.47896 153.000
40.49890 153.000
40.51885 144.000
40.53880 147.000
40.55875 146.000
40.57869 154.000
40.59864 170.000
40.61859 178.000
40.63853 152.000
40.65848 144.000
40.67843 145.000
40.69837 158.000
40.71832 136.000
40.73827 149.000
40.75822 138.000
40.77816 161.000
40.79811 161.000
40.81806 136.000
40.83800 146.000
40.85795 164.000
40.87790 136.000
40.89784 123.000
40.91779 149.000
40.93774 160.000
40.95768 172.000
40.97763 136.000
40.99758 158.000
41.01753 146.000
41.03747 149.000
41.05742 155.000
41.07737 162.000
41.09731 148.000
41.11726 149.000
41.13721 149.000
41.15715 144.000
41.17710 183.000
41.19705 146.000
41.21700 169.000
41.23694 151.000
41.25689 162.000
41.27684 156.000
41.29678 148.000
41.31673 140.000
41.33668 160.000
41.35662 167.000
41.37657 155.000
41.39652 144.000
41.41646 165.000
41.43641 133.000
41.45636 147.000
41.47631 155.000
41.49625 186.000
41.51620 164.000
41.53615 177.000
41.55609 157.000
41.57604 150.000
41.59599 159.000
41.61593 162.000
41.63588 138.000
41.65583 169.000
41.67578 166.000
41.69572 156.000
41.71567 134.000
41.73562 131.000
41.75556 149.000
41.77551 149.000
41.79546 145.000
41.81540 147.000
41.83535 160.000
41.85530 148.000
41.87524 139.000
41.89519 139.000
41.91514 149.000
41.93509 160.000
41.95503 160.000
41.97498 143.000
41.99493 150.000
42.01487 151.000
42.03482 148.000
42.05477 173.000
42.07471 159.000
42.09466 151.000
42.11461 153.000
42.13456 161.000
42.15450 137.000
42.17445 152.000
42.19440 137.000
42.21434 125.000
42.23429 147.000
42.25424 176.000
42.27418 147.000
42.29413 147.000
42.31408 159.000
42.33403 164.000
42.35397 169.000
42.37392 146.000
42.39387 174.000
42.41381 152.000
42.43376 169.000
42.45371 139.000
42.47365 157.000
42.49360 182.000
42.51355 143.000
42.53349 143.000
42.55344 153.000
42.57339 176.000
42.59334 154.000
42.61328 154.000
42.63323 157.000
42.65318 152.000
42.67312 164.000
42.69307 133.000
42.71302 136.000
42.73296 148.000
42.75291 178.000
42.77286 164.000
42.79281 171.000
42.81275 170.000
42.83270 172.000
42.85265 192.000
42.87259 193.000
42.89254 205.000
42.91249 198.000
42.93243 223.000
42.95238 210.000
42.97233 212.000
42.99227 197.000
43.01222 221.000
43.03217 236.000
43.05212 246.000
43.07206 304.000
43.09201 362.000
43.11196 470.000
43.13190 477.000
43.15185 549.000
43.17180 523.000
43.19174 532.000
43.21169 465.000
43.23164 499.000
43.25159 473.000
43.27153 432.000
43.29148 397.000
43.31143 366.000
43.33137 314.000
43.35132 325.000
43.37127 249.000
43.39121 252.000
43.41116 230.000
43.43111 199.000
43.45105 180.000
43.47100 200.000
43.49095 156.000
43.51090 185.000
43.53084 158.000
43.55079 159.000
43.57074 186.000
43.59068 151.000
43.61063 168.000
43.63058 158.000
43.65052 153.000
43.67047 161.000
43.69042 135.000
43.71037 160.000
43.73031 146.000
43.75026 174.000
43.77021 160.000
43.79015 150.000
43.81010 164.000
43.83005 147.000
43.84999 156.000
43.86994 144.000
43.88989 160.000
43.90984 141.000
43.92978 136.000
43.94973 158.000
43.96968 138.000
43.98962 156.000
44.00957 119.000
44.02952 155.000
44.04946 155.000
44.06941 140.000
44.08936 160.000
44.10930 171.000
44.12925 136.000
44.14920 144.000
44.16915 138.000
44.18909 138.000
44.20904 138.000
44.22899 155.000
44.24893 158.000
44.26888 142.000
44.28883 155.000
44.30877 157.000
44.32872 147.000
44.34867 171.000
44.36862 131.000
44.38856 126.000
44.40851 155.000
44.42846 130.000
44.44840 151.000
44.46835 149.000
44.48830 175.000
44.50824 169.000
44.52819 149.000
44.54814 149.000
44.56808 169.000
44.58803 163.000
44.60798 121.000
44.62793 130.000
44.64787 161.000
44.66782 146.000
44.68777 131.000
44.70771 162.000
44.72766 143.000
44.74761 143.000
44.76755 150.000
44.78750 148.000
44.80745 150.000
44.82740 169.000
44.84734 151.000
44.86729 167.000
44.88724 160.000
44.90718 155.000
44.92713 148.000
44.94708 142.000
44.96702 145.000
44.98697 143.000
45.00692 140.000
45.02686 123.000
45.04681 151.000
45.06676 141.000
45.08671 140.000
45.10665 147.000
45.12660 165.000
45.14655 138.000
45.16649 189.000
45.18644 153.000
45.20639 120.000
45.22633 164.000
45.24628 153.000
45.26623 145.000
45.28618 147.000
45.30612 149.000
45.32607 132.000
45.34602 165.000
45.36596 137.000
45.38591 143.000
45.40586 158.000
45.42580 144.000
45.44575 157.000
45.46570 125.000
45.48565 119.000
45.50559 149.000
45.52554 156.000
45.54549 162.000
45.56543 151.000
45.58538 135.000
45.60533 149.000
45.62527 128.000
45.64522 141.000
45.66517 139.000
45.68511 140.000
45.70506 144.000
45.72501 136.000
45.74496 142.000
45.76490 157.000
45.78485 147.000
45.80480 145.000
45.82474 180.000
45.84469 148.000
45.86464 157.000
45.88458 139.000
45.90453 146.000
45.92448 146.000
45.94443 141.000
45.96437 132.000
45.98432 152.000
46.00427 152.000
46.02421 141.000
46.04416 136.000
46.06411 148.000
46.08405 148.000
46.10400 150.000
46.12395 143.000
46.14389 134.000
46.16384 151.000
46.18379 149.000
46.20374 148.000
46.22368 157.000
46.24363 154.000
46.26358 189.000
46.28352 179.000
46.30347 193.000
46.32342 158.000
46.34336 169.000
46.36331 155.000
46.38326 173.000
46.40321 171.000
46.42315 151.000
46.44310 175.000
46.46305 144.000
46.48299 147.000
46.50294 150.000
46.52289 160.000
46.54283 160.000
46.56278 161.000
46.58273 146.000
46.60267 174.000
46.62262 154.000
46.64257 147.000
46.66252 152.000
46.68246 180.000
46.70241 136.000
46.72236 129.000
46.74230 150.000
46.76225 125.000
46.78220 132.000
46.80214 167.000
46.82209 156.000
46.84204 134.000
46.86199 154.000
46.88193 140.000
46.90188 147.000
46.92183 156.000
46.94177 157.000
46.96172 170.000
46.98167 151.000
47.00161 152.000
47.02156 163.000
47.04151 147.000
47.06146 162.000
47.08140 149.000
47.10135 155.000
47.12130 153.000
47.14124 137.000
47.16119 177.000
47.18114 164.000
47.20108 133.000
47.22103 163.000
47.24098 150.000
47.26092 142.000
47.28087 127.000
47.30082 155.000
47.32077 133.000
47.34071 166.000
47.36066 138.000
47.38061 149.000
47.40055 156.000
47.42050 157.000
47.44045 144.000
47.46039 144.000
47.48034 146.000
47.50029 162.000
47.52024 147.000
47.54018 143.000
47.56013 152.000
47.58008 148.000
47.60002 167.000
47.61997 152.000
47.63992 171.000
47.65986 140.000
47.67981 163.000
47.69976 185.000
47.71970 171.000
47.73965 150.000
47.75960 174.000
47.77955 156.000
47.79949 164.000
47.81944 162.000
47.83939 176.000
47.85933 166.000
47.87928 160.000
47.89923 176.000
47.91917 161.000
47.93912 174.000
47.95907 159.000
47.97902 168.000
47.99896 212.000
48.01891 172.000
48.03886 209.000
48.05880 193.000
48.07875 175.000
48.09870 192.000
48.11864 199.000
48.13859 209.000
48.15854 203.000
48.17848 209.000
48.19843 226.000
48.21838 253.000
48.23833 252.000
48.25827 280.000
48.27822 291.000
48.29817 370.000
48.31811 399.000
48.33806 449.000
48.35801 632.000
48.37795 801.000
48.39790 963.000
48.41785 1181.000
48.43780 1277.000
48.45774 1137.000
48.47769 1011.000
48.49764 936.000
48.51758 1019.000
48.53753 981.000
48.55748 975.000
48.57742 929.000
48.59737 778.000
48.61732 681.000
48.63726 627.000
48.65721 559.000
48.67716 555.000
48.69711 531.000
48.71705 574.000
48.73700 526.000
48.75695 497.000
48.77689 548.000
48.79684 406.000
48.81679 363.000
48.83673 341.000
48.85668 321.000
48.87663 365.000
48.89658 327.000
48.91652 279.000
48.93647 245.000
48.95642 238.000
48.97636 232.000
48.99631 198.000
49.01626 201.000
49.03620 178.000
49.05615 188.000
49.07610 197.000
49.09605 173.000
49.11599 206.000
49.13594 170.000
49.15589 168.000
49.17583 155.000
49.19578 158.000
49.21573 160.000
49.23567 176.000
49.25562 146.000
49.27557 149.000
49.29551 163.000
49.31546 178.000
49.33541 169.000
49.35536 147.000
49.37530 167.000
49.39525 176.000
49.41520 159.000
49.43514 153.000
49.45509 164.000
49.47504 191.000
49.49498 154.000
49.51493 161.000
49.53488 159.000
49.55483 176.000
49.57477 174.000
49.59472 183.000
49.61467 162.000
49.63461 186.000
49.65456 144.000
49.67451 149.000
49.69445 155.000
49.71440 149.000
49.73435 157.000
49.75429 155.000
49.77424 140.000
49.79419 159.000
49.81414 161.000
49.83408 167.000
49.85403 133.000
49.87398 140.000
49.89392 142.000
49.91387 150.000
49.93382 176.000
49.95376 144.000
49.97371 156.000
49.99366 159.000
50.01361 141.000
50.03355 145.000
50.05350 138.000
50.07345 140.000
50.09339 166.000
50.11334 162.000
50.13329 144.000
50.15323 155.000
50.17318 165.000
50.19313 131.000
50.21307 144.000
50.23302 141.000
50.25297 153.000
50.27292 148.000
50.29286 168.000
50.31281 169.000
50.33276 177.000
50.35270 144.000
50.37265 143.000
50.39260 162.000
50.41254 148.000
50.43249 155.000
50.45244 166.000
50.47239 172.000
50.49233 161.000
50.51228 145.000
50.53223 159.000
50.55217 143.000
50.57212 165.000
50.59207 148.000
50.61201 142.000
50.63196 165.000
50.65191 156.000
50.67186 142.000
50.69180 146.000
50.71175 146.000
50.73170 151.000
50.75164 154.000
50.77159 142.000
50.79154 162.000
50.81148 148.000
50.83143 148.000
50.85138 157.000
50.87132 150.000
50.89127 123.000
50.91122 145.000
50.93117 148.000
50.95111 126.000
50.97106 132.000
50.99101 124.000
51.01095 157.000
51.03090 166.000
51.05085 142.000
51.07079 149.000
51.09074 121.000
51.11069 147.000
51.13064 141.000
51.15058 138.000
51.17053 141.000
51.19048 143.000
51.21042 130.000
51.23037 145.000
51.25032 162.000
51.27026 151.000
51.29021 152.000
51.31016 130.000
51.33010 149.000
51.35005 134.000
51.37000 161.000
51.38995 156.000
51.40989 169.000
51.42984 172.000
51.44979 163.000
51.46973 138.000
51.48968 139.000
51.50963 169.000
51.52957 142.000
51.54952 155.000
51.56947 142.000
51.58942 167.000
51.60936 146.000
51.62931 150.000
51.64926 154.000
51.66920 148.000
51.68915 128.000
51.70910 131.000
51.72904 140.000
51.74899 151.000
51.76894 139.000
51.78888 137.000
51.80883 135.000
51.82878 144.000
51.84873 156.000
51.86867 137.000
51.88862 142.000
51.90857 157.000
51.92851 148.000
51.94846 131.000
51.96841 144.000
51.98835 135.000
52.00830 137.000
52.02825 149.000
52.04820 146.000
52.06814 145.000
52.08809 139.000
52.10804 142.000
52.12798 146.000
52.14793 150.000
52.16788 131.000
52.18782 134.000
52.20777 158.000
52.22772 156.000
52.24767 147.000
52.26761 148.000
52.28756 151.000
52.30751 134.000
52.32745 134.000
52.34740 147.000
52.36735 150.000
52.38729 130.000
52.40724 140.000
52.42719 146.000
52.44713 175.000
52.46708 136.000
52.48703 169.000
52.50698 157.000
52.52692 148.000
52.54687 142.000
52.56682 142.000
52.58676 134.000
52.60671 144.000
52.62666 158.000
52.64660 141.000
52.66655 146.000
52.68650 151.000
52.70645 135.000
52.72639 135.000
52.74634 137.000
52.76629 156.000
52.78623 143.000
52.80618 138.000
52.82613 135.000
52.84607 134.000
52.86602 144.000
52.88597 151.000
52.90591 168.000
52.92586 152.000
52.94581 143.000
52.96576 140.000
52.98570 147.000
53.00565 153.000
53.02560 145.000
53.04554 136.000
53.06549 146.000
53.08544 144.000
53.10538 151.000
53.12533 149.000
53.14528 146.000
53.16523 149.000
53.18517 146.000
53.20512 164.000
53.22507 166.000
53.24501 146.000
53.26496 146.000
53.28491 147.000
53.30485 150.000
53.32480 177.000
53.34475 157.000
53.36469 145.000
53.38464 174.000
53.40459 174.000
53.42454 180.000
53.44448 172.000
53.46443 163.000
53.48438 189.000
53.50432 217.000
53.52427 202.000
53.54422 205.000
53.56416 207.000
53.58411 186.000
53.60406 210.000
53.62401 218.000
53.64395 195.000
53.66390 199.000
53.68385 187.000
53.70379 198.000
53.72374 160.000
53.74369 179.000
53.76363 183.000
53.78358 173.000
53.80353 159.000
53.82348 165.000
53.84342 201.000
53.86337 172.000
53.88332 178.000
53.90326 172.000
53.92321 151.000
53.94316 137.000
53.96310 157.000
53.98305 144.000
54.00300 153.000
54.02294 155.000
54.04289 167.000
54.06284 145.000
54.08279 142.000
54.10273 123.000
54.12268 158.000
54.14263 133.000
54.16257 164.000
54.18252 139.000
54.20247 142.000
54.22241 175.000
54.24236 149.000
54.26231 161.000
54.28226 151.000
54.30220 155.000
54.32215 152.000
54.34210 147.000
54.36204 146.000
54.38199 151.000
54.40194 136.000
54.42188 135.000
54.44183 129.000
54.46178 154.000
54.48172 150.000
54.50167 133.000
54.52162 163.000
54.54157 181.000
54.56151 150.000
54.58146 144.000
54.60141 138.000
54.62135 142.000
54.64130 163.000
54.66125 121.000
54.68119 156.000
54.70114 159.000
54.72109 147.000
54.74104 153.000
54.76098 142.000
54.78093 123.000
54.80088 160.000
54.82082 140.000
54.84077 151.000
54.86072 152.000
54.88066 138.000
54.90061 144.000
54.92056 165.000
54.94050 156.000
54.96045 139.000
54.98040 116.000
55.00035 178.000
55.02029 146.000
55.04024 133.000
55.06019 150.000
55.08013 160.000
55.10008 165.000
55.12003 180.000
55.13997 149.000
55.15992 131.000
55.17987 147.000
55.19982 124.000
55.21976 128.000
55.23971 162.000
55.25966 134.000
55.27960 122.000
55.29955 152.000
55.31950 167.000
55.33944 135.000
55.35939 136.000
55.37934 143.000
55.39929 148.000
55.41923 160.000
55.43918 154.000
55.45913 138.000
55.47907 138.000
55.49902 151.000
55.51897 164.000
55.53891 144.000
55.55886 155.000
55.57881 149.000
55.59875 133.000
55.61870 158.000
55.63865 138.000
55.65860 156.000
55.67854 145.000
55.69849 152.000
55.71844 127.000
55.73838 162.000
55.75833 157.000
55.77828 146.000
55.79822 152.000
55.81817 151.000
55.83812 154.000
55.85807 148.000
55.87801 167.000
55.89796 141.000
55.91791 164.000
55.93785 133.000
55.95780 137.000
55.97775 172.000
55.99769 176.000
56.01764 143.000
56.03759 125.000
56.05753 133.000
56.07748 129.000
56.09743 137.000
56.11738 156.000
56.13732 139.000
56.15727 137.000
56.17722 155.000
56.19716 147.000
56.21711 143.000
56.23706 135.000
56.25700 163.000
56.27695 159.000
56.29690 145.000
56.31685 163.000
56.33679 163.000
56.35674 163.000
56.37669 167.000
56.39663 136.000
56.41658 152.000
56.43653 174.000
56.45647 136.000
56.47642 159.000
56.49637 153.000
56.51631 141.000
56.53626 154.000
56.55621 146.000
56.57616 139.000
56.59610 158.000
56.61605 146.000
56.63600 165.000
56.65594 165.000
56.67589 156.000
56.69584 162.000
56.71578 167.000
56.73573 190.000
56.75568 187.000
56.77563 189.000
56.79557 184.000
56.81552 193.000
56.83547 170.000
56.85541 173.000
56.87536 181.000
56.89531 163.000
56.91525 168.000
56.93520 149.000
56.95515 158.000
56.97510 170.000
56.99504 139.000
57.01499 146.000
57.03494 164.000
57.05488 143.000
57.07483 152.000
57.09478 161.000
57.11472 150.000
57.13467 130.000
57.15462 157.000
57.17456 146.000
57.19451 128.000
57.21446 166.000
57.23441 169.000
57.25435 151.000
57.27430 153.000
57.29425 137.000
57.31419 143.000
57.33414 126.000
57.35409 152.000
57.37403 142.000
57.39398 144.000
57.41393 137.000
57.43388 147.000
57.45382 156.000
57.47377 143.000
57.49372 126.000
57.51366 139.000
57.53361 148.000
57.55356 146.000
57.57350 139.000
57.59345 148.000
57.61340 137.000
57.63334 143.000
57.65329 156.000
57.67324 139.000
57.69319 160.000
57.71313 140.000
57.73308 148.000
57.75303 155.000
57.77297 147.000
57.79292 145.000
57.81287 174.000
57.83281 146.000
57.85276 133.000
57.87271 142.000
57.89266 141.000
57.91260 151.000
57.93255 155.000
57.95250 155.000
57.97244 153.000
57.99239 142.000
58.01234 153.000
58.03228 144.000
58.05223 155.000
58.07218 154.000
58.09212 165.000
58.11207 155.000
58.13202 154.000
58.15197 178.000
58.17191 162.000
58.19186 168.000
58.21181 169.000
58.23175 187.000
58.25170 152.000
58.27165 205.000
58.29159 187.000
58.31154 214.000
58.33149 227.000
58.35144 251.000
58.37138 257.000
58.39133 222.000
58.41128 227.000
58.43122 213.000
58.45117 202.000
58.47112 218.000
58.49106 217.000
58.51101 188.000
58.53096 196.000
58.55090 196.000
58.57085 184.000
58.59080 172.000
58.61075 158.000
58.63069 166.000
58.65064 151.000
58.67059 170.000
58.69053 162.000
58.71048 158.000
58.73043 168.000
58.75037 159.000
58.77032 153.000
58.79027 146.000
58.81022 173.000
58.83016 163.000
58.85011 144.000
58.87006 125.000
58.89000 167.000
58.90995 149.000
58.92990 144.000
58.94984 156.000
58.96979 161.000
58.98974 160.000
59.00969 149.000
59.02963 155.000
59.04958 152.000
59.06953 149.000
59.08947 133.000
59.10942 139.000
59.12937 152.000
59.14931 166.000
59.16926 161.000
59.18921 146.000
59.20915 139.000
59.22910 143.000
59.24905 161.000
59.26900 157.000
59.28894 156.000
59.30889 146.000
59.32884 127.000
59.34878 151.000
59.36873 161.000
59.38868 172.000
59.40862 142.000
59.42857 162.000
59.44852 138.000
59.46847 147.000
59.48841 159.000
59.50836 164.000
59.52831 155.000
59.54825 160.000
59.56820 133.000
59.58815 139.000
59.60809 128.000
59.62804 156.000
59.64799 151.000
59.66793 154.000
59.68788 132.000
59.70783 148.000
59.72778 151.000
59.74772 134.000
59.76767 143.000
59.78762 157.000
59.80756 135.000
59.82751 166.000
59.84746 182.000
59.86740 161.000
59.88735 147.000
59.90730 153.000
59.92725 155.000
59.94719 127.000
59.96714 148.000
59.98709 155.000
60.00703 145.000
60.02698 148.000
60.04693 169.000
60.06687 143.000
60.08682 156.000
60.10677 151.000
60.12671 138.000
60.14666 139.000
60.16661 162.000
60.18656 152.000
60.20650 147.000
60.22645 121.000
60.24640 126.000
60.26634 146.000
60.28629 158.000
60.30624 138.000
60.32618 129.000
60.34613 136.000
60.36608 168.000
60.38603 142.000
60.40597 140.000
60.42592 173.000
60.44587 147.000
60.46581 148.000
60.48576 135.000
60.50571 145.000
60.52565 130.000
60.54560 169.000
60.56555 146.000
60.58550 151.000
60.60544 167.000
60.62539 162.000
60.64534 144.000
60.66528 130.000
60.68523 132.000
60.70518 157.000
60.72512 143.000
60.74507 141.000
60.76502 140.000
60.78496 178.000
60.80491 147.000
60.82486 146.000
60.84481 178.000
60.86475 161.000
60.88470 169.000
60.90465 145.000
60.92459 144.000
60.94454 169.000
60.96449 160.000
60.98443 181.000
61.00438 161.000
61.02433 168.000
61.04428 128.000
61.06422 173.000
61.08417 152.000
61.10412 162.000
61.12406 155.000
61.14401 166.000
61.16396 163.000
61.18390 158.000
61.20385 151.000
61.22380 187.000
61.24374 192.000
61.26369 187.000
61.28364 170.000
61.30359 225.000
61.32353 171.000
61.34348 192.000
61.36343 208.000
61.38337 212.000
61.40332 222.000
61.42327 252.000
61.44321 240.000
61.46316 276.000
61.48311 314.000
61.50306 373.000
61.52300 397.000
61.54295 483.000
61.56290 570.000
61.58284 642.000
61.60279 803.000
61.62274 826.000
61.64268 827.000
61.66263 767.000
61.68258 695.000
61.70252 634.000
61.72247 585.000
61.74242 579.000
61.76237 586.000
61.78231 557.000
61.80226 558.000
61.82221 525.000
61.84215 492.000
61.86210 409.000
61.88205 361.000
61.90199 329.000
61.92194 291.000
61.94189 258.000
61.96184 259.000
61.98178 246.000
62.00173 245.000
62.02168 235.000
62.04162 216.000
62.06157 217.000
62.08152 207.000
62.10146 195.000
62.12141 225.000
62.14136 237.000
62.16131 258.000
62.18125 261.000
62.20120 286.000
62.22115 351.000
62.24109 331.000
62.26104 358.000
62.28099 402.000
62.30093 319.000
62.32088 299.000
62.34083 285.000
62.36077 260.000
62.38072 250.000
62.40067 274.000
62.42062 280.000
62.44056 257.000
62.46051 217.000
62.48046 225.000
62.50040 207.000
62.52035 209.000
62.54030 168.000
62.56024 183.000
62.58019 168.000
62.60014 170.000
62.62009 190.000
62.64003 143.000
62.65998 173.000
62.67993 170.000
62.69987 155.000
62.71982 160.000
62.73977 151.000
62.75971 205.000
62.77966 170.000
62.79961 156.000
62.81955 164.000
62.83950 143.000
62.85945 182.000
62.87940 189.000
62.89934 156.000
62.91929 154.000
62.93924 156.000
62.95918 165.000
62.97913 159.000
62.99908 148.000
63.01902 151.000
63.03897 176.000
63.05892 165.000
63.07887 175.000
63.09881 166.000
63.11876 145.000
63.13871 160.000
63.15865 163.000
63.17860 166.000
63.19855 168.000
63.21849 184.000
63.23844 149.000
63.25839 195.000
63.27833 178.000
63.29828 167.000
63.31823 154.000
63.33818 191.000
63.35812 172.000
63.37807 168.000
63.39802 162.000
63.41796 198.000
63.43791 197.000
63.45786 225.000
63.47780 196.000
63.49775 233.000
63.51770 269.000
63.53765 267.000
63.55759 298.000
63.57754 305.000
63.59749 353.000
63.61743 374.000
63.63738 356.000
63.65733 345.000
63.67727 294.000
63.69722 356.000
63.71717 337.000
63.73712 351.000
63.75706 361.000
63.77701 330.000
63.79696 315.000
63.81690 319.000
63.83685 315.000
63.85680 283.000
63.87674 308.000
63.89669 285.000
63.91664 256.000
63.93658 250.000
63.95653 244.000
63.97648 234.000
63.99643 216.000
64.01637 204.000
64.03632 196.000
64.05627 191.000
64.07621 214.000
64.09616 190.000
64.11611 219.000
64.13605 206.000
64.15600 180.000
64.17595 179.000
64.19590 177.000
64.21584 172.000
64.23579 184.000
64.25574 182.000
64.27568 182.000
64.29563 176.000
64.31558 176.000
64.33552 167.000
64.35547 156.000
64.37542 189.000
64.39536 185.000
64.41531 156.000
64.43526 186.000
64.45521 147.000
64.47515 153.000
64.49510 163.000
64.51505 149.000
64.53499 167.000
64.55494 151.000
64.57489 168.000
64.59483 157.000
64.61478 178.000
64.63473 162.000
64.65468 159.000
64.67462 182.000
64.69457 146.000
64.71452 141.000
64.73446 149.000
64.75441 161.000
64.77436 130.000
64.79430 140.000
64.81425 155.000
64.83420 176.000
64.85414 173.000
64.87409 167.000
64.89404 133.000
64.91399 150.000
64.93393 184.000
64.95388 165.000
64.97383 141.000
64.99377 167.000
65.01372 145.000
65.03367 157.000
65.05361 166.000
65.07356 149.000
65.09351 129.000
65.11346 170.000
65.13340 155.000
65.15335 143.000
65.17330 159.000
65.19324 134.000
65.21319 148.000
65.23314 127.000
65.25308 156.000
65.27303 174.000
65.29298 179.000
65.31293 149.000
65.33287 181.000
65.35282 155.000
65.37277 183.000
65.39271 149.000
65.41266 158.000
65.43261 151.000
65.45255 166.000
65.47250 180.000
65.49245 173.000
65.51239 174.000
65.53234 184.000
65.55229 180.000
65.57224 179.000
65.59218 171.000
65.61213 180.000
65.63208 152.000
65.65202 187.000
65.67197 193.000
65.69192 210.000
65.71186 189.000
65.73181 190.000
65.75176 229.000
65.77171 207.000
65.79165 227.000
65.81160 231.000
65.83155 252.000
65.85149 243.000
65.87144 268.000
65.89139 290.000
65.91133 312.000
65.93128 313.000
65.95123 344.000
65.97117 340.000
65.99112 349.000
66.01107 416.000
66.03102 421.000
66.05096 413.000
66.07091 363.000
66.09086 380.000
66.11080 365.000
66.13075 357.000
66.15070 364.000
66.17064 408.000
66.19059 372.000
66.21054 393.000
66.23049 402.000
66.25043 384.000
66.27038 354.000
66.29033 369.000
66.31027 333.000
66.33022 315.000
66.35017 299.000
66.37011 324.000
66.39006 276.000
66.41001 292.000
66.42995 273.000
66.44990 285.000
66.46985 264.000
66.48980 268.000
66.50974 266.000
66.52969 264.000
66.54964 269.000
66.56958 289.000
66.58953 260.000
66.60948 284.000
66.62942 315.000
66.64937 331.000
66.66932 326.000
66.68927 316.000
66.70921 308.000
66.72916 285.000
66.74911 273.000
66.76905 256.000
66.78900 243.000
66.80895 245.000
66.82889 208.000
66.84884 223.000
66.86879 213.000
66.88874 223.000
66.90868 179.000
66.92863 197.000
66.94858 171.000
66.96852 188.000
66.98847 168.000
67.00842 178.000
67.02836 155.000
67.04831 158.000
67.06826 161.000
67.08820 150.000
67.10815 154.000
67.12810 162.000
67.14805 160.000
67.16799 181.000
67.18794 142.000
67.20789 144.000
67.22783 154.000
67.24778 156.000
67.26773 137.000
67.28767 139.000
67.30762 130.000
67.32757 175.000
67.34752 146.000
67.36746 160.000
67.38741 160.000
67.40736 170.000
67.42730 142.000
67.44725 169.000
67.46720 148.000
67.48714 134.000
67.50709 153.000
67.52704 162.000
67.54698 191.000
67.56693 150.000
67.58688 159.000
67.60683 150.000
67.62677 153.000
67.64672 143.000
67.66667 154.000
67.68661 161.000
67.70656 153.000
67.72651 150.000
67.74645 145.000
67.76640 153.000
67.78635 162.000
67.80630 151.000
67.82624 169.000
67.84619 163.000
67.86614 186.000
67.88608 203.000
67.90603 193.000
67.92598 201.000
67.94592 204.000
67.96587 191.000
67.98582 211.000
68.00576 233.000
68.02571 219.000
68.04566 201.000
68.06561 207.000
68.08555 223.000
68.10550 212.000
68.12545 283.000
68.14539 244.000
68.16534 254.000
68.18529 237.000
68.20523 247.000
68.22518 227.000
68.24513 233.000
68.26508 210.000
68.28502 191.000
68.30497 210.000
68.32492 202.000
68.34486 232.000
68.36481 197.000
68.38476 193.000
68.40470 203.000
68.42465 178.000
68.44460 173.000
68.46455 190.000
68.48449 173.000
68.50444 166.000
68.52439 161.000
68.54433 156.000
68.56428 166.000
68.58423 166.000
68.60417 116.000
68.62412 140.000
68.64407 162.000
68.66401 143.000
68.68396 148.000
68.70391 156.000
68.72386 143.000
68.74380 129.000
68.76375 170.000
68.78370 147.000
68.80364 138.000
68.82359 177.000
68.84354 136.000
68.86348 151.000
68.88343 142.000
68.90338 153.000
68.92333 138.000
68.94327 147.000
68.96322 134.000
68.98317 169.000
69.00311 154.000
69.02306 177.000
69.04301 153.000
69.06295 151.000
69.08290 170.000
69.10285 153.000
69.12279 147.000
69.14274 138.000
69.16269 139.000
69.18264 140.000
69.20258 140.000
69.22253 143.000
69.24248 134.000
69.26242 129.000
69.28237 139.000
69.30232 143.000
69.32226 149.000
69.34221 133.000
69.36216 173.000
69.38211 137.000
69.40205 153.000
69.42200 169.000
69.44195 158.000
69.46189 128.000
69.48184 143.000
69.50179 147.000
69.52173 134.000
69.54168 155.000
69.56163 150.000
69.58157 139.000
69.60152 139.000
69.62147 141.000
69.64142 139.000
69.66136 136.000
69.68131 132.000
69.70126 165.000
69.72120 125.000
69.74115 149.000
69.76110 168.000
69.78104 162.000
69.80099 166.000
69.82094 142.000
69.84089 138.000
69.86083 153.000
69.88078 145.000
69.90073 153.000
69.92067 134.000
69.94062 137.000
69.96057 157.000
69.98051 121.000
70.00046 137.000
70.02041 120.000
70.04035 137.000
70.06030 145.000
70.08025 167.000
70.10020 144.000
70.12014 123.000
70.14009 126.000
70.16004 128.000
70.17998 157.000
70.19993 153.000
70.21988 118.000
70.23982 165.000
70.25977 141.000
70.27972 131.000
70.29967 130.000
70.31961 161.000
70.33956 154.000
70.35951 166.000
70.37945 135.000
70.39940 151.000
70.41935 152.000
70.43929 151.000
70.45924 154.000
70.47919 144.000
70.49914 160.000
70.51908 145.000
70.53903 144.000
70.55898 147.000
70.57892 158.000
70.59887 150.000
70.61882 121.000
70.63876 142.000
70.65871 135.000
70.67866 142.000
70.69860 148.000
70.71855 136.000
70.73850 155.000
70.75845 162.000
70.77839 133.000
70.79834 140.000
70.81829 143.000
70.83823 159.000
70.85818 139.000
70.87813 148.000
70.89807 182.000
70.91802 139.000
70.93797 148.000
70.95792 150.000
70.97786 129.000
70.99781 149.000
71.01776 133.000
71.03770 140.000
71.05765 165.000
71.07760 118.000
71.09754 138.000
71.11749 129.000
71.13744 157.000
71.15738 144.000
71.17733 130.000
71.19728 121.000
71.21723 143.000
71.23717 154.000
71.25712 129.000
71.27707 162.000
71.29701 161.000
71.31696 151.000
71.33691 144.000
71.35685 131.000
71.37680 171.000
71.39675 146.000
71.41670 143.000
71.43664 148.000
71.45659 154.000
71.47654 146.000
71.49648 148.000
71.51643 147.000
71.53638 152.000
71.55632 144.000
71.57627 141.000
71.59622 130.000
71.61616 140.000
71.63611 138.000
71.65606 153.000
71.67601 156.000
71.69595 162.000
71.71590 140.000
71.73585 151.000
71.75579 132.000
71.77574 130.000
71.79569 156.000
71.81563 172.000
71.83558 111.000
71.85553 159.000
71.87548 140.000
71.89542 154.000
71.91537 161.000
71.93532 145.000
71.95526 146.000
71.97521 153.000
71.99516 131.000
72.01510 131.000
72.03505 147.000
72.05500 155.000
72.07495 159.000
72.09489 150.000
72.11484 155.000
72.13479 137.000
72.15473 144.000
72.17468 166.000
72.19463 157.000
72.21457 157.000
72.23452 162.000
72.25447 156.000
72.27441 155.000
72.29436 167.000
72.31431 159.000
72.33426 180.000
72.35420 181.000
72.37415 179.000
72.39410 179.000
72.41404 196.000
72.43399 204.000
72.45394 190.000
72.47388 183.000
72.49383 167.000
72.51378 163.000
72.53373 189.000
72.55367 192.000
72.57362 159.000
72.59357 176.000
72.61351 165.000
72.63346 199.000
72.65341 183.000
72.67335 194.000
72.69330 163.000
72.71325 208.000
72.73319 169.000
72.75314 177.000
72.77309 167.000
72.79304 180.000
72.81298 209.000
72.83293 177.000
72.85288 222.000
72.87282 180.000
72.89277 218.000
72.91272 205.000
72.93266 204.000
72.95261 228.000
72.97256 247.000
72.99251 245.000
73.01245 208.000
73.03240 195.000
73.05235 215.000
73.07229 234.000
73.09224 203.000
73.11219 207.000
73.13213 208.000
73.15208 182.000
73.17203 199.000
73.19197 192.000
73.21192 192.000
73.23187 181.000
73.25182 200.000
73.27176 180.000
73.29171 156.000
73.31166 157.000
73.33160 183.000
73.35155 189.000
73.37150 165.000
73.39144 167.000
73.41139 158.000
73.43134 165.000
73.45129 155.000
73.47123 176.000
73.49118 150.000
73.51113 152.000
73.53107 148.000
73.55102 179.000
73.57097 201.000
73.59091 186.000
73.61086 150.000
73.63081 150.000
73.65076 154.000
73.67070 146.000
73.69065 140.000
73.71060 177.000
73.73054 160.000
73.75049 141.000
73.77044 153.000
73.79038 157.000
73.81033 147.000
73.83028 150.000
73.85022 139.000
73.87017 164.000
73.89012 144.000
73.91007 156.000
73.93001 147.000
73.94996 171.000
73.96991 151.000
73.98985 160.000
74.00980 150.000
74.02975 136.000
74.04969 172.000
74.06964 132.000
74.08959 127.000
74.10954 140.000
74.12948 135.000
74.14943 137.000
74.16938 146.000
74.18932 162.000
74.20927 145.000
74.22922 148.000
74.24916 146.000
74.26911 138.000
74.28906 150.000
74.30900 151.000
74.32895 143.000
74.34890 152.000
74.36885 144.000
74.38879 151.000
74.40874 147.000
74.42869 152.000
74.44863 142.000
74.46858 143.000
74.48853 137.000
74.50847 145.000
74.52842 160.000
74.54837 130.000
74.56832 147.000
74.58826 127.000
74.60821 160.000
74.62816 138.000
74.64810 150.000
74.66805 141.000
74.68800 174.000
74.70794 162.000
74.72789 140.000
74.74784 180.000
74.76778 159.000
74.78773 159.000
74.80768 153.000
74.82763 164.000
74.84757 158.000
74.86752 173.000
74.88747 168.000
74.90741 176.000
74.92736 186.000
74.94731 191.000
74.96725 201.000
74.98720 211.000
75.00715 220.000
75.02710 223.000
75.04704 191.000
75.06699 223.000
75.08694 223.000
75.10688 255.000
75.12683 232.000
75.14678 221.000
75.16672 226.000
75.18667 201.000
75.20662 200.000
75.22657 239.000
75.24651 251.000
75.26646 238.000
75.28641 217.000
75.30635 213.000
75.32630 234.000
75.34625 190.000
75.36619 228.000
75.38614 205.000
75.40609 191.000
75.42603 193.000
75.44598 159.000
75.46593 176.000
75.48588 196.000
75.50582 169.000
75.52577 205.000
75.54572 180.000
75.56566 162.000
75.58561 193.000
75.60556 169.000
75.62550 158.000
75.64545 139.000
75.66540 159.000
75.68535 166.000
75.70529 151.000
75.72524 160.000
75.74519 195.000
75.76513 159.000
75.78508 153.000
75.80503 155.000
75.82497 147.000
75.84492 143.000
75.86487 177.000
75.88481 151.000
75.90476 131.000
75.92471 158.000
75.94466 139.000
75.96460 153.000
75.98455 149.000
76.00450 149.000
76.02444 151.000
76.04439 154.000
76.06434 144.000
76.08428 160.000
76.10423 152.000
76.12418 147.000
76.14413 150.000
76.16407 136.000
76.18402 170.000
76.20397 138.000
76.22391 135.000
76.24386 141.000
76.26381 142.000
76.28375 156.000
76.30370 155.000
76.32365 139.000
76.34359 140.000
76.36354 143.000
76.38349 143.000
76.40344 140.000
76.42338 129.000
76.44333 157.000
76.46328 159.000
76.48322 121.000
76.50317 137.000
76.52312 132.000
76.54306 156.000
76.56301 138.000
76.58296 162.000
76.60291 161.000
76.62285 133.000
76.64280 163.000
76.66275 132.000
76.68269 166.000
76.70264 156.000
76.72259 159.000
76.74253 142.000
76.76248 145.000
76.78243 142.000
76.80238 161.000
76.82232 153.000
76.84227 143.000
76.86222 163.000
76.88216 152.000
76.90211 165.000
76.92206 147.000
76.94200 177.000
76.96195 146.000
76.98190 171.000
77.00184 163.000
77.02179 147.000
77.04174 158.000
77.06169 164.000
77.08163 182.000
77.10158 200.000
77.12153 163.000
77.14147 199.000
77.16142 215.000
77.18137 190.000
77.20131 228.000
77.22126 216.000
77.24121 210.000
77.26116 206.000
77.28110 212.000
77.30105 202.000
77.32100 217.000
77.34094 222.000
77.36089 207.000
77.38084 235.000
77.40078 223.000
77.42073 231.000
77.44068 205.000
77.46062 203.000
77.48057 209.000
77.50052 222.000
77.52047 206.000
77.54041 174.000
77.56036 221.000
77.58031 186.000
77.60025 186.000
77.62020 210.000
77.64015 219.000
77.66009 188.000
77.68004 214.000
77.69999 232.000
77.71994 248.000
77.73988 277.000
77.75983 290.000
77.77978 276.000
77.79972 295.000
77.81967 268.000
77.83962 268.000
77.85956 302.000
77.87951 240.000
77.89946 253.000
77.91940 240.000
77.93935 219.000
77.95930 242.000
77.97925 213.000
77.99919 222.000
78.01914 245.000
78.03909 232.000
78.05903 236.000
78.07898 216.000
78.09893 220.000
78.11887 214.000
78.13882 166.000
78.15877 170.000
78.17872 174.000
78.19866 144.000
78.21861 178.000
78.23856 168.000
78.25850 162.000
78.27845 149.000
78.29840 179.000
78.31834 145.000
78.33829 166.000
78.35824 157.000
78.37819 163.000
78.39813 143.000
78.41808 139.000
78.43803 164.000
78.45797 175.000
78.47792 140.000
78.49787 144.000
78.51781 127.000
78.53776 167.000
78.55771 150.000
78.57765 153.000
78.59760 151.000
78.61755 159.000
78.63750 154.000
78.65744 142.000
78.67739 155.000
78.69734 161.000
78.71728 127.000
78.73723 141.000
78.75718 162.000
78.77712 151.000
78.79707 151.000
78.81702 157.000
78.83697 163.000
78.85691 146.000
78.87686 141.000
78.89681 156.000
78.91675 159.000
78.93670 145.000
78.95665 155.000
78.97659 152.000
78.99654 155.000
79.01649 144.000
79.03643 140.000
79.05638 138.000
79.07633 171.000
79.09628 168.000
79.11622 140.000
79.13617 153.000
79.15612 156.000
79.17606 156.000
79.19601 146.000
79.21596 139.000
79.23590 131.000
79.25585 128.000
79.27580 155.000
79.29575 145.000
79.31569 148.000
79.33564 156.000
79.35559 147.000
79.37553 151.000
79.39548 149.000
79.41543 168.000
79.43537 149.000
79.45532 152.000
79.47527 150.000
79.49521 161.000
79.51516 141.000
79.53511 132.000
79.55506 141.000
79.57500 133.000
79.59495 124.000
79.61490 148.000
79.63484 144.000
79.65479 154.000
79.67474 123.000
79.69468 153.000
79.71463 147.000
79.73458 163.000
79.75453 168.000
79.77447 140.000
79.79442 163.000
79.81437 142.000
79.83431 132.000
79.85426 170.000
79.87421 144.000
79.89415 152.000
79.91410 162.000
79.93405 139.000
79.95399 162.000
79.97394 150.000
79.99389 144.000
80.01384 146.000
80.03378 155.000
80.05373 174.000
80.07368 171.000
80.09362 158.000
80.11357 147.000
80.13352 137.000
80.15346 178.000
80.17341 176.000
80.19336 155.000
80.21331 172.000
80.23325 163.000
80.25320 154.000
80.27315 169.000
80.29309 161.000
80.31304 158.000
80.33299 151.000
80.35293 152.000
80.37288 189.000
80.39283 164.000
80.41278 168.000
80.43272 165.000
80.45267 165.000
80.47262 128.000
80.49256 169.000
80.51251 147.000
80.53246 143.000
80.55240 160.000
80.57235 144.000
80.59230 152.000
80.61224 140.000
80.63219 148.000
80.65214 151.000
80.67209 127.000
80.69203 135.000
80.71198 148.000
80.73193 126.000
80.75187 153.000
80.77182 151.000
80.79177 133.000
80.81171 125.000
80.83166 156.000
80.85161 154.000
80.87156 131.000
80.89150 176.000
80.91145 148.000
80.93140 135.000
80.95134 137.000
80.97129 155.000
80.99124 147.000
81.01118 136.000
81.03113 142.000
81.05108 154.000
81.07102 152.000
81.09097 127.000
81.11092 138.000
81.13087 120.000
81.15081 155.000
81.17076 133.000
81.19071 162.000
81.21065 158.000
81.23060 147.000
81.25055 158.000
81.27049 155.000
81.29044 153.000
81.31039 149.000
81.33034 134.000
81.35028 155.000
81.37023 134.000
81.39018 127.000
81.41012 157.000
81.43007 165.000
81.45002 156.000
81.46996 163.000
81.48991 121.000
81.50986 140.000
81.52980 165.000
81.54975 135.000
81.56970 130.000
81.58965 137.000
81.60959 147.000
81.62954 136.000
81.64949 134.000
81.66943 135.000
81.68938 132.000
81.70933 143.000
81.72927 134.000
81.74922 152.000
81.76917 143.000
81.78912 150.000
81.80906 155.000
81.82901 154.000
81.84896 157.000
81.86890 134.000
81.88885 174.000
81.90880 132.000
81.92874 148.000
81.94869 147.000
81.96864 128.000
81.98859 151.000
82.00853 157.000
82.02848 153.000
82.04843 141.000
82.06837 158.000
82.08832 143.000
82.10827 162.000
82.12821 174.000
82.14816 156.000
82.16811 134.000
82.18805 144.000
82.20800 185.000
82.22795 144.000
82.24790 151.000
82.26784 150.000
82.28779 153.000
82.30774 173.000
82.32768 162.000
82.34763 198.000
82.36758 170.000
82.38752 171.000
82.40747 167.000
82.42742 188.000
82.44737 138.000
82.46731 180.000
82.48726 156.000
82.50721 145.000
82.52715 163.000
82.54710 163.000
82.56705 172.000
82.58699 169.000
82.60694 173.000
82.62689 164.000
82.64683 164.000
82.66678 169.000
82.68673 161.000
82.70668 167.000
82.72662 157.000
82.74657 144.000
82.76652 158.000
82.78646 179.000
82.80641 149.000
82.82636 135.000
82.84630 146.000
82.86625 146.000
82.88620 181.000
82.90615 161.000
82.92609 163.000
82.94604 139.000
82.96599 146.000
82.98593 173.000
83.00588 153.000
83.02583 159.000
83.04577 151.000
83.06572 157.000
83.08567 156.000
83.10561 140.000
83.12556 176.000
83.14551 175.000
83.16546 192.000
83.18540 168.000
83.20535 156.000
83.22530 191.000
83.24524 193.000
83.26519 189.000
83.28514 172.000
83.30508 153.000
83.32503 205.000
83.34498 160.000
83.36493 167.000
83.38487 150.000
83.40482 166.000
83.42477 166.000
83.44471 175.000
83.46466 191.000
83.48461 181.000
83.50455 186.000
83.52450 177.000
83.54445 167.000
83.56440 164.000
83.58434 201.000
83.60429 187.000
83.62424 184.000
83.64418 211.000
83.66413 169.000
83.68408 214.000
83.70402 196.000
83.72397 223.000
83.74392 210.000
83.76386 220.000
83.78381 232.000
83.80376 231.000
83.82371 230.000
83.84365 219.000
83.86360 234.000
83.88355 220.000
83.90349 238.000
83.92344 235.000
83.94339 231.000
83.96333 209.000
83.98328 241.000
84.00323 239.000
84.02318 225.000
84.04312 223.000
84.06307 215.000
84.08302 199.000
84.10296 221.000
84.12291 177.000
84.14286 191.000
84.16280 190.000
84.18275 189.000
84.20270 174.000
84.22264 203.000
84.24259 165.000
84.26254 190.000
84.28249 172.000
84.30243 186.000
84.32238 161.000
84.34233 161.000
84.36227 156.000
84.38222 162.000
84.40217 177.000
84.42211 152.000
84.44206 164.000
84.46201 161.000
84.48196 180.000
84.50190 163.000
84.52185 139.000
84.54180 153.000
84.56174 164.000
84.58169 157.000
84.60164 138.000
84.62158 164.000
84.64153 153.000
84.66148 137.000
84.68142 144.000
84.70137 150.000
84.72132 172.000
84.74127 154.000
84.76121 181.000
84.78116 142.000
84.80111 144.000
84.82105 138.000
84.84100 165.000
84.86095 168.000
84.88089 156.000
84.90084 168.000
84.92079 150.000
84.94074 149.000
84.96068 151.000
84.98063 145.000
85.00058 149.000
85.02052 160.000
85.04047 170.000
85.06042 145.000
85.08036 143.000
85.10031 143.000
85.12026 165.000
85.14021 137.000
85.16015 158.000
85.18010 174.000
85.20005 141.000
85.21999 154.000
85.23994 131.000
85.25989 125.000
85.27983 144.000
85.29978 135.000
85.31973 151.000
85.33967 168.000
85.35962 146.000
85.37957 168.000
85.39952 134.000
85.41946 144.000
85.43941 144.000
85.45936 126.000
85.47930 156.000
85.49925 147.000
85.51920 139.000
85.53914 124.000
85.55909 141.000
85.57904 150.000
85.59899 132.000
85.61893 133.000
85.63888 139.000
85.65883 144.000
85.67877 182.000
85.69872 148.000
85.71867 141.000
85.73861 145.000
85.75856 149.000
85.77851 148.000
85.79845 142.000
85.81840 134.000
85.83835 150.000
85.85830 127.000
85.87824 147.000
85.89819 148.000
85.91814 129.000
85.93808 142.000
85.95803 135.000
85.97798 157.000
85.99792 164.000
86.01787 141.000
86.03782 157.000
86.05777 149.000
86.07771 140.000
86.09766 145.000
86.11761 142.000
86.13755 172.000
86.15750 156.000
86.17745 152.000
86.19739 141.000
86.21734 155.000
86.23729 140.000
86.25723 176.000
86.27718 155.000
86.29713 149.000
86.31708 153.000
86.33702 160.000
86.35697 193.000
86.37692 155.000
86.39686 164.000
86.41681 154.000
86.43676 163.000
86.45670 142.000
86.47665 158.000
86.49660 167.000
86.51655 160.000
86.53649 171.000
86.55644 169.000
86.57639 168.000
86.59633 180.000
86.61628 178.000
86.63623 180.000
86.65617 192.000
86.67612 198.000
86.69607 170.000
86.71602 156.000
86.73596 172.000
86.75591 189.000
86.77586 224.000
86.79580 167.000
86.81575 180.000
86.83570 173.000
86.85564 156.000
86.87559 169.000
86.89554 177.000
86.91548 181.000
86.93543 167.000
86.95538 173.000
86.97533 169.000
86.99527 182.000
87.01522 187.000
87.03517 173.000
87.05511 181.000
87.07506 176.000
87.09501 203.000
87.11495 169.000
87.13490 165.000
87.15485 184.000
87.17480 171.000
87.19474 144.000
87.21469 178.000
87.23464 135.000
87.25458 164.000
87.27453 157.000
87.29448 164.000
87.31442 136.000
87.33437 159.000
87.35432 169.000
87.37426 163.000
87.39421 172.000
87.41416 165.000
87.43411 149.000
87.45405 167.000
87.47400 142.000
87.49395 148.000
87.51389 154.000
87.53384 160.000
87.55379 125.000
87.57373 131.000
87.59368 150.000
87.61363 159.000
87.63358 137.000
87.65352 126.000
87.67347 152.000
87.69342 145.000
87.71336 118.000
87.73331 141.000
87.75326 148.000
87.77320 137.000
87.79315 141.000
87.81310 144.000
87.83304 154.000
87.85299 114.000
87.87294 131.000
87.89289 126.000
87.91283 132.000
87.93278 185.000
87.95273 130.000
87.97267 126.000
87.99262 141.000
88.01257 144.000
88.03251 140.000
88.05246 139.000
88.07241 165.000
88.09236 142.000
88.11230 159.000
88.13225 150.000
88.15220 145.000
88.17214 166.000
88.19209 141.000
88.21204 162.000
88.23198 123.000
88.25193 127.000
88.27188 125.000
88.29183 147.000
88.31177 140.000
88.33172 138.000
88.35167 150.000
88.37161 149.000
88.39156 138.000
88.41151 149.000
88.43145 138.000
88.45140 154.000
88.47135 134.000
88.49129 142.000
88.51124 148.000
88.53119 146.000
88.55114 142.000
88.57108 139.000
88.59103 123.000
88.61098 165.000
88.63092 151.000
88.65087 148.000
88.67082 153.000
88.69076 143.000
88.71071 156.000
88.73066 130.000
88.75061 149.000
88.77055 148.000
88.79050 139.000
88.81045 147.000
88.83039 143.000
88.85034 137.000
88.87029 151.000
88.89023 164.000
88.91018 145.000
88.93013 161.000
88.95007 138.000
88.97002 156.000
88.98997 165.000
89.00992 149.000
89.02986 163.000
89.04981 145.000
89.06976 141.000
89.08970 170.000
89.10965 144.000
89.12960 142.000
89.14954 164.000
89.16949 149.000
89.18944 171.000
89.20939 141.000
89.22933 150.000
89.24928 141.000
89.26923 150.000
89.28917 163.000
89.30912 135.000
89.32907 151.000
89.34901 150.000
89.36896 139.000
89.38891 145.000
89.40885 162.000
89.42880 153.000
89.44875 155.000
89.46870 163.000
89.48864 140.000
89.50859 156.000
89.52854 155.000
89.54848 174.000
89.56843 147.000
89.58838 154.000
89.60832 155.000
89.62827 171.000
89.64822 161.000
89.66817 138.000
89.68811 176.000
89.70806 147.000
89.72801 143.000
89.74795 173.000
89.76790 151.000
89.78785 171.000
89.80779 160.000
89.82774 146.000
89.84769 167.000
89.86764 161.000
89.88758 156.000
89.90753 149.000
89.92748 162.000
89.94742 164.000
89.96737 185.000
89.98732 138.000
90.00726 159.000
