10.00000 218.000
10.01995 240.000
10.03989 220.000
10.05984 242.000
10.07979 223.000
10.09973 247.000
10.11968 222.000
10.13963 257.000
10.15958 254.000
10.17952 267.000
10.19947 248.000
10.21942 242.000
10.23936 239.000
10.25931 267.000
10.27926 266.000
10.29920 264.000
10.31915 250.000
10.33910 284.000
10.35905 240.000
10.37899 228.000
10.39894 253.000
10.41889 248.000
10.43883 244.000
10.45878 238.000
10.47873 257.000
10.49867 253.000
10.51862 267.000
10.53857 263.000
10.55851 257.000
10.57846 254.000
10.59841 222.000
10.61836 263.000
10.63830 216.000
10.65825 265.000
10.67820 271.000
10.69814 273.000
10.71809 256.000
10.73804 246.000
10.75798 255.000
10.77793 250.000
10.79788 246.000
10.81783 222.000
10.83777 245.000
10.85772 236.000
10.87767 262.000
10.89761 257.000
10.91756 244.000
10.93751 243.000
10.95745 254.000
10.97740 226.000
10.99735 230.000
11.01730 272.000
11.03724 259.000
11.05719 284.000
11.07714 249.000
11.09708 253.000
11.11703 266.000
11.13698 247.000
11.15692 261.000
11.17687 239.000
11.19682 245.000
11.21676 232.000
11.23671 265.000
11.25666 255.000
11.27661 268.000
11.29655 248.000
11.31650 221.000
11.33645 217.000
11.35639 244.000
11.37634 259.000
11.39629 242.000
11.41623 265.000
11.43618 249.000
11.45613 251.000
11.47608 233.000
11.49602 231.000
11.51597 257.000
11.53592 231.000
11.55586 261.000
11.57581 267.000
11.59576 255.000
11.61570 233.000
11.63565 243.000
11.65560 253.000
11.67554 282.000
11.69549 263.000
11.71544 235.000
11.73539 254.000
11.75533 243.000
11.77528 268.000
11.79523 241.000
11.81517 267.000
11.83512 269.000
11.85507 248.000
11.87501 256.000
11.89496 267.000
11.91491 260.000
11.93486 284.000
11.95480 247.000
11.97475 254.000
11.99470 267.000
12.01464 203.000
12.03459 257.000
12.05454 237.000
12.07448 245.000
12.09443 266.000
12.11438 263.000
12.13432 253.000
12.15427 266.000
12.17422 249.000
12.19417 255.000
12.21411 272.000
12.23406 219.000
12.25401 258.000
12.27395 266.000
12.29390 223.000
12.31385 302.000
12.33379 255.000
12.35374 249.000
12.37369 236.000
12.39364 254.000
12.41358 255.000
12.43353 268.000
12.45348 268.000
12.47342 247.000
12.49337 285.000
12.51332 258.000
12.53326 233.000
12.55321 263.000
12.57316 263.000
12.59311 242.000
12.61305 279.000
12.63300 257.000
12.65295 257.000
12.67289 243.000
12.69284 272.000
12.71279 267.000
12.73273 258.000
12.75268 268.000
12.77263 263.000
12.79257 260.000
12.81252 249.000
12.83247 257.000
12.85242 241.000
12.87236 270.000
12.89231 285.000
12.91226 302.000
12.93220 261.000
12.95215 286.000
12.97210 231.000
12.99204 261.000
13.01199 242.000
13.03194 245.000
13.05189 302.000
13.07183 257.000
13.09178 277.000
13.11173 257.000
13.13167 266.000
13.15162 239.000
13.17157 272.000
13.19151 265.000
13.21146 245.000
13.23141 289.000
13.25135 280.000
13.27130 263.000
13.29125 275.000
13.31120 253.000
13.33114 273.000
13.35109 259.000
13.37104 260.000
13.39098 268.000
13.41093 274.000
13.43088 292.000
13.45082 263.000
13.47077 254.000
13.49072 273.000
13.51067 268.000
13.53061 254.000
13.55056 281.000
13.57051 271.000
13.59045 275.000
13.61040 256.000
13.63035 276.000
13.65029 280.000
13.67024 253.000
13.69019 255.000
13.71013 275.000
13.73008 322.000
13.75003 299.000
13.76998 265.000
13.78992 271.000
13.80987 257.000
13.82982 281.000
13.84976 276.000
13.86971 298.000
13.88966 256.000
13.90960 280.000
13.92955 291.000
13.94950 299.000
13.96945 259.000
13.98939 243.000
14.00934 272.000
14.02929 255.000
14.04923 252.000
14.06918 247.000
14.08913 285.000
14.10907 282.000
14.12902 264.000
14.14897 257.000
14.16892 247.000
14.18886 263.000
14.20881 270.000
14.22876 286.000
14.24870 271.000
14.26865 253.000
14.28860 279.000
14.30854 309.000
14.32849 263.000
14.34844 242.000
14.36838 288.000
14.38833 282.000
14.40828 245.000
14.42823 271.000
14.44817 247.000
14.46812 271.000
14.48807 263.000
14.50801 276.000
14.52796 269.000
14.54791 252.000
14.56785 261.000
14.58780 270.000
14.60775 263.000
14.62770 261.000
14.64764 297.000
14.66759 322.000
14.68754 290.000
14.70748 284.000
14.72743 245.000
14.74738 288.000
14.76732 264.000
14.78727 254.000
14.80722 282.000
14.82716 294.000
14.84711 282.000
14.86706 229.000
14.88701 279.000
14.90695 301.000
14.92690 324.000
14.94685 259.000
14.96679 286.000
14.98674 315.000
15.00669 249.000
15.02663 308.000
15.04658 305.000
15.06653 302.000
15.08648 330.000
15.10642 324.000
15.12637 334.000
15.14632 323.000
15.16626 372.000
15.18621 355.000
15.20616 348.000
15.22610 361.000
15.24605 342.000
15.26600 317.000
15.28594 360.000
15.30589 348.000
15.32584 354.000
15.34579 375.000
15.36573 371.000
15.38568 409.000
15.40563 407.000
15.42557 390.000
15.44552 367.000
15.46547 392.000
15.48541 443.000
15.50536 423.000
15.52531 443.000
15.54526 469.000
15.56520 498.000
15.58515 506.000
15.60510 546.000
15.62504 542.000
15.64499 646.000
15.66494 748.000
15.68488 886.000
15.70483 1239.000
15.72478 1769.000
15.74472 2667.000
15.76467 4348.000
15.78462 7022.000
15.80457 11471.000
15.82451 16099.000
15.84446 19510.000
15.86441 20813.000
15.88435 19690.000
15.90430 15431.000
15.92425 9749.000
15.94419 5385.000
15.96414 2576.000
15.98409 1331.000
16.00404 880.000
16.02398 717.000
16.04393 621.000
16.06388 545.000
16.08382 511.000
16.10377 498.000
16.12372 522.000
16.14366 437.000
16.16361 424.000
16.18356 406.000
16.20351 387.000
16.22345 367.000
16.24340 402.000
16.26335 408.000
16.28329 351.000
16.30324 352.000
16.32319 367.000
16.34313 334.000
16.36308 346.000
16.38303 311.000
16.40297 339.000
16.42292 352.000
16.44287 344.000
16.46282 328.000
16.48276 295.000
16.50271 337.000
16.52266 310.000
16.54260 312.000
16.56255 314.000
16.58250 307.000
16.60244 311.000
16.62239 311.000
16.64234 276.000
16.66229 317.000
16.68223 283.000
16.70218 251.000
16.72213 284.000
16.74207 280.000
16.76202 299.000
16.78197 283.000
16.80191 332.000
16.82186 343.000
16.84181 397.000
16.86175 440.000
16.88170 419.000
16.90165 475.000
16.92160 359.000
16.94154 344.000
16.96149 321.000
16.98144 293.000
17.00138 294.000
17.02133 275.000
17.04128 267.000
17.06122 251.000
17.08117 288.000
17.10112 272.000
17.12107 249.000
17.14101 280.000
17.16096 248.000
17.18091 250.000
17.20085 279.000
17.22080 261.000
17.24075 263.000
17.26069 260.000
17.28064 267.000
17.30059 269.000
17.32053 288.000
17.34048 262.000
17.36043 255.000
17.38038 250.000
17.40032 263.000
17.42027 279.000
17.44022 267.000
17.46016 247.000
17.48011 255.000
17.50006 245.000
17.52000 256.000
17.53995 272.000
17.55990 237.000
17.57985 278.000
17.59979 255.000
17.61974 251.000
17.63969 264.000
17.65963 277.000
17.67958 272.000
17.69953 267.000
17.71947 284.000
17.73942 277.000
17.75937 261.000
17.77932 240.000
17.79926 275.000
17.81921 255.000
17.83916 232.000
17.85910 249.000
17.87905 264.000
17.89900 278.000
17.91894 257.000
17.93889 251.000
17.95884 232.000
17.97878 262.000
17.99873 264.000
18.01868 300.000
18.03863 255.000
18.05857 271.000
18.07852 264.000
18.09847 265.000
18.11841 301.000
18.13836 248.000
18.15831 254.000
18.17825 259.000
18.19820 267.000
18.21815 257.000
18.23810 282.000
18.25804 284.000
18.27799 267.000
18.29794 256.000
18.31788 258.000
18.33783 248.000
18.35778 272.000
18.37772 291.000
18.39767 265.000
18.41762 256.000
18.43756 274.000
18.45751 262.000
18.47746 250.000
18.49741 251.000
18.51735 279.000
18.53730 271.000
18.55725 284.000
18.57719 266.000
18.59714 254.000
18.61709 261.000
18.63703 253.000
18.65698 271.000
18.67693 243.000
18.69688 267.000
18.71682 264.000
18.73677 256.000
18.75672 248.000
18.77666 271.000
18.79661 262.000
18.81656 240.000
18.83650 264.000
18.85645 265.000
18.87640 268.000
18.89634 286.000
18.91629 262.000
18.93624 261.000
18.95619 271.000
18.97613 239.000
18.99608 250.000
19.01603 277.000
19.03597 246.000
19.05592 241.000
19.07587 255.000
19.09581 267.000
19.11576 265.000
19.13571 241.000
19.15566 250.000
19.17560 272.000
19.19555 285.000
19.21550 262.000
19.23544 271.000
19.25539 262.000
19.27534 267.000
19.29528 251.000
19.31523 287.000
19.33518 262.000
19.35513 266.000
19.37507 259.000
19.39502 287.000
19.41497 247.000
19.43491 265.000
19.45486 259.000
19.47481 245.000
19.49475 255.000
19.51470 293.000
19.53465 259.000
19.55459 235.000
19.57454 274.000
19.59449 265.000
19.61444 236.000
19.63438 233.000
19.65433 249.000
19.67428 269.000
19.69422 245.000
19.71417 245.000
19.73412 236.000
19.75406 269.000
19.77401 259.000
19.79396 234.000
19.81391 268.000
19.83385 255.000
19.85380 235.000
19.87375 267.000
19.89369 268.000
19.91364 264.000
19.93359 273.000
19.95353 241.000
19.97348 273.000
19.99343 250.000
20.01337 256.000
20.03332 266.000
20.05327 242.000
20.07322 262.000
20.09316 269.000
20.11311 248.000
20.13306 291.000
20.15300 251.000
20.17295 229.000
20.19290 233.000
20.21284 298.000
20.23279 233.000
20.25274 247.000
20.27269 260.000
20.29263 236.000
20.31258 263.000
20.33253 252.000
20.35247 273.000
20.37242 267.000
20.39237 277.000
20.41231 248.000
20.43226 273.000
20.45221 268.000
20.47215 242.000
20.49210 278.000
20.51205 270.000
20.53200 281.000
20.55194 287.000
20.57189 284.000
20.59184 271.000
20.61178 286.000
20.63173 235.000
20.65168 266.000
20.67162 263.000
20.69157 268.000
20.71152 256.000
20.73147 264.000
20.75141 262.000
20.77136 274.000
20.79131 293.000
20.81125 311.000
20.83120 314.000
20.85115 332.000
20.87109 305.000
20.89104 320.000
20.91099 319.000
20.93094 305.000
20.95088 354.000
20.97083 351.000
20.99078 331.000
21.01072 366.000
21.03067 343.000
21.05062 325.000
21.07056 293.000
21.09051 298.000
21.11046 261.000
21.13040 266.000
21.15035 287.000
21.17030 278.000
21.19025 278.000
21.21019 265.000
21.23014 259.000
21.25009 270.000
21.27003 285.000
21.28998 250.000
21.30993 263.000
21.32987 247.000
21.34982 287.000
21.36977 266.000
21.38972 284.000
21.40966 306.000
21.42961 266.000
21.44956 257.000
21.46950 269.000
21.48945 271.000
21.50940 245.000
21.52934 290.000
21.54929 266.000
21.56924 277.000
21.58918 270.000
21.60913 237.000
21.62908 255.000
21.64903 289.000
21.66897 278.000
21.68892 256.000
21.70887 302.000
21.72881 237.000
21.74876 282.000
21.76871 277.000
21.78865 254.000
21.80860 252.000
21.82855 282.000
21.84850 278.000
21.86844 263.000
21.88839 256.000
21.90834 281.000
21.92828 270.000
21.94823 262.000
21.96818 249.000
21.98812 273.000
22.00807 253.000
22.02802 283.000
22.04796 238.000
22.06791 275.000
22.08786 261.000
22.10781 271.000
22.12775 297.000
22.14770 287.000
22.16765 259.000
22.18759 255.000
22.20754 239.000
22.22749 239.000
22.24743 261.000
22.26738 259.000
22.28733 287.000
22.30728 256.000
22.32722 261.000
22.34717 244.000
22.36712 266.000
22.38706 276.000
22.40701 260.000
22.42696 226.000
22.44690 255.000
22.46685 276.000
22.48680 279.000
22.50675 283.000
22.52669 289.000
22.54664 252.000
22.56659 269.000
22.58653 250.000
22.60648 264.000
22.62643 284.000
22.64637 271.000
22.66632 263.000
22.68627 234.000
22.70621 243.000
22.72616 283.000
22.74611 264.000
22.76606 302.000
22.78600 308.000
22.80595 262.000
22.82590 262.000
22.84584 265.000
22.86579 250.000
22.88574 270.000
22.90568 269.000
22.92563 243.000
22.94558 282.000
22.96553 279.000
22.98547 274.000
23.00542 244.000
23.02537 274.000
23.04531 276.000
23.06526 275.000
23.08521 282.000
23.10515 259.000
23.12510 274.000
23.14505 286.000
23.16499 241.000
23.18494 245.000
23.20489 255.000
23.22484 259.000
23.24478 271.000
23.26473 241.000
23.28468 255.000
23.30462 294.000
23.32457 274.000
23.34452 264.000
23.36446 274.000
23.38441 292.000
23.40436 241.000
23.42431 253.000
23.44425 304.000
23.46420 290.000
23.48415 266.000
23.50409 265.000
23.52404 282.000
23.54399 267.000
23.56393 282.000
23.58388 297.000
23.60383 289.000
23.62377 277.000
23.64372 293.000
23.66367 273.000
23.68362 252.000
23.70356 237.000
23.72351 251.000
23.74346 267.000
23.76340 264.000
23.78335 267.000
23.80330 270.000
23.82324 254.000
23.84319 241.000
23.86314 273.000
23.88309 252.000
23.90303 244.000
23.92298 249.000
23.94293 260.000
23.96287 260.000
23.98282 247.000
24.00277 255.000
24.02271 289.000
24.04266 255.000
24.06261 278.000
24.08256 268.000
24.10250 258.000
24.12245 284.000
24.14240 274.000
24.16234 248.000
24.18229 273.000
24.20224 261.000
24.22218 270.000
24.24213 264.000
24.26208 291.000
24.28202 285.000
24.30197 249.000
24.32192 239.000
24.34187 264.000
24.36181 295.000
24.38176 266.000
24.40171 263.000
24.42165 265.000
24.44160 285.000
24.46155 249.000
24.48149 276.000
24.50144 272.000
24.52139 285.000
24.54134 281.000
24.56128 269.000
24.58123 270.000
24.60118 262.000
24.62112 293.000
24.64107 271.000
24.66102 252.000
24.68096 274.000
24.70091 251.000
24.72086 248.000
24.74080 247.000
24.76075 253.000
24.78070 273.000
24.80065 278.000
24.82059 263.000
24.84054 278.000
24.86049 251.000
24.88043 282.000
24.90038 271.000
24.92033 310.000
24.94027 310.000
24.96022 278.000
24.98017 308.000
25.00012 342.000
25.02006 357.000
25.04001 375.000
25.05996 360.000
25.07990 337.000
25.09985 330.000
25.11980 299.000
25.13974 307.000
25.15969 270.000
25.17964 288.000
25.19958 289.000
25.21953 266.000
25.23948 271.000
25.25943 247.000
25.27937 265.000
25.29932 276.000
25.31927 299.000
25.33921 285.000
25.35916 261.000
25.37911 271.000
25.39905 279.000
25.41900 267.000
25.43895 285.000
25.45890 279.000
25.47884 256.000
25.49879 278.000
25.51874 302.000
25.53868 292.000
25.55863 251.000
25.57858 272.000
25.59852 252.000
25.61847 263.000
25.63842 266.000
25.65837 275.000
25.67831 281.000
25.69826 264.000
25.71821 276.000
25.73815 274.000
25.75810 238.000
25.77805 253.000
25.79799 292.000
25.81794 246.000
25.83789 266.000
25.85783 290.000
25.87778 282.000
25.89773 277.000
25.91768 278.000
25.93762 252.000
25.95757 292.000
25.97752 267.000
25.99746 282.000
26.01741 265.000
26.03736 266.000
26.05730 271.000
26.07725 275.000
26.09720 282.000
26.11715 264.000
26.13709 282.000
26.15704 283.000
26.17699 272.000
26.19693 272.000
26.21688 276.000
26.23683 260.000
26.25677 279.000
26.27672 277.000
26.29667 245.000
26.31661 250.000
26.33656 278.000
26.35651 293.000
26.37646 291.000
26.39640 285.000
26.41635 290.000
26.43630 281.000
26.45624 276.000
26.47619 265.000
26.49614 286.000
26.51608 277.000
26.53603 283.000
26.55598 262.000
26.57593 254.000
26.59587 265.000
26.61582 283.000
26.63577 309.000
26.65571 265.000
26.67566 250.000
26.69561 250.000
26.71555 284.000
26.73550 281.000
26.75545 248.000
26.77539 269.000
26.79534 255.000
26.81529 290.000
26.83524 258.000
26.85518 226.000
26.87513 299.000
26.89508 284.000
26.91502 255.000
26.93497 283.000
26.95492 277.000
26.97486 275.000
26.99481 283.000
27.01476 290.000
27.03471 295.000
27.05465 278.000
27.07460 285.000
27.09455 281.000
27.11449 321.000
27.13444 308.000
27.15439 343.000
27.17433 327.000
27.19428 329.000
27.21423 307.000
27.23417 301.000
27.25412 299.000
27.27407 283.000
27.29402 287.000
27.31396 264.000
27.33391 278.000
27.35386 255.000
27.37380 287.000
27.39375 277.000
27.41370 270.000
27.43364 294.000
27.45359 275.000
27.47354 308.000
27.49349 258.000
27.51343 270.000
27.53338 289.000
27.55333 318.000
27.57327 275.000
27.59322 273.000
27.61317 297.000
27.63311 294.000
27.65306 268.000
27.67301 275.000
27.69296 291.000
27.71290 282.000
27.73285 283.000
27.75280 261.000
27.77274 301.000
27.79269 283.000
27.81264 290.000
27.83258 267.000
27.85253 243.000
27.87248 264.000
27.89242 313.000
27.91237 296.000
27.93232 292.000
27.95227 276.000
27.97221 302.000
27.99216 269.000
28.01211 268.000
28.03205 282.000
28.05200 317.000
28.07195 289.000
28.09189 298.000
28.11184 263.000
28.13179 254.000
28.15174 312.000
28.17168 310.000
28.19163 289.000
28.21158 305.000
28.23152 295.000
28.25147 305.000
28.27142 337.000
28.29136 305.000
28.31131 328.000
28.33126 374.000
28.35120 365.000
28.37115 352.000
28.39110 332.000
28.41105 320.000
28.43099 309.000
28.45094 288.000
28.47089 284.000
28.49083 289.000
28.51078 277.000
28.53073 287.000
28.55067 298.000
28.57062 316.000
28.59057 298.000
28.61052 293.000
28.63046 294.000
28.65041 295.000
28.67036 279.000
28.69030 262.000
28.71025 251.000
28.73020 275.000
28.75014 281.000
28.77009 291.000
28.79004 305.000
28.80998 297.000
28.82993 278.000
28.84988 287.000
28.86983 243.000
28.88977 286.000
28.90972 261.000
28.92967 292.000
28.94961 299.000
28.96956 314.000
28.98951 275.000
29.00945 282.000
29.02940 258.000
29.04935 276.000
29.06930 270.000
29.08924 288.000
29.10919 288.000
29.12914 287.000
29.14908 298.000
29.16903 327.000
29.18898 283.000
29.20892 250.000
29.22887 313.000
29.24882 290.000
29.26877 316.000
29.28871 343.000
29.30866 376.000
29.32861 420.000
29.34855 469.000
29.36850 475.000
29.38845 488.000
29.40839 545.000
29.42834 582.000
29.44829 566.000
29.46823 560.000
29.48818 477.000
29.50813 470.000
29.52808 410.000
29.54802 392.000
29.56797 392.000
29.58792 363.000
29.60786 301.000
29.62781 304.000
29.64776 309.000
29.66770 276.000
29.68765 297.000
29.70760 291.000
29.72755 305.000
29.74749 314.000
29.76744 286.000
29.78739 275.000
29.80733 287.000
29.82728 264.000
29.84723 266.000
29.86717 292.000
29.88712 269.000
29.90707 293.000
29.92701 284.000
29.94696 299.000
29.96691 290.000
29.98686 272.000
30.00680 296.000
30.02675 268.000
30.04670 272.000
30.06664 247.000
30.08659 306.000
30.10654 277.000
30.12648 298.000
30.14643 307.000
30.16638 311.000
30.18633 304.000
30.20627 278.000
30.22622 264.000
30.24617 295.000
30.26611 291.000
30.28606 299.000
30.30601 261.000
30.32595 278.000
30.34590 261.000
30.36585 262.000
30.38579 272.000
30.40574 280.000
30.42569 307.000
30.44564 299.000
30.46558 269.000
30.48553 253.000
30.50548 272.000
30.52542 299.000
30.54537 269.000
30.56532 297.000
30.58526 292.000
30.60521 288.000
30.62516 258.000
30.64511 282.000
30.66505 279.000
30.68500 269.000
30.70495 292.000
30.72489 246.000
30.74484 269.000
30.76479 285.000
30.78473 271.000
30.80468 297.000
30.82463 291.000
30.84458 296.000
30.86452 263.000
30.88447 289.000
30.90442 312.000
30.92436 301.000
30.94431 293.000
30.96426 268.000
30.98420 276.000
31.00415 245.000
31.02410 282.000
31.04404 306.000
31.06399 295.000
31.08394 258.000
31.10389 282.000
31.12383 264.000
31.14378 294.000
31.16373 277.000
31.18367 287.000
31.20362 291.000
31.22357 279.000
31.24351 282.000
31.26346 255.000
31.28341 296.000
31.30336 321.000
31.32330 306.000
31.34325 288.000
31.36320 284.000
31.38314 316.000
31.40309 287.000
31.42304 298.000
31.44298 293.000
31.46293 312.000
31.48288 283.000
31.50282 289.000
31.52277 316.000
31.54272 272.000
31.56267 279.000
31.58261 319.000
31.60256 291.000
31.62251 329.000
31.64245 293.000
31.66240 345.000
31.68235 333.000
31.70229 314.000
31.72224 351.000
31.74219 353.000
31.76214 355.000
31.78208 372.000
31.80203 393.000
31.82198 444.000
31.84192 589.000
31.86187 677.000
31.88182 866.000
31.90176 983.000
31.92171 1142.000
31.94166 1238.000
31.96160 1288.000
31.98155 1491.000
32.00150 1452.000
32.02145 1510.000
32.04139 1578.000
32.06134 1435.000
32.08129 1211.000
32.10123 1020.000
32.12118 879.000
32.14113 749.000
32.16107 605.000
32.18102 525.000
32.20097 453.000
32.22092 357.000
32.24086 334.000
32.26081 321.000
32.28076 331.000
32.30070 310.000
32.32065 303.000
32.34060 262.000
32.36054 320.000
32.38049 289.000
32.40044 319.000
32.42039 268.000
32.44033 309.000
32.46028 298.000
32.48023 322.000
32.50017 339.000
32.52012 380.000
32.54007 405.000
32.56001 508.000
32.57996 483.000
32.59991 414.000
32.61985 399.000
32.63980 415.000
32.65975 388.000
32.67970 383.000
32.69964 293.000
32.71959 302.000
32.73954 292.000
32.75948 324.000
32.77943 258.000
32.79938 300.000
32.81932 281.000
32.83927 317.000
32.85922 305.000
32.87917 299.000
32.89911 304.000
32.91906 312.000
32.93901 295.000
32.95895 281.000
32.97890 288.000
32.99885 282.000
33.01879 250.000
33.03874 258.000
33.05869 295.000
33.07863 286.000
33.09858 291.000
33.11853 260.000
33.13848 316.000
33.15842 296.000
33.17837 295.000
33.19832 258.000
33.21826 284.000
33.23821 300.000
33.25816 272.000
33.27810 297.000
33.29805 272.000
33.31800 295.000
33.33795 294.000
33.35789 297.000
33.37784 281.000
33.39779 304.000
33.41773 243.000
33.43768 282.000
33.45763 286.000
33.47757 273.000
33.49752 284.000
33.51747 306.000
33.53741 297.000
33.55736 292.000
33.57731 270.000
33.59726 320.000
33.61720 238.000
33.63715 275.000
33.65710 280.000
33.67704 276.000
33.69699 298.000
33.71694 296.000
33.73688 293.000
33.75683 286.000
33.77678 264.000
33.79673 278.000
33.81667 284.000
33.83662 248.000
33.85657 313.000
33.87651 267.000
33.89646 293.000
33.91641 300.000
33.93635 277.000
33.95630 318.000
33.97625 269.000
33.99620 289.000
34.01614 281.000
34.03609 261.000
34.05604 322.000
34.07598 289.000
34.09593 334.000
34.11588 322.000
34.13582 328.000
34.15577 322.000
34.17572 344.000
34.19566 355.000
34.21561 303.000
34.23556 307.000
34.25551 324.000
34.27545 369.000
34.29540 364.000
34.31535 349.000
34.33529 375.000
34.35524 382.000
34.37519 374.000
34.39513 385.000
34.41508 384.000
34.43503 387.000
34.45498 376.000
34.47492 347.000
34.49487 391.000
34.51482 375.000
34.53476 412.000
34.55471 371.000
34.57466 380.000
34.59460 346.000
34.61455 345.000
34.63450 392.000
34.65444 355.000
34.67439 349.000
34.69434 366.000
34.71429 352.000
34.73423 341.000
34.75418 361.000
34.77413 350.000
34.79407 376.000
34.81402 398.000
34.83397 438.000
34.85391 438.000
34.87386 458.000
34.89381 445.000
34.91376 459.000
34.93370 398.000
34.95365 423.000
34.97360 426.000
34.99354 412.000
35.01349 366.000
35.03344 352.000
35.05338 329.000
35.07333 347.000
35.09328 359.000
35.11322 316.000
35.13317 356.000
35.15312 348.000
35.17307 355.000
35.19301 353.000
35.21296 343.000
35.23291 363.000
35.25285 369.000
35.27280 387.000
35.29275 373.000
35.31269 345.000
35.33264 399.000
35.35259 432.000
35.37254 487.000
35.39248 497.000
35.41243 521.000
35.43238 721.000
35.45232 934.000
35.47227 1150.000
35.49222 1414.000
35.51216 1193.000
35.53211 1366.000
35.55206 1821.000
35.57201 2459.000
35.59195 2587.000
35.61190 2103.000
35.63185 1581.000
35.65179 1599.000
35.67174 1676.000
35.69169 1507.000
35.71163 1152.000
35.73158 1085.000
35.75153 972.000
35.77147 951.000
35.79142 952.000
35.81137 973.000
35.83132 1056.000
35.85126 1044.000
35.87121 1080.000
35.89116 1054.000
35.91110 991.000
35.93105 904.000
35.95100 860.000
35.97094 749.000
35.99089 694.000
36.01084 653.000
36.03079 552.000
36.05073 500.000
36.07068 438.000
36.09063 415.000
36.11057 414.000
36.13052 375.000
36.15047 371.000
36.17041 367.000
36.19036 367.000
36.21031 336.000
36.23025 370.000
36.25020 364.000
36.27015 380.000
36.29010 348.000
36.31004 388.000
36.32999 389.000
36.34994 387.000
36.36988 361.000
36.38983 405.000
36.40978 385.000
36.42972 436.000
36.44967 420.000
36.46962 453.000
36.48957 477.000
36.50951 419.000
36.52946 452.000
36.54941 454.000
36.56935 425.000
36.58930 394.000
36.60925 428.000
36.62919 426.000
36.64914 449.000
36.66909 459.000
36.68903 468.000
36.70898 485.000
36.72893 465.000
36.74888 467.000
36.76882 430.000
36.78877 440.000
36.80872 445.000
36.82866 431.000
36.84861 407.000
36.86856 416.000
36.88850 343.000
36.90845 345.000
36.92840 343.000
36.94835 331.000
36.96829 352.000
36.98824 340.000
37.00819 345.000
37.02813 323.000
37.04808 309.000
37.06803 331.000
37.08797 380.000
37.10792 387.000
37.12787 384.000
37.14781 373.000
37.16776 368.000
37.18771 407.000
37.20766 394.000
37.22760 417.000
37.24755 432.000
37.26750 401.000
37.28744 387.000
37.30739 363.000
37.32734 380.000
37.34728 388.000
37.36723 349.000
37.38718 307.000
37.40713 321.000
37.42707 323.000
37.44702 338.000
37.46697 354.000
37.48691 305.000
37.50686 337.000
37.52681 317.000
37.54675 320.000
37.56670 295.000
37.58665 304.000
37.60660 308.000
37.62654 290.000
37.64649 307.000
37.66644 309.000
37.68638 362.000
37.70633 315.000
37.72628 308.000
37.74622 319.000
37.76617 318.000
37.78612 350.000
37.80606 294.000
37.82601 335.000
37.84596 309.000
37.86591 353.000
37.88585 330.000
37.90580 334.000
37.92575 294.000
37.94569 348.000
37.96564 294.000
37.98559 309.000
38.00553 293.000
38.02548 348.000
38.04543 340.000
38.06538 335.000
38.08532 321.000
38.10527 322.000
38.12522 340.000
38.14516 383.000
38.16511 351.000
38.18506 299.000
38.20500 333.000
38.22495 351.000
38.24490 366.000
38.26484 345.000
38.28479 312.000
38.30474 320.000
38.32469 341.000
38.34463 364.000
38.36458 354.000
38.38453 388.000
38.40447 378.000
38.42442 380.000
38.44437 364.000
38.46431 389.000
38.48426 394.000
38.50421 368.000
38.52416 392.000
38.54410 418.000
38.56405 448.000
38.58400 487.000
38.60394 529.000
38.62389 563.000
38.64384 589.000
38.66378 668.000
38.68373 825.000
38.70368 973.000
38.72362 1250.000
38.74357 1664.000
38.76352 1964.000
38.78347 2330.000
38.80341 2125.000
38.82336 1783.000
38.84331 1679.000
38.86325 1728.000
38.88320 1709.000
38.90315 1646.000
38.92309 1442.000
38.94304 1281.000
38.96299 1275.000
38.98294 1040.000
39.00288 861.000
39.02283 791.000
39.04278 827.000
39.06272 714.000
39.08267 650.000
39.10262 607.000
39.12256 579.000
39.14251 543.000
39.16246 561.000
39.18241 550.000
39.20235 607.000
39.22230 599.000
39.24225 675.000
39.26219 732.000
39.28214 863.000
39.30209 991.000
39.32203 1084.000
39.34198 1165.000
39.36193 1379.000
39.38187 1496.000
39.40182 1581.000
39.42177 1642.000
39.44172 1670.000
39.46166 1526.000
39.48161 1433.000
39.50156 1338.000
39.52150 1209.000
39.54145 1118.000
39.56140 958.000
39.58134 778.000
39.60129 689.000
39.62124 646.000
39.64119 553.000
39.66113 496.000
39.68108 480.000
39.70103 469.000
39.72097 443.000
39.74092 427.000
39.76087 434.000
39.78081 422.000
39.80076 413.000
39.82071 369.000
39.84065 356.000
39.86060 344.000
39.88055 355.000
39.90050 365.000
39.92044 342.000
39.94039 341.000
39.96034 372.000
39.98028 328.000
40.00023 327.000
40.02018 331.000
40.04012 326.000
40.06007 343.000
40.08002 302.000
40.09997 314.000
40.11991 321.000
40.13986 301.000
40.15981 330.000
40.17975 326.000
40.19970 274.000
40.21965 316.000
40.23959 353.000
40.25954 356.000
40.27949 286.000
40.29943 321.000
40.31938 286.000
40.33933 316.000
40.35928 302.000
40.37922 322.000
40.39917 302.000
40.41912 269.000
40.43906 281.000
40.45901 291.000
40.47896 291.000
40.49890 313.000
40.51885 326.000
40.53880 290.000
40.55875 295.000
40.57869 285.000
40.59864 316.000
40.61859 281.000
40.63853 286.000
40.65848 285.000
40.67843 292.000
40.69837 274.000
40.71832 294.000
40.73827 281.000
40.75822 298.000
40.77816 278.000
40.79811 282.000
40.81806 264.000
40.83800 325.000
40.85795 308.000
40.87790 300.000
40.89784 274.000
40.91779 277.000
40.93774 305.000
40.95768 298.000
40.97763 313.000
40.99758 314.000
41.01753 322.000
41.03747 354.000
41.05742 316.000
41.07737 299.000
41.09731 299.000
41.11726 284.000
41.13721 294.000
41.15715 307.000
41.17710 285.000
41.19705 274.000
41.21700 298.000
41.23694 288.000
41.25689 309.000
41.27684 305.000
41.29678 309.000
41.31673 289.000
41.33668 300.000
41.35662 289.000
41.37657 277.000
41.39652 307.000
41.41646 262.000
41.43641 298.000
41.45636 295.000
41.47631 312.000
41.49625 284.000
41.51620 301.000
41.53615 314.000
41.55609 290.000
41.57604 306.000
41.59599 324.000
41.61593 332.000
41.63588 308.000
41.65583 279.000
41.67578 298.000
41.69572 305.000
41.71567 281.000
41.73562 306.000
41.75556 315.000
41.77551 292.000
41.79546 285.000
41.81540 305.000
41.83535 269.000
41.85530 260.000
41.87524 324.000
41.89519 294.000
41.91514 304.000
41.93509 308.000
41.95503 278.000
41.97498 309.000
41.99493 286.000
42.01487 285.000
42.03482 282.000
42.05477 312.000
42.07471 295.000
42.09466 272.000
42.11461 311.000
42.13456 266.000
42.15450 308.000
42.17445 272.000
42.19440 302.000
42.21434 279.000
42.23429 319.000
42.25424 302.000
42.27418 297.000
42.29413 331.000
42.31408 321.000
42.33403 321.000
42.35397 322.000
42.37392 353.000
42.39387 327.000
42.41381 359.000
42.43376 384.000
42.45371 333.000
42.47365 349.000
42.49360 334.000
42.51355 370.000
42.53349 281.000
42.55344 333.000
42.57339 329.000
42.59334 323.000
42.61328 357.000
42.63323 286.000
42.65318 305.000
42.67312 308.000
42.69307 313.000
42.71302 347.000
42.73296 320.000
42.75291 305.000
42.77286 314.000
42.79281 308.000
42.81275 280.000
42.83270 303.000
42.85265 285.000
42.87259 296.000
42.89254 307.000
42.91249 284.000
42.93243 296.000
42.95238 336.000
42.97233 299.000
42.99227 271.000
43.01222 306.000
43.03217 312.000
43.05212 340.000
43.07206 310.000
43.09201 325.000
43.11196 323.000
43.13190 338.000
43.15185 302.000
43.17180 345.000
43.19174 343.000
43.21169 365.000
43.23164 327.000
43.25159 367.000
43.27153 365.000
43.29148 394.000
43.31143 437.000
43.33137 408.000
43.35132 458.000
43.37127 463.000
43.39121 516.000
43.41116 594.000
43.43111 592.000
43.45105 644.000
43.47100 705.000
43.49095 718.000
43.51090 880.000
43.53084 894.000
43.55079 815.000
43.57074 710.000
43.59068 724.000
43.61063 704.000
43.63058 619.000
43.65052 623.000
43.67047 558.000
43.69042 515.000
43.71037 435.000
43.73031 471.000
43.75026 406.000
43.77021 345.000
43.79015 374.000
43.81010 341.000
43.83005 357.000
43.84999 365.000
43.86994 350.000
43.88989 333.000
43.90984 316.000
43.92978 327.000
43.94973 314.000
43.96968 329.000
43.98962 310.000
44.00957 314.000
44.02952 302.000
44.04946 316.000
44.06941 295.000
44.08936 322.000
44.10930 278.000
44.12925 317.000
44.14920 306.000
44.16915 299.000
44.18909 305.000
44.20904 277.000
44.22899 271.000
44.24893 286.000
44.26888 288.000
44.28883 312.000
44.30877 304.000
44.32872 328.000
44.34867 305.000
44.36862 285.000
44.38856 324.000
44.40851 319.000
44.42846 281.000
44.44840 318.000
44.46835 320.000
44.48830 310.000
44.50824 313.000
44.52819 341.000
44.54814 310.000
44.56808 335.000
44.58803 295.000
44.60798 301.000
44.62793 282.000
44.64787 315.000
44.66782 311.000
44.68777 317.000
44.70771 308.000
44.72766 309.000
44.74761 338.000
44.76755 323.000
44.78750 316.000
44.80745 325.000
44.82740 292.000
44.84734 288.000
44.86729 310.000
44.88724 280.000
44.90718 308.000
44.92713 306.000
44.94708 310.000
44.96702 291.000
44.98697 305.000
45.00692 282.000
45.02686 283.000
45.04681 268.000
45.06676 300.000
45.08671 302.000
45.10665 319.000
45.12660 294.000
45.14655 289.000
45.16649 292.000
45.18644 301.000
45.20639 282.000
45.22633 285.000
45.24628 273.000
45.26623 287.000
45.28618 290.000
45.30612 292.000
45.32607 278.000
45.34602 303.000
45.36596 310.000
45.38591 270.000
45.40586 294.000
45.42580 267.000
45.44575 287.000
45.46570 325.000
45.48565 282.000
45.50559 280.000
45.52554 273.000
45.54549 288.000
45.56543 314.000
45.58538 300.000
45.60533 339.000
45.62527 278.000
45.64522 345.000
45.66517 291.000
45.68511 329.000
45.70506 327.000
45.72501 327.000
45.74496 279.000
45.76490 295.000
45.78485 312.000
45.80480 316.000
45.82474 312.000
45.84469 304.000
45.86464 269.000
45.88458 328.000
45.90453 316.000
45.92448 287.000
45.94443 306.000
45.96437 270.000
45.98432 333.000
46.00427 281.000
46.02421 295.000
46.04416 305.000
46.06411 299.000
46.08405 279.000
46.10400 297.000
46.12395 298.000
46.14389 314.000
46.16384 295.000
46.18379 280.000
46.20374 317.000
46.22368 306.000
46.24363 320.000
46.26358 328.000
46.28352 346.000
46.30347 323.000
46.32342 341.000
46.34336 280.000
46.36331 337.000
46.38326 317.000
46.40321 323.000
46.42315 321.000
46.44310 303.000
46.46305 328.000
46.48299 316.000
46.50294 303.000
46.52289 326.000
46.54283 315.000
46.56278 312.000
46.58273 304.000
46.60267 298.000
46.62262 293.000
46.64257 307.000
46.66252 270.000
46.68246 317.000
46.70241 254.000
46.72236 287.000
46.74230 261.000
46.76225 283.000
46.78220 316.000
46.80214 298.000
46.82209 285.000
46.84204 285.000
46.86199 270.000
46.88193 287.000
46.90188 315.000
46.92183 282.000
46.94177 273.000
46.96172 276.000
46.98167 279.000
47.00161 295.000
47.02156 292.000
47.04151 265.000
47.06146 322.000
47.08140 283.000
47.10135 300.000
47.12130 299.000
47.14124 305.000
47.16119 276.000
47.18114 267.000
47.20108 264.000
47.22103 305.000
47.24098 303.000
47.26092 306.000
47.28087 286.000
47.30082 285.000
47.32077 285.000
47.34071 280.000
47.36066 312.000
47.38061 300.000
47.40055 273.000
47.42050 310.000
47.44045 276.000
47.46039 312.000
47.48034 276.000
47.50029 300.000
47.52024 319.000
47.54018 285.000
47.56013 290.000
47.58008 301.000
47.60002 288.000
47.61997 317.000
47.63992 305.000
47.65986 312.000
47.67981 314.000
47.69976 293.000
47.71970 284.000
47.73965 299.000
47.75960 335.000
47.77955 280.000
47.79949 290.000
47.81944 291.000
47.83939 325.000
47.85933 323.000
47.87928 306.000
47.89923 309.000
47.91917 291.000
47.93912 324.000
47.95907 325.000
47.97902 351.000
47.99896 364.000
48.01891 331.000
48.03886 358.000
48.05880 357.000
48.07875 359.000
48.09870 355.000
48.11864 422.000
48.13859 380.000
48.15854 405.000
48.17848 382.000
48.19843 388.000
48.21838 375.000
48.23833 396.000
48.25827 347.000
48.27822 389.000
48.29817 377.000
48.31811 402.000
48.33806 379.000
48.35801 378.000
48.37795 393.000
48.39790 378.000
48.41785 378.000
48.43780 421.000
48.45774 463.000
48.47769 461.000
48.49764 478.000
48.51758 542.000
48.53753 491.000
48.55748 588.000
48.57742 600.000
48.59737 682.000
48.61732 787.000
48.63726 853.000
48.65721 1064.000
48.67716 1200.000
48.69711 1466.000
48.71705 1633.000
48.73700 1658.000
48.75695 1720.000
48.77689 1734.000
48.79684 1727.000
48.81679 1715.000
48.83673 1685.000
48.85668 1656.000
48.87663 1499.000
48.89658 1296.000
48.91652 1150.000
48.93647 1072.000
48.95642 962.000
48.97636 874.000
48.99631 746.000
49.01626 625.000
49.03620 586.000
49.05615 536.000
49.07610 472.000
49.09605 507.000
49.11599 418.000
49.13594 427.000
49.15589 399.000
49.17583 394.000
49.19578 383.000
49.21573 381.000
49.23567 367.000
49.25562 356.000
49.27557 352.000
49.29551 337.000
49.31546 357.000
49.33541 365.000
49.35536 311.000
49.37530 335.000
49.39525 338.000
49.41520 345.000
49.43514 340.000
49.45509 366.000
49.47504 364.000
49.49498 345.000
49.51493 374.000
49.53488 372.000
49.55483 356.000
49.57477 324.000
49.59472 354.000
49.61467 321.000
49.63461 337.000
49.65456 358.000
49.67451 325.000
49.69445 330.000
49.71440 322.000
49.73435 331.000
49.75429 314.000
49.77424 308.000
49.79419 321.000
49.81414 317.000
49.83408 303.000
49.85403 280.000
49.87398 296.000
49.89392 307.000
49.91387 277.000
49.93382 313.000
49.95376 322.000
49.97371 299.000
49.99366 304.000
50.01361 291.000
50.03355 282.000
50.05350 327.000
50.07345 278.000
50.09339 279.000
50.11334 274.000
50.13329 332.000
50.15323 302.000
50.17318 270.000
50.19313 274.000
50.21307 269.000
50.23302 295.000
50.25297 304.000
50.27292 310.000
50.29286 283.000
50.31281 274.000
50.33276 319.000
50.35270 276.000
50.37265 284.000
50.39260 298.000
50.41254 283.000
50.43249 297.000
50.45244 298.000
50.47239 291.000
50.49233 292.000
50.51228 303.000
50.53223 273.000
50.55217 265.000
50.57212 265.000
50.59207 325.000
50.61201 267.000
50.63196 318.000
50.65191 243.000
50.67186 303.000
50.69180 291.000
50.71175 292.000
50.73170 277.000
50.75164 301.000
50.77159 298.000
50.79154 301.000
50.81148 309.000
50.83143 279.000
50.85138 308.000
50.87132 268.000
50.89127 293.000
50.91122 280.000
50.93117 288.000
50.95111 309.000
50.97106 290.000
50.99101 324.000
51.01095 270.000
51.03090 299.000
51.05085 280.000
51.07079 293.000
51.09074 279.000
51.11069 286.000
51.13064 282.000
51.15058 308.000
51.17053 293.000
51.19048 291.000
51.21042 286.000
51.23037 329.000
51.25032 309.000
51.27026 295.000
51.29021 300.000
51.31016 285.000
51.33010 287.000
51.35005 320.000
51.37000 283.000
51.38995 324.000
51.40989 314.000
51.42984 305.000
51.44979 324.000
51.46973 313.000
51.48968 310.000
51.50963 305.000
51.52957 310.000
51.54952 289.000
51.56947 276.000
51.58942 311.000
51.60936 282.000
51.62931 307.000
51.64926 282.000
51.66920 299.000
51.68915 271.000
51.70910 295.000
51.72904 294.000
51.74899 299.000
51.76894 317.000
51.78888 267.000
51.80883 288.000
51.82878 292.000
51.84873 296.000
51.86867 307.000
51.88862 268.000
51.90857 275.000
51.92851 333.000
51.94846 286.000
51.96841 316.000
51.98835 354.000
52.00830 304.000
52.02825 355.000
52.04820 338.000
52.06814 371.000
52.08809 356.000
52.10804 360.000
52.12798 356.000
52.14793 331.000
52.16788 367.000
52.18782 332.000
52.20777 313.000
52.22772 337.000
52.24767 334.000
52.26761 323.000
52.28756 342.000
52.30751 326.000
52.32745 297.000
52.34740 304.000
52.36735 299.000
52.38729 293.000
52.40724 247.000
52.42719 318.000
52.44713 287.000
52.46708 284.000
52.48703 291.000
52.50698 303.000
52.52692 286.000
52.54687 297.000
52.56682 309.000
52.58676 283.000
52.60671 283.000
52.62666 282.000
52.64660 286.000
52.66655 284.000
52.68650 279.000
52.70645 283.000
52.72639 270.000
52.74634 282.000
52.76629 294.000
52.78623 282.000
52.80618 266.000
52.82613 276.000
52.84607 304.000
52.86602 302.000
52.88597 275.000
52.90591 261.000
52.92586 265.000
52.94581 282.000
52.96576 260.000
52.98570 289.000
53.00565 285.000
53.02560 273.000
53.04554 256.000
53.06549 254.000
53.08544 261.000
53.10538 238.000
53.12533 282.000
53.14528 303.000
53.16523 288.000
53.18517 282.000
53.20512 305.000
53.22507 248.000
53.24501 302.000
53.26496 285.000
53.28491 307.000
53.30485 310.000
53.32480 304.000
53.34475 314.000
53.36469 334.000
53.38464 317.000
53.40459 300.000
53.42454 300.000
53.44448 334.000
53.46443 335.000
53.48438 346.000
53.50432 387.000
53.52427 397.000
53.54422 407.000
53.56416 423.000
53.58411 401.000
53.60406 406.000
53.62401 378.000
53.64395 406.000
53.66390 403.000
53.68385 386.000
53.70379 376.000
53.72374 356.000
53.74369 374.000
53.76363 332.000
53.78358 311.000
53.80353 329.000
53.82348 304.000
53.84342 309.000
53.86337 322.000
53.88332 298.000
53.90326 284.000
53.92321 302.000
53.94316 289.000
53.96310 291.000
53.98305 283.000
54.00300 325.000
54.02294 289.000
54.04289 288.000
54.06284 292.000
54.08279 268.000
54.10273 311.000
54.12268 282.000
54.14263 283.000
54.16257 272.000
54.18252 310.000
54.20247 287.000
54.22241 292.000
54.24236 294.000
54.26231 320.000
54.28226 298.000
54.30220 313.000
54.32215 318.000
54.34210 315.000
54.36204 289.000
54.38199 269.000
54.40194 284.000
54.42188 285.000
54.44183 267.000
54.46178 297.000
54.48172 277.000
54.50167 300.000
54.52162 286.000
54.54157 267.000
54.56151 300.000
54.58146 289.000
54.60141 296.000
54.62135 336.000
54.64130 282.000
54.66125 299.000
54.68119 299.000
54.70114 304.000
54.72109 311.000
54.74104 276.000
54.76098 289.000
54.78093 306.000
54.80088 314.000
54.82082 276.000
54.84077 338.000
54.86072 317.000
54.88066 355.000
54.90061 320.000
54.92056 308.000
54.94050 308.000
54.96045 336.000
54.98040 320.000
55.00035 313.000
55.02029 303.000
55.04024 301.000
55.06019 322.000
55.08013 324.000
55.10008 326.000
55.12003 325.000
55.13997 324.000
55.15992 321.000
55.17987 319.000
55.19982 311.000
55.21976 297.000
55.23971 297.000
55.25966 302.000
55.27960 309.000
55.29955 290.000
55.31950 278.000
55.33944 291.000
55.35939 269.000
55.37934 256.000
55.39929 284.000
55.41923 276.000
55.43918 313.000
55.45913 269.000
55.47907 294.000
55.49902 289.000
55.51897 309.000
55.53891 291.000
55.55886 280.000
55.57881 274.000
55.59875 318.000
55.61870 298.000
55.63865 274.000
55.65860 285.000
55.67854 289.000
55.69849 301.000
55.71844 307.000
55.73838 290.000
55.75833 271.000
55.77828 283.000
55.79822 276.000
55.81817 296.000
55.83812 302.000
55.85807 296.000
55.87801 281.000
55.89796 275.000
55.91791 304.000
55.93785 303.000
55.95780 281.000
55.97775 305.000
55.99769 265.000
56.01764 270.000
56.03759 278.000
56.05753 298.000
56.07748 277.000
56.09743 270.000
56.11738 286.000
56.13732 306.000
56.15727 302.000
56.17722 312.000
56.19716 284.000
56.21711 297.000
56.23706 274.000
56.25700 278.000
56.27695 311.000
56.29690 298.000
56.31685 247.000
56.33679 273.000
56.35674 333.000
56.37669 317.000
56.39663 294.000
56.41658 283.000
56.43653 313.000
56.45647 283.000
56.47642 307.000
56.49637 317.000
56.51631 293.000
56.53626 308.000
56.55621 301.000
56.57616 321.000
56.59610 288.000
56.61605 298.000
56.63600 309.000
56.65594 306.000
56.67589 286.000
56.69584 319.000
56.71578 306.000
56.73573 284.000
56.75568 341.000
56.77563 333.000
56.79557 297.000
56.81552 331.000
56.83547 311.000
56.85541 302.000
56.87536 279.000
56.89531 287.000
56.91525 273.000
56.93520 319.000
56.95515 277.000
56.97510 295.000
56.99504 306.000
57.01499 268.000
57.03494 278.000
57.05488 289.000
57.07483 288.000
57.09478 282.000
57.11472 275.000
57.13467 287.000
57.15462 289.000
57.17456 273.000
57.19451 280.000
57.21446 285.000
57.23441 282.000
57.25435 251.000
57.27430 299.000
57.29425 321.000
57.31419 298.000
57.33414 265.000
57.35409 305.000
57.37403 269.000
57.39398 303.000
57.41393 281.000
57.43388 284.000
57.45382 280.000
57.47377 249.000
57.49372 265.000
57.51366 272.000
57.53361 274.000
57.55356 263.000
57.57350 270.000
57.59345 287.000
57.61340 265.000
57.63334 324.000
57.65329 297.000
57.67324 278.000
57.69319 303.000
57.71313 305.000
57.73308 265.000
57.75303 276.000
57.77297 270.000
57.79292 287.000
57.81287 265.000
57.83281 275.000
57.85276 309.000
57.87271 278.000
57.89266 280.000
57.91260 320.000
57.93255 271.000
57.95250 307.000
57.97244 288.000
57.99239 317.000
58.01234 303.000
58.03228 302.000
58.05223 277.000
58.07218 285.000
58.09212 334.000
58.11207 304.000
58.13202 340.000
58.15197 299.000
58.17191 334.000
58.19186 296.000
58.21181 352.000
58.23175 355.000
58.25170 369.000
58.27165 399.000
58.29159 406.000
58.31154 433.000
58.33149 456.000
58.35144 498.000
58.37138 495.000
58.39133 429.000
58.41128 448.000
58.43122 383.000
58.45117 388.000
58.47112 393.000
58.49106 417.000
58.51101 422.000
58.53096 411.000
58.55090 370.000
58.57085 338.000
58.59080 324.000
58.61075 350.000
58.63069 338.000
58.65064 317.000
58.67059 297.000
58.69053 311.000
58.71048 323.000
58.73043 302.000
58.75037 264.000
58.77032 303.000
58.79027 294.000
58.81022 313.000
58.83016 283.000
58.85011 302.000
58.87006 283.000
58.89000 278.000
58.90995 322.000
58.92990 286.000
58.94984 298.000
58.96979 283.000
58.98974 298.000
59.00969 289.000
59.02963 304.000
59.04958 320.000
59.06953 258.000
59.08947 316.000
59.10942 277.000
59.12937 299.000
59.14931 268.000
59.16926 285.000
59.18921 284.000
59.20915 307.000
59.22910 307.000
59.24905 296.000
59.26900 305.000
59.28894 291.000
59.30889 308.000
59.32884 278.000
59.34878 295.000
59.36873 299.000
59.38868 305.000
59.40862 276.000
59.42857 307.000
59.44852 284.000
59.46847 298.000
59.48841 302.000
59.50836 273.000
59.52831 302.000
59.54825 272.000
59.56820 299.000
59.58815 260.000
59.60809 344.000
59.62804 302.000
59.64799 301.000
59.66793 281.000
59.68788 306.000
59.70783 292.000
59.72778 284.000
59.74772 293.000
59.76767 309.000
59.78762 301.000
59.80756 311.000
59.82751 307.000
59.84746 309.000
59.86740 286.000
59.88735 312.000
59.90730 305.000
59.92725 278.000
59.94719 285.000
59.96714 234.000
59.98709 295.000
60.00703 272.000
60.02698 291.000
60.04693 297.000
60.06687 298.000
60.08682 298.000
60.10677 330.000
60.12671 310.000
60.14666 294.000
60.16661 306.000
60.18656 301.000
60.20650 324.000
60.22645 322.000
60.24640 291.000
60.26634 313.000
60.28629 295.000
60.30624 306.000
60.32618 310.000
60.34613 310.000
60.36608 318.000
60.38603 305.000
60.40597 278.000
60.42592 304.000
60.44587 311.000
60.46581 289.000
60.48576 298.000
60.50571 309.000
60.52565 289.000
60.54560 324.000
60.56555 290.000
60.58550 312.000
60.60544 284.000
60.62539 278.000
60.64534 277.000
60.66528 325.000
60.68523 254.000
60.70518 310.000
60.72512 276.000
60.74507 304.000
60.76502 299.000
60.78496 276.000
60.80491 297.000
60.82486 314.000
60.84481 307.000
60.86475 297.000
60.88470 308.000
60.90465 275.000
60.92459 311.000
60.94454 316.000
60.96449 306.000
60.98443 285.000
61.00438 279.000
61.02433 291.000
61.04428 303.000
61.06422 297.000
61.08417 316.000
61.10412 315.000
61.12406 326.000
61.14401 306.000
61.16396 327.000
61.18390 325.000
61.20385 320.000
61.22380 309.000
61.24374 333.000
61.26369 319.000
61.28364 364.000
61.30359 326.000
61.32353 328.000
61.34348 348.000
61.36343 360.000
61.38337 384.000
61.40332 349.000
61.42327 384.000
61.44321 348.000
61.46316 397.000
61.48311 466.000
61.50306 470.000
61.52300 495.000
61.54295 582.000
61.56290 603.000
61.58284 586.000
61.60279 561.000
61.62274 561.000
61.64268 556.000
61.66263 511.000
61.68258 568.000
61.70252 580.000
61.72247 585.000
61.74242 622.000
61.76237 601.000
61.78231 597.000
61.80226 575.000
61.82221 561.000
61.84215 578.000
61.86210 614.000
61.88205 610.000
61.90199 671.000
61.92194 732.000
61.94189 677.000
61.96184 757.000
61.98178 753.000
62.00173 759.000
62.02168 677.000
62.04162 716.000
62.06157 685.000
62.08152 706.000
62.10146 663.000
62.12141 609.000
62.14136 587.000
62.16131 590.000
62.18125 548.000
62.20120 503.000
62.22115 519.000
62.24109 457.000
62.26104 473.000
62.28099 457.000
62.30093 398.000
62.32088 373.000
62.34083 401.000
62.36077 384.000
62.38072 382.000
62.40067 326.000
62.42062 362.000
62.44056 333.000
62.46051 313.000
62.48046 326.000
62.50040 308.000
62.52035 310.000
62.54030 330.000
62.56024 307.000
62.58019 323.000
62.60014 276.000
62.62009 278.000
62.64003 331.000
62.65998 306.000
62.67993 315.000
62.69987 320.000
62.71982 280.000
62.73977 272.000
62.75971 315.000
62.77966 330.000
62.79961 308.000
62.81955 310.000
62.83950 324.000
62.85945 322.000
62.87940 307.000
62.89934 295.000
62.91929 287.000
62.93924 303.000
62.95918 325.000
62.97913 313.000
62.99908 301.000
63.01902 291.000
63.03897 319.000
63.05892 303.000
63.07887 302.000
63.09881 277.000
63.11876 290.000
63.13871 277.000
63.15865 310.000
63.17860 335.000
63.19855 305.000
63.21849 306.000
63.23844 319.000
63.25839 304.000
63.27833 293.000
63.29828 285.000
63.31823 292.000
63.33818 317.000
63.35812 288.000
63.37807 296.000
63.39802 282.000
63.41796 293.000
63.43791 292.000
63.45786 289.000
63.47780 307.000
63.49775 317.000
63.51770 298.000
63.53765 314.000
63.55759 294.000
63.57754 326.000
63.59749 295.000
63.61743 311.000
63.63738 298.000
63.65733 328.000
63.67727 307.000
63.69722 313.000
63.71717 308.000
63.73712 312.000
63.75706 291.000
63.77701 264.000
63.79696 313.000
63.81690 299.000
63.83685 303.000
63.85680 327.000
63.87674 315.000
63.89669 334.000
63.91664 303.000
63.93658 272.000
63.95653 295.000
63.97648 342.000
63.99643 303.000
64.01637 310.000
64.03632 350.000
64.05627 347.000
64.07621 357.000
64.09616 336.000
64.11611 372.000
64.13605 375.000
64.15600 357.000
64.17595 390.000
64.19590 382.000
64.21584 406.000
64.23579 412.000
64.25574 402.000
64.27568 445.000
64.29563 464.000
64.31558 479.000
64.33552 506.000
64.35547 510.000
64.37542 542.000
64.39536 533.000
64.41531 527.000
64.43526 574.000
64.45521 594.000
64.47515 543.000
64.49510 530.000
64.51505 479.000
64.53499 509.000
64.55494 544.000
64.57489 504.000
64.59483 453.000
64.61478 515.000
64.63473 498.000
64.65468 523.000
64.67462 462.000
64.69457 445.000
64.71452 462.000
64.73446 427.000
64.75441 448.000
64.77436 395.000
64.79430 425.000
64.81425 428.000
64.83420 407.000
64.85414 440.000
64.87409 425.000
64.89404 422.000
64.91399 397.000
64.93393 396.000
64.95388 444.000
64.97383 411.000
64.99377 395.000
65.01372 388.000
65.03367 354.000
65.05361 405.000
65.07356 377.000
65.09351 344.000
65.11346 396.000
65.13340 370.000
65.15335 372.000
65.17330 339.000
65.19324 342.000
65.21319 333.000
65.23314 317.000
65.25308 276.000
65.27303 306.000
65.29298 330.000
65.31293 320.000
65.33287 339.000
65.35282 329.000
65.37277 300.000
65.39271 329.000
65.41266 342.000
65.43261 344.000
65.45255 338.000
65.47250 329.000
65.49245 357.000
65.51239 333.000
65.53234 362.000
65.55229 347.000
65.57224 333.000
65.59218 345.000
65.61213 373.000
65.63208 368.000
65.65202 380.000
65.67197 365.000
65.69192 381.000
65.71186 368.000
65.73181 383.000
65.75176 407.000
65.77171 396.000
65.79165 447.000
65.81160 442.000
65.83155 484.000
65.85149 501.000
65.87144 451.000
65.89139 493.000
65.91133 492.000
65.93128 475.000
65.95123 449.000
65.97117 471.000
65.99112 458.000
66.01107 466.000
66.03102 463.000
66.05096 432.000
66.07091 456.000
66.09086 444.000
66.11080 422.000
66.13075 477.000
66.15070 481.000
66.17064 508.000
66.19059 518.000
66.21054 573.000
66.23049 598.000
66.25043 546.000
66.27038 537.000
66.29033 513.000
66.31027 446.000
66.33022 477.000
66.35017 466.000
66.37011 438.000
66.39006 452.000
66.41001 513.000
66.42995 479.000
66.44990 430.000
66.46985 448.000
66.48980 418.000
66.50974 455.000
66.52969 418.000
66.54964 449.000
66.56958 413.000
66.58953 433.000
66.60948 436.000
66.62942 453.000
66.64937 468.000
66.66932 532.000
66.68927 492.000
66.70921 503.000
66.72916 516.000
66.74911 559.000
66.76905 540.000
66.78900 562.000
66.80895 513.000
66.82889 556.000
66.84884 545.000
66.86879 550.000
66.88874 517.000
66.90868 532.000
66.92863 542.000
66.94858 530.000
66.96852 520.000
66.98847 466.000
67.00842 501.000
67.02836 474.000
67.04831 475.000
67.06826 443.000
67.08820 406.000
67.10815 396.000
67.12810 384.000
67.14805 376.000
67.16799 366.000
67.18794 370.000
67.20789 351.000
67.22783 362.000
67.24778 332.000
67.26773 350.000
67.28767 314.000
67.30762 280.000
67.32757 311.000
67.34752 284.000
67.36746 331.000
67.38741 306.000
67.40736 315.000
67.42730 337.000
67.44725 318.000
67.46720 310.000
67.48714 309.000
67.50709 298.000
67.52704 317.000
67.54698 327.000
67.56693 300.000
67.58688 296.000
67.60683 361.000
67.62677 305.000
67.64672 321.000
67.66667 319.000
67.68661 328.000
67.70656 336.000
67.72651 344.000
67.74645 306.000
67.76640 317.000
67.78635 334.000
67.80630 325.000
67.82624 351.000
67.84619 316.000
67.86614 345.000
67.88608 372.000
67.90603 364.000
67.92598 388.000
67.94592 378.000
67.96587 388.000
67.98582 409.000
68.00576 434.000
68.02571 446.000
68.04566 401.000
68.06561 451.000
68.08555 459.000
68.10550 470.000
68.12545 522.000
68.14539 518.000
68.16534 540.000
68.18529 484.000
68.20523 461.000
68.22518 422.000
68.24513 419.000
68.26508 419.000
68.28502 435.000
68.30497 384.000
68.32492 425.000
68.34486 425.000
68.36481 434.000
68.38476 403.000
68.40470 392.000
68.42465 340.000
68.44460 341.000
68.46455 301.000
68.48449 314.000
68.50444 301.000
68.52439 308.000
68.54433 300.000
68.56428 325.000
68.58423 317.000
68.60417 306.000
68.62412 294.000
68.64407 277.000
68.66401 299.000
68.68396 307.000
68.70391 300.000
68.72386 285.000
68.74380 302.000
68.76375 325.000
68.78370 297.000
68.80364 301.000
68.82359 301.000
68.84354 292.000
68.86348 330.000
68.88343 283.000
68.90338 326.000
68.92333 287.000
68.94327 276.000
68.96322 292.000
68.98317 332.000
69.00311 295.000
69.02306 298.000
69.04301 297.000
69.06295 333.000
69.08290 306.000
69.10285 335.000
69.12279 297.000
69.14274 274.000
69.16269 304.000
69.18264 303.000
69.20258 284.000
69.22253 274.000
69.24248 279.000
69.26242 308.000
69.28237 268.000
69.30232 288.000
69.32226 303.000
69.34221 314.000
69.36216 304.000
69.38211 314.000
69.40205 291.000
69.42200 306.000
69.44195 306.000
69.46189 301.000
69.48184 298.000
69.50179 308.000
69.52173 296.000
69.54168 323.000
69.56163 342.000
69.58157 303.000
69.60152 332.000
69.62147 310.000
69.64142 306.000
69.66136 294.000
69.68131 335.000
69.70126 333.000
69.72120 315.000
69.74115 309.000
69.76110 325.000
69.78104 313.000
69.80099 330.000
69.82094 323.000
69.84089 306.000
69.86083 308.000
69.88078 307.000
69.90073 305.000
69.92067 300.000
69.94062 279.000
69.96057 285.000
69.98051 305.000
70.00046 326.000
70.02041 328.000
70.04035 303.000
70.06030 307.000
70.08025 271.000
70.10020 317.000
70.12014 260.000
70.14009 268.000
70.16004 293.000
70.17998 282.000
70.19993 268.000
70.21988 290.000
70.23982 313.000
70.25977 311.000
70.27972 278.000
70.29967 267.000
70.31961 287.000
70.33956 296.000
70.35951 288.000
70.37945 300.000
70.39940 293.000
70.41935 269.000
70.43929 269.000
70.45924 293.000
70.47919 281.000
70.49914 278.000
70.51908 305.000
70.53903 243.000
70.55898 256.000
70.57892 283.000
70.59887 280.000
70.61882 305.000
70.63876 279.000
70.65871 285.000
70.67866 313.000
70.69860 286.000
70.71855 298.000
70.73850 288.000
70.75845 305.000
70.77839 298.000
70.79834 282.000
70.81829 302.000
70.83823 321.000
70.85818 278.000
70.87813 280.000
70.89807 277.000
70.91802 287.000
70.93797 324.000
70.95792 279.000
70.97786 310.000
70.99781 296.000
71.01776 270.000
71.03770 265.000
71.05765 293.000
71.07760 297.000
71.09754 290.000
71.11749 300.000
71.13744 277.000
71.15738 269.000
71.17733 300.000
71.19728 266.000
71.21723 293.000
71.23717 269.000
71.25712 273.000
71.27707 292.000
71.29701 288.000
71.31696 288.000
71.33691 309.000
71.35685 279.000
71.37680 287.000
71.39675 308.000
71.41670 315.000
71.43664 301.000
71.45659 299.000
71.47654 284.000
71.49648 297.000
71.51643 316.000
71.53638 268.000
71.55632 283.000
71.57627 283.000
71.59622 281.000
71.61616 266.000
71.63611 306.000
71.65606 282.000
71.67601 293.000
71.69595 272.000
71.71590 266.000
71.73585 300.000
71.75579 283.000
71.77574 274.000
71.79569 290.000
71.81563 290.000
71.83558 272.000
71.85553 298.000
71.87548 286.000
71.89542 286.000
71.91537 289.000
71.93532 321.000
71.95526 303.000
71.97521 296.000
71.99516 288.000
72.01510 269.000
72.03505 278.000
72.05500 298.000
72.07495 306.000
72.09489 284.000
72.11484 294.000
72.13479 292.000
72.15473 288.000
72.17468 306.000
72.19463 287.000
72.21457 307.000
72.23452 325.000
72.25447 296.000
72.27441 283.000
72.29436 309.000
72.31431 318.000
72.33426 317.000
72.35420 339.000
72.37415 340.000
72.39410 385.000
72.41404 355.000
72.43399 410.000
72.45394 359.000
72.47388 390.000
72.49383 357.000
72.51378 332.000
72.53373 361.000
72.55367 306.000
72.57362 336.000
72.59357 345.000
72.61351 334.000
72.63346 303.000
72.65341 342.000
72.67335 329.000
72.69330 327.000
72.71325 313.000
72.73319 313.000
72.75314 300.000
72.77309 323.000
72.79304 303.000
72.81298 272.000
72.83293 305.000
72.85288 261.000
72.87282 307.000
72.89277 307.000
72.91272 300.000
72.93266 320.000
72.95261 291.000
72.97256 289.000
72.99251 305.000
73.01245 291.000
73.03240 295.000
73.05235 290.000
73.07229 281.000
73.09224 275.000
73.11219 275.000
73.13213 268.000
73.15208 294.000
73.17203 294.000
73.19197 292.000
73.21192 296.000
73.23187 297.000
73.25182 320.000
73.27176 288.000
73.29171 270.000
73.31166 282.000
73.33160 329.000
73.35155 304.000
73.37150 278.000
73.39144 319.000
73.41139 295.000
73.43134 293.000
73.45129 298.000
73.47123 286.000
73.49118 290.000
73.51113 306.000
73.53107 315.000
73.55102 345.000
73.57097 333.000
73.59091 325.000
73.61086 337.000
73.63081 321.000
73.65076 400.000
73.67070 337.000
73.69065 331.000
73.71060 354.000
73.73054 367.000
73.75049 388.000
73.77044 351.000
73.79038 367.000
73.81033 334.000
73.83028 346.000
73.85022 340.000
73.87017 357.000
73.89012 355.000
73.91007 330.000
73.93001 328.000
73.94996 320.000
73.96991 330.000
73.98985 311.000
74.00980 304.000
74.02975 331.000
74.04969 328.000
74.06964 368.000
74.08959 278.000
74.10954 324.000
74.12948 318.000
74.14943 324.000
74.16938 308.000
74.18932 331.000
74.20927 317.000
74.22922 279.000
74.24916 306.000
74.26911 297.000
74.28906 279.000
74.30900 286.000
74.32895 268.000
74.34890 308.000
74.36885 305.000
74.38879 264.000
74.40874 301.000
74.42869 309.000
74.44863 260.000
74.46858 282.000
74.48853 282.000
74.50847 313.000
74.52842 272.000
74.54837 276.000
74.56832 285.000
74.58826 305.000
74.60821 298.000
74.62816 296.000
74.64810 312.000
74.66805 297.000
74.68800 288.000
74.70794 289.000
74.72789 313.000
74.74784 298.000
74.76778 293.000
74.78773 276.000
74.80768 285.000
74.82763 295.000
74.84757 273.000
74.86752 271.000
74.88747 309.000
74.90741 306.000
74.92736 317.000
74.94731 325.000
74.96725 348.000
74.98720 343.000
75.00715 384.000
75.02710 373.000
75.04704 400.000
75.06699 354.000
75.08694 357.000
75.10688 333.000
75.12683 332.000
75.14678 342.000
75.16672 372.000
75.18667 336.000
75.20662 354.000
75.22657 380.000
75.24651 386.000
75.26646 424.000
75.28641 430.000
75.30635 360.000
75.32630 356.000
75.34625 333.000
75.36619 383.000
75.38614 325.000
75.40609 316.000
75.42603 314.000
75.44598 327.000
75.46593 355.000
75.48588 332.000
75.50582 307.000
75.52577 325.000
75.54572 324.000
75.56566 331.000
75.58561 336.000
75.60556 311.000
75.62550 315.000
75.64545 326.000
75.66540 313.000
75.68535 313.000
75.70529 311.000
75.72524 322.000
75.74519 313.000
75.76513 306.000
75.78508 324.000
75.80503 316.000
75.82497 292.000
75.84492 314.000
75.86487 301.000
75.88481 318.000
75.90476 306.000
75.92471 307.000
75.94466 298.000
75.96460 346.000
75.98455 344.000
76.00450 344.000
76.02444 330.000
76.04439 336.000
76.06434 334.000
76.08428 325.000
76.10423 333.000
76.12418 344.000
76.14413 355.000
76.16407 332.000
76.18402 295.000
76.20397 306.000
76.22391 306.000
76.24386 311.000
76.26381 307.000
76.28375 290.000
76.30370 302.000
76.32365 302.000
76.34359 320.000
76.36354 304.000
76.38349 308.000
76.40344 324.000
76.42338 316.000
76.44333 314.000
76.46328 287.000
76.48322 317.000
76.50317 331.000
76.52312 295.000
76.54306 271.000
76.56301 321.000
76.58296 307.000
76.60291 316.000
76.62285 283.000
76.64280 304.000
76.66275 300.000
76.68269 309.000
76.70264 313.000
76.72259 297.000
76.74253 300.000
76.76248 295.000
76.78243 275.000
76.80238 307.000
76.82232 288.000
76.84227 278.000
76.86222 271.000
76.88216 291.000
76.90211 281.000
76.92206 280.000
76.94200 295.000
76.96195 295.000
76.98190 283.000
77.00184 273.000
77.02179 294.000
77.04174 279.000
77.06169 324.000
77.08163 341.000
77.10158 315.000
77.12153 286.000
77.14147 285.000
77.16142 291.000
77.18137 293.000
77.20131 298.000
77.22126 286.000
77.24121 288.000
77.26116 275.000
77.28110 292.000
77.30105 295.000
77.32100 257.000
77.34094 268.000
77.36089 283.000
77.38084 290.000
77.40078 282.000
77.42073 315.000
77.44068 307.000
77.46062 274.000
77.48057 304.000
77.50052 314.000
77.52047 299.000
77.54041 317.000
77.56036 323.000
77.58031 302.000
77.60025 337.000
77.62020 289.000
77.64015 266.000
77.66009 293.000
77.68004 312.000
77.69999 306.000
77.71994 324.000
77.73988 348.000
77.75983 326.000
77.77978 316.000
77.79972 295.000
77.81967 326.000
77.83962 358.000
77.85956 327.000
77.87951 326.000
77.89946 330.000
77.91940 363.000
77.93935 353.000
77.95930 355.000
77.97925 374.000
77.99919 387.000
78.01914 410.000
78.03909 403.000
78.05903 454.000
78.07898 442.000
78.09893 447.000
78.11887 434.000
78.13882 455.000
78.15877 448.000
78.17872 421.000
78.19866 443.000
78.21861 464.000
78.23856 447.000
78.25850 430.000
78.27845 494.000
78.29840 428.000
78.31834 487.000
78.33829 441.000
78.35824 432.000
78.37819 428.000
78.39813 423.000
78.41808 439.000
78.43803 421.000
78.45797 376.000
78.47792 388.000
78.49787 358.000
78.51781 378.000
78.53776 363.000
78.55771 354.000
78.57765 348.000
78.59760 355.000
78.61755 363.000
78.63750 356.000
78.65744 334.000
78.67739 318.000
78.69734 312.000
78.71728 295.000
78.73723 304.000
78.75718 320.000
78.77712 301.000
78.79707 311.000
78.81702 279.000
78.83697 306.000
78.85691 312.000
78.87686 337.000
78.89681 300.000
78.91675 306.000
78.93670 289.000
78.95665 297.000
78.97659 282.000
78.99654 271.000
79.01649 282.000
79.03643 273.000
79.05638 299.000
79.07633 287.000
79.09628 313.000
79.11622 279.000
79.13617 322.000
79.15612 308.000
79.17606 305.000
79.19601 302.000
79.21596 302.000
79.23590 296.000
79.25585 279.000
79.27580 286.000
79.29575 290.000
79.31569 279.000
79.33564 289.000
79.35559 270.000
79.37553 316.000
79.39548 301.000
79.41543 313.000
79.43537 282.000
79.45532 258.000
79.47527 284.000
79.49521 258.000
79.51516 287.000
79.53511 298.000
79.55506 310.000
79.57500 278.000
79.59495 269.000
79.61490 293.000
79.63484 304.000
79.65479 284.000
79.67474 283.000
79.69468 272.000
79.71463 280.000
79.73458 258.000
79.75453 312.000
79.77447 286.000
79.79442 269.000
79.81437 295.000
79.83431 268.000
79.85426 300.000
79.87421 302.000
79.89415 281.000
79.91410 286.000
79.93405 289.000
79.95399 290.000
79.97394 281.000
79.99389 329.000
80.01384 300.000
80.03378 293.000
80.05373 322.000
80.07368 274.000
80.09362 309.000
80.11357 352.000
80.13352 302.000
80.15346 292.000
80.17341 297.000
80.19336 324.000
80.21331 285.000
80.23325 302.000
80.25320 319.000
80.27315 296.000
80.29309 303.000
80.31304 312.000
80.33299 306.000
80.35293 311.000
80.37288 310.000
80.39283 326.000
80.41278 300.000
80.43272 293.000
80.45267 332.000
80.47262 303.000
80.49256 331.000
80.51251 294.000
80.53246 310.000
80.55240 278.000
80.57235 299.000
80.59230 279.000
80.61224 333.000
80.63219 326.000
80.65214 337.000
80.67209 290.000
80.69203 288.000
80.71198 295.000
80.73193 285.000
80.75187 323.000
80.77182 317.000
80.79177 307.000
80.81171 319.000
80.83166 269.000
80.85161 309.000
80.87156 314.000
80.89150 322.000
80.91145 301.000
80.93140 275.000
80.95134 332.000
80.97129 299.000
80.99124 312.000
81.01118 335.000
81.03113 326.000
81.05108 307.000
81.07102 307.000
81.09097 292.000
81.11092 332.000
81.13087 270.000
81.15081 309.000
81.17076 278.000
81.19071 307.000
81.21065 280.000
81.23060 296.000
81.25055 282.000
81.27049 281.000
81.29044 285.000
81.31039 251.000
81.33034 281.000
81.35028 265.000
81.37023 275.000
81.39018 279.000
81.41012 283.000
81.43007 276.000
81.45002 291.000
81.46996 278.000
81.48991 308.000
81.50986 286.000
81.52980 298.000
81.54975 323.000
81.56970 259.000
81.58965 272.000
81.60959 299.000
81.62954 280.000
81.64949 285.000
81.66943 280.000
81.68938 257.000
81.70933 310.000
81.72927 295.000
81.74922 248.000
81.76917 312.000
81.78912 276.000
81.80906 305.000
81.82901 269.000
81.84896 259.000
81.86890 298.000
81.88885 270.000
81.90880 303.000
81.92874 319.000
81.94869 288.000
81.96864 291.000
81.98859 317.000
82.00853 294.000
82.02848 305.000
82.04843 278.000
82.06837 272.000
82.08832 284.000
82.10827 296.000
82.12821 294.000
82.14816 298.000
82.16811 323.000
82.18805 326.000
82.20800 307.000
82.22795 321.000
82.24790 316.000
82.26784 301.000
82.28779 337.000
82.30774 353.000
82.32768 327.000
82.34763 366.000
82.36758 329.000
82.38752 375.000
82.40747 326.000
82.42742 328.000
82.44737 288.000
82.46731 303.000
82.48726 313.000
82.50721 352.000
82.52715 308.000
82.54710 294.000
82.56705 336.000
82.58699 321.000
82.60694 336.000
82.62689 327.000
82.64683 312.000
82.66678 281.000
82.68673 267.000
82.70668 318.000
82.72662 332.000
82.74657 305.000
82.76652 313.000
82.78646 310.000
82.80641 291.000
82.82636 299.000
82.84630 283.000
82.86625 331.000
82.88620 295.000
82.90615 306.000
82.92609 278.000
82.94604 317.000
82.96599 279.000
82.98593 319.000
83.00588 294.000
83.02583 307.000
83.04577 297.000
83.06572 320.000
83.08567 313.000
83.10561 312.000
83.12556 333.000
83.14551 326.000
83.16546 342.000
83.18540 350.000
83.20535 312.000
83.22530 313.000
83.24524 322.000
83.26519 302.000
83.28514 335.000
83.30508 306.000
83.32503 327.000
83.34498 350.000
83.36493 315.000
83.38487 306.000
83.40482 326.000
83.42477 354.000
83.44471 321.000
83.46466 312.000
83.48461 349.000
83.50455 347.000
83.52450 314.000
83.54445 341.000
83.56440 385.000
83.58434 306.000
83.60429 331.000
83.62424 358.000
83.64418 327.000
83.66413 331.000
83.68408 314.000
83.70402 309.000
83.72397 271.000
83.74392 315.000
83.76386 335.000
83.78381 290.000
83.80376 299.000
83.82371 341.000
83.84365 297.000
83.86360 268.000
83.88355 274.000
83.90349 284.000
83.92344 315.000
83.94339 297.000
83.96333 292.000
83.98328 290.000
84.00323 310.000
84.02318 281.000
84.04312 299.000
84.06307 300.000
84.08302 308.000
84.10296 293.000
84.12291 290.000
84.14286 272.000
84.16280 292.000
84.18275 302.000
84.20270 325.000
84.22264 289.000
84.24259 289.000
84.26254 300.000
84.28249 285.000
84.30243 290.000
84.32238 316.000
84.34233 291.000
84.36227 344.000
84.38222 304.000
84.40217 305.000
84.42211 304.000
84.44206 332.000
84.46201 283.000
84.48196 299.000
84.50190 303.000
84.52185 313.000
84.54180 351.000
84.56174 338.000
84.58169 315.000
84.60164 350.000
84.62158 321.000
84.64153 359.000
84.66148 346.000
84.68142 333.000
84.70137 334.000
84.72132 377.000
84.74127 367.000
84.76121 366.000
84.78116 346.000
84.80111 369.000
84.82105 328.000
84.84100 342.000
84.86095 375.000
84.88089 346.000
84.90084 332.000
84.92079 359.000
84.94074 366.000
84.96068 330.000
84.98063 351.000
85.00058 343.000
85.02052 329.000
85.04047 351.000
85.06042 337.000
85.08036 326.000
85.10031 329.000
85.12026 328.000
85.14021 348.000
85.16015 310.000
85.18010 341.000
85.20005 340.000
85.21999 281.000
85.23994 297.000
85.25989 295.000
85.27983 299.000
85.29978 285.000
85.31973 303.000
85.33967 325.000
85.35962 300.000
85.37957 270.000
85.39952 283.000
85.41946 298.000
85.43941 279.000
85.45936 249.000
85.47930 317.000
85.49925 281.000
85.51920 274.000
85.53914 281.000
85.55909 286.000
85.57904 290.000
85.59899 305.000
85.61893 246.000
85.63888 298.000
85.65883 280.000
85.67877 309.000
85.69872 290.000
85.71867 302.000
85.73861 312.000
85.75856 294.000
85.77851 294.000
85.79845 287.000
85.81840 297.000
85.83835 251.000
85.85830 265.000
85.87824 279.000
85.89819 262.000
85.91814 288.000
85.93808 289.000
85.95803 267.000
85.97798 282.000
85.99792 250.000
86.01787 293.000
86.03782 302.000
86.05777 267.000
86.07771 305.000
86.09766 256.000
86.11761 257.000
86.13755 288.000
86.15750 238.000
86.17745 295.000
86.19739 302.000
86.21734 302.000
86.23729 296.000
86.25723 262.000
86.27718 266.000
86.29713 277.000
86.31708 292.000
86.33702 323.000
86.35697 304.000
86.37692 294.000
86.39686 295.000
86.41681 292.000
86.43676 292.000
86.45670 319.000
86.47665 322.000
86.49660 304.000
86.51655 309.000
86.53649 312.000
86.55644 282.000
86.57639 305.000
86.59633 307.000
86.61628 312.000
86.63623 310.000
86.65617 341.000
86.67612 349.000
86.69607 303.000
86.71602 313.000
86.73596 348.000
86.75591 327.000
86.77586 340.000
86.79580 302.000
86.81575 316.000
86.83570 322.000
86.85564 300.000
86.87559 305.000
86.89554 278.000
86.91548 313.000
86.93543 330.000
86.95538 342.000
86.97533 344.000
86.99527 317.000
87.01522 326.000
87.03517 333.000
87.05511 352.000
87.07506 319.000
87.09501 329.000
87.11495 342.000
87.13490 320.000
87.15485 301.000
87.17480 315.000
87.19474 314.000
87.21469 330.000
87.23464 323.000
87.25458 307.000
87.27453 313.000
87.29448 341.000
87.31442 325.000
87.33437 313.000
87.35432 315.000
87.37426 321.000
87.39421 294.000
87.41416 313.000
87.43411 289.000
87.45405 315.000
87.47400 328.000
87.49395 309.000
87.51389 330.000
87.53384 343.000
87.55379 313.000
87.57373 329.000
87.59368 334.000
87.61363 315.000
87.63358 324.000
87.65352 289.000
87.67347 311.000
87.69342 300.000
87.71336 306.000
87.73331 282.000
87.75326 304.000
87.77320 299.000
87.79315 309.000
87.81310 308.000
87.83304 301.000
87.85299 293.000
87.87294 284.000
87.89289 288.000
87.91283 285.000
87.93278 293.000
87.95273 294.000
87.97267 310.000
87.99262 305.000
88.01257 290.000
88.03251 278.000
88.05246 314.000
88.07241 263.000
88.09236 279.000
88.11230 286.000
88.13225 321.000
88.15220 307.000
88.17214 304.000
88.19209 327.000
88.21204 306.000
88.23198 279.000
88.25193 302.000
88.27188 290.000
88.29183 302.000
88.31177 295.000
88.33172 316.000
88.35167 289.000
88.37161 313.000
88.39156 298.000
88.41151 257.000
88.43145 308.000
88.45140 315.000
88.47135 261.000
88.49129 258.000
88.51124 260.000
88.53119 287.000
88.55114 298.000
88.57108 279.000
88.59103 301.000
88.61098 267.000
88.63092 270.000
88.65087 258.000
88.67082 279.000
88.69076 319.000
88.71071 276.000
88.73066 261.000
88.75061 290.000
88.77055 290.000
88.79050 289.000
88.81045 279.000
88.83039 274.000
88.85034 260.000
88.87029 276.000
88.89023 304.000
88.91018 304.000
88.93013 272.000
88.95007 301.000
88.97002 293.000
88.98997 272.000
89.00992 280.000
89.02986 281.000
89.04981 267.000
89.06976 309.000
89.08970 278.000
89.10965 271.000
89.12960 280.000
89.14954 312.000
89.16949 233.000
89.18944 292.000
89.20939 262.000
89.22933 298.000
89.24928 307.000
89.26923 282.000
89.28917 310.000
89.30912 294.000
89.32907 293.000
89.34901 319.000
89.36896 265.000
89.38891 292.000
89.40885 286.000
89.42880 288.000
89.44875 285.000
89.46870 321.000
89.48864 301.000
89.50859 306.000
89.52854 309.000
89.54848 344.000
89.56843 283.000
89.58838 337.000
89.60832 315.000
89.62827 315.000
89.64822 331.000
89.66817 318.000
89.68811 322.000
89.70806 322.000
89.72801 332.000
89.74795 288.000
89.76790 297.000
89.78785 334.000
89.80779 346.000
89.82774 324.000
89.84769 319.000
89.86764 315.000
89.88758 366.000
89.90753 355.000
89.92748 320.000
89.94742 319.000
89.96737 326.000
89.98732 327.000
90.00726 328.000
