10.00000 37.000
10.01995 45.000
10.03989 42.000
10.05984 41.000
10.07979 36.000
10.09973 46.000
10.11968 40.000
10.13963 30.000
10.15958 39.000
10.17952 43.000
10.19947 44.000
10.21942 38.000
10.23936 28.000
10.25931 38.000
10.27926 41.000
10.29920 27.000
10.31915 32.000
10.33910 39.000
10.35905 33.000
10.37899 49.000
10.39894 28.000
10.41889 31.000
10.43883 43.000
10.45878 45.000
10.47873 36.000
10.49867 38.000
10.51862 30.000
10.53857 32.000
10.55851 30.000
10.57846 34.000
10.59841 36.000
10.61836 42.000
10.63830 39.000
10.65825 35.000
10.67820 35.000
10.69814 31.000
10.71809 34.000
10.73804 38.000
10.75798 28.000
10.77793 35.000
10.79788 32.000
10.81783 26.000
10.83777 42.000
10.85772 28.000
10.87767 30.000
10.89761 30.000
10.91756 33.000
10.93751 28.000
10.95745 30.000
10.97740 36.000
10.99735 23.000
11.01730 30.000
11.03724 33.000
11.05719 28.000
11.07714 32.000
11.09708 31.000
11.11703 29.000
11.13698 24.000
11.15692 30.000
11.17687 35.000
11.19682 41.000
11.21676 26.000
11.23671 23.000
11.25666 24.000
11.27661 26.000
11.29655 40.000
11.31650 32.000
11.33645 23.000
11.35639 27.000
11.37634 37.000
11.39629 34.000
11.41623 44.000
11.43618 28.000
11.45613 31.000
11.47608 26.000
11.49602 27.000
11.51597 29.000
11.53592 18.000
11.55586 27.000
11.57581 24.000
11.59576 28.000
11.61570 34.000
11.63565 30.000
11.65560 37.000
11.67554 30.000
11.69549 30.000
11.71544 29.000
11.73539 24.000
11.75533 28.000
11.77528 34.000
11.79523 36.000
11.81517 26.000
11.83512 17.000
11.85507 36.000
11.87501 23.000
11.89496 34.000
11.91491 32.000
11.93486 33.000
11.95480 38.000
11.97475 30.000
11.99470 30.000
12.01464 30.000
12.03459 37.000
12.05454 31.000
12.07448 36.000
12.09443 31.000
12.11438 21.000
12.13432 39.000
12.15427 37.000
12.17422 24.000
12.19417 25.000
12.21411 30.000
12.23406 27.000
12.25401 32.000
12.27395 24.000
12.29390 26.000
12.31385 27.000
12.33379 36.000
12.35374 26.000
12.37369 30.000
12.39364 23.000
12.41358 32.000
12.43353 30.000
12.45348 33.000
12.47342 26.000
12.49337 41.000
12.51332 22.000
12.53326 22.000
12.55321 36.000
12.57316 28.000
12.59311 30.000
12.61305 28.000
12.63300 25.000
12.65295 34.000
12.67289 25.000
12.69284 25.000
12.71279 30.000
12.73273 25.000
12.75268 30.000
12.77263 30.000
12.79257 34.000
12.81252 36.000
12.83247 22.000
12.85242 15.000
12.87236 27.000
12.89231 24.000
12.91226 35.000
12.93220 26.000
12.95215 30.000
12.97210 20.000
12.99204 36.000
13.01199 33.000
13.03194 33.000
13.05189 21.000
13.07183 26.000
13.09178 28.000
13.11173 33.000
13.13167 42.000
13.15162 42.000
13.17157 49.000
13.19151 59.000
13.21146 52.000
13.23141 32.000
13.25135 36.000
13.27130 32.000
13.29125 31.000
13.31120 31.000
13.33114 38.000
13.35109 26.000
13.37104 27.000
13.39098 23.000
13.41093 25.000
13.43088 19.000
13.45082 30.000
13.47077 22.000
13.49072 29.000
13.51067 27.000
13.53061 20.000
13.55056 21.000
13.57051 30.000
13.59045 41.000
13.61040 23.000
13.63035 29.000
13.65029 23.000
13.67024 23.000
13.69019 27.000
13.71013 22.000
13.73008 28.000
13.75003 25.000
13.76998 27.000
13.78992 27.000
13.80987 26.000
13.82982 34.000
13.84976 24.000
13.86971 26.000
13.88966 19.000
13.90960 21.000
13.92955 21.000
13.94950 31.000
13.96945 31.000
13.98939 26.000
14.00934 32.000
14.02929 24.000
14.04923 28.000
14.06918 34.000
14.08913 29.000
14.10907 23.000
14.12902 18.000
14.14897 23.000
14.16892 33.000
14.18886 21.000
14.20881 28.000
14.22876 32.000
14.24870 21.000
14.26865 26.000
14.28860 19.000
14.30854 26.000
14.32849 24.000
14.34844 24.000
14.36838 19.000
14.38833 19.000
14.40828 21.000
14.42823 25.000
14.44817 26.000
14.46812 32.000
14.48807 20.000
14.50801 36.000
14.52796 46.000
14.54791 42.000
14.56785 45.000
14.58780 66.000
14.60775 114.000
14.62770 135.000
14.64764 216.000
14.66759 187.000
14.68754 101.000
14.70748 71.000
14.72743 39.000
14.74738 27.000
14.76732 29.000
14.78727 24.000
14.80722 24.000
14.82716 24.000
14.84711 19.000
14.86706 25.000
14.88701 23.000
14.90695 38.000
14.92690 33.000
14.94685 15.000
14.96679 25.000
14.98674 23.000
15.00669 32.000
15.02663 30.000
15.04658 28.000
15.06653 21.000
15.08648 25.000
15.10642 21.000
15.12637 37.000
15.14632 27.000
15.16626 22.000
15.18621 26.000
15.20616 21.000
15.22610 27.000
15.24605 17.000
15.26600 35.000
15.28594 31.000
15.30589 28.000
15.32584 21.000
15.34579 22.000
15.36573 29.000
15.38568 17.000
15.40563 31.000
15.42557 28.000
15.44552 26.000
15.46547 25.000
15.48541 27.000
15.50536 28.000
15.52531 28.000
15.54526 21.000
15.56520 17.000
15.58515 14.000
15.60510 18.000
15.62504 21.000
15.64499 27.000
15.66494 25.000
15.68488 23.000
15.70483 21.000
15.72478 26.000
15.74472 28.000
15.76467 25.000
15.78462 21.000
15.80457 41.000
15.82451 13.000
15.84446 25.000
15.86441 22.000
15.88435 29.000
15.90430 24.000
15.92425 16.000
15.94419 17.000
15.96414 28.000
15.98409 32.000
16.00404 27.000
16.02398 24.000
16.04393 28.000
16.06388 24.000
16.08382 23.000
16.10377 12.000
16.12372 20.000
16.14366 26.000
16.16361 21.000
16.18356 20.000
16.20351 24.000
16.22345 27.000
16.24340 25.000
16.26335 16.000
16.28329 20.000
16.30324 27.000
16.32319 24.000
16.34313 35.000
16.36308 27.000
16.38303 28.000
16.40297 26.000
16.42292 21.000
16.44287 27.000
16.46282 23.000
16.48276 24.000
16.50271 28.000
16.52266 34.000
16.54260 19.000
16.56255 28.000
16.58250 21.000
16.60244 29.000
16.62239 28.000
16.64234 32.000
16.66229 35.000
16.68223 40.000
16.70218 36.000
16.72213 40.000
16.74207 35.000
16.76202 43.000
16.78197 36.000
16.80191 32.000
16.82186 35.000
16.84181 27.000
16.86175 36.000
16.88170 27.000
16.90165 36.000
16.92160 28.000
16.94154 23.000
16.96149 21.000
16.98144 23.000
17.00138 21.000
17.02133 22.000
17.04128 31.000
17.06122 23.000
17.08117 27.000
17.10112 22.000
17.12107 30.000
17.14101 31.000
17.16096 21.000
17.18091 26.000
17.20085 16.000
17.22080 23.000
17.24075 31.000
17.26069 19.000
17.28064 15.000
17.30059 15.000
17.32053 25.000
17.34048 18.000
17.36043 26.000
17.38038 21.000
17.40032 27.000
17.42027 32.000
17.44022 24.000
17.46016 18.000
17.48011 32.000
17.50006 25.000
17.52000 19.000
17.53995 24.000
17.55990 17.000
17.57985 30.000
17.59979 24.000
17.61974 33.000
17.63969 16.000
17.65963 19.000
17.67958 25.000
17.69953 31.000
17.71947 29.000
17.73942 18.000
17.75937 24.000
17.77932 28.000
17.79926 19.000
17.81921 24.000
17.83916 33.000
17.85910 26.000
17.87905 17.000
17.89900 20.000
17.91894 28.000
17.93889 22.000
17.95884 23.000
17.97878 33.000
17.99873 27.000
18.01868 29.000
18.03863 17.000
18.05857 31.000
18.07852 28.000
18.09847 30.000
18.11841 17.000
18.13836 15.000
18.15831 26.000
18.17825 30.000
18.19820 29.000
18.21815 32.000
18.23810 28.000
18.25804 22.000
18.27799 26.000
18.29794 29.000
18.31788 12.000
18.33783 25.000
18.35778 29.000
18.37772 23.000
18.39767 26.000
18.41762 20.000
18.43756 26.000
18.45751 20.000
18.47746 21.000
18.49741 26.000
18.51735 22.000
18.53730 22.000
18.55725 23.000
18.57719 22.000
18.59714 17.000
18.61709 25.000
18.63703 24.000
18.65698 29.000
18.67693 28.000
18.69688 22.000
18.71682 28.000
18.73677 24.000
18.75672 26.000
18.77666 20.000
18.79661 30.000
18.81656 24.000
18.83650 24.000
18.85645 22.000
18.87640 23.000
18.89634 25.000
18.91629 19.000
18.93624 21.000
18.95619 33.000
18.97613 22.000
18.99608 29.000
19.01603 21.000
19.03597 24.000
19.05592 17.000
19.07587 19.000
19.09581 22.000
19.11576 31.000
19.13571 28.000
19.15566 28.000
19.17560 30.000
19.19555 26.000
19.21550 21.000
19.23544 28.000
19.25539 23.000
19.27534 38.000
19.29528 38.000
19.31523 44.000
19.33518 80.000
19.35513 56.000
19.37507 61.000
19.39502 32.000
19.41497 47.000
19.43491 42.000
19.45486 32.000
19.47481 56.000
19.49475 61.000
19.51470 60.000
19.53465 40.000
19.55459 52.000
19.57454 48.000
19.59449 36.000
19.61444 36.000
19.63438 37.000
19.65433 40.000
19.67428 49.000
19.69422 41.000
19.71417 43.000
19.73412 72.000
19.75406 68.000
19.77401 62.000
19.79396 70.000
19.81391 84.000
19.83385 86.000
19.85380 93.000
19.87375 123.000
19.89369 203.000
19.91364 310.000
19.93359 591.000
19.95353 744.000
19.97348 701.000
19.99343 544.000
20.01337 487.000
20.03332 237.000
20.05327 149.000
20.07322 89.000
20.09316 82.000
20.11311 78.000
20.13306 71.000
20.15300 66.000
20.17295 73.000
20.19290 57.000
20.21284 56.000
20.23279 44.000
20.25274 64.000
20.27269 45.000
20.29263 45.000
20.31258 60.000
20.33253 66.000
20.35247 75.000
20.37242 114.000
20.39237 145.000
20.41231 212.000
20.43226 315.000
20.45221 385.000
20.47215 539.000
20.49210 704.000
20.51205 809.000
20.53200 888.000
20.55194 953.000
20.57189 1068.000
20.59184 1135.000
20.61178 1346.000
20.63173 1563.000
20.65168 1286.000
20.67162 998.000
20.69157 701.000
20.71152 447.000
20.73147 275.000
20.75141 229.000
20.77136 177.000
20.79131 164.000
20.81125 146.000
20.83120 115.000
20.85115 108.000
20.87109 81.000
20.89104 64.000
20.91099 63.000
20.93094 61.000
20.95088 64.000
20.97083 50.000
20.99078 44.000
21.01072 46.000
21.03067 48.000
21.05062 32.000
21.07056 42.000
21.09051 37.000
21.11046 32.000
21.13040 33.000
21.15035 28.000
21.17030 24.000
21.19025 28.000
21.21019 26.000
21.23014 34.000
21.25009 28.000
21.27003 30.000
21.28998 31.000
21.30993 33.000
21.32987 32.000
21.34982 27.000
21.36977 26.000
21.38972 28.000
21.40966 24.000
21.42961 35.000
21.44956 32.000
21.46950 19.000
21.48945 25.000
21.50940 19.000
21.52934 23.000
21.54929 33.000
21.56924 25.000
21.58918 30.000
21.60913 35.000
21.62908 26.000
21.64903 35.000
21.66897 27.000
21.68892 26.000
21.70887 22.000
21.72881 28.000
21.74876 29.000
21.76871 18.000
21.78865 28.000
21.80860 29.000
21.82855 25.000
21.84850 25.000
21.86844 27.000
21.88839 24.000
21.90834 27.000
21.92828 20.000
21.94823 27.000
21.96818 21.000
21.98812 29.000
22.00807 24.000
22.02802 28.000
22.04796 20.000
22.06791 22.000
22.08786 15.000
22.10781 26.000
22.12775 38.000
22.14770 37.000
22.16765 43.000
22.18759 44.000
22.20754 71.000
22.22749 66.000
22.24743 120.000
22.26738 193.000
22.28733 287.000
22.30728 235.000
22.32722 163.000
22.34717 130.000
22.36712 98.000
22.38706 46.000
22.40701 32.000
22.42696 39.000
22.44690 23.000
22.46685 25.000
22.48680 30.000
22.50675 28.000
22.52669 28.000
22.54664 20.000
22.56659 23.000
22.58653 27.000
22.60648 23.000
22.62643 28.000
22.64637 27.000
22.66632 34.000
22.68627 32.000
22.70621 25.000
22.72616 31.000
22.74611 23.000
22.76606 25.000
22.78600 30.000
22.80595 26.000
22.82590 26.000
22.84584 24.000
22.86579 18.000
22.88574 30.000
22.90568 24.000
22.92563 27.000
22.94558 47.000
22.96553 51.000
22.98547 34.000
23.00542 60.000
23.02537 68.000
23.04531 93.000
23.06526 73.000
23.08521 61.000
23.10515 48.000
23.12510 51.000
23.14505 35.000
23.16499 34.000
23.18494 23.000
23.20489 26.000
23.22484 23.000
23.24478 20.000
23.26473 23.000
23.28468 20.000
23.30462 18.000
23.32457 24.000
23.34452 29.000
23.36446 22.000
23.38441 17.000
23.40436 19.000
23.42431 23.000
23.44425 23.000
23.46420 30.000
23.48415 30.000
23.50409 21.000
23.52404 24.000
23.54399 25.000
23.56393 32.000
23.58388 17.000
23.60383 23.000
23.62377 25.000
23.64372 26.000
23.66367 21.000
23.68362 33.000
23.70356 18.000
23.72351 28.000
23.74346 25.000
23.76340 26.000
23.78335 26.000
23.80330 20.000
23.82324 30.000
23.84319 22.000
23.86314 19.000
23.88309 20.000
23.90303 23.000
23.92298 22.000
23.94293 30.000
23.96287 27.000
23.98282 26.000
24.00277 23.000
24.02271 25.000
24.04266 21.000
24.06261 34.000
24.08256 29.000
24.10250 55.000
24.12245 51.000
24.14240 63.000
24.16234 52.000
24.18229 49.000
24.20224 43.000
24.22218 38.000
24.24213 33.000
24.26208 27.000
24.28202 20.000
24.30197 22.000
24.32192 19.000
24.34187 24.000
24.36181 19.000
24.38176 15.000
24.40171 24.000
24.42165 20.000
24.44160 17.000
24.46155 29.000
24.48149 28.000
24.50144 22.000
24.52139 29.000
24.54134 19.000
24.56128 34.000
24.58123 37.000
24.60118 33.000
24.62112 25.000
24.64107 27.000
24.66102 37.000
24.68096 32.000
24.70091 22.000
24.72086 31.000
24.74080 30.000
24.76075 30.000
24.78070 27.000
24.80065 34.000
24.82059 23.000
24.84054 35.000
24.86049 23.000
24.88043 36.000
24.90038 25.000
24.92033 17.000
24.94027 20.000
24.96022 28.000
24.98017 23.000
25.00012 31.000
25.02006 28.000
25.04001 37.000
25.05996 22.000
25.07990 22.000
25.09985 24.000
25.11980 26.000
25.13974 19.000
25.15969 21.000
25.17964 21.000
25.19958 29.000
25.21953 27.000
25.23948 32.000
25.25943 24.000
25.27937 24.000
25.29932 27.000
25.31927 26.000
25.33921 27.000
25.35916 28.000
25.37911 32.000
25.39905 35.000
25.41900 31.000
25.43895 20.000
25.45890 24.000
25.47884 26.000
25.49879 29.000
25.51874 25.000
25.53868 24.000
25.55863 29.000
25.57858 29.000
25.59852 26.000
25.61847 29.000
25.63842 31.000
25.65837 27.000
25.67831 25.000
25.69826 26.000
25.71821 29.000
25.73815 27.000
25.75810 35.000
25.77805 39.000
25.79799 38.000
25.81794 40.000
25.83789 37.000
25.85783 62.000
25.87778 63.000
25.89773 63.000
25.91768 94.000
25.93762 127.000
25.95757 155.000
25.97752 185.000
25.99746 127.000
26.01741 123.000
26.03736 118.000
26.05730 120.000
26.07725 106.000
26.09720 131.000
26.11715 149.000
26.13709 110.000
26.15704 86.000
26.17699 91.000
26.19693 60.000
26.21688 42.000
26.23683 50.000
26.25677 44.000
26.27672 36.000
26.29667 34.000
26.31661 27.000
26.33656 31.000
26.35651 33.000
26.37646 24.000
26.39640 20.000
26.41635 43.000
26.43630 33.000
26.45624 37.000
26.47619 55.000
26.49614 48.000
26.51608 61.000
26.53603 79.000
26.55598 90.000
26.57593 85.000
26.59587 71.000
26.61582 61.000
26.63577 65.000
26.65571 67.000
26.67566 67.000
26.69561 43.000
26.71555 36.000
26.73550 32.000
26.75545 45.000
26.77539 38.000
26.79534 52.000
26.81529 46.000
26.83524 49.000
26.85518 44.000
26.87513 49.000
26.89508 58.000
26.91502 54.000
26.93497 50.000
26.95492 56.000
26.97486 36.000
26.99481 55.000
27.01476 55.000
27.03471 34.000
27.05465 43.000
27.07460 39.000
27.09455 42.000
27.11449 28.000
27.13444 43.000
27.15439 29.000
27.17433 37.000
27.19428 34.000
27.21423 33.000
27.23417 36.000
27.25412 37.000
27.27407 38.000
27.29402 29.000
27.31396 25.000
27.33391 40.000
27.35386 35.000
27.37380 36.000
27.39375 34.000
27.41370 36.000
27.43364 21.000
27.45359 20.000
27.47354 38.000
27.49349 30.000
27.51343 24.000
27.53338 30.000
27.55333 35.000
27.57327 32.000
27.59322 30.000
27.61317 25.000
27.63311 29.000
27.65306 38.000
27.67301 33.000
27.69296 26.000
27.71290 30.000
27.73285 23.000
27.75280 41.000
27.77274 28.000
27.79269 32.000
27.81264 32.000
27.83258 35.000
27.85253 39.000
27.87248 26.000
27.89242 28.000
27.91237 33.000
27.93232 33.000
27.95227 42.000
27.97221 30.000
27.99216 25.000
28.01211 23.000
28.03205 24.000
28.05200 33.000
28.07195 29.000
28.09189 29.000
28.11184 23.000
28.13179 30.000
28.15174 39.000
28.17168 30.000
28.19163 36.000
28.21158 25.000
28.23152 23.000
28.25147 30.000
28.27142 32.000
28.29136 35.000
28.31131 22.000
28.33126 33.000
28.35120 34.000
28.37115 39.000
28.39110 37.000
28.41105 32.000
28.43099 37.000
28.45094 23.000
28.47089 32.000
28.49083 27.000
28.51078 43.000
28.53073 35.000
28.55067 31.000
28.57062 36.000
28.59057 34.000
28.61052 35.000
28.63046 40.000
28.65041 36.000
28.67036 39.000
28.69030 39.000
28.71025 33.000
28.73020 31.000
28.75014 33.000
28.77009 34.000
28.79004 38.000
28.80998 29.000
28.82993 26.000
28.84988 36.000
28.86983 32.000
28.88977 38.000
28.90972 23.000
28.92967 40.000
28.94961 38.000
28.96956 27.000
28.98951 35.000
29.00945 30.000
29.02940 26.000
29.04935 46.000
29.06930 38.000
29.08924 27.000
29.10919 34.000
29.12914 35.000
29.14908 28.000
29.16903 45.000
29.18898 39.000
29.20892 32.000
29.22887 42.000
29.24882 26.000
29.26877 33.000
29.28871 51.000
29.30866 53.000
29.32861 61.000
29.34855 77.000
29.36850 79.000
29.38845 95.000
29.40839 146.000
29.42834 169.000
29.44829 192.000
29.46823 336.000
29.48818 478.000
29.50813 636.000
29.52808 779.000
29.54802 739.000
29.56797 605.000
29.58792 517.000
29.60786 467.000
29.62781 328.000
29.64776 198.000
29.66770 147.000
29.68765 94.000
29.70760 70.000
29.72755 46.000
29.74749 70.000
29.76744 53.000
29.78739 69.000
29.80733 66.000
29.82728 64.000
29.84723 57.000
29.86717 58.000
29.88712 53.000
29.90707 44.000
29.92701 47.000
29.94696 62.000
29.96691 42.000
29.98686 57.000
30.00680 51.000
30.02675 45.000
30.04670 58.000
30.06664 54.000
30.08659 58.000
30.10654 61.000
30.12648 58.000
30.14643 58.000
30.16638 70.000
30.18633 73.000
30.20627 76.000
30.22622 65.000
30.24617 62.000
30.26611 84.000
30.28606 68.000
30.30601 71.000
30.32595 82.000
30.34590 60.000
30.36585 67.000
30.38579 100.000
30.40574 134.000
30.42569 189.000
30.44564 286.000
30.46558 288.000
30.48553 246.000
30.50548 164.000
30.52542 167.000
30.54537 198.000
30.56532 121.000
30.58526 78.000
30.60521 57.000
30.62516 72.000
30.64511 62.000
30.66505 57.000
30.68500 47.000
30.70495 47.000
30.72489 37.000
30.74484 43.000
30.76479 51.000
30.78473 44.000
30.80468 55.000
30.82463 42.000
30.84458 44.000
30.86452 33.000
30.88447 38.000
30.90442 45.000
30.92436 42.000
30.94431 30.000
30.96426 38.000
30.98420 41.000
31.00415 31.000
31.02410 45.000
31.04404 33.000
31.06399 32.000
31.08394 38.000
31.10389 35.000
31.12383 37.000
31.14378 32.000
31.16373 46.000
31.18367 43.000
31.20362 31.000
31.22357 38.000
31.24351 55.000
31.26346 43.000
31.28341 40.000
31.30336 50.000
31.32330 69.000
31.34325 58.000
31.36320 63.000
31.38314 71.000
31.40309 81.000
31.42304 135.000
31.44298 161.000
31.46293 305.000
31.48288 405.000
31.50282 463.000
31.52277 384.000
31.54272 413.000
31.56267 345.000
31.58261 325.000
31.60256 278.000
31.62251 204.000
31.64245 160.000
31.66240 114.000
31.68235 88.000
31.70229 86.000
31.72224 80.000
31.74219 68.000
31.76214 61.000
31.78208 61.000
31.80203 53.000
31.82198 53.000
31.84192 60.000
31.86187 49.000
31.88182 49.000
31.90176 42.000
31.92171 36.000
31.94166 30.000
31.96160 36.000
31.98155 48.000
32.00150 42.000
32.02145 55.000
32.04139 53.000
32.06134 38.000
32.08129 45.000
32.10123 35.000
32.12118 47.000
32.14113 47.000
32.16107 52.000
32.18102 42.000
32.20097 37.000
32.22092 56.000
32.24086 36.000
32.26081 58.000
32.28076 49.000
32.30070 49.000
32.32065 46.000
32.34060 48.000
32.36054 42.000
32.38049 44.000
32.40044 43.000
32.42039 51.000
32.44033 46.000
32.46028 47.000
32.48023 63.000
32.50017 61.000
32.52012 63.000
32.54007 53.000
32.56001 45.000
32.57996 58.000
32.59991 52.000
32.61985 57.000
32.63980 46.000
32.65975 45.000
32.67970 41.000
32.69964 46.000
32.71959 42.000
32.73954 51.000
32.75948 57.000
32.77943 63.000
32.79938 56.000
32.81932 56.000
32.83927 55.000
32.85922 42.000
32.87917 45.000
32.89911 52.000
32.91906 56.000
32.93901 46.000
32.95895 62.000
32.97890 63.000
32.99885 71.000
33.01879 48.000
33.03874 76.000
33.05869 79.000
33.07863 120.000
33.09858 155.000
33.11853 203.000
33.13848 229.000
33.15842 281.000
33.17837 348.000
33.19832 437.000
33.21826 670.000
33.23821 784.000
33.25816 742.000
33.27810 584.000
33.29805 508.000
33.31800 548.000
33.33795 456.000
33.35789 344.000
33.37784 264.000
33.39779 163.000
33.41773 160.000
33.43768 144.000
33.45763 124.000
33.47757 116.000
33.49752 117.000
33.51747 107.000
33.53741 104.000
33.55736 101.000
33.57731 100.000
33.59726 134.000
33.61720 136.000
33.63715 177.000
33.65710 214.000
33.67704 258.000
33.69699 288.000
33.71694 392.000
33.73688 456.000
33.75683 597.000
33.77678 787.000
33.79673 938.000
33.81667 900.000
33.83662 854.000
33.85657 830.000
33.87651 908.000
33.89646 927.000
33.91641 1009.000
33.93635 1197.000
33.95630 1415.000
33.97625 1668.000
33.99620 1632.000
34.01614 1395.000
34.03609 1195.000
34.05604 1159.000
34.07598 1107.000
34.09593 923.000
34.11588 786.000
34.13582 746.000
34.15577 613.000
34.17572 484.000
34.19566 419.000
34.21561 376.000
34.23556 399.000
34.25551 311.000
34.27545 275.000
34.29540 216.000
34.31535 215.000
34.33529 178.000
34.35524 154.000
34.37519 162.000
34.39513 144.000
34.41508 140.000
34.43503 120.000
34.45498 96.000
34.47492 70.000
34.49487 82.000
34.51482 74.000
34.53476 90.000
34.55471 66.000
34.57466 58.000
34.59460 72.000
34.61455 75.000
34.63450 78.000
34.65444 90.000
34.67439 89.000
34.69434 93.000
34.71429 120.000
34.73423 185.000
34.75418 244.000
34.77413 215.000
34.79407 145.000
34.81402 159.000
34.83397 134.000
34.85391 159.000
34.87386 116.000
34.89381 83.000
34.91376 84.000
34.93370 65.000
34.95365 65.000
34.97360 69.000
34.99354 66.000
35.01349 57.000
35.03344 80.000
35.05338 81.000
35.07333 104.000
35.09328 126.000
35.11322 161.000
35.13317 263.000
35.15312 224.000
35.17307 174.000
35.19301 110.000
35.21296 150.000
35.23291 173.000
35.25285 145.000
35.27280 106.000
35.29275 83.000
35.31269 91.000
35.33264 102.000
35.35259 97.000
35.37254 99.000
35.39248 118.000
35.41243 129.000
35.43238 130.000
35.45232 132.000
35.47227 139.000
35.49222 130.000
35.51216 176.000
35.53211 171.000
35.55206 194.000
35.57201 243.000
35.59195 236.000
35.61190 251.000
35.63185 284.000
35.65179 267.000
35.67174 239.000
35.69169 257.000
35.71163 332.000
35.73158 342.000
35.75153 282.000
35.77147 240.000
35.79142 214.000
35.81137 240.000
35.83132 188.000
35.85126 178.000
35.87121 126.000
35.89116 125.000
35.91110 103.000
35.93105 94.000
35.95100 78.000
35.97094 81.000
35.99089 68.000
36.01084 56.000
36.03079 62.000
36.05073 56.000
36.07068 64.000
36.09063 46.000
36.11057 51.000
36.13052 49.000
36.15047 45.000
36.17041 49.000
36.19036 38.000
36.21031 40.000
36.23025 42.000
36.25020 52.000
36.27015 39.000
36.29010 39.000
36.31004 56.000
36.32999 44.000
36.34994 50.000
36.36988 48.000
36.38983 38.000
36.40978 36.000
36.42972 49.000
36.44967 61.000
36.46962 46.000
36.48957 28.000
36.50951 39.000
36.52946 41.000
36.54941 33.000
36.56935 48.000
36.58930 58.000
36.60925 70.000
36.62919 86.000
36.64914 100.000
36.66909 97.000
36.68903 73.000
36.70898 73.000
36.72893 60.000
36.74888 61.000
36.76882 61.000
36.78877 77.000
36.80872 82.000
36.82866 69.000
36.84861 71.000
36.86856 54.000
36.88850 57.000
36.90845 55.000
36.92840 58.000
36.94835 70.000
36.96829 52.000
36.98824 46.000
37.00819 37.000
37.02813 35.000
37.04808 39.000
37.06803 34.000
37.08797 29.000
37.10792 37.000
37.12787 29.000
37.14781 34.000
37.16776 27.000
37.18771 29.000
37.20766 30.000
37.22760 30.000
37.24755 31.000
37.26750 30.000
37.28744 32.000
37.30739 29.000
37.32734 29.000
37.34728 29.000
37.36723 24.000
37.38718 30.000
37.40713 35.000
37.42707 40.000
37.44702 30.000
37.46697 31.000
37.48691 26.000
37.50686 29.000
37.52681 38.000
37.54675 29.000
37.56670 30.000
37.58665 30.000
37.60660 27.000
37.62654 31.000
37.64649 28.000
37.66644 28.000
37.68638 29.000
37.70633 33.000
37.72628 33.000
37.74622 38.000
37.76617 33.000
37.78612 42.000
37.80606 43.000
37.82601 41.000
37.84596 38.000
37.86591 50.000
37.88585 38.000
37.90580 53.000
37.92575 60.000
37.94569 83.000
37.96564 89.000
37.98559 71.000
38.00553 81.000
38.02548 71.000
38.04543 83.000
38.06538 66.000
38.08532 57.000
38.10527 44.000
38.12522 37.000
38.14516 38.000
38.16511 42.000
38.18506 39.000
38.20500 44.000
38.22495 28.000
38.24490 38.000
38.26484 40.000
38.28479 38.000
38.30474 29.000
38.32469 30.000
38.34463 28.000
38.36458 19.000
38.38453 30.000
38.40447 13.000
38.42442 25.000
38.44437 24.000
38.46431 25.000
38.48426 38.000
38.50421 32.000
38.52416 38.000
38.54410 27.000
38.56405 21.000
38.58400 27.000
38.60394 38.000
38.62389 20.000
38.64384 31.000
38.66378 38.000
38.68373 28.000
38.70368 34.000
38.72362 18.000
38.74357 20.000
38.76352 31.000
38.78347 35.000
38.80341 23.000
38.82336 24.000
38.84331 29.000
38.86325 42.000
38.88320 26.000
38.90315 22.000
38.92309 24.000
38.94304 36.000
38.96299 34.000
38.98294 39.000
39.00288 33.000
39.02283 36.000
39.04278 45.000
39.06272 60.000
39.08267 63.000
39.10262 58.000
39.12256 48.000
39.14251 55.000
39.16246 52.000
39.18241 48.000
39.20235 55.000
39.22230 45.000
39.24225 37.000
39.26219 35.000
39.28214 40.000
39.30209 35.000
39.32203 30.000
39.34198 41.000
39.36193 33.000
39.38187 37.000
39.40182 24.000
39.42177 23.000
39.44172 26.000
39.46166 26.000
39.48161 26.000
39.50156 24.000
39.52150 31.000
39.54145 28.000
39.56140 32.000
39.58134 32.000
39.60129 40.000
39.62124 37.000
39.64119 37.000
39.66113 37.000
39.68108 25.000
39.70103 39.000
39.72097 36.000
39.74092 42.000
39.76087 48.000
39.78081 37.000
39.80076 49.000
39.82071 57.000
39.84065 41.000
39.86060 49.000
39.88055 47.000
39.90050 67.000
39.92044 56.000
39.94039 56.000
39.96034 59.000
39.98028 55.000
40.00023 69.000
40.02018 56.000
40.04012 59.000
40.06007 57.000
40.08002 48.000
40.09997 62.000
40.11991 52.000
40.13986 47.000
40.15981 47.000
40.17975 44.000
40.19970 44.000
40.21965 37.000
40.23959 44.000
40.25954 33.000
40.27949 39.000
40.29943 35.000
40.31938 27.000
40.33933 46.000
40.35928 22.000
40.37922 33.000
40.39917 39.000
40.41912 35.000
40.43906 28.000
40.45901 45.000
40.47896 33.000
40.49890 30.000
40.51885 29.000
40.53880 34.000
40.55875 30.000
40.57869 32.000
40.59864 24.000
40.61859 31.000
40.63853 27.000
40.65848 29.000
40.67843 28.000
40.69837 24.000
40.71832 34.000
40.73827 38.000
40.75822 35.000
40.77816 25.000
40.79811 27.000
40.81806 37.000
40.83800 35.000
40.85795 37.000
40.87790 28.000
40.89784 32.000
40.91779 25.000
40.93774 32.000
40.95768 44.000
40.97763 38.000
40.99758 32.000
41.01753 42.000
41.03747 44.000
41.05742 48.000
41.07737 45.000
41.09731 61.000
41.11726 37.000
41.13721 41.000
41.15715 28.000
41.17710 35.000
41.19705 33.000
41.21700 45.000
41.23694 41.000
41.25689 38.000
41.27684 51.000
41.29678 36.000
41.31673 33.000
41.33668 39.000
41.35662 57.000
41.37657 53.000
41.39652 65.000
41.41646 67.000
41.43641 70.000
41.45636 83.000
41.47631 69.000
41.49625 56.000
41.51620 66.000
41.53615 66.000
41.55609 76.000
41.57604 52.000
41.59599 49.000
41.61593 49.000
41.63588 49.000
41.65583 41.000
41.67578 39.000
41.69572 38.000
41.71567 38.000
41.73562 30.000
41.75556 37.000
41.77551 42.000
41.79546 37.000
41.81540 37.000
41.83535 31.000
41.85530 33.000
41.87524 25.000
41.89519 37.000
41.91514 23.000
41.93509 38.000
41.95503 30.000
41.97498 40.000
41.99493 40.000
42.01487 41.000
42.03482 36.000
42.05477 35.000
42.07471 21.000
42.09466 25.000
42.11461 35.000
42.13456 24.000
42.15450 32.000
42.17445 23.000
42.19440 25.000
42.21434 28.000
42.23429 31.000
42.25424 33.000
42.27418 19.000
42.29413 29.000
42.31408 29.000
42.33403 30.000
42.35397 24.000
42.37392 41.000
42.39387 39.000
42.41381 34.000
42.43376 31.000
42.45371 32.000
42.47365 38.000
42.49360 36.000
42.51355 32.000
42.53349 23.000
42.55344 27.000
42.57339 36.000
42.59334 35.000
42.61328 19.000
42.63323 29.000
42.65318 30.000
42.67312 13.000
42.69307 24.000
42.71302 23.000
42.73296 26.000
42.75291 29.000
42.77286 27.000
42.79281 22.000
42.81275 21.000
42.83270 24.000
42.85265 27.000
42.87259 23.000
42.89254 31.000
42.91249 23.000
42.93243 31.000
42.95238 31.000
42.97233 36.000
42.99227 28.000
43.01222 25.000
43.03217 24.000
43.05212 31.000
43.07206 29.000
43.09201 40.000
43.11196 35.000
43.13190 43.000
43.15185 38.000
43.17180 32.000
43.19174 42.000
43.21169 44.000
43.23164 43.000
43.25159 39.000
43.27153 35.000
43.29148 47.000
43.31143 31.000
43.33137 39.000
43.35132 35.000
43.37127 24.000
43.39121 37.000
43.41116 29.000
43.43111 25.000
43.45105 35.000
43.47100 20.000
43.49095 27.000
43.51090 16.000
43.53084 32.000
43.55079 24.000
43.57074 21.000
43.59068 32.000
43.61063 24.000
43.63058 29.000
43.65052 33.000
43.67047 36.000
43.69042 35.000
43.71037 48.000
43.73031 40.000
43.75026 52.000
43.77021 70.000
43.79015 72.000
43.81010 54.000
43.83005 51.000
43.84999 50.000
43.86994 37.000
43.88989 55.000
43.90984 54.000
43.92978 47.000
43.94973 50.000
43.96968 39.000
43.98962 31.000
44.00957 33.000
44.02952 32.000
44.04946 39.000
44.06941 38.000
44.08936 40.000
44.10930 38.000
44.12925 32.000
44.14920 38.000
44.16915 39.000
44.18909 51.000
44.20904 35.000
44.22899 29.000
44.24893 24.000
44.26888 31.000
44.28883 38.000
44.30877 26.000
44.32872 29.000
44.34867 36.000
44.36862 32.000
44.38856 35.000
44.40851 31.000
44.42846 26.000
44.44840 55.000
44.46835 54.000
44.48830 63.000
44.50824 59.000
44.52819 76.000
44.54814 73.000
44.56808 53.000
44.58803 56.000
44.60798 42.000
44.62793 44.000
44.64787 57.000
44.66782 43.000
44.68777 35.000
44.70771 34.000
44.72766 28.000
44.74761 31.000
44.76755 30.000
44.78750 28.000
44.80745 32.000
44.82740 31.000
44.84734 31.000
44.86729 35.000
44.88724 46.000
44.90718 42.000
44.92713 51.000
44.94708 53.000
44.96702 82.000
44.98697 104.000
45.00692 131.000
45.02686 142.000
45.04681 212.000
45.06676 244.000
45.08671 159.000
45.10665 164.000
45.12660 124.000
45.14655 134.000
45.16649 134.000
45.18644 127.000
45.20639 115.000
45.22633 91.000
45.24628 40.000
45.26623 46.000
45.28618 46.000
45.30612 48.000
45.32607 45.000
45.34602 41.000
45.36596 35.000
45.38591 35.000
45.40586 35.000
45.42580 38.000
45.44575 47.000
45.46570 60.000
45.48565 59.000
45.50559 75.000
45.52554 76.000
45.54549 47.000
45.56543 54.000
45.58538 51.000
45.60533 50.000
45.62527 53.000
45.64522 42.000
45.66517 52.000
45.68511 27.000
45.70506 37.000
45.72501 32.000
45.74496 38.000
45.76490 42.000
45.78485 46.000
45.80480 66.000
45.82474 73.000
45.84469 97.000
45.86464 79.000
45.88458 54.000
45.90453 39.000
45.92448 59.000
45.94443 49.000
45.96437 67.000
45.98432 55.000
46.00427 47.000
46.02421 29.000
46.04416 30.000
46.06411 29.000
46.08405 34.000
46.10400 30.000
46.12395 22.000
46.14389 21.000
46.16384 31.000
46.18379 33.000
46.20374 37.000
46.22368 30.000
46.24363 43.000
46.26358 34.000
46.28352 37.000
46.30347 57.000
46.32342 46.000
46.34336 49.000
46.36331 67.000
46.38326 88.000
46.40321 120.000
46.42315 167.000
46.44310 192.000
46.46305 211.000
46.48299 163.000
46.50294 115.000
46.52289 129.000
46.54283 118.000
46.56278 123.000
46.58273 122.000
46.60267 111.000
46.62262 88.000
46.64257 79.000
46.66252 65.000
46.68246 47.000
46.70241 47.000
46.72236 49.000
46.74230 42.000
46.76225 41.000
46.78220 44.000
46.80214 40.000
46.82209 19.000
46.84204 31.000
46.86199 42.000
46.88193 33.000
46.90188 29.000
46.92183 40.000
46.94177 38.000
46.96172 35.000
46.98167 24.000
47.00161 27.000
47.02156 30.000
47.04151 28.000
47.06146 29.000
47.08140 39.000
47.10135 36.000
47.12130 21.000
47.14124 28.000
47.16119 21.000
47.18114 24.000
47.20108 33.000
47.22103 25.000
47.24098 24.000
47.26092 22.000
47.28087 26.000
47.30082 25.000
47.32077 26.000
47.34071 26.000
47.36066 23.000
47.38061 23.000
47.40055 25.000
47.42050 21.000
47.44045 27.000
47.46039 25.000
47.48034 22.000
47.50029 23.000
47.52024 20.000
47.54018 21.000
47.56013 34.000
47.58008 26.000
47.60002 33.000
47.61997 26.000
47.63992 21.000
47.65986 27.000
47.67981 33.000
47.69976 27.000
47.71970 30.000
47.73965 24.000
47.75960 27.000
47.77955 28.000
47.79949 31.000
47.81944 23.000
47.83939 30.000
47.85933 24.000
47.87928 30.000
47.89923 34.000
47.91917 32.000
47.93912 39.000
47.95907 25.000
47.97902 35.000
47.99896 34.000
48.01891 33.000
48.03886 34.000
48.05880 27.000
48.07875 36.000
48.09870 30.000
48.11864 33.000
48.13859 31.000
48.15854 35.000
48.17848 35.000
48.19843 34.000
48.21838 40.000
48.23833 35.000
48.25827 53.000
48.27822 48.000
48.29817 46.000
48.31811 46.000
48.33806 61.000
48.35801 58.000
48.37795 41.000
48.39790 46.000
48.41785 59.000
48.43780 61.000
48.45774 68.000
48.47769 70.000
48.49764 80.000
48.51758 62.000
48.53753 59.000
48.55748 63.000
48.57742 71.000
48.59737 70.000
48.61732 91.000
48.63726 76.000
48.65721 74.000
48.67716 69.000
48.69711 81.000
48.71705 59.000
48.73700 80.000
48.75695 60.000
48.77689 81.000
48.79684 71.000
48.81679 66.000
48.83673 61.000
48.85668 67.000
48.87663 59.000
48.89658 61.000
48.91652 73.000
48.93647 65.000
48.95642 58.000
48.97636 65.000
48.99631 49.000
49.01626 60.000
49.03620 52.000
49.05615 53.000
49.07610 40.000
49.09605 49.000
49.11599 42.000
49.13594 40.000
49.15589 52.000
49.17583 37.000
49.19578 37.000
49.21573 37.000
49.23567 43.000
49.25562 36.000
49.27557 24.000
49.29551 41.000
49.31546 40.000
49.33541 42.000
49.35536 52.000
49.37530 44.000
49.39525 51.000
49.41520 57.000
49.43514 63.000
49.45509 73.000
49.47504 58.000
49.49498 50.000
49.51493 43.000
49.53488 42.000
49.55483 46.000
49.57477 44.000
49.59472 49.000
49.61467 31.000
49.63461 24.000
49.65456 33.000
49.67451 23.000
49.69445 30.000
49.71440 19.000
49.73435 35.000
49.75429 35.000
49.77424 44.000
49.79419 30.000
49.81414 34.000
49.83408 42.000
49.85403 52.000
49.87398 51.000
49.89392 60.000
49.91387 45.000
49.93382 45.000
49.95376 52.000
49.97371 66.000
49.99366 59.000
50.01361 44.000
50.03355 51.000
50.05350 26.000
50.07345 29.000
50.09339 33.000
50.11334 33.000
50.13329 30.000
50.15323 21.000
50.17318 36.000
50.19313 28.000
50.21307 26.000
50.23302 30.000
50.25297 31.000
50.27292 25.000
50.29286 26.000
50.31281 28.000
50.33276 26.000
50.35270 30.000
50.37265 20.000
50.39260 26.000
50.41254 23.000
50.43249 21.000
50.45244 23.000
50.47239 30.000
50.49233 19.000
50.51228 26.000
50.53223 27.000
50.55217 20.000
50.57212 27.000
50.59207 38.000
50.61201 22.000
50.63196 26.000
50.65191 33.000
50.67186 29.000
50.69180 31.000
50.71175 30.000
50.73170 32.000
50.75164 29.000
50.77159 34.000
50.79154 40.000
50.81148 41.000
50.83143 41.000
50.85138 51.000
50.87132 48.000
50.89127 48.000
50.91122 50.000
50.93117 55.000
50.95111 62.000
50.97106 74.000
50.99101 71.000
51.01095 86.000
51.03090 89.000
51.05085 95.000
51.07079 112.000
51.09074 126.000
51.11069 142.000
51.13064 165.000
51.15058 179.000
51.17053 127.000
51.19048 115.000
51.21042 114.000
51.23037 97.000
51.25032 94.000
51.27026 79.000
51.29021 64.000
51.31016 67.000
51.33010 54.000
51.35005 47.000
51.37000 46.000
51.38995 29.000
51.40989 37.000
51.42984 26.000
51.44979 20.000
51.46973 31.000
51.48968 34.000
51.50963 37.000
51.52957 25.000
51.54952 45.000
51.56947 42.000
51.58942 33.000
51.60936 21.000
51.62931 31.000
51.64926 35.000
51.66920 35.000
51.68915 25.000
51.70910 32.000
51.72904 25.000
51.74899 28.000
51.76894 27.000
51.78888 25.000
51.80883 30.000
51.82878 21.000
51.84873 32.000
51.86867 26.000
51.88862 22.000
51.90857 27.000
51.92851 24.000
51.94846 26.000
51.96841 28.000
51.98835 31.000
52.00830 40.000
52.02825 25.000
52.04820 21.000
52.06814 26.000
52.08809 30.000
52.10804 27.000
52.12798 16.000
52.14793 30.000
52.16788 27.000
52.18782 21.000
52.20777 17.000
52.22772 26.000
52.24767 24.000
52.26761 36.000
52.28756 26.000
52.30751 32.000
52.32745 29.000
52.34740 29.000
52.36735 36.000
52.38729 27.000
52.40724 27.000
52.42719 35.000
52.44713 38.000
52.46708 46.000
52.48703 48.000
52.50698 58.000
52.52692 61.000
52.54687 66.000
52.56682 55.000
52.58676 60.000
52.60671 48.000
52.62666 55.000
52.64660 47.000
52.66655 56.000
52.68650 63.000
52.70645 53.000
52.72639 47.000
52.74634 65.000
52.76629 46.000
52.78623 55.000
52.80618 54.000
52.82613 97.000
52.84607 67.000
52.86602 60.000
52.88597 74.000
52.90591 73.000
52.92586 91.000
52.94581 109.000
52.96576 146.000
52.98570 162.000
53.00565 175.000
53.02560 184.000
53.04554 156.000
53.06549 118.000
53.08544 104.000
53.10538 109.000
53.12533 95.000
53.14528 114.000
53.16523 101.000
53.18517 111.000
53.20512 81.000
53.22507 60.000
53.24501 66.000
53.26496 58.000
53.28491 73.000
53.30485 51.000
53.32480 63.000
53.34475 41.000
53.36469 65.000
53.38464 45.000
53.40459 57.000
53.42454 58.000
53.44448 52.000
53.46443 45.000
53.48438 61.000
53.50432 63.000
53.52427 50.000
53.54422 57.000
53.56416 38.000
53.58411 55.000
53.60406 53.000
53.62401 53.000
53.64395 55.000
53.66390 65.000
53.68385 66.000
53.70379 55.000
53.72374 47.000
53.74369 58.000
53.76363 52.000
53.78358 58.000
53.80353 51.000
53.82348 69.000
53.84342 77.000
53.86337 72.000
53.88332 64.000
53.90326 52.000
53.92321 58.000
53.94316 60.000
53.96310 52.000
53.98305 72.000
54.00300 81.000
54.02294 101.000
54.04289 102.000
54.06284 85.000
54.08279 56.000
54.10273 66.000
54.12268 48.000
54.14263 53.000
54.16257 59.000
54.18252 82.000
54.20247 55.000
54.22241 64.000
54.24236 48.000
54.26231 32.000
54.28226 42.000
54.30220 34.000
54.32215 43.000
54.34210 27.000
54.36204 30.000
54.38199 31.000
54.40194 21.000
54.42188 29.000
54.44183 39.000
54.46178 39.000
54.48172 32.000
54.50167 45.000
54.52162 35.000
54.54157 39.000
54.56151 27.000
54.58146 33.000
54.60141 45.000
54.62135 42.000
54.64130 44.000
54.66125 44.000
54.68119 59.000
54.70114 92.000
54.72109 77.000
54.74104 79.000
54.76098 86.000
54.78093 77.000
54.80088 104.000
54.82082 132.000
54.84077 171.000
54.86072 208.000
54.88066 307.000
54.90061 289.000
54.92056 202.000
54.94050 160.000
54.96045 164.000
54.98040 145.000
55.00035 150.000
55.02029 158.000
55.04024 155.000
55.06019 128.000
55.08013 116.000
55.10008 110.000
55.12003 91.000
55.13997 75.000
55.15992 69.000
55.17987 65.000
55.19982 53.000
55.21976 48.000
55.23971 58.000
55.25966 40.000
55.27960 37.000
55.29955 34.000
55.31950 35.000
55.33944 35.000
55.35939 16.000
55.37934 33.000
55.39929 22.000
55.41923 31.000
55.43918 33.000
55.45913 33.000
55.47907 35.000
55.49902 31.000
55.51897 34.000
55.53891 28.000
55.55886 40.000
55.57881 45.000
55.59875 44.000
55.61870 48.000
55.63865 35.000
55.65860 38.000
55.67854 39.000
55.69849 36.000
55.71844 50.000
55.73838 39.000
55.75833 40.000
55.77828 35.000
55.79822 59.000
55.81817 46.000
55.83812 38.000
55.85807 42.000
55.87801 44.000
55.89796 44.000
55.91791 30.000
55.93785 36.000
55.95780 37.000
55.97775 39.000
55.99769 36.000
56.01764 30.000
56.03759 28.000
56.05753 49.000
56.07748 56.000
56.09743 54.000
56.11738 52.000
56.13732 44.000
56.15727 23.000
56.17722 41.000
56.19716 41.000
56.21711 53.000
56.23706 33.000
56.25700 32.000
56.27695 27.000
56.29690 39.000
56.31685 29.000
56.33679 35.000
56.35674 20.000
56.37669 28.000
56.39663 35.000
56.41658 33.000
56.43653 37.000
56.45647 30.000
56.47642 29.000
56.49637 36.000
56.51631 36.000
56.53626 33.000
56.55621 35.000
56.57616 36.000
56.59610 35.000
56.61605 19.000
56.63600 33.000
56.65594 27.000
56.67589 28.000
56.69584 32.000
56.71578 26.000
56.73573 29.000
56.75568 24.000
56.77563 35.000
56.79557 21.000
56.81552 30.000
56.83547 18.000
56.85541 24.000
56.87536 26.000
56.89531 26.000
56.91525 23.000
56.93520 31.000
56.95515 41.000
56.97510 26.000
56.99504 28.000
57.01499 41.000
57.03494 39.000
57.05488 39.000
57.07483 41.000
57.09478 45.000
57.11472 50.000
57.13467 34.000
57.15462 42.000
57.17456 52.000
57.19451 46.000
57.21446 36.000
57.23441 43.000
57.25435 39.000
57.27430 50.000
57.29425 40.000
57.31419 53.000
57.33414 50.000
57.35409 41.000
57.37403 54.000
57.39398 41.000
57.41393 38.000
57.43388 38.000
57.45382 41.000
57.47377 35.000
57.49372 43.000
57.51366 60.000
57.53361 35.000
57.55356 40.000
57.57350 41.000
57.59345 41.000
57.61340 44.000
57.63334 48.000
57.65329 45.000
57.67324 54.000
57.69319 52.000
57.71313 44.000
57.73308 57.000
57.75303 53.000
57.77297 50.000
57.79292 38.000
57.81287 39.000
57.83281 42.000
57.85276 53.000
57.87271 34.000
57.89266 39.000
57.91260 33.000
57.93255 28.000
57.95250 23.000
57.97244 41.000
57.99239 35.000
58.01234 37.000
58.03228 23.000
58.05223 32.000
58.07218 36.000
58.09212 28.000
58.11207 23.000
58.13202 41.000
58.15197 25.000
58.17191 25.000
58.19186 30.000
58.21181 30.000
58.23175 25.000
58.25170 23.000
58.27165 23.000
58.29159 32.000
58.31154 26.000
58.33149 26.000
58.35144 35.000
58.37138 20.000
58.39133 27.000
58.41128 29.000
58.43122 29.000
58.45117 29.000
58.47112 25.000
58.49106 29.000
58.51101 39.000
58.53096 32.000
58.55090 27.000
58.57085 21.000
58.59080 31.000
58.61075 33.000
58.63069 32.000
58.65064 24.000
58.67059 30.000
58.69053 26.000
58.71048 26.000
58.73043 31.000
58.75037 26.000
58.77032 25.000
58.79027 26.000
58.81022 31.000
58.83016 24.000
58.85011 26.000
58.87006 28.000
58.89000 20.000
58.90995 31.000
58.92990 37.000
58.94984 24.000
58.96979 30.000
58.98974 36.000
59.00969 34.000
59.02963 28.000
59.04958 28.000
59.06953 21.000
59.08947 32.000
59.10942 36.000
59.12937 31.000
59.14931 27.000
59.16926 21.000
59.18921 23.000
59.20915 27.000
59.22910 28.000
59.24905 24.000
59.26900 29.000
59.28894 41.000
59.30889 23.000
59.32884 44.000
59.34878 42.000
59.36873 38.000
59.38868 34.000
59.40862 36.000
59.42857 32.000
59.44852 38.000
59.46847 40.000
59.48841 36.000
59.50836 40.000
59.52831 43.000
59.54825 45.000
59.56820 40.000
59.58815 28.000
59.60809 46.000
59.62804 42.000
59.64799 44.000
59.66793 50.000
59.68788 49.000
59.70783 64.000
59.72778 89.000
59.74772 70.000
59.76767 83.000
59.78762 95.000
59.80756 155.000
59.82751 151.000
59.84746 178.000
59.86740 259.000
59.88735 266.000
59.90730 275.000
59.92725 207.000
59.94719 178.000
59.96714 150.000
59.98709 167.000
60.00703 152.000
60.02698 178.000
60.04693 181.000
60.06687 176.000
60.08682 176.000
60.10677 128.000
60.12671 91.000
60.14666 104.000
60.16661 72.000
60.18656 81.000
60.20650 53.000
60.22645 63.000
60.24640 50.000
60.26634 71.000
60.28629 67.000
60.30624 75.000
60.32618 83.000
60.34613 72.000
60.36608 75.000
60.38603 101.000
60.40597 89.000
60.42592 85.000
60.44587 108.000
60.46581 114.000
60.48576 119.000
60.50571 103.000
60.52565 114.000
60.54560 130.000
60.56555 147.000
60.58550 136.000
60.60544 140.000
60.62539 160.000
60.64534 171.000
60.66528 177.000
60.68523 192.000
60.70518 177.000
60.72512 184.000
60.74507 182.000
60.76502 162.000
60.78496 148.000
60.80491 161.000
60.82486 180.000
60.84481 198.000
60.86475 219.000
60.88470 170.000
60.90465 158.000
60.92459 137.000
60.94454 156.000
60.96449 153.000
60.98443 168.000
61.00438 152.000
61.02433 142.000
61.04428 162.000
61.06422 149.000
61.08417 124.000
61.10412 136.000
61.12406 119.000
61.14401 120.000
61.16396 121.000
61.18390 138.000
61.20385 125.000
61.22380 139.000
61.24374 135.000
61.26369 130.000
61.28364 147.000
61.30359 133.000
61.32353 146.000
61.34348 140.000
61.36343 158.000
61.38337 120.000
61.40332 104.000
61.42327 114.000
61.44321 82.000
61.46316 107.000
61.48311 104.000
61.50306 109.000
61.52300 107.000
61.54295 112.000
61.56290 98.000
61.58284 111.000
61.60279 98.000
61.62274 87.000
61.64268 84.000
61.66263 62.000
61.68258 56.000
61.70252 63.000
61.72247 54.000
61.74242 63.000
61.76237 69.000
61.78231 50.000
61.80226 54.000
61.82221 59.000
61.84215 43.000
61.86210 40.000
61.88205 48.000
61.90199 27.000
61.92194 37.000
61.94189 31.000
61.96184 44.000
61.98178 36.000
62.00173 47.000
62.02168 38.000
62.04162 41.000
62.06157 47.000
62.08152 48.000
62.10146 52.000
62.12141 54.000
62.14136 42.000
62.16131 62.000
62.18125 70.000
62.20120 74.000
62.22115 84.000
62.24109 90.000
62.26104 92.000
62.28099 83.000
62.30093 104.000
62.32088 115.000
62.34083 128.000
62.36077 126.000
62.38072 135.000
62.40067 143.000
62.42062 127.000
62.44056 117.000
62.46051 113.000
62.48046 96.000
62.50040 80.000
62.52035 96.000
62.54030 101.000
62.56024 106.000
62.58019 98.000
62.60014 95.000
62.62009 67.000
62.64003 65.000
62.65998 41.000
62.67993 52.000
62.69987 50.000
62.71982 50.000
62.73977 44.000
62.75971 61.000
62.77966 54.000
62.79961 51.000
62.81955 52.000
62.83950 68.000
62.85945 45.000
62.87940 40.000
62.89934 46.000
62.91929 50.000
62.93924 44.000
62.95918 45.000
62.97913 54.000
62.99908 37.000
63.01902 46.000
63.03897 50.000
63.05892 43.000
63.07887 34.000
63.09881 40.000
63.11876 26.000
63.13871 26.000
63.15865 34.000
63.17860 33.000
63.19855 46.000
63.21849 27.000
63.23844 41.000
63.25839 37.000
63.27833 28.000
63.29828 29.000
63.31823 30.000
63.33818 32.000
63.35812 30.000
63.37807 37.000
63.39802 35.000
63.41796 33.000
63.43791 35.000
63.45786 28.000
63.47780 27.000
63.49775 31.000
63.51770 33.000
63.53765 25.000
63.55759 32.000
63.57754 29.000
63.59749 28.000
63.61743 23.000
63.63738 32.000
63.65733 42.000
63.67727 32.000
63.69722 48.000
63.71717 43.000
63.73712 42.000
63.75706 42.000
63.77701 45.000
63.79696 53.000
63.81690 52.000
63.83685 52.000
63.85680 55.000
63.87674 87.000
63.89669 85.000
63.91664 94.000
63.93658 94.000
63.95653 114.000
63.97648 114.000
63.99643 135.000
64.01637 118.000
64.03632 113.000
64.05627 116.000
64.07621 137.000
64.09616 135.000
64.11611 163.000
64.13605 146.000
64.15600 126.000
64.17595 106.000
64.19590 88.000
64.21584 89.000
64.23579 85.000
64.25574 88.000
64.27568 67.000
64.29563 60.000
64.31558 66.000
64.33552 60.000
64.35547 47.000
64.37542 58.000
64.39536 43.000
64.41531 47.000
64.43526 40.000
64.45521 39.000
64.47515 37.000
64.49510 52.000
64.51505 59.000
64.53499 43.000
64.55494 69.000
64.57489 54.000
64.59483 90.000
64.61478 65.000
64.63473 87.000
64.65468 61.000
64.67462 55.000
64.69457 72.000
64.71452 80.000
64.73446 64.000
64.75441 64.000
64.77436 62.000
64.79430 65.000
64.81425 61.000
64.83420 54.000
64.85414 54.000
64.87409 49.000
64.89404 51.000
64.91399 60.000
64.93393 67.000
64.95388 64.000
64.97383 66.000
64.99377 49.000
65.01372 65.000
65.03367 66.000
65.05361 56.000
65.07356 49.000
65.09351 56.000
65.11346 46.000
65.13340 47.000
65.15335 61.000
65.17330 53.000
65.19324 65.000
65.21319 72.000
65.23314 67.000
65.25308 63.000
65.27303 67.000
65.29298 81.000
65.31293 47.000
65.33287 83.000
65.35282 65.000
65.37277 73.000
65.39271 89.000
65.41266 89.000
65.43261 74.000
65.45255 80.000
65.47250 58.000
65.49245 73.000
65.51239 62.000
65.53234 71.000
65.55229 78.000
65.57224 73.000
65.59218 74.000
65.61213 90.000
65.63208 116.000
65.65202 117.000
65.67197 148.000
65.69192 168.000
65.71186 155.000
65.73181 165.000
65.75176 135.000
65.77171 123.000
65.79165 114.000
65.81160 104.000
65.83155 141.000
65.85149 132.000
65.87144 119.000
65.89139 115.000
65.91133 122.000
65.93128 121.000
65.95123 71.000
65.97117 67.000
65.99112 64.000
66.01107 64.000
66.03102 54.000
66.05096 64.000
66.07091 36.000
66.09086 44.000
66.11080 48.000
66.13075 53.000
66.15070 23.000
66.17064 45.000
66.19059 38.000
66.21054 43.000
66.23049 39.000
66.25043 32.000
66.27038 36.000
66.29033 36.000
66.31027 56.000
66.33022 44.000
66.35017 57.000
66.37011 55.000
66.39006 45.000
66.41001 39.000
66.42995 36.000
66.44990 33.000
66.46985 33.000
66.48980 36.000
66.50974 32.000
66.52969 40.000
66.54964 35.000
66.56958 37.000
66.58953 33.000
66.60948 33.000
66.62942 24.000
66.64937 21.000
66.66932 23.000
66.68927 24.000
66.70921 30.000
66.72916 27.000
66.74911 26.000
66.76905 30.000
66.78900 33.000
66.80895 30.000
66.82889 39.000
66.84884 34.000
66.86879 32.000
66.88874 41.000
66.90868 34.000
66.92863 29.000
66.94858 29.000
66.96852 29.000
66.98847 31.000
67.00842 27.000
67.02836 28.000
67.04831 34.000
67.06826 33.000
67.08820 30.000
67.10815 29.000
67.12810 32.000
67.14805 34.000
67.16799 30.000
67.18794 34.000
67.20789 29.000
67.22783 37.000
67.24778 39.000
67.26773 52.000
67.28767 43.000
67.30762 31.000
67.32757 28.000
67.34752 33.000
67.36746 40.000
67.38741 35.000
67.40736 41.000
67.42730 41.000
67.44725 38.000
67.46720 32.000
67.48714 33.000
67.50709 38.000
67.52704 35.000
67.54698 37.000
67.56693 47.000
67.58688 44.000
67.60683 42.000
67.62677 21.000
67.64672 30.000
67.66667 33.000
67.68661 34.000
67.70656 39.000
67.72651 37.000
67.74645 43.000
67.76640 43.000
67.78635 38.000
67.80630 40.000
67.82624 33.000
67.84619 34.000
67.86614 37.000
67.88608 35.000
67.90603 40.000
67.92598 34.000
67.94592 41.000
67.96587 32.000
67.98582 29.000
68.00576 42.000
68.02571 31.000
68.04566 34.000
68.06561 35.000
68.08555 29.000
68.10550 42.000
68.12545 28.000
68.14539 34.000
68.16534 27.000
68.18529 39.000
68.20523 38.000
68.22518 38.000
68.24513 48.000
68.26508 60.000
68.28502 65.000
68.30497 56.000
68.32492 66.000
68.34486 58.000
68.36481 58.000
68.38476 46.000
68.40470 41.000
68.42465 42.000
68.44460 41.000
68.46455 44.000
68.48449 51.000
68.50444 52.000
68.52439 47.000
68.54433 39.000
68.56428 43.000
68.58423 32.000
68.60417 32.000
68.62412 39.000
68.64407 26.000
68.66401 38.000
68.68396 30.000
68.70391 22.000
68.72386 23.000
68.74380 30.000
68.76375 28.000
68.78370 23.000
68.80364 32.000
68.82359 20.000
68.84354 20.000
68.86348 25.000
68.88343 23.000
68.90338 22.000
68.92333 19.000
68.94327 27.000
68.96322 25.000
68.98317 23.000
69.00311 26.000
69.02306 21.000
69.04301 29.000
69.06295 18.000
69.08290 18.000
69.10285 25.000
69.12279 20.000
69.14274 20.000
69.16269 20.000
69.18264 15.000
69.20258 23.000
69.22253 24.000
69.24248 18.000
69.26242 13.000
69.28237 19.000
69.30232 24.000
69.32226 28.000
69.34221 18.000
69.36216 24.000
69.38211 28.000
69.40205 23.000
69.42200 7.000
69.44195 25.000
69.46189 12.000
69.48184 26.000
69.50179 27.000
69.52173 21.000
69.54168 26.000
69.56163 19.000
69.58157 19.000
69.60152 32.000
69.62147 20.000
69.64142 18.000
69.66136 18.000
69.68131 19.000
69.70126 26.000
69.72120 23.000
69.74115 21.000
69.76110 49.000
69.78104 41.000
69.80099 40.000
69.82094 36.000
69.84089 34.000
69.86083 29.000
69.88078 28.000
69.90073 25.000
69.92067 36.000
69.94062 26.000
69.96057 36.000
69.98051 31.000
70.00046 28.000
70.02041 19.000
70.04035 34.000
70.06030 24.000
70.08025 36.000
70.10020 28.000
70.12014 36.000
70.14009 18.000
70.16004 25.000
70.17998 22.000
70.19993 18.000
70.21988 23.000
70.23982 29.000
70.25977 25.000
70.27972 25.000
70.29967 26.000
70.31961 26.000
70.33956 19.000
70.35951 21.000
70.37945 22.000
70.39940 18.000
70.41935 19.000
70.43929 28.000
70.45924 20.000
70.47919 30.000
70.49914 35.000
70.51908 26.000
70.53903 20.000
70.55898 22.000
70.57892 18.000
70.59887 27.000
70.61882 21.000
70.63876 20.000
70.65871 28.000
70.67866 24.000
70.69860 30.000
70.71855 22.000
70.73850 29.000
70.75845 22.000
70.77839 19.000
70.79834 20.000
70.81829 18.000
70.83823 29.000
70.85818 24.000
70.87813 22.000
70.89807 22.000
70.91802 30.000
70.93797 28.000
70.95792 33.000
70.97786 33.000
70.99781 30.000
71.01776 39.000
71.03770 41.000
71.05765 40.000
71.07760 42.000
71.09754 41.000
71.11749 45.000
71.13744 48.000
71.15738 35.000
71.17733 36.000
71.19728 45.000
71.21723 38.000
71.23717 38.000
71.25712 31.000
71.27707 48.000
71.29701 45.000
71.31696 51.000
71.33691 48.000
71.35685 28.000
71.37680 43.000
71.39675 45.000
71.41670 43.000
71.43664 50.000
71.45659 47.000
71.47654 55.000
71.49648 62.000
71.51643 68.000
71.53638 81.000
71.55632 63.000
71.57627 56.000
71.59622 64.000
71.61616 85.000
71.63611 53.000
71.65606 49.000
71.67601 50.000
71.69595 58.000
71.71590 51.000
71.73585 50.000
71.75579 64.000
71.77574 62.000
71.79569 59.000
71.81563 55.000
71.83558 48.000
71.85553 46.000
71.87548 40.000
71.89542 44.000
71.91537 65.000
71.93532 51.000
71.95526 47.000
71.97521 47.000
71.99516 37.000
72.01510 33.000
72.03505 38.000
72.05500 32.000
72.07495 35.000
72.09489 31.000
72.11484 30.000
72.13479 32.000
72.15473 44.000
72.17468 33.000
72.19463 38.000
72.21457 23.000
72.23452 38.000
72.25447 41.000
72.27441 39.000
72.29436 42.000
72.31431 32.000
72.33426 40.000
72.35420 25.000
72.37415 30.000
72.39410 27.000
72.41404 27.000
72.43399 18.000
72.45394 27.000
72.47388 23.000
72.49383 34.000
72.51378 36.000
72.53373 26.000
72.55367 29.000
72.57362 25.000
72.59357 26.000
72.61351 26.000
72.63346 26.000
72.65341 26.000
72.67335 25.000
72.69330 23.000
72.71325 36.000
72.73319 18.000
72.75314 24.000
72.77309 27.000
72.79304 26.000
72.81298 15.000
72.83293 31.000
72.85288 25.000
72.87282 29.000
72.89277 36.000
72.91272 23.000
72.93266 27.000
72.95261 26.000
72.97256 22.000
72.99251 25.000
73.01245 22.000
73.03240 29.000
73.05235 23.000
73.07229 23.000
73.09224 33.000
73.11219 21.000
73.13213 34.000
73.15208 33.000
73.17203 19.000
73.19197 22.000
73.21192 25.000
73.23187 24.000
73.25182 27.000
73.27176 20.000
73.29171 21.000
73.31166 22.000
73.33160 25.000
73.35155 15.000
73.37150 34.000
73.39144 22.000
73.41139 37.000
73.43134 26.000
73.45129 27.000
73.47123 32.000
73.49118 39.000
73.51113 34.000
73.53107 33.000
73.55102 27.000
73.57097 29.000
73.59091 31.000
73.61086 22.000
73.63081 27.000
73.65076 21.000
73.67070 28.000
73.69065 21.000
73.71060 24.000
73.73054 22.000
73.75049 26.000
73.77044 25.000
73.79038 21.000
73.81033 23.000
73.83028 21.000
73.85022 32.000
73.87017 26.000
73.89012 28.000
73.91007 24.000
73.93001 37.000
73.94996 34.000
73.96991 36.000
73.98985 46.000
74.00980 52.000
74.02975 25.000
74.04969 26.000
74.06964 42.000
74.08959 32.000
74.10954 34.000
74.12948 48.000
74.14943 42.000
74.16938 38.000
74.18932 34.000
74.20927 29.000
74.22922 34.000
74.24916 30.000
74.26911 35.000
74.28906 26.000
74.30900 23.000
74.32895 23.000
74.34890 28.000
74.36885 16.000
74.38879 22.000
74.40874 22.000
74.42869 25.000
74.44863 33.000
74.46858 22.000
74.48853 20.000
74.50847 25.000
74.52842 20.000
74.54837 19.000
74.56832 28.000
74.58826 26.000
74.60821 30.000
74.62816 26.000
74.64810 21.000
74.66805 21.000
74.68800 18.000
74.70794 22.000
74.72789 16.000
74.74784 18.000
74.76778 25.000
74.78773 26.000
74.80768 33.000
74.82763 32.000
74.84757 25.000
74.86752 28.000
74.88747 37.000
74.90741 28.000
74.92736 18.000
74.94731 23.000
74.96725 29.000
74.98720 33.000
75.00715 17.000
75.02710 20.000
75.04704 19.000
75.06699 31.000
75.08694 32.000
75.10688 24.000
75.12683 28.000
75.14678 35.000
75.16672 28.000
75.18667 27.000
75.20662 26.000
75.22657 27.000
75.24651 30.000
75.26646 28.000
75.28641 19.000
75.30635 33.000
75.32630 19.000
75.34625 26.000
75.36619 33.000
75.38614 26.000
75.40609 30.000
75.42603 30.000
75.44598 30.000
75.46593 36.000
75.48588 29.000
75.50582 27.000
75.52577 22.000
75.54572 26.000
75.56566 33.000
75.58561 27.000
75.60556 17.000
75.62550 25.000
75.64545 28.000
75.66540 23.000
75.68535 15.000
75.70529 27.000
75.72524 20.000
75.74519 22.000
75.76513 18.000
75.78508 19.000
75.80503 15.000
75.82497 22.000
75.84492 26.000
75.86487 22.000
75.88481 20.000
75.90476 17.000
75.92471 28.000
75.94466 23.000
75.96460 14.000
75.98455 18.000
76.00450 23.000
76.02444 22.000
76.04439 21.000
76.06434 30.000
76.08428 29.000
76.10423 26.000
76.12418 22.000
76.14413 21.000
76.16407 27.000
76.18402 25.000
76.20397 21.000
76.22391 15.000
76.24386 21.000
76.26381 17.000
76.28375 18.000
76.30370 19.000
76.32365 17.000
76.34359 18.000
76.36354 20.000
76.38349 15.000
76.40344 16.000
76.42338 11.000
76.44333 24.000
76.46328 34.000
76.48322 18.000
76.50317 27.000
76.52312 18.000
76.54306 22.000
76.56301 15.000
76.58296 28.000
76.60291 25.000
76.62285 23.000
76.64280 20.000
76.66275 19.000
76.68269 20.000
76.70264 24.000
76.72259 21.000
76.74253 24.000
76.76248 29.000
76.78243 25.000
76.80238 15.000
76.82232 18.000
76.84227 20.000
76.86222 28.000
76.88216 21.000
76.90211 23.000
76.92206 19.000
76.94200 19.000
76.96195 24.000
76.98190 17.000
77.00184 19.000
77.02179 23.000
77.04174 17.000
77.06169 28.000
77.08163 21.000
77.10158 27.000
77.12153 28.000
77.14147 26.000
77.16142 22.000
77.18137 21.000
77.20131 26.000
77.22126 27.000
77.24121 17.000
77.26116 28.000
77.28110 26.000
77.30105 14.000
77.32100 30.000
77.34094 27.000
77.36089 27.000
77.38084 22.000
77.40078 21.000
77.42073 28.000
77.44068 31.000
77.46062 25.000
77.48057 35.000
77.50052 30.000
77.52047 23.000
77.54041 30.000
77.56036 28.000
77.58031 30.000
77.60025 33.000
77.62020 21.000
77.64015 36.000
77.66009 42.000
77.68004 29.000
77.69999 27.000
77.71994 28.000
77.73988 29.000
77.75983 27.000
77.77978 22.000
77.79972 24.000
77.81967 20.000
77.83962 22.000
77.85956 22.000
77.87951 12.000
77.89946 26.000
77.91940 19.000
77.93935 29.000
77.95930 23.000
77.97925 29.000
77.99919 23.000
78.01914 22.000
78.03909 21.000
78.05903 28.000
78.07898 35.000
78.09893 24.000
78.11887 25.000
78.13882 15.000
78.15877 30.000
78.17872 23.000
78.19866 13.000
78.21861 20.000
78.23856 26.000
78.25850 31.000
78.27845 13.000
78.29840 28.000
78.31834 23.000
78.33829 26.000
78.35824 30.000
78.37819 30.000
78.39813 19.000
78.41808 33.000
78.43803 26.000
78.45797 23.000
78.47792 27.000
78.49787 22.000
78.51781 27.000
78.53776 30.000
78.55771 31.000
78.57765 25.000
78.59760 20.000
78.61755 39.000
78.63750 30.000
78.65744 30.000
78.67739 28.000
78.69734 26.000
78.71728 26.000
78.73723 26.000
78.75718 30.000
78.77712 25.000
78.79707 26.000
78.81702 27.000
78.83697 29.000
78.85691 31.000
78.87686 29.000
78.89681 23.000
78.91675 22.000
78.93670 21.000
78.95665 28.000
78.97659 15.000
78.99654 22.000
79.01649 9.000
79.03643 26.000
79.05638 27.000
79.07633 19.000
79.09628 18.000
79.11622 16.000
79.13617 17.000
79.15612 17.000
79.17606 15.000
79.19601 15.000
79.21596 14.000
79.23590 15.000
79.25585 18.000
79.27580 14.000
79.29575 18.000
79.31569 22.000
79.33564 16.000
79.35559 15.000
79.37553 16.000
79.39548 17.000
79.41543 12.000
79.43537 14.000
79.45532 13.000
79.47527 17.000
79.49521 12.000
79.51516 16.000
79.53511 19.000
79.55506 18.000
79.57500 11.000
79.59495 12.000
79.61490 11.000
79.63484 24.000
79.65479 22.000
79.67474 9.000
79.69468 19.000
79.71463 14.000
79.73458 14.000
79.75453 26.000
79.77447 20.000
79.79442 21.000
79.81437 22.000
79.83431 22.000
79.85426 23.000
79.87421 17.000
79.89415 16.000
79.91410 26.000
79.93405 25.000
79.95399 22.000
79.97394 28.000
79.99389 31.000
80.01384 21.000
80.03378 19.000
80.05373 18.000
80.07368 29.000
80.09362 22.000
80.11357 21.000
80.13352 14.000
80.15346 22.000
80.17341 20.000
80.19336 19.000
80.21331 19.000
80.23325 21.000
80.25320 12.000
80.27315 18.000
80.29309 28.000
80.31304 16.000
80.33299 13.000
80.35293 15.000
80.37288 13.000
80.39283 17.000
80.41278 18.000
80.43272 18.000
80.45267 17.000
80.47262 19.000
80.49256 23.000
80.51251 21.000
80.53246 25.000
80.55240 23.000
80.57235 12.000
80.59230 19.000
80.61224 22.000
80.63219 20.000
80.65214 13.000
80.67209 17.000
80.69203 25.000
80.71198 14.000
80.73193 26.000
80.75187 23.000
80.77182 34.000
80.79177 26.000
80.81171 22.000
80.83166 20.000
80.85161 25.000
80.87156 25.000
80.89150 33.000
80.91145 22.000
80.93140 26.000
80.95134 21.000
80.97129 31.000
80.99124 33.000
81.01118 29.000
81.03113 29.000
81.05108 27.000
81.07102 38.000
81.09097 31.000
81.11092 19.000
81.13087 21.000
81.15081 29.000
81.17076 30.000
81.19071 30.000
81.21065 24.000
81.23060 36.000
81.25055 29.000
81.27049 35.000
81.29044 26.000
81.31039 38.000
81.33034 31.000
81.35028 24.000
81.37023 29.000
81.39018 32.000
81.41012 24.000
81.43007 32.000
81.45002 24.000
81.46996 25.000
81.48991 30.000
81.50986 27.000
81.52980 34.000
81.54975 29.000
81.56970 33.000
81.58965 30.000
81.60959 23.000
81.62954 29.000
81.64949 30.000
81.66943 25.000
81.68938 34.000
81.70933 33.000
81.72927 24.000
81.74922 30.000
81.76917 17.000
81.78912 37.000
81.80906 26.000
81.82901 23.000
81.84896 26.000
81.86890 24.000
81.88885 22.000
81.90880 27.000
81.92874 32.000
81.94869 18.000
81.96864 26.000
81.98859 24.000
82.00853 21.000
82.02848 20.000
82.04843 26.000
82.06837 16.000
82.08832 20.000
82.10827 27.000
82.12821 22.000
82.14816 23.000
82.16811 12.000
82.18805 17.000
82.20800 24.000
82.22795 18.000
82.24790 16.000
82.26784 29.000
82.28779 22.000
82.30774 23.000
82.32768 18.000
82.34763 32.000
82.36758 29.000
82.38752 25.000
82.40747 20.000
82.42742 21.000
82.44737 9.000
82.46731 21.000
82.48726 22.000
82.50721 25.000
82.52715 18.000
82.54710 20.000
82.56705 20.000
82.58699 19.000
82.60694 11.000
82.62689 16.000
82.64683 23.000
82.66678 16.000
82.68673 16.000
82.70668 28.000
82.72662 13.000
82.74657 18.000
82.76652 21.000
82.78646 20.000
82.80641 24.000
82.82636 24.000
82.84630 19.000
82.86625 21.000
82.88620 20.000
82.90615 33.000
82.92609 22.000
82.94604 22.000
82.96599 23.000
82.98593 25.000
83.00588 19.000
83.02583 19.000
83.04577 23.000
83.06572 26.000
83.08567 25.000
83.10561 20.000
83.12556 23.000
83.14551 22.000
83.16546 15.000
83.18540 27.000
83.20535 28.000
83.22530 21.000
83.24524 24.000
83.26519 21.000
83.28514 24.000
83.30508 29.000
83.32503 26.000
83.34498 24.000
83.36493 25.000
83.38487 23.000
83.40482 33.000
83.42477 14.000
83.44471 18.000
83.46466 37.000
83.48461 28.000
83.50455 39.000
83.52450 40.000
83.54445 47.000
83.56440 58.000
83.58434 47.000
83.60429 52.000
83.62424 45.000
83.64418 50.000
83.66413 35.000
83.68408 34.000
83.70402 27.000
83.72397 24.000
83.74392 42.000
83.76386 30.000
83.78381 30.000
83.80376 33.000
83.82371 34.000
83.84365 33.000
83.86360 36.000
83.88355 26.000
83.90349 31.000
83.92344 21.000
83.94339 21.000
83.96333 33.000
83.98328 29.000
84.00323 18.000
84.02318 27.000
84.04312 28.000
84.06307 11.000
84.08302 28.000
84.10296 22.000
84.12291 34.000
84.14286 20.000
84.16280 19.000
84.18275 21.000
84.20270 19.000
84.22264 25.000
84.24259 28.000
84.26254 20.000
84.28249 14.000
84.30243 32.000
84.32238 32.000
84.34233 28.000
84.36227 31.000
84.38222 20.000
84.40217 31.000
84.42211 25.000
84.44206 22.000
84.46201 15.000
84.48196 27.000
84.50190 19.000
84.52185 23.000
84.54180 27.000
84.56174 22.000
84.58169 28.000
84.60164 31.000
84.62158 30.000
84.64153 24.000
84.66148 20.000
84.68142 28.000
84.70137 19.000
84.72132 21.000
84.74127 22.000
84.76121 27.000
84.78116 23.000
84.80111 36.000
84.82105 39.000
84.84100 32.000
84.86095 31.000
84.88089 31.000
84.90084 35.000
84.92079 26.000
84.94074 36.000
84.96068 24.000
84.98063 24.000
85.00058 31.000
85.02052 43.000
85.04047 35.000
85.06042 39.000
85.08036 44.000
85.10031 55.000
85.12026 44.000
85.14021 51.000
85.16015 41.000
85.18010 44.000
85.20005 49.000
85.21999 55.000
85.23994 48.000
85.25989 52.000
85.27983 43.000
85.29978 43.000
85.31973 33.000
85.33967 40.000
85.35962 29.000
85.37957 33.000
85.39952 26.000
85.41946 33.000
85.43941 31.000
85.45936 34.000
85.47930 37.000
85.49925 33.000
85.51920 24.000
85.53914 35.000
85.55909 42.000
85.57904 23.000
85.59899 26.000
85.61893 17.000
85.63888 19.000
85.65883 27.000
85.67877 22.000
85.69872 16.000
85.71867 26.000
85.73861 18.000
85.75856 26.000
85.77851 26.000
85.79845 20.000
85.81840 20.000
85.83835 17.000
85.85830 19.000
85.87824 15.000
85.89819 19.000
85.91814 25.000
85.93808 22.000
85.95803 21.000
85.97798 13.000
85.99792 21.000
86.01787 21.000
86.03782 22.000
86.05777 12.000
86.07771 19.000
86.09766 25.000
86.11761 18.000
86.13755 15.000
86.15750 18.000
86.17745 18.000
86.19739 10.000
86.21734 19.000
86.23729 16.000
86.25723 16.000
86.27718 15.000
86.29713 15.000
86.31708 12.000
86.33702 17.000
86.35697 23.000
86.37692 20.000
86.39686 15.000
86.41681 19.000
86.43676 16.000
86.45670 19.000
86.47665 16.000
86.49660 22.000
86.51655 19.000
86.53649 18.000
86.55644 18.000
86.57639 20.000
86.59633 16.000
86.61628 13.000
86.63623 18.000
86.65617 29.000
86.67612 28.000
86.69607 28.000
86.71602 17.000
86.73596 19.000
86.75591 18.000
86.77586 18.000
86.79580 20.000
86.81575 22.000
86.83570 29.000
86.85564 23.000
86.87559 12.000
86.89554 25.000
86.91548 27.000
86.93543 22.000
86.95538 18.000
86.97533 15.000
86.99527 25.000
87.01522 24.000
87.03517 22.000
87.05511 25.000
87.07506 17.000
87.09501 26.000
87.11495 22.000
87.13490 17.000
87.15485 25.000
87.17480 31.000
87.19474 34.000
87.21469 16.000
87.23464 21.000
87.25458 21.000
87.27453 17.000
87.29448 21.000
87.31442 27.000
87.33437 27.000
87.35432 16.000
87.37426 17.000
87.39421 15.000
87.41416 26.000
87.43411 26.000
87.45405 24.000
87.47400 19.000
87.49395 20.000
87.51389 23.000
87.53384 25.000
87.55379 28.000
87.57373 39.000
87.59368 46.000
87.61363 38.000
87.63358 46.000
87.65352 47.000
87.67347 39.000
87.69342 51.000
87.71336 35.000
87.73331 42.000
87.75326 40.000
87.77320 34.000
87.79315 29.000
87.81310 44.000
87.83304 41.000
87.85299 37.000
87.87294 48.000
87.89289 44.000
87.91283 34.000
87.93278 49.000
87.95273 31.000
87.97267 26.000
87.99262 36.000
88.01257 39.000
88.03251 29.000
88.05246 35.000
88.07241 30.000
88.09236 22.000
88.11230 20.000
88.13225 22.000
88.15220 25.000
88.17214 35.000
88.19209 31.000
88.21204 28.000
88.23198 23.000
88.25193 17.000
88.27188 18.000
88.29183 16.000
88.31177 32.000
88.33172 14.000
88.35167 15.000
88.37161 17.000
88.39156 14.000
88.41151 16.000
88.43145 19.000
88.45140 24.000
88.47135 21.000
88.49129 15.000
88.51124 12.000
88.53119 24.000
88.55114 23.000
88.57108 26.000
88.59103 28.000
88.61098 10.000
88.63092 21.000
88.65087 17.000
88.67082 20.000
88.69076 19.000
88.71071 17.000
88.73066 12.000
88.75061 12.000
88.77055 20.000
88.79050 20.000
88.81045 17.000
88.83039 30.000
88.85034 26.000
88.87029 25.000
88.89023 15.000
88.91018 16.000
88.93013 9.000
88.95007 27.000
88.97002 22.000
88.98997 19.000
89.00992 21.000
89.02986 24.000
89.04981 23.000
89.06976 23.000
89.08970 21.000
89.10965 21.000
89.12960 22.000
89.14954 35.000
89.16949 30.000
89.18944 26.000
89.20939 20.000
89.22933 32.000
89.24928 18.000
89.26923 28.000
89.28917 23.000
89.30912 32.000
89.32907 26.000
89.34901 23.000
89.36896 22.000
89.38891 15.000
89.40885 22.000
89.42880 23.000
89.44875 25.000
89.46870 22.000
89.48864 22.000
89.50859 22.000
89.52854 20.000
89.54848 23.000
89.56843 17.000
89.58838 13.000
89.60832 23.000
89.62827 15.000
89.64822 16.000
89.66817 22.000
89.68811 21.000
89.70806 24.000
89.72801 15.000
89.74795 18.000
89.76790 24.000
89.78785 25.000
89.80779 18.000
89.82774 23.000
89.84769 19.000
89.86764 16.000
89.88758 31.000
89.90753 31.000
89.92748 38.000
89.94742 25.000
89.96737 33.000
89.98732 24.000
90.00726 25.000
