10.00000 27.000
10.01995 20.000
10.03989 32.000
10.05984 34.000
10.07979 24.000
10.09973 21.000
10.11968 39.000
10.13963 27.000
10.15958 16.000
10.17952 20.000
10.19947 27.000
10.21942 28.000
10.23936 26.000
10.25931 25.000
10.27926 38.000
10.29920 28.000
10.31915 41.000
10.33910 25.000
10.35905 27.000
10.37899 28.000
10.39894 20.000
10.41889 22.000
10.43883 26.000
10.45878 32.000
10.47873 26.000
10.49867 19.000
10.51862 29.000
10.53857 25.000
10.55851 29.000
10.57846 23.000
10.59841 32.000
10.61836 23.000
10.63830 20.000
10.65825 33.000
10.67820 32.000
10.69814 33.000
10.71809 34.000
10.73804 33.000
10.75798 29.000
10.77793 24.000
10.79788 25.000
10.81783 24.000
10.83777 23.000
10.85772 25.000
10.87767 24.000
10.89761 27.000
10.91756 26.000
10.93751 23.000
10.95745 28.000
10.97740 28.000
10.99735 25.000
11.01730 31.000
11.03724 22.000
11.05719 36.000
11.07714 29.000
11.09708 28.000
11.11703 24.000
11.13698 25.000
11.15692 25.000
11.17687 24.000
11.19682 28.000
11.21676 27.000
11.23671 27.000
11.25666 32.000
11.27661 27.000
11.29655 37.000
11.31650 28.000
11.33645 28.000
11.35639 28.000
11.37634 37.000
11.39629 23.000
11.41623 29.000
11.43618 27.000
11.45613 37.000
11.47608 37.000
11.49602 28.000
11.51597 20.000
11.53592 30.000
11.55586 36.000
11.57581 32.000
11.59576 37.000
11.61570 35.000
11.63565 35.000
11.65560 28.000
11.67554 31.000
11.69549 38.000
11.71544 34.000
11.73539 41.000
11.75533 31.000
11.77528 35.000
11.79523 33.000
11.81517 33.000
11.83512 34.000
11.85507 26.000
11.87501 34.000
11.89496 48.000
11.91491 36.000
11.93486 31.000
11.95480 40.000
11.97475 35.000
11.99470 28.000
12.01464 37.000
12.03459 38.000
12.05454 36.000
12.07448 30.000
12.09443 29.000
12.11438 33.000
12.13432 40.000
12.15427 54.000
12.17422 54.000
12.19417 37.000
12.21411 38.000
12.23406 49.000
12.25401 55.000
12.27395 52.000
12.29390 44.000
12.31385 54.000
12.33379 58.000
12.35374 59.000
12.37369 69.000
12.39364 72.000
12.41358 77.000
12.43353 79.000
12.45348 87.000
12.47342 102.000
12.49337 117.000
12.51332 132.000
12.53326 131.000
12.55321 172.000
12.57316 154.000
12.59311 136.000
12.61305 174.000
12.63300 144.000
12.65295 144.000
12.67289 124.000
12.69284 131.000
12.71279 131.000
12.73273 119.000
12.75268 95.000
12.77263 111.000
12.79257 100.000
12.81252 84.000
12.83247 89.000
12.85242 94.000
12.87236 71.000
12.89231 61.000
12.91226 66.000
12.93220 65.000
12.95215 66.000
12.97210 47.000
12.99204 60.000
13.01199 52.000
13.03194 40.000
13.05189 70.000
13.07183 46.000
13.09178 54.000
13.11173 47.000
13.13167 72.000
13.15162 56.000
13.17157 53.000
13.19151 50.000
13.21146 41.000
13.23141 46.000
13.25135 56.000
13.27130 50.000
13.29125 47.000
13.31120 43.000
13.33114 36.000
13.35109 47.000
13.37104 42.000
13.39098 48.000
13.41093 54.000
13.43088 44.000
13.45082 36.000
13.47077 46.000
13.49072 55.000
13.51067 63.000
13.53061 54.000
13.55056 51.000
13.57051 77.000
13.59045 52.000
13.61040 74.000
13.63035 81.000
13.65029 83.000
13.67024 67.000
13.69019 81.000
13.71013 59.000
13.73008 53.000
13.75003 46.000
13.76998 49.000
13.78992 45.000
13.80987 50.000
13.82982 44.000
13.84976 44.000
13.86971 49.000
13.88966 43.000
13.90960 51.000
13.92955 42.000
13.94950 37.000
13.96945 46.000
13.98939 43.000
14.00934 33.000
14.02929 50.000
14.04923 46.000
14.06918 51.000
14.08913 44.000
14.10907 40.000
14.12902 57.000
14.14897 47.000
14.16892 52.000
14.18886 65.000
14.20881 67.000
14.22876 56.000
14.24870 52.000
14.26865 48.000
14.28860 72.000
14.30854 38.000
14.32849 61.000
14.34844 60.000
14.36838 50.000
14.38833 45.000
14.40828 63.000
14.42823 46.000
14.44817 48.000
14.46812 54.000
14.48807 59.000
14.50801 35.000
14.52796 62.000
14.54791 56.000
14.56785 44.000
14.58780 46.000
14.60775 45.000
14.62770 50.000
14.64764 45.000
14.66759 39.000
14.68754 45.000
14.70748 47.000
14.72743 45.000
14.74738 51.000
14.76732 65.000
14.78727 53.000
14.80722 57.000
14.82716 47.000
14.84711 49.000
14.86706 62.000
14.88701 67.000
14.90695 74.000
14.92690 67.000
14.94685 77.000
14.96679 74.000
14.98674 69.000
15.00669 103.000
15.02663 94.000
15.04658 95.000
15.06653 86.000
15.08648 86.000
15.10642 94.000
15.12637 82.000
15.14632 87.000
15.16626 108.000
15.18621 91.000
15.20616 85.000
15.22610 101.000
15.24605 93.000
15.26600 121.000
15.28594 107.000
15.30589 105.000
15.32584 99.000
15.34579 123.000
15.36573 129.000
15.38568 162.000
15.40563 188.000
15.42557 180.000
15.44552 201.000
15.46547 225.000
15.48541 283.000
15.50536 342.000
15.52531 378.000
15.54526 506.000
15.56520 762.000
15.58515 1069.000
15.60510 1586.000
15.62504 2431.000
15.64499 3720.000
15.66494 5711.000
15.68488 7916.000
15.70483 8921.000
15.72478 7866.000
15.74472 5678.000
15.76467 3711.000
15.78462 2068.000
15.80457 1409.000
15.82451 1206.000
15.84446 1086.000
15.86441 1029.000
15.88435 992.000
15.90430 1008.000
15.92425 1185.000
15.94419 1351.000
15.96414 1690.000
15.98409 2050.000
16.00404 2225.000
16.02398 2037.000
16.04393 1487.000
16.06388 979.000
16.08382 573.000
16.10377 360.000
16.12372 204.000
16.14366 169.000
16.16361 141.000
16.18356 116.000
16.20351 117.000
16.22345 98.000
16.24340 94.000
16.26335 75.000
16.28329 82.000
16.30324 87.000
16.32319 61.000
16.34313 68.000
16.36308 80.000
16.38303 68.000
16.40297 58.000
16.42292 48.000
16.44287 68.000
16.46282 57.000
16.48276 44.000
16.50271 47.000
16.52266 42.000
16.54260 55.000
16.56255 50.000
16.58250 43.000
16.60244 38.000
16.62239 44.000
16.64234 38.000
16.66229 32.000
16.68223 59.000
16.70218 37.000
16.72213 42.000
16.74207 40.000
16.76202 51.000
16.78197 46.000
16.80191 36.000
16.82186 41.000
16.84181 31.000
16.86175 27.000
16.88170 34.000
16.90165 31.000
16.92160 34.000
16.94154 31.000
16.96149 28.000
16.98144 36.000
17.00138 28.000
17.02133 32.000
17.04128 38.000
17.06122 30.000
17.08117 27.000
17.10112 25.000
17.12107 32.000
17.14101 34.000
17.16096 31.000
17.18091 23.000
17.20085 37.000
17.22080 25.000
17.24075 21.000
17.26069 30.000
17.28064 32.000
17.30059 27.000
17.32053 28.000
17.34048 30.000
17.36043 36.000
17.38038 29.000
17.40032 26.000
17.42027 28.000
17.44022 21.000
17.46016 28.000
17.48011 29.000
17.50006 23.000
17.52000 25.000
17.53995 30.000
17.55990 24.000
17.57985 30.000
17.59979 19.000
17.61974 30.000
17.63969 36.000
17.65963 40.000
17.67958 31.000
17.69953 15.000
17.71947 35.000
17.73942 25.000
17.75937 21.000
17.77932 32.000
17.79926 22.000
17.81921 25.000
17.83916 27.000
17.85910 27.000
17.87905 27.000
17.89900 30.000
17.91894 29.000
17.93889 30.000
17.95884 20.000
17.97878 29.000
17.99873 27.000
18.01868 30.000
18.03863 22.000
18.05857 23.000
18.07852 29.000
18.09847 24.000
18.11841 31.000
18.13836 20.000
18.15831 24.000
18.17825 32.000
18.19820 21.000
18.21815 25.000
18.23810 30.000
18.25804 26.000
18.27799 29.000
18.29794 24.000
18.31788 22.000
18.33783 25.000
18.35778 23.000
18.37772 24.000
18.39767 29.000
18.41762 21.000
18.43756 22.000
18.45751 17.000
18.47746 30.000
18.49741 23.000
18.51735 18.000
18.53730 37.000
18.55725 23.000
18.57719 29.000
18.59714 22.000
18.61709 34.000
18.63703 24.000
18.65698 25.000
18.67693 29.000
18.69688 30.000
18.71682 24.000
18.73677 30.000
18.75672 27.000
18.77666 19.000
18.79661 28.000
18.81656 27.000
18.83650 25.000
18.85645 26.000
18.87640 23.000
18.89634 26.000
18.91629 21.000
18.93624 29.000
18.95619 28.000
18.97613 26.000
18.99608 25.000
19.01603 34.000
19.03597 24.000
19.05592 28.000
19.07587 23.000
19.09581 28.000
19.11576 15.000
19.13571 27.000
19.15566 26.000
19.17560 28.000
19.19555 24.000
19.21550 29.000
19.23544 23.000
19.25539 22.000
19.27534 23.000
19.29528 22.000
19.31523 19.000
19.33518 27.000
19.35513 29.000
19.37507 20.000
19.39502 28.000
19.41497 19.000
19.43491 25.000
19.45486 19.000
19.47481 33.000
19.49475 35.000
19.51470 25.000
19.53465 23.000
19.55459 27.000
19.57454 19.000
19.59449 29.000
19.61444 31.000
19.63438 21.000
19.65433 36.000
19.67428 30.000
19.69422 25.000
19.71417 24.000
19.73412 26.000
19.75406 27.000
19.77401 33.000
19.79396 27.000
19.81391 33.000
19.83385 25.000
19.85380 31.000
19.87375 19.000
19.89369 29.000
19.91364 24.000
19.93359 30.000
19.95353 24.000
19.97348 18.000
19.99343 17.000
20.01337 24.000
20.03332 29.000
20.05327 27.000
20.07322 18.000
20.09316 27.000
20.11311 20.000
20.13306 27.000
20.15300 31.000
20.17295 22.000
20.19290 20.000
20.21284 27.000
20.23279 21.000
20.25274 24.000
20.27269 31.000
20.29263 22.000
20.31258 23.000
20.33253 43.000
20.35247 25.000
20.37242 23.000
20.39237 26.000
20.41231 25.000
20.43226 26.000
20.45221 25.000
20.47215 31.000
20.49210 26.000
20.51205 27.000
20.53200 29.000
20.55194 40.000
20.57189 27.000
20.59184 31.000
20.61178 32.000
20.63173 28.000
20.65168 29.000
20.67162 31.000
20.69157 23.000
20.71152 16.000
20.73147 27.000
20.75141 32.000
20.77136 31.000
20.79131 36.000
20.81125 32.000
20.83120 37.000
20.85115 32.000
20.87109 31.000
20.89104 28.000
20.91099 29.000
20.93094 25.000
20.95088 38.000
20.97083 33.000
20.99078 25.000
21.01072 21.000
21.03067 22.000
21.05062 22.000
21.07056 29.000
21.09051 26.000
21.11046 28.000
21.13040 30.000
21.15035 21.000
21.17030 28.000
21.19025 31.000
21.21019 33.000
21.23014 27.000
21.25009 31.000
21.27003 27.000
21.28998 31.000
21.30993 33.000
21.32987 20.000
21.34982 31.000
21.36977 20.000
21.38972 28.000
21.40966 25.000
21.42961 22.000
21.44956 30.000
21.46950 26.000
21.48945 25.000
21.50940 23.000
21.52934 23.000
21.54929 40.000
21.56924 22.000
21.58918 22.000
21.60913 28.000
21.62908 22.000
21.64903 32.000
21.66897 31.000
21.68892 29.000
21.70887 27.000
21.72881 18.000
21.74876 23.000
21.76871 23.000
21.78865 30.000
21.80860 24.000
21.82855 23.000
21.84850 28.000
21.86844 18.000
21.88839 20.000
21.90834 30.000
21.92828 34.000
21.94823 26.000
21.96818 20.000
21.98812 30.000
22.00807 32.000
22.02802 30.000
22.04796 28.000
22.06791 26.000
22.08786 21.000
22.10781 26.000
22.12775 27.000
22.14770 31.000
22.16765 39.000
22.18759 29.000
22.20754 24.000
22.22749 26.000
22.24743 24.000
22.26738 31.000
22.28733 35.000
22.30728 35.000
22.32722 27.000
22.34717 32.000
22.36712 29.000
22.38706 36.000
22.40701 31.000
22.42696 41.000
22.44690 40.000
22.46685 46.000
22.48680 20.000
22.50675 29.000
22.52669 37.000
22.54664 22.000
22.56659 23.000
22.58653 32.000
22.60648 28.000
22.62643 21.000
22.64637 32.000
22.66632 24.000
22.68627 31.000
22.70621 12.000
22.72616 30.000
22.74611 27.000
22.76606 36.000
22.78600 35.000
22.80595 31.000
22.82590 21.000
22.84584 26.000
22.86579 27.000
22.88574 29.000
22.90568 26.000
22.92563 27.000
22.94558 14.000
22.96553 27.000
22.98547 37.000
23.00542 28.000
23.02537 31.000
23.04531 28.000
23.06526 31.000
23.08521 26.000
23.10515 36.000
23.12510 36.000
23.14505 33.000
23.16499 29.000
23.18494 28.000
23.20489 30.000
23.22484 27.000
23.24478 27.000
23.26473 35.000
23.28468 27.000
23.30462 28.000
23.32457 32.000
23.34452 32.000
23.36446 31.000
23.38441 28.000
23.40436 26.000
23.42431 40.000
23.44425 22.000
23.46420 34.000
23.48415 32.000
23.50409 39.000
23.52404 33.000
23.54399 27.000
23.56393 34.000
23.58388 35.000
23.60383 21.000
23.62377 40.000
23.64372 51.000
23.66367 35.000
23.68362 29.000
23.70356 49.000
23.72351 40.000
23.74346 38.000
23.76340 41.000
23.78335 30.000
23.80330 42.000
23.82324 47.000
23.84319 32.000
23.86314 56.000
23.88309 37.000
23.90303 36.000
23.92298 28.000
23.94293 41.000
23.96287 40.000
23.98282 37.000
24.00277 32.000
24.02271 48.000
24.04266 33.000
24.06261 44.000
24.08256 41.000
24.10250 34.000
24.12245 42.000
24.14240 33.000
24.16234 43.000
24.18229 31.000
24.20224 32.000
24.22218 39.000
24.24213 31.000
24.26208 29.000
24.28202 28.000
24.30197 24.000
24.32192 36.000
24.34187 42.000
24.36181 17.000
24.38176 36.000
24.40171 37.000
24.42165 45.000
24.44160 38.000
24.46155 42.000
24.48149 34.000
24.50144 33.000
24.52139 29.000
24.54134 35.000
24.56128 37.000
24.58123 35.000
24.60118 29.000
24.62112 42.000
24.64107 46.000
24.66102 47.000
24.68096 38.000
24.70091 29.000
24.72086 39.000
24.74080 35.000
24.76075 38.000
24.78070 40.000
24.80065 48.000
24.82059 43.000
24.84054 49.000
24.86049 42.000
24.88043 50.000
24.90038 49.000
24.92033 46.000
24.94027 35.000
24.96022 40.000
24.98017 50.000
25.00012 36.000
25.02006 39.000
25.04001 54.000
25.05996 62.000
25.07990 45.000
25.09985 60.000
25.11980 52.000
25.13974 65.000
25.15969 60.000
25.17964 68.000
25.19958 57.000
25.21953 66.000
25.23948 73.000
25.25943 73.000
25.27937 58.000
25.29932 57.000
25.31927 58.000
25.33921 63.000
25.35916 74.000
25.37911 58.000
25.39905 82.000
25.41900 70.000
25.43895 60.000
25.45890 63.000
25.47884 60.000
25.49879 63.000
25.51874 39.000
25.53868 41.000
25.55863 52.000
25.57858 63.000
25.59852 43.000
25.61847 52.000
25.63842 43.000
25.65837 45.000
25.67831 57.000
25.69826 45.000
25.71821 45.000
25.73815 42.000
25.75810 47.000
25.77805 53.000
25.79799 44.000
25.81794 38.000
25.83789 42.000
25.85783 38.000
25.87778 39.000
25.89773 49.000
25.91768 44.000
25.93762 38.000
25.95757 37.000
25.97752 38.000
25.99746 47.000
26.01741 47.000
26.03736 52.000
26.05730 42.000
26.07725 40.000
26.09720 33.000
26.11715 61.000
26.13709 35.000
26.15704 43.000
26.17699 49.000
26.19693 49.000
26.21688 43.000
26.23683 38.000
26.25677 44.000
26.27672 44.000
26.29667 37.000
26.31661 42.000
26.33656 45.000
26.35651 63.000
26.37646 53.000
26.39640 59.000
26.41635 55.000
26.43630 47.000
26.45624 53.000
26.47619 50.000
26.49614 49.000
26.51608 47.000
26.53603 62.000
26.55598 51.000
26.57593 44.000
26.59587 46.000
26.61582 58.000
26.63577 43.000
26.65571 49.000
26.67566 54.000
26.69561 58.000
26.71555 57.000
26.73550 52.000
26.75545 60.000
26.77539 63.000
26.79534 62.000
26.81529 42.000
26.83524 38.000
26.85518 45.000
26.87513 55.000
26.89508 38.000
26.91502 44.000
26.93497 56.000
26.95492 46.000
26.97486 42.000
26.99481 30.000
27.01476 42.000
27.03471 47.000
27.05465 40.000
27.07460 39.000
27.09455 46.000
27.11449 45.000
27.13444 40.000
27.15439 46.000
27.17433 52.000
27.19428 53.000
27.21423 44.000
27.23417 54.000
27.25412 40.000
27.27407 38.000
27.29402 44.000
27.31396 55.000
27.33391 41.000
27.35386 52.000
27.37380 46.000
27.39375 42.000
27.41370 52.000
27.43364 43.000
27.45359 46.000
27.47354 48.000
27.49349 49.000
27.51343 32.000
27.53338 41.000
27.55333 50.000
27.57327 44.000
27.59322 45.000
27.61317 56.000
27.63311 42.000
27.65306 44.000
27.67301 46.000
27.69296 39.000
27.71290 54.000
27.73285 38.000
27.75280 42.000
27.77274 44.000
27.79269 37.000
27.81264 48.000
27.83258 42.000
27.85253 42.000
27.87248 37.000
27.89242 48.000
27.91237 40.000
27.93232 45.000
27.95227 46.000
27.97221 37.000
27.99216 44.000
28.01211 38.000
28.03205 56.000
28.05200 43.000
28.07195 55.000
28.09189 40.000
28.11184 45.000
28.13179 42.000
28.15174 41.000
28.17168 45.000
28.19163 47.000
28.21158 37.000
28.23152 35.000
28.25147 34.000
28.27142 41.000
28.29136 44.000
28.31131 42.000
28.33126 26.000
28.35120 55.000
28.37115 41.000
28.39110 45.000
28.41105 46.000
28.43099 37.000
28.45094 43.000
28.47089 49.000
28.49083 47.000
28.51078 59.000
28.53073 44.000
28.55067 41.000
28.57062 53.000
28.59057 43.000
28.61052 53.000
28.63046 43.000
28.65041 51.000
28.67036 56.000
28.69030 67.000
28.71025 48.000
28.73020 48.000
28.75014 57.000
28.77009 63.000
28.79004 68.000
28.80998 45.000
28.82993 56.000
28.84988 63.000
28.86983 74.000
28.88977 51.000
28.90972 48.000
28.92967 56.000
28.94961 50.000
28.96956 62.000
28.98951 49.000
29.00945 40.000
29.02940 60.000
29.04935 70.000
29.06930 45.000
29.08924 48.000
29.10919 44.000
29.12914 50.000
29.14908 46.000
29.16903 46.000
29.18898 53.000
29.20892 50.000
29.22887 45.000
29.24882 53.000
29.26877 53.000
29.28871 40.000
29.30866 48.000
29.32861 39.000
29.34855 47.000
29.36850 50.000
29.38845 51.000
29.40839 50.000
29.42834 49.000
29.44829 46.000
29.46823 54.000
29.48818 47.000
29.50813 63.000
29.52808 53.000
29.54802 59.000
29.56797 46.000
29.58792 33.000
29.60786 45.000
29.62781 61.000
29.64776 46.000
29.66770 47.000
29.68765 55.000
29.70760 43.000
29.72755 58.000
29.74749 49.000
29.76744 50.000
29.78739 56.000
29.80733 54.000
29.82728 57.000
29.84723 59.000
29.86717 45.000
29.88712 62.000
29.90707 49.000
29.92701 61.000
29.94696 52.000
29.96691 59.000
29.98686 69.000
30.00680 59.000
30.02675 65.000
30.04670 61.000
30.06664 61.000
30.08659 54.000
30.10654 68.000
30.12648 52.000
30.14643 55.000
30.16638 70.000
30.18633 44.000
30.20627 53.000
30.22622 67.000
30.24617 63.000
30.26611 66.000
30.28606 46.000
30.30601 57.000
30.32595 62.000
30.34590 60.000
30.36585 59.000
30.38579 53.000
30.40574 54.000
30.42569 65.000
30.44564 57.000
30.46558 54.000
30.48553 49.000
30.50548 54.000
30.52542 53.000
30.54537 47.000
30.56532 50.000
30.58526 37.000
30.60521 60.000
30.62516 54.000
30.64511 51.000
30.66505 57.000
30.68500 48.000
30.70495 57.000
30.72489 54.000
30.74484 58.000
30.76479 48.000
30.78473 60.000
30.80468 52.000
30.82463 49.000
30.84458 49.000
30.86452 56.000
30.88447 43.000
30.90442 58.000
30.92436 66.000
30.94431 50.000
30.96426 47.000
30.98420 58.000
31.00415 59.000
31.02410 79.000
31.04404 59.000
31.06399 54.000
31.08394 41.000
31.10389 67.000
31.12383 53.000
31.14378 53.000
31.16373 63.000
31.18367 57.000
31.20362 51.000
31.22357 55.000
31.24351 56.000
31.26346 58.000
31.28341 58.000
31.30336 55.000
31.32330 60.000
31.34325 78.000
31.36320 76.000
31.38314 81.000
31.40309 60.000
31.42304 80.000
31.44298 73.000
31.46293 88.000
31.48288 76.000
31.50282 103.000
31.52277 97.000
31.54272 119.000
31.56267 144.000
31.58261 179.000
31.60256 253.000
31.62251 333.000
31.64245 389.000
31.66240 477.000
31.68235 509.000
31.70229 546.000
31.72224 485.000
31.74219 439.000
31.76214 399.000
31.78208 341.000
31.80203 252.000
31.82198 210.000
31.84192 154.000
31.86187 131.000
31.88182 115.000
31.90176 91.000
31.92171 94.000
31.94166 105.000
31.96160 86.000
31.98155 79.000
32.00150 90.000
32.02145 90.000
32.04139 81.000
32.06134 74.000
32.08129 94.000
32.10123 113.000
32.12118 90.000
32.14113 92.000
32.16107 90.000
32.18102 94.000
32.20097 77.000
32.22092 99.000
32.24086 112.000
32.26081 128.000
32.28076 145.000
32.30070 145.000
32.32065 144.000
32.34060 182.000
32.36054 139.000
32.38049 136.000
32.40044 136.000
32.42039 129.000
32.44033 96.000
32.46028 86.000
32.48023 53.000
32.50017 69.000
32.52012 52.000
32.54007 51.000
32.56001 57.000
32.57996 44.000
32.59991 57.000
32.61985 46.000
32.63980 58.000
32.65975 45.000
32.67970 60.000
32.69964 62.000
32.71959 61.000
32.73954 59.000
32.75948 46.000
32.77943 41.000
32.79938 45.000
32.81932 36.000
32.83927 47.000
32.85922 53.000
32.87917 44.000
32.89911 36.000
32.91906 54.000
32.93901 53.000
32.95895 55.000
32.97890 41.000
32.99885 52.000
33.01879 40.000
33.03874 51.000
33.05869 64.000
33.07863 39.000
33.09858 48.000
33.11853 32.000
33.13848 57.000
33.15842 47.000
33.17837 48.000
33.19832 48.000
33.21826 57.000
33.23821 44.000
33.25816 47.000
33.27810 44.000
33.29805 43.000
33.31800 48.000
33.33795 35.000
33.35789 45.000
33.37784 41.000
33.39779 46.000
33.41773 38.000
33.43768 36.000
33.45763 37.000
33.47757 52.000
33.49752 50.000
33.51747 51.000
33.53741 61.000
33.55736 48.000
33.57731 50.000
33.59726 48.000
33.61720 46.000
33.63715 33.000
33.65710 52.000
33.67704 47.000
33.69699 40.000
33.71694 42.000
33.73688 36.000
33.75683 46.000
33.77678 45.000
33.79673 47.000
33.81667 49.000
33.83662 49.000
33.85657 47.000
33.87651 53.000
33.89646 48.000
33.91641 64.000
33.93635 53.000
33.95630 67.000
33.97625 53.000
33.99620 71.000
34.01614 53.000
34.03609 61.000
34.05604 54.000
34.07598 56.000
34.09593 59.000
34.11588 58.000
34.13582 71.000
34.15577 62.000
34.17572 64.000
34.19566 71.000
34.21561 71.000
34.23556 70.000
34.25551 68.000
34.27545 68.000
34.29540 83.000
34.31535 90.000
34.33529 96.000
34.35524 78.000
34.37519 76.000
34.39513 84.000
34.41508 114.000
34.43503 86.000
34.45498 113.000
34.47492 100.000
34.49487 106.000
34.51482 78.000
34.53476 93.000
34.55471 105.000
34.57466 107.000
34.59460 82.000
34.61455 90.000
34.63450 48.000
34.65444 57.000
34.67439 81.000
34.69434 59.000
34.71429 61.000
34.73423 62.000
34.75418 65.000
34.77413 58.000
34.79407 58.000
34.81402 75.000
34.83397 51.000
34.85391 54.000
34.87386 70.000
34.89381 50.000
34.91376 54.000
34.93370 55.000
34.95365 70.000
34.97360 77.000
34.99354 58.000
35.01349 48.000
35.03344 48.000
35.05338 70.000
35.07333 56.000
35.09328 55.000
35.11322 62.000
35.13317 57.000
35.15312 56.000
35.17307 65.000
35.19301 72.000
35.21296 70.000
35.23291 69.000
35.25285 72.000
35.27280 65.000
35.29275 74.000
35.31269 69.000
35.33264 74.000
35.35259 76.000
35.37254 80.000
35.39248 73.000
35.41243 77.000
35.43238 71.000
35.45232 74.000
35.47227 78.000
35.49222 75.000
35.51216 78.000
35.53211 63.000
35.55206 82.000
35.57201 82.000
35.59195 98.000
35.61190 83.000
35.63185 82.000
35.65179 94.000
35.67174 100.000
35.69169 106.000
35.71163 112.000
35.73158 94.000
35.75153 124.000
35.77147 120.000
35.79142 144.000
35.81137 138.000
35.83132 161.000
35.85126 175.000
35.87121 161.000
35.89116 217.000
35.91110 240.000
35.93105 214.000
35.95100 243.000
35.97094 232.000
35.99089 240.000
36.01084 244.000
36.03079 247.000
36.05073 243.000
36.07068 261.000
36.09063 256.000
36.11057 222.000
36.13052 213.000
36.15047 213.000
36.17041 148.000
36.19036 145.000
36.21031 153.000
36.23025 141.000
36.25020 122.000
36.27015 139.000
36.29010 163.000
36.31004 148.000
36.32999 138.000
36.34994 176.000
36.36988 189.000
36.38983 168.000
36.40978 149.000
36.42972 179.000
36.44967 201.000
36.46962 177.000
36.48957 167.000
36.50951 153.000
36.52946 139.000
36.54941 114.000
36.56935 159.000
36.58930 112.000
36.60925 111.000
36.62919 97.000
36.64914 99.000
36.66909 83.000
36.68903 81.000
36.70898 73.000
36.72893 92.000
36.74888 78.000
36.76882 85.000
36.78877 83.000
36.80872 69.000
36.82866 86.000
36.84861 90.000
36.86856 67.000
36.88850 83.000
36.90845 75.000
36.92840 69.000
36.94835 63.000
36.96829 78.000
36.98824 72.000
37.00819 62.000
37.02813 76.000
37.04808 90.000
37.06803 76.000
37.08797 77.000
37.10792 74.000
37.12787 75.000
37.14781 43.000
37.16776 53.000
37.18771 76.000
37.20766 50.000
37.22760 65.000
37.24755 59.000
37.26750 55.000
37.28744 68.000
37.30739 62.000
37.32734 69.000
37.34728 70.000
37.36723 69.000
37.38718 58.000
37.40713 64.000
37.42707 59.000
37.44702 64.000
37.46697 58.000
37.48691 59.000
37.50686 71.000
37.52681 59.000
37.54675 67.000
37.56670 58.000
37.58665 58.000
37.60660 59.000
37.62654 60.000
37.64649 66.000
37.66644 73.000
37.68638 78.000
37.70633 80.000
37.72628 80.000
37.74622 72.000
37.76617 64.000
37.78612 88.000
37.80606 88.000
37.82601 97.000
37.84596 102.000
37.86591 116.000
37.88585 106.000
37.90580 106.000
37.92575 106.000
37.94569 121.000
37.96564 144.000
37.98559 142.000
38.00553 159.000
38.02548 144.000
38.04543 147.000
38.06538 163.000
38.08532 161.000
38.10527 158.000
38.12522 165.000
38.14516 144.000
38.16511 145.000
38.18506 137.000
38.20500 127.000
38.22495 120.000
38.24490 96.000
38.26484 109.000
38.28479 116.000
38.30474 84.000
38.32469 110.000
38.34463 93.000
38.36458 111.000
38.38453 106.000
38.40447 109.000
38.42442 107.000
38.44437 93.000
38.46431 83.000
38.48426 103.000
38.50421 80.000
38.52416 84.000
38.54410 89.000
38.56405 79.000
38.58400 73.000
38.60394 81.000
38.62389 92.000
38.64384 95.000
38.66378 91.000
38.68373 99.000
38.70368 106.000
38.72362 108.000
38.74357 110.000
38.76352 74.000
38.78347 89.000
38.80341 110.000
38.82336 109.000
38.84331 100.000
38.86325 125.000
38.88320 96.000
38.90315 123.000
38.92309 127.000
38.94304 122.000
38.96299 124.000
38.98294 125.000
39.00288 144.000
39.02283 130.000
39.04278 121.000
39.06272 151.000
39.08267 175.000
39.10262 157.000
39.12256 154.000
39.14251 164.000
39.16246 205.000
39.18241 179.000
39.20235 185.000
39.22230 223.000
39.24225 252.000
39.26219 302.000
39.28214 297.000
39.30209 340.000
39.32203 340.000
39.34198 401.000
39.36193 420.000
39.38187 452.000
39.40182 484.000
39.42177 514.000
39.44172 515.000
39.46166 529.000
39.48161 557.000
39.50156 558.000
39.52150 499.000
39.54145 538.000
39.56140 483.000
39.58134 518.000
39.60129 499.000
39.62124 446.000
39.64119 417.000
39.66113 348.000
39.68108 343.000
39.70103 267.000
39.72097 255.000
39.74092 209.000
39.76087 237.000
39.78081 207.000
39.80076 204.000
39.82071 201.000
39.84065 181.000
39.86060 192.000
39.88055 166.000
39.90050 158.000
39.92044 139.000
39.94039 158.000
39.96034 156.000
39.98028 151.000
40.00023 135.000
40.02018 147.000
40.04012 141.000
40.06007 161.000
40.08002 128.000
40.09997 115.000
40.11991 111.000
40.13986 104.000
40.15981 99.000
40.17975 110.000
40.19970 93.000
40.21965 98.000
40.23959 85.000
40.25954 74.000
40.27949 73.000
40.29943 62.000
40.31938 55.000
40.33933 69.000
40.35928 63.000
40.37922 67.000
40.39917 68.000
40.41912 71.000
40.43906 61.000
40.45901 73.000
40.47896 61.000
40.49890 75.000
40.51885 73.000
40.53880 58.000
40.55875 67.000
40.57869 48.000
40.59864 64.000
40.61859 70.000
40.63853 53.000
40.65848 56.000
40.67843 67.000
40.69837 56.000
40.71832 60.000
40.73827 47.000
40.75822 56.000
40.77816 61.000
40.79811 60.000
40.81806 57.000
40.83800 56.000
40.85795 54.000
40.87790 62.000
40.89784 67.000
40.91779 55.000
40.93774 52.000
40.95768 71.000
40.97763 64.000
40.99758 51.000
41.01753 47.000
41.03747 53.000
41.05742 48.000
41.07737 57.000
41.09731 49.000
41.11726 45.000
41.13721 59.000
41.15715 42.000
41.17710 49.000
41.19705 51.000
41.21700 35.000
41.23694 43.000
41.25689 37.000
41.27684 50.000
41.29678 40.000
41.31673 53.000
41.33668 54.000
41.35662 53.000
41.37657 27.000
41.39652 37.000
41.41646 42.000
41.43641 44.000
41.45636 37.000
41.47631 44.000
41.49625 36.000
41.51620 63.000
41.53615 56.000
41.55609 55.000
41.57604 40.000
41.59599 48.000
41.61593 31.000
41.63588 45.000
41.65583 47.000
41.67578 35.000
41.69572 44.000
41.71567 39.000
41.73562 40.000
41.75556 38.000
41.77551 45.000
41.79546 36.000
41.81540 51.000
41.83535 47.000
41.85530 41.000
41.87524 56.000
41.89519 49.000
41.91514 44.000
41.93509 45.000
41.95503 61.000
41.97498 49.000
41.99493 51.000
42.01487 67.000
42.03482 63.000
42.05477 68.000
42.07471 73.000
42.09466 98.000
42.11461 54.000
42.13456 78.000
42.15450 82.000
42.17445 82.000
42.19440 75.000
42.21434 90.000
42.23429 86.000
42.25424 72.000
42.27418 73.000
42.29413 58.000
42.31408 71.000
42.33403 80.000
42.35397 73.000
42.37392 75.000
42.39387 56.000
42.41381 62.000
42.43376 54.000
42.45371 57.000
42.47365 61.000
42.49360 55.000
42.51355 60.000
42.53349 56.000
42.55344 58.000
42.57339 51.000
42.59334 70.000
42.61328 61.000
42.63323 54.000
42.65318 55.000
42.67312 68.000
42.69307 50.000
42.71302 39.000
42.73296 51.000
42.75291 54.000
42.77286 63.000
42.79281 48.000
42.81275 65.000
42.83270 58.000
42.85265 60.000
42.87259 68.000
42.89254 51.000
42.91249 66.000
42.93243 68.000
42.95238 47.000
42.97233 57.000
42.99227 67.000
43.01222 61.000
43.03217 87.000
43.05212 76.000
43.07206 62.000
43.09201 73.000
43.11196 77.000
43.13190 81.000
43.15185 103.000
43.17180 90.000
43.19174 91.000
43.21169 97.000
43.23164 108.000
43.25159 105.000
43.27153 117.000
43.29148 114.000
43.31143 138.000
43.33137 157.000
43.35132 170.000
43.37127 168.000
43.39121 195.000
43.41116 183.000
43.43111 200.000
43.45105 194.000
43.47100 221.000
43.49095 227.000
43.51090 223.000
43.53084 214.000
43.55079 224.000
43.57074 219.000
43.59068 221.000
43.61063 202.000
43.63058 200.000
43.65052 183.000
43.67047 156.000
43.69042 153.000
43.71037 128.000
43.73031 136.000
43.75026 132.000
43.77021 136.000
43.79015 124.000
43.81010 101.000
43.83005 92.000
43.84999 103.000
43.86994 96.000
43.88989 102.000
43.90984 90.000
43.92978 90.000
43.94973 83.000
43.96968 101.000
43.98962 80.000
44.00957 78.000
44.02952 85.000
44.04946 70.000
44.06941 98.000
44.08936 76.000
44.10930 84.000
44.12925 96.000
44.14920 89.000
44.16915 77.000
44.18909 65.000
44.20904 78.000
44.22899 75.000
44.24893 96.000
44.26888 64.000
44.28883 56.000
44.30877 60.000
44.32872 60.000
44.34867 63.000
44.36862 69.000
44.38856 47.000
44.40851 71.000
44.42846 38.000
44.44840 55.000
44.46835 56.000
44.48830 58.000
44.50824 49.000
44.52819 46.000
44.54814 45.000
44.56808 53.000
44.58803 45.000
44.60798 53.000
44.62793 49.000
44.64787 38.000
44.66782 42.000
44.68777 58.000
44.70771 36.000
44.72766 49.000
44.74761 43.000
44.76755 53.000
44.78750 34.000
44.80745 38.000
44.82740 51.000
44.84734 51.000
44.86729 48.000
44.88724 46.000
44.90718 38.000
44.92713 39.000
44.94708 40.000
44.96702 60.000
44.98697 49.000
45.00692 43.000
45.02686 31.000
45.04681 19.000
45.06676 40.000
45.08671 41.000
45.10665 35.000
45.12660 32.000
45.14655 38.000
45.16649 44.000
45.18644 36.000
45.20639 44.000
45.22633 43.000
45.24628 35.000
45.26623 40.000
45.28618 36.000
45.30612 43.000
45.32607 30.000
45.34602 37.000
45.36596 37.000
45.38591 34.000
45.40586 28.000
45.42580 46.000
45.44575 30.000
45.46570 35.000
45.48565 25.000
45.50559 36.000
45.52554 29.000
45.54549 33.000
45.56543 46.000
45.58538 32.000
45.60533 35.000
45.62527 32.000
45.64522 23.000
45.66517 31.000
45.68511 31.000
45.70506 41.000
45.72501 31.000
45.74496 36.000
45.76490 29.000
45.78485 32.000
45.80480 37.000
45.82474 31.000
45.84469 31.000
45.86464 29.000
45.88458 35.000
45.90453 34.000
45.92448 37.000
45.94443 37.000
45.96437 45.000
45.98432 33.000
46.00427 31.000
46.02421 43.000
46.04416 32.000
46.06411 28.000
46.08405 35.000
46.10400 34.000
46.12395 27.000
46.14389 32.000
46.16384 37.000
46.18379 36.000
46.20374 40.000
46.22368 30.000
46.24363 36.000
46.26358 31.000
46.28352 34.000
46.30347 25.000
46.32342 34.000
46.34336 26.000
46.36331 34.000
46.38326 48.000
46.40321 46.000
46.42315 38.000
46.44310 39.000
46.46305 47.000
46.48299 26.000
46.50294 27.000
46.52289 35.000
46.54283 32.000
46.56278 34.000
46.58273 39.000
46.60267 43.000
46.62262 41.000
46.64257 51.000
46.66252 33.000
46.68246 41.000
46.70241 34.000
46.72236 32.000
46.74230 34.000
46.76225 48.000
46.78220 36.000
46.80214 52.000
46.82209 40.000
46.84204 58.000
46.86199 39.000
46.88193 41.000
46.90188 41.000
46.92183 39.000
46.94177 53.000
46.96172 46.000
46.98167 47.000
47.00161 35.000
47.02156 42.000
47.04151 47.000
47.06146 51.000
47.08140 50.000
47.10135 55.000
47.12130 59.000
47.14124 64.000
47.16119 55.000
47.18114 69.000
47.20108 42.000
47.22103 54.000
47.24098 69.000
47.26092 62.000
47.28087 70.000
47.30082 65.000
47.32077 73.000
47.34071 85.000
47.36066 78.000
47.38061 84.000
47.40055 91.000
47.42050 87.000
47.44045 97.000
47.46039 103.000
47.48034 117.000
47.50029 85.000
47.52024 103.000
47.54018 98.000
47.56013 101.000
47.58008 108.000
47.60002 98.000
47.61997 78.000
47.63992 87.000
47.65986 92.000
47.67981 87.000
47.69976 87.000
47.71970 94.000
47.73965 93.000
47.75960 79.000
47.77955 85.000
47.79949 93.000
47.81944 80.000
47.83939 79.000
47.85933 95.000
47.87928 82.000
47.89923 76.000
47.91917 93.000
47.93912 78.000
47.95907 78.000
47.97902 86.000
47.99896 87.000
48.01891 86.000
48.03886 100.000
48.05880 96.000
48.07875 106.000
48.09870 94.000
48.11864 104.000
48.13859 127.000
48.15854 120.000
48.17848 136.000
48.19843 120.000
48.21838 149.000
48.23833 139.000
48.25827 131.000
48.27822 138.000
48.29817 171.000
48.31811 176.000
48.33806 197.000
48.35801 172.000
48.37795 229.000
48.39790 195.000
48.41785 208.000
48.43780 243.000
48.45774 211.000
48.47769 242.000
48.49764 259.000
48.51758 298.000
48.53753 344.000
48.55748 370.000
48.57742 378.000
48.59737 431.000
48.61732 436.000
48.63726 475.000
48.65721 457.000
48.67716 434.000
48.69711 512.000
48.71705 506.000
48.73700 466.000
48.75695 471.000
48.77689 454.000
48.79684 459.000
48.81679 448.000
48.83673 409.000
48.85668 352.000
48.87663 336.000
48.89658 328.000
48.91652 268.000
48.93647 251.000
48.95642 251.000
48.97636 249.000
48.99631 217.000
49.01626 212.000
49.03620 193.000
49.05615 190.000
49.07610 190.000
49.09605 147.000
49.11599 195.000
49.13594 145.000
49.15589 135.000
49.17583 147.000
49.19578 147.000
49.21573 162.000
49.23567 143.000
49.25562 134.000
49.27557 117.000
49.29551 119.000
49.31546 143.000
49.33541 136.000
49.35536 123.000
49.37530 130.000
49.39525 109.000
49.41520 112.000
49.43514 123.000
49.45509 117.000
49.47504 102.000
49.49498 112.000
49.51493 102.000
49.53488 91.000
49.55483 80.000
49.57477 87.000
49.59472 90.000
49.61467 89.000
49.63461 85.000
49.65456 69.000
49.67451 111.000
49.69445 98.000
49.71440 74.000
49.73435 65.000
49.75429 77.000
49.77424 75.000
49.79419 63.000
49.81414 65.000
49.83408 61.000
49.85403 64.000
49.87398 62.000
49.89392 53.000
49.91387 64.000
49.93382 68.000
49.95376 52.000
49.97371 57.000
49.99366 47.000
50.01361 62.000
50.03355 53.000
50.05350 53.000
50.07345 59.000
50.09339 43.000
50.11334 43.000
50.13329 44.000
50.15323 52.000
50.17318 34.000
50.19313 47.000
50.21307 45.000
50.23302 41.000
50.25297 52.000
50.27292 46.000
50.29286 48.000
50.31281 46.000
50.33276 42.000
50.35270 49.000
50.37265 51.000
50.39260 56.000
50.41254 53.000
50.43249 43.000
50.45244 53.000
50.47239 58.000
50.49233 42.000
50.51228 57.000
50.53223 61.000
50.55217 46.000
50.57212 60.000
50.59207 34.000
50.61201 52.000
50.63196 45.000
50.65191 53.000
50.67186 41.000
50.69180 42.000
50.71175 44.000
50.73170 54.000
50.75164 43.000
50.77159 57.000
50.79154 51.000
50.81148 45.000
50.83143 40.000
50.85138 48.000
50.87132 41.000
50.89127 41.000
50.91122 54.000
50.93117 47.000
50.95111 34.000
50.97106 45.000
50.99101 54.000
51.01095 42.000
51.03090 45.000
51.05085 36.000
51.07079 48.000
51.09074 46.000
51.11069 33.000
51.13064 27.000
51.15058 43.000
51.17053 27.000
51.19048 33.000
51.21042 37.000
51.23037 29.000
51.25032 35.000
51.27026 26.000
51.29021 32.000
51.31016 40.000
51.33010 31.000
51.35005 51.000
51.37000 29.000
51.38995 42.000
51.40989 43.000
51.42984 26.000
51.44979 32.000
51.46973 38.000
51.48968 35.000
51.50963 40.000
51.52957 28.000
51.54952 41.000
51.56947 45.000
51.58942 25.000
51.60936 30.000
51.62931 23.000
51.64926 33.000
51.66920 26.000
51.68915 28.000
51.70910 26.000
51.72904 34.000
51.74899 29.000
51.76894 28.000
51.78888 34.000
51.80883 23.000
51.82878 26.000
51.84873 35.000
51.86867 31.000
51.88862 33.000
51.90857 29.000
51.92851 34.000
51.94846 25.000
51.96841 25.000
51.98835 35.000
52.00830 26.000
52.02825 25.000
52.04820 26.000
52.06814 31.000
52.08809 32.000
52.10804 36.000
52.12798 26.000
52.14793 36.000
52.16788 35.000
52.18782 25.000
52.20777 37.000
52.22772 21.000
52.24767 28.000
52.26761 24.000
52.28756 24.000
52.30751 25.000
52.32745 22.000
52.34740 34.000
52.36735 25.000
52.38729 21.000
52.40724 40.000
52.42719 28.000
52.44713 22.000
52.46708 25.000
52.48703 29.000
52.50698 24.000
52.52692 22.000
52.54687 31.000
52.56682 31.000
52.58676 31.000
52.60671 24.000
52.62666 29.000
52.64660 27.000
52.66655 23.000
52.68650 29.000
52.70645 32.000
52.72639 28.000
52.74634 34.000
52.76629 25.000
52.78623 33.000
52.80618 28.000
52.82613 28.000
52.84607 32.000
52.86602 23.000
52.88597 23.000
52.90591 31.000
52.92586 29.000
52.94581 25.000
52.96576 24.000
52.98570 20.000
53.00565 29.000
53.02560 25.000
53.04554 29.000
53.06549 22.000
53.08544 27.000
53.10538 35.000
53.12533 33.000
53.14528 28.000
53.16523 33.000
53.18517 23.000
53.20512 45.000
53.22507 29.000
53.24501 31.000
53.26496 30.000
53.28491 28.000
53.30485 27.000
53.32480 26.000
53.34475 38.000
53.36469 34.000
53.38464 29.000
53.40459 25.000
53.42454 30.000
53.44448 32.000
53.46443 29.000
53.48438 42.000
53.50432 40.000
53.52427 32.000
53.54422 29.000
53.56416 36.000
53.58411 30.000
53.60406 30.000
53.62401 22.000
53.64395 32.000
53.66390 30.000
53.68385 35.000
53.70379 28.000
53.72374 40.000
53.74369 21.000
53.76363 24.000
53.78358 27.000
53.80353 26.000
53.82348 32.000
53.84342 42.000
53.86337 39.000
53.88332 34.000
53.90326 47.000
53.92321 34.000
53.94316 26.000
53.96310 31.000
53.98305 27.000
54.00300 31.000
54.02294 18.000
54.04289 28.000
54.06284 34.000
54.08279 29.000
54.10273 26.000
54.12268 33.000
54.14263 38.000
54.16257 35.000
54.18252 26.000
54.20247 26.000
54.22241 37.000
54.24236 21.000
54.26231 30.000
54.28226 16.000
54.30220 31.000
54.32215 19.000
54.34210 22.000
54.36204 20.000
54.38199 25.000
54.40194 22.000
54.42188 26.000
54.44183 29.000
54.46178 19.000
54.48172 34.000
54.50167 35.000
54.52162 26.000
54.54157 30.000
54.56151 30.000
54.58146 28.000
54.60141 31.000
54.62135 29.000
54.64130 31.000
54.66125 30.000
54.68119 33.000
54.70114 32.000
54.72109 29.000
54.74104 23.000
54.76098 28.000
54.78093 29.000
54.80088 28.000
54.82082 36.000
54.84077 32.000
54.86072 22.000
54.88066 20.000
54.90061 28.000
54.92056 20.000
54.94050 32.000
54.96045 30.000
54.98040 31.000
55.00035 30.000
55.02029 20.000
55.04024 29.000
55.06019 28.000
55.08013 30.000
55.10008 24.000
55.12003 35.000
55.13997 26.000
55.15992 24.000
55.17987 30.000
55.19982 27.000
55.21976 30.000
55.23971 20.000
55.25966 30.000
55.27960 27.000
55.29955 25.000
55.31950 19.000
55.33944 22.000
55.35939 21.000
55.37934 23.000
55.39929 36.000
55.41923 29.000
55.43918 28.000
55.45913 22.000
55.47907 18.000
55.49902 14.000
55.51897 18.000
55.53891 34.000
55.55886 26.000
55.57881 25.000
55.59875 27.000
55.61870 18.000
55.63865 23.000
55.65860 22.000
55.67854 29.000
55.69849 22.000
55.71844 28.000
55.73838 19.000
55.75833 25.000
55.77828 29.000
55.79822 26.000
55.81817 22.000
55.83812 27.000
55.85807 25.000
55.87801 21.000
55.89796 24.000
55.91791 18.000
55.93785 28.000
55.95780 23.000
55.97775 32.000
55.99769 25.000
56.01764 24.000
56.03759 28.000
56.05753 17.000
56.07748 29.000
56.09743 20.000
56.11738 22.000
56.13732 30.000
56.15727 22.000
56.17722 25.000
56.19716 32.000
56.21711 19.000
56.23706 30.000
56.25700 23.000
56.27695 17.000
56.29690 30.000
56.31685 16.000
56.33679 23.000
56.35674 34.000
56.37669 28.000
56.39663 27.000
56.41658 27.000
56.43653 23.000
56.45647 28.000
56.47642 26.000
56.49637 17.000
56.51631 10.000
56.53626 22.000
56.55621 17.000
56.57616 27.000
56.59610 22.000
56.61605 22.000
56.63600 25.000
56.65594 26.000
56.67589 32.000
56.69584 17.000
56.71578 24.000
56.73573 23.000
56.75568 27.000
56.77563 26.000
56.79557 24.000
56.81552 21.000
56.83547 17.000
56.85541 17.000
56.87536 22.000
56.89531 29.000
56.91525 19.000
56.93520 13.000
56.95515 30.000
56.97510 23.000
56.99504 25.000
57.01499 33.000
57.03494 17.000
57.05488 19.000
57.07483 28.000
57.09478 23.000
57.11472 27.000
57.13467 24.000
57.15462 22.000
57.17456 27.000
57.19451 20.000
57.21446 20.000
57.23441 30.000
57.25435 19.000
57.27430 25.000
57.29425 30.000
57.31419 25.000
57.33414 22.000
57.35409 15.000
57.37403 30.000
57.39398 37.000
57.41393 25.000
57.43388 28.000
57.45382 23.000
57.47377 25.000
57.49372 26.000
57.51366 17.000
57.53361 29.000
57.55356 20.000
57.57350 25.000
57.59345 17.000
57.61340 29.000
57.63334 21.000
57.65329 29.000
57.67324 24.000
57.69319 29.000
57.71313 24.000
57.73308 26.000
57.75303 26.000
57.77297 26.000
57.79292 29.000
57.81287 18.000
57.83281 22.000
57.85276 27.000
57.87271 28.000
57.89266 20.000
57.91260 21.000
57.93255 21.000
57.95250 26.000
57.97244 14.000
57.99239 27.000
58.01234 24.000
58.03228 26.000
58.05223 17.000
58.07218 21.000
58.09212 24.000
58.11207 19.000
58.13202 25.000
58.15197 34.000
58.17191 24.000
58.19186 26.000
58.21181 27.000
58.23175 36.000
58.25170 27.000
58.27165 29.000
58.29159 31.000
58.31154 21.000
58.33149 29.000
58.35144 30.000
58.37138 26.000
58.39133 22.000
58.41128 28.000
58.43122 34.000
58.45117 28.000
58.47112 25.000
58.49106 17.000
58.51101 24.000
58.53096 30.000
58.55090 25.000
58.57085 21.000
58.59080 23.000
58.61075 22.000
58.63069 20.000
58.65064 29.000
58.67059 31.000
58.69053 23.000
58.71048 31.000
58.73043 30.000
58.75037 28.000
58.77032 30.000
58.79027 36.000
58.81022 18.000
58.83016 27.000
58.85011 27.000
58.87006 28.000
58.89000 29.000
58.90995 27.000
58.92990 23.000
58.94984 23.000
58.96979 32.000
58.98974 40.000
59.00969 23.000
59.02963 30.000
59.04958 27.000
59.06953 33.000
59.08947 25.000
59.10942 27.000
59.12937 36.000
59.14931 18.000
59.16926 23.000
59.18921 27.000
59.20915 28.000
59.22910 26.000
59.24905 21.000
59.26900 23.000
59.28894 29.000
59.30889 29.000
59.32884 26.000
59.34878 28.000
59.36873 35.000
59.38868 29.000
59.40862 37.000
59.42857 29.000
59.44852 37.000
59.46847 25.000
59.48841 23.000
59.50836 33.000
59.52831 29.000
59.54825 35.000
59.56820 28.000
59.58815 25.000
59.60809 21.000
59.62804 35.000
59.64799 27.000
59.66793 32.000
59.68788 29.000
59.70783 20.000
59.72778 30.000
59.74772 29.000
59.76767 23.000
59.78762 18.000
59.80756 34.000
59.82751 27.000
59.84746 42.000
59.86740 32.000
59.88735 34.000
59.90730 36.000
59.92725 45.000
59.94719 33.000
59.96714 33.000
59.98709 23.000
60.00703 31.000
60.02698 27.000
60.04693 31.000
60.06687 25.000
60.08682 45.000
60.10677 28.000
60.12671 30.000
60.14666 38.000
60.16661 40.000
60.18656 33.000
60.20650 30.000
60.22645 50.000
60.24640 45.000
60.26634 30.000
60.28629 34.000
60.30624 38.000
60.32618 41.000
60.34613 39.000
60.36608 50.000
60.38603 52.000
60.40597 63.000
60.42592 46.000
60.44587 45.000
60.46581 49.000
60.48576 49.000
60.50571 50.000
60.52565 50.000
60.54560 58.000
60.56555 60.000
60.58550 51.000
60.60544 55.000
60.62539 74.000
60.64534 72.000
60.66528 54.000
60.68523 71.000
60.70518 71.000
60.72512 66.000
60.74507 68.000
60.76502 67.000
60.78496 58.000
60.80491 63.000
60.82486 61.000
60.84481 58.000
60.86475 63.000
60.88470 69.000
60.90465 68.000
60.92459 57.000
60.94454 60.000
60.96449 51.000
60.98443 60.000
61.00438 55.000
61.02433 71.000
61.04428 65.000
61.06422 70.000
61.08417 67.000
61.10412 62.000
61.12406 55.000
61.14401 61.000
61.16396 79.000
61.18390 66.000
61.20385 76.000
61.22380 84.000
61.24374 80.000
61.26369 69.000
61.28364 80.000
61.30359 94.000
61.32353 90.000
61.34348 93.000
61.36343 94.000
61.38337 81.000
61.40332 110.000
61.42327 127.000
61.44321 131.000
61.46316 121.000
61.48311 132.000
61.50306 143.000
61.52300 140.000
61.54295 162.000
61.56290 170.000
61.58284 168.000
61.60279 183.000
61.62274 220.000
61.64268 212.000
61.66263 241.000
61.68258 219.000
61.70252 212.000
61.72247 213.000
61.74242 222.000
61.76237 230.000
61.78231 204.000
61.80226 232.000
61.82221 200.000
61.84215 184.000
61.86210 192.000
61.88205 179.000
61.90199 165.000
61.92194 168.000
61.94189 162.000
61.96184 152.000
61.98178 141.000
62.00173 133.000
62.02168 125.000
62.04162 107.000
62.06157 107.000
62.08152 106.000
62.10146 97.000
62.12141 100.000
62.14136 90.000
62.16131 91.000
62.18125 91.000
62.20120 79.000
62.22115 86.000
62.24109 68.000
62.26104 81.000
62.28099 73.000
62.30093 71.000
62.32088 76.000
62.34083 91.000
62.36077 62.000
62.38072 81.000
62.40067 74.000
62.42062 64.000
62.44056 71.000
62.46051 80.000
62.48046 76.000
62.50040 74.000
62.52035 85.000
62.54030 77.000
62.56024 79.000
62.58019 76.000
62.60014 97.000
62.62009 97.000
62.64003 101.000
62.65998 91.000
62.67993 92.000
62.69987 113.000
62.71982 112.000
62.73977 101.000
62.75971 103.000
62.77966 92.000
62.79961 110.000
62.81955 125.000
62.83950 111.000
62.85945 103.000
62.87940 125.000
62.89934 95.000
62.91929 95.000
62.93924 71.000
62.95918 76.000
62.97913 95.000
62.99908 75.000
63.01902 87.000
63.03897 91.000
63.05892 80.000
63.07887 78.000
63.09881 58.000
63.11876 60.000
63.13871 59.000
63.15865 67.000
63.17860 61.000
63.19855 64.000
63.21849 72.000
63.23844 56.000
63.25839 60.000
63.27833 54.000
63.29828 59.000
63.31823 64.000
63.33818 59.000
63.35812 52.000
63.37807 63.000
63.39802 60.000
63.41796 54.000
63.43791 67.000
63.45786 47.000
63.47780 56.000
63.49775 50.000
63.51770 51.000
63.53765 62.000
63.55759 51.000
63.57754 63.000
63.59749 52.000
63.61743 59.000
63.63738 47.000
63.65733 54.000
63.67727 64.000
63.69722 60.000
63.71717 47.000
63.73712 69.000
63.75706 68.000
63.77701 60.000
63.79696 66.000
63.81690 52.000
63.83685 63.000
63.85680 71.000
63.87674 57.000
63.89669 82.000
63.91664 55.000
63.93658 55.000
63.95653 75.000
63.97648 62.000
63.99643 71.000
64.01637 57.000
64.03632 60.000
64.05627 72.000
64.07621 70.000
64.09616 75.000
64.11611 78.000
64.13605 66.000
64.15600 77.000
64.17595 88.000
64.19590 80.000
64.21584 78.000
64.23579 78.000
64.25574 88.000
64.27568 85.000
64.29563 91.000
64.31558 93.000
64.33552 92.000
64.35547 90.000
64.37542 81.000
64.39536 110.000
64.41531 93.000
64.43526 94.000
64.45521 91.000
64.47515 86.000
64.49510 94.000
64.51505 90.000
64.53499 86.000
64.55494 89.000
64.57489 80.000
64.59483 94.000
64.61478 87.000
64.63473 67.000
64.65468 78.000
64.67462 84.000
64.69457 70.000
64.71452 101.000
64.73446 82.000
64.75441 82.000
64.77436 77.000
64.79430 73.000
64.81425 75.000
64.83420 68.000
64.85414 77.000
64.87409 73.000
64.89404 71.000
64.91399 79.000
64.93393 87.000
64.95388 78.000
64.97383 68.000
64.99377 91.000
65.01372 92.000
65.03367 105.000
65.05361 103.000
65.07356 98.000
65.09351 91.000
65.11346 105.000
65.13340 108.000
65.15335 98.000
65.17330 99.000
65.19324 96.000
65.21319 110.000
65.23314 83.000
65.25308 108.000
65.27303 101.000
65.29298 109.000
65.31293 112.000
65.33287 119.000
65.35282 101.000
65.37277 108.000
65.39271 97.000
65.41266 106.000
65.43261 116.000
65.45255 105.000
65.47250 100.000
65.49245 92.000
65.51239 96.000
65.53234 87.000
65.55229 116.000
65.57224 127.000
65.59218 123.000
65.61213 125.000
65.63208 116.000
65.65202 150.000
65.67197 114.000
65.69192 122.000
65.71186 146.000
65.73181 127.000
65.75176 124.000
65.77171 124.000
65.79165 124.000
65.81160 126.000
65.83155 119.000
65.85149 110.000
65.87144 135.000
65.89139 112.000
65.91133 110.000
65.93128 108.000
65.95123 102.000
65.97117 110.000
65.99112 111.000
66.01107 92.000
66.03102 109.000
66.05096 107.000
66.07091 105.000
66.09086 100.000
66.11080 90.000
66.13075 117.000
66.15070 95.000
66.17064 107.000
66.19059 94.000
66.21054 113.000
66.23049 100.000
66.25043 100.000
66.27038 93.000
66.29033 102.000
66.31027 82.000
66.33022 93.000
66.35017 91.000
66.37011 90.000
66.39006 96.000
66.41001 95.000
66.42995 84.000
66.44990 92.000
66.46985 68.000
66.48980 72.000
66.50974 66.000
66.52969 60.000
66.54964 63.000
66.56958 74.000
66.58953 72.000
66.60948 62.000
66.62942 71.000
66.64937 72.000
66.66932 62.000
66.68927 58.000
66.70921 65.000
66.72916 75.000
66.74911 83.000
66.76905 75.000
66.78900 76.000
66.80895 69.000
66.82889 67.000
66.84884 65.000
66.86879 65.000
66.88874 67.000
66.90868 70.000
66.92863 61.000
66.94858 63.000
66.96852 82.000
66.98847 79.000
67.00842 62.000
67.02836 57.000
67.04831 62.000
67.06826 60.000
67.08820 53.000
67.10815 59.000
67.12810 67.000
67.14805 60.000
67.16799 67.000
67.18794 68.000
67.20789 55.000
67.22783 54.000
67.24778 54.000
67.26773 61.000
67.28767 54.000
67.30762 71.000
67.32757 52.000
67.34752 59.000
67.36746 51.000
67.38741 50.000
67.40736 56.000
67.42730 55.000
67.44725 46.000
67.46720 52.000
67.48714 59.000
67.50709 53.000
67.52704 51.000
67.54698 48.000
67.56693 47.000
67.58688 58.000
67.60683 58.000
67.62677 69.000
67.64672 63.000
67.66667 66.000
67.68661 55.000
67.70656 69.000
67.72651 54.000
67.74645 53.000
67.76640 54.000
67.78635 60.000
67.80630 65.000
67.82624 55.000
67.84619 38.000
67.86614 50.000
67.88608 45.000
67.90603 51.000
67.92598 59.000
67.94592 54.000
67.96587 58.000
67.98582 52.000
68.00576 46.000
68.02571 69.000
68.04566 64.000
68.06561 61.000
68.08555 56.000
68.10550 58.000
68.12545 66.000
68.14539 68.000
68.16534 55.000
68.18529 57.000
68.20523 41.000
68.22518 71.000
68.24513 62.000
68.26508 48.000
68.28502 56.000
68.30497 59.000
68.32492 47.000
68.34486 48.000
68.36481 41.000
68.38476 42.000
68.40470 40.000
68.42465 39.000
68.44460 37.000
68.46455 41.000
68.48449 42.000
68.50444 47.000
68.52439 32.000
68.54433 30.000
68.56428 29.000
68.58423 38.000
68.60417 33.000
68.62412 28.000
68.64407 22.000
68.66401 37.000
68.68396 24.000
68.70391 30.000
68.72386 27.000
68.74380 19.000
68.76375 28.000
68.78370 29.000
68.80364 32.000
68.82359 22.000
68.84354 34.000
68.86348 29.000
68.88343 38.000
68.90338 20.000
68.92333 22.000
68.94327 31.000
68.96322 22.000
68.98317 26.000
69.00311 29.000
69.02306 37.000
69.04301 23.000
69.06295 29.000
69.08290 26.000
69.10285 19.000
69.12279 29.000
69.14274 35.000
69.16269 27.000
69.18264 26.000
69.20258 13.000
69.22253 36.000
69.24248 23.000
69.26242 32.000
69.28237 31.000
69.30232 27.000
69.32226 27.000
69.34221 17.000
69.36216 24.000
69.38211 33.000
69.40205 22.000
69.42200 23.000
69.44195 19.000
69.46189 30.000
69.48184 23.000
69.50179 23.000
69.52173 26.000
69.54168 21.000
69.56163 26.000
69.58157 24.000
69.60152 22.000
69.62147 31.000
69.64142 26.000
69.66136 29.000
69.68131 16.000
69.70126 21.000
69.72120 22.000
69.74115 18.000
69.76110 16.000
69.78104 14.000
69.80099 34.000
69.82094 37.000
69.84089 19.000
69.86083 19.000
69.88078 15.000
69.90073 22.000
69.92067 26.000
69.94062 18.000
69.96057 15.000
69.98051 31.000
70.00046 24.000
70.02041 26.000
70.04035 27.000
70.06030 30.000
70.08025 17.000
70.10020 26.000
70.12014 17.000
70.14009 22.000
70.16004 28.000
70.17998 24.000
70.19993 22.000
70.21988 24.000
70.23982 13.000
70.25977 23.000
70.27972 14.000
70.29967 21.000
70.31961 16.000
70.33956 17.000
70.35951 29.000
70.37945 14.000
70.39940 26.000
70.41935 19.000
70.43929 17.000
70.45924 18.000
70.47919 17.000
70.49914 18.000
70.51908 30.000
70.53903 19.000
70.55898 16.000
70.57892 21.000
70.59887 16.000
70.61882 16.000
70.63876 16.000
70.65871 19.000
70.67866 25.000
70.69860 12.000
70.71855 17.000
70.73850 16.000
70.75845 15.000
70.77839 15.000
70.79834 20.000
70.81829 22.000
70.83823 17.000
70.85818 18.000
70.87813 22.000
70.89807 20.000
70.91802 20.000
70.93797 15.000
70.95792 26.000
70.97786 22.000
70.99781 19.000
71.01776 24.000
71.03770 23.000
71.05765 19.000
71.07760 26.000
71.09754 19.000
71.11749 20.000
71.13744 24.000
71.15738 26.000
71.17733 20.000
71.19728 21.000
71.21723 22.000
71.23717 24.000
71.25712 17.000
71.27707 17.000
71.29701 25.000
71.31696 27.000
71.33691 18.000
71.35685 16.000
71.37680 29.000
71.39675 15.000
71.41670 22.000
71.43664 30.000
71.45659 27.000
71.47654 21.000
71.49648 28.000
71.51643 20.000
71.53638 24.000
71.55632 27.000
71.57627 22.000
71.59622 21.000
71.61616 25.000
71.63611 24.000
71.65606 26.000
71.67601 21.000
71.69595 22.000
71.71590 27.000
71.73585 34.000
71.75579 31.000
71.77574 28.000
71.79569 34.000
71.81563 45.000
71.83558 34.000
71.85553 26.000
71.87548 40.000
71.89542 33.000
71.91537 32.000
71.93532 37.000
71.95526 37.000
71.97521 25.000
71.99516 33.000
72.01510 31.000
72.03505 38.000
72.05500 50.000
72.07495 27.000
72.09489 43.000
72.11484 35.000
72.13479 34.000
72.15473 27.000
72.17468 33.000
72.19463 40.000
72.21457 40.000
72.23452 26.000
72.25447 30.000
72.27441 31.000
72.29436 34.000
72.31431 30.000
72.33426 35.000
72.35420 27.000
72.37415 30.000
72.39410 34.000
72.41404 34.000
72.43399 26.000
72.45394 32.000
72.47388 28.000
72.49383 34.000
72.51378 33.000
72.53373 38.000
72.55367 25.000
72.57362 32.000
72.59357 24.000
72.61351 22.000
72.63346 29.000
72.65341 29.000
72.67335 23.000
72.69330 42.000
72.71325 35.000
72.73319 26.000
72.75314 24.000
72.77309 21.000
72.79304 26.000
72.81298 28.000
72.83293 38.000
72.85288 31.000
72.87282 28.000
72.89277 28.000
72.91272 33.000
72.93266 30.000
72.95261 24.000
72.97256 41.000
72.99251 29.000
73.01245 27.000
73.03240 31.000
73.05235 21.000
73.07229 25.000
73.09224 35.000
73.11219 28.000
73.13213 35.000
73.15208 35.000
73.17203 24.000
73.19197 35.000
73.21192 28.000
73.23187 21.000
73.25182 28.000
73.27176 26.000
73.29171 34.000
73.31166 31.000
73.33160 25.000
73.35155 38.000
73.37150 39.000
73.39144 37.000
73.41139 31.000
73.43134 33.000
73.45129 34.000
73.47123 39.000
73.49118 45.000
73.51113 42.000
73.53107 47.000
73.55102 36.000
73.57097 40.000
73.59091 36.000
73.61086 33.000
73.63081 26.000
73.65076 47.000
73.67070 29.000
73.69065 30.000
73.71060 33.000
73.73054 40.000
73.75049 27.000
73.77044 39.000
73.79038 35.000
73.81033 36.000
73.83028 35.000
73.85022 29.000
73.87017 47.000
73.89012 34.000
73.91007 36.000
73.93001 38.000
73.94996 31.000
73.96991 27.000
73.98985 33.000
74.00980 34.000
74.02975 28.000
74.04969 25.000
74.06964 35.000
74.08959 28.000
74.10954 26.000
74.12948 21.000
74.14943 30.000
74.16938 32.000
74.18932 40.000
74.20927 40.000
74.22922 35.000
74.24916 35.000
74.26911 29.000
74.28906 34.000
74.30900 34.000
74.32895 31.000
74.34890 34.000
74.36885 30.000
74.38879 35.000
74.40874 25.000
74.42869 30.000
74.44863 29.000
74.46858 35.000
74.48853 29.000
74.50847 27.000
74.52842 37.000
74.54837 33.000
74.56832 37.000
74.58826 44.000
74.60821 36.000
74.62816 34.000
74.64810 35.000
74.66805 24.000
74.68800 43.000
74.70794 35.000
74.72789 25.000
74.74784 34.000
74.76778 29.000
74.78773 31.000
74.80768 40.000
74.82763 46.000
74.84757 39.000
74.86752 29.000
74.88747 42.000
74.90741 35.000
74.92736 34.000
74.94731 40.000
74.96725 30.000
74.98720 41.000
75.00715 49.000
75.02710 37.000
75.04704 36.000
75.06699 44.000
75.08694 38.000
75.10688 38.000
75.12683 33.000
75.14678 30.000
75.16672 26.000
75.18667 37.000
75.20662 29.000
75.22657 32.000
75.24651 32.000
75.26646 29.000
75.28641 30.000
75.30635 32.000
75.32630 31.000
75.34625 25.000
75.36619 25.000
75.38614 28.000
75.40609 25.000
75.42603 25.000
75.44598 20.000
75.46593 35.000
75.48588 30.000
75.50582 24.000
75.52577 23.000
75.54572 27.000
75.56566 17.000
75.58561 26.000
75.60556 30.000
75.62550 23.000
75.64545 19.000
75.66540 18.000
75.68535 30.000
75.70529 32.000
75.72524 22.000
75.74519 26.000
75.76513 28.000
75.78508 25.000
75.80503 19.000
75.82497 26.000
75.84492 29.000
75.86487 33.000
75.88481 30.000
75.90476 31.000
75.92471 30.000
75.94466 22.000
75.96460 31.000
75.98455 17.000
76.00450 38.000
76.02444 28.000
76.04439 34.000
76.06434 35.000
76.08428 39.000
76.10423 36.000
76.12418 29.000
76.14413 39.000
76.16407 41.000
76.18402 42.000
76.20397 36.000
76.22391 24.000
76.24386 39.000
76.26381 32.000
76.28375 37.000
76.30370 32.000
76.32365 40.000
76.34359 30.000
76.36354 45.000
76.38349 32.000
76.40344 48.000
76.42338 38.000
76.44333 30.000
76.46328 54.000
76.48322 28.000
76.50317 44.000
76.52312 38.000
76.54306 48.000
76.56301 40.000
76.58296 24.000
76.60291 42.000
76.62285 49.000
76.64280 48.000
76.66275 37.000
76.68269 40.000
76.70264 45.000
76.72259 39.000
76.74253 36.000
76.76248 48.000
76.78243 45.000
76.80238 45.000
76.82232 47.000
76.84227 36.000
76.86222 35.000
76.88216 37.000
76.90211 42.000
76.92206 45.000
76.94200 33.000
76.96195 34.000
76.98190 39.000
77.00184 29.000
77.02179 40.000
77.04174 35.000
77.06169 42.000
77.08163 31.000
77.10158 40.000
77.12153 36.000
77.14147 51.000
77.16142 46.000
77.18137 53.000
77.20131 43.000
77.22126 57.000
77.24121 45.000
77.26116 48.000
77.28110 60.000
77.30105 44.000
77.32100 40.000
77.34094 48.000
77.36089 52.000
77.38084 47.000
77.40078 40.000
77.42073 71.000
77.44068 64.000
77.46062 59.000
77.48057 72.000
77.50052 56.000
77.52047 65.000
77.54041 87.000
77.56036 74.000
77.58031 73.000
77.60025 64.000
77.62020 63.000
77.64015 83.000
77.66009 79.000
77.68004 71.000
77.69999 85.000
77.71994 56.000
77.73988 72.000
77.75983 89.000
77.77978 71.000
77.79972 79.000
77.81967 53.000
77.83962 77.000
77.85956 73.000
77.87951 68.000
77.89946 69.000
77.91940 80.000
77.93935 79.000
77.95930 69.000
77.97925 44.000
77.99919 64.000
78.01914 57.000
78.03909 60.000
78.05903 54.000
78.07898 64.000
78.09893 58.000
78.11887 57.000
78.13882 51.000
78.15877 48.000
78.17872 44.000
78.19866 47.000
78.21861 45.000
78.23856 57.000
78.25850 47.000
78.27845 38.000
78.29840 42.000
78.31834 54.000
78.33829 60.000
78.35824 66.000
78.37819 49.000
78.39813 48.000
78.41808 50.000
78.43803 37.000
78.45797 53.000
78.47792 53.000
78.49787 51.000
78.51781 61.000
78.53776 58.000
78.55771 49.000
78.57765 60.000
78.59760 62.000
78.61755 53.000
78.63750 50.000
78.65744 53.000
78.67739 78.000
78.69734 73.000
78.71728 55.000
78.73723 64.000
78.75718 61.000
78.77712 64.000
78.79707 58.000
78.81702 47.000
78.83697 51.000
78.85691 49.000
78.87686 60.000
78.89681 57.000
78.91675 45.000
78.93670 51.000
78.95665 43.000
78.97659 54.000
78.99654 53.000
79.01649 46.000
79.03643 50.000
79.05638 49.000
79.07633 46.000
79.09628 47.000
79.11622 43.000
79.13617 40.000
79.15612 46.000
79.17606 35.000
79.19601 41.000
79.21596 36.000
79.23590 32.000
79.25585 33.000
79.27580 36.000
79.29575 32.000
79.31569 28.000
79.33564 36.000
79.35559 35.000
79.37553 31.000
79.39548 30.000
79.41543 30.000
79.43537 26.000
79.45532 41.000
79.47527 38.000
79.49521 22.000
79.51516 29.000
79.53511 20.000
79.55506 27.000
79.57500 37.000
79.59495 32.000
79.61490 28.000
79.63484 31.000
79.65479 35.000
79.67474 30.000
79.69468 30.000
79.71463 32.000
79.73458 31.000
79.75453 32.000
79.77447 23.000
79.79442 24.000
79.81437 35.000
79.83431 31.000
79.85426 27.000
79.87421 28.000
79.89415 21.000
79.91410 24.000
79.93405 29.000
79.95399 30.000
79.97394 20.000
79.99389 25.000
80.01384 21.000
80.03378 24.000
80.05373 21.000
80.07368 18.000
80.09362 20.000
80.11357 19.000
80.13352 22.000
80.15346 33.000
80.17341 14.000
80.19336 22.000
80.21331 22.000
80.23325 23.000
80.25320 31.000
80.27315 23.000
80.29309 24.000
80.31304 26.000
80.33299 18.000
80.35293 25.000
80.37288 16.000
80.39283 20.000
80.41278 19.000
80.43272 19.000
80.45267 19.000
80.47262 18.000
80.49256 15.000
80.51251 19.000
80.53246 29.000
80.55240 28.000
80.57235 28.000
80.59230 16.000
80.61224 25.000
80.63219 26.000
80.65214 20.000
80.67209 18.000
80.69203 25.000
80.71198 25.000
80.73193 18.000
80.75187 18.000
80.77182 15.000
80.79177 19.000
80.81171 21.000
80.83166 15.000
80.85161 18.000
80.87156 30.000
80.89150 27.000
80.91145 18.000
80.93140 25.000
80.95134 19.000
80.97129 23.000
80.99124 26.000
81.01118 25.000
81.03113 23.000
81.05108 30.000
81.07102 27.000
81.09097 29.000
81.11092 25.000
81.13087 21.000
81.15081 27.000
81.17076 39.000
81.19071 24.000
81.21065 34.000
81.23060 34.000
81.25055 27.000
81.27049 28.000
81.29044 32.000
81.31039 30.000
81.33034 36.000
81.35028 33.000
81.37023 48.000
81.39018 27.000
81.41012 28.000
81.43007 43.000
81.45002 39.000
81.46996 40.000
81.48991 35.000
81.50986 36.000
81.52980 34.000
81.54975 24.000
81.56970 32.000
81.58965 20.000
81.60959 29.000
81.62954 24.000
81.64949 23.000
81.66943 24.000
81.68938 36.000
81.70933 23.000
81.72927 35.000
81.74922 19.000
81.76917 26.000
81.78912 37.000
81.80906 23.000
81.82901 16.000
81.84896 29.000
81.86890 26.000
81.88885 21.000
81.90880 27.000
81.92874 17.000
81.94869 26.000
81.96864 18.000
81.98859 29.000
82.00853 23.000
82.02848 21.000
82.04843 22.000
82.06837 24.000
82.08832 19.000
82.10827 28.000
82.12821 31.000
82.14816 22.000
82.16811 18.000
82.18805 30.000
82.20800 29.000
82.22795 17.000
82.24790 19.000
82.26784 25.000
82.28779 20.000
82.30774 22.000
82.32768 21.000
82.34763 21.000
82.36758 23.000
82.38752 16.000
82.40747 20.000
82.42742 19.000
82.44737 24.000
82.46731 21.000
82.48726 22.000
82.50721 20.000
82.52715 23.000
82.54710 34.000
82.56705 24.000
82.58699 25.000
82.60694 24.000
82.62689 20.000
82.64683 24.000
82.66678 37.000
82.68673 20.000
82.70668 16.000
82.72662 22.000
82.74657 33.000
82.76652 27.000
82.78646 27.000
82.80641 25.000
82.82636 14.000
82.84630 21.000
82.86625 20.000
82.88620 31.000
82.90615 25.000
82.92609 24.000
82.94604 19.000
82.96599 27.000
82.98593 22.000
83.00588 26.000
83.02583 18.000
83.04577 22.000
83.06572 25.000
83.08567 24.000
83.10561 25.000
83.12556 19.000
83.14551 18.000
83.16546 32.000
83.18540 23.000
83.20535 24.000
83.22530 22.000
83.24524 23.000
83.26519 25.000
83.28514 15.000
83.30508 21.000
83.32503 19.000
83.34498 33.000
83.36493 24.000
83.38487 17.000
83.40482 16.000
83.42477 16.000
83.44471 25.000
83.46466 19.000
83.48461 18.000
83.50455 19.000
83.52450 19.000
83.54445 29.000
83.56440 19.000
83.58434 19.000
83.60429 13.000
83.62424 17.000
83.64418 25.000
83.66413 20.000
83.68408 23.000
83.70402 22.000
83.72397 28.000
83.74392 26.000
83.76386 12.000
83.78381 24.000
83.80376 22.000
83.82371 31.000
83.84365 16.000
83.86360 24.000
83.88355 20.000
83.90349 18.000
83.92344 18.000
83.94339 27.000
83.96333 25.000
83.98328 22.000
84.00323 23.000
84.02318 18.000
84.04312 34.000
84.06307 22.000
84.08302 27.000
84.10296 26.000
84.12291 23.000
84.14286 28.000
84.16280 23.000
84.18275 19.000
84.20270 27.000
84.22264 22.000
84.24259 25.000
84.26254 25.000
84.28249 29.000
84.30243 28.000
84.32238 27.000
84.34233 28.000
84.36227 22.000
84.38222 28.000
84.40217 23.000
84.42211 32.000
84.44206 28.000
84.46201 27.000
84.48196 22.000
84.50190 22.000
84.52185 29.000
84.54180 34.000
84.56174 31.000
84.58169 32.000
84.60164 26.000
84.62158 38.000
84.64153 34.000
84.66148 46.000
84.68142 30.000
84.70137 32.000
84.72132 34.000
84.74127 36.000
84.76121 43.000
84.78116 42.000
84.80111 43.000
84.82105 36.000
84.84100 38.000
84.86095 42.000
84.88089 31.000
84.90084 40.000
84.92079 52.000
84.94074 37.000
84.96068 33.000
84.98063 31.000
85.00058 49.000
85.02052 37.000
85.04047 43.000
85.06042 43.000
85.08036 42.000
85.10031 51.000
85.12026 45.000
85.14021 59.000
85.16015 49.000
85.18010 47.000
85.20005 39.000
85.21999 48.000
85.23994 50.000
85.25989 40.000
85.27983 46.000
85.29978 44.000
85.31973 43.000
85.33967 34.000
85.35962 34.000
85.37957 41.000
85.39952 43.000
85.41946 39.000
85.43941 33.000
85.45936 30.000
85.47930 35.000
85.49925 45.000
85.51920 34.000
85.53914 29.000
85.55909 31.000
85.57904 37.000
85.59899 37.000
85.61893 41.000
85.63888 33.000
85.65883 33.000
85.67877 33.000
85.69872 37.000
85.71867 38.000
85.73861 31.000
85.75856 31.000
85.77851 29.000
85.79845 27.000
85.81840 22.000
85.83835 55.000
85.85830 39.000
85.87824 37.000
85.89819 30.000
85.91814 31.000
85.93808 36.000
85.95803 29.000
85.97798 31.000
85.99792 37.000
86.01787 37.000
86.03782 35.000
86.05777 39.000
86.07771 34.000
86.09766 31.000
86.11761 25.000
86.13755 28.000
86.15750 40.000
86.17745 32.000
86.19739 32.000
86.21734 31.000
86.23729 37.000
86.25723 37.000
86.27718 27.000
86.29713 31.000
86.31708 32.000
86.33702 40.000
86.35697 45.000
86.37692 34.000
86.39686 35.000
86.41681 32.000
86.43676 34.000
86.45670 37.000
86.47665 32.000
86.49660 24.000
86.51655 31.000
86.53649 27.000
86.55644 30.000
86.57639 25.000
86.59633 13.000
86.61628 29.000
86.63623 21.000
86.65617 28.000
86.67612 25.000
86.69607 20.000
86.71602 22.000
86.73596 27.000
86.75591 16.000
86.77586 26.000
86.79580 20.000
86.81575 19.000
86.83570 23.000
86.85564 30.000
86.87559 17.000
86.89554 18.000
86.91548 32.000
86.93543 27.000
86.95538 25.000
86.97533 24.000
86.99527 17.000
87.01522 27.000
87.03517 24.000
87.05511 26.000
87.07506 25.000
87.09501 19.000
87.11495 25.000
87.13490 25.000
87.15485 25.000
87.17480 29.000
87.19474 25.000
87.21469 24.000
87.23464 14.000
87.25458 16.000
87.27453 20.000
87.29448 25.000
87.31442 27.000
87.33437 28.000
87.35432 17.000
87.37426 14.000
87.39421 18.000
87.41416 23.000
87.43411 25.000
87.45405 16.000
87.47400 18.000
87.49395 22.000
87.51389 18.000
87.53384 23.000
87.55379 13.000
87.57373 13.000
87.59368 23.000
87.61363 17.000
87.63358 10.000
87.65352 17.000
87.67347 18.000
87.69342 17.000
87.71336 12.000
87.73331 19.000
87.75326 14.000
87.77320 21.000
87.79315 19.000
87.81310 22.000
87.83304 23.000
87.85299 19.000
87.87294 17.000
87.89289 11.000
87.91283 20.000
87.93278 21.000
87.95273 22.000
87.97267 18.000
87.99262 27.000
88.01257 31.000
88.03251 26.000
88.05246 34.000
88.07241 24.000
88.09236 23.000
88.11230 23.000
88.13225 22.000
88.15220 16.000
88.17214 20.000
88.19209 26.000
88.21204 16.000
88.23198 21.000
88.25193 23.000
88.27188 26.000
88.29183 18.000
88.31177 20.000
88.33172 22.000
88.35167 18.000
88.37161 14.000
88.39156 16.000
88.41151 31.000
88.43145 20.000
88.45140 12.000
88.47135 13.000
88.49129 14.000
88.51124 23.000
88.53119 13.000
88.55114 21.000
88.57108 20.000
88.59103 18.000
88.61098 18.000
88.63092 18.000
88.65087 19.000
88.67082 20.000
88.69076 22.000
88.71071 31.000
88.73066 16.000
88.75061 18.000
88.77055 27.000
88.79050 22.000
88.81045 17.000
88.83039 14.000
88.85034 18.000
88.87029 17.000
88.89023 18.000
88.91018 19.000
88.93013 20.000
88.95007 15.000
88.97002 18.000
88.98997 11.000
89.00992 15.000
89.02986 16.000
89.04981 19.000
89.06976 14.000
89.08970 10.000
89.10965 21.000
89.12960 20.000
89.14954 14.000
89.16949 21.000
89.18944 14.000
89.20939 21.000
89.22933 14.000
89.24928 16.000
89.26923 22.000
89.28917 14.000
89.30912 18.000
89.32907 21.000
89.34901 19.000
89.36896 17.000
89.38891 21.000
89.40885 12.000
89.42880 12.000
89.44875 16.000
89.46870 17.000
89.48864 17.000
89.50859 13.000
89.52854 18.000
89.54848 15.000
89.56843 15.000
89.58838 12.000
89.60832 18.000
89.62827 17.000
89.64822 19.000
89.66817 19.000
89.68811 14.000
89.70806 18.000
89.72801 22.000
89.74795 13.000
89.76790 21.000
89.78785 17.000
89.80779 8.000
89.82774 17.000
89.84769 19.000
89.86764 24.000
89.88758 15.000
89.90753 13.000
89.92748 8.000
89.94742 11.000
89.96737 17.000
89.98732 19.000
90.00726 15.000
