10.00000 58.000
10.01995 58.000
10.03989 58.000
10.05984 66.000
10.07979 65.000
10.09973 55.000
10.11968 63.000
10.13963 55.000
10.15958 50.000
10.17952 56.000
10.19947 71.000
10.21942 65.000
10.23936 52.000
10.25931 59.000
10.27926 63.000
10.29920 60.000
10.31915 68.000
10.33910 54.000
10.35905 67.000
10.37899 59.000
10.39894 68.000
10.41889 67.000
10.43883 58.000
10.45878 82.000
10.47873 71.000
10.49867 53.000
10.51862 69.000
10.53857 62.000
10.55851 68.000
10.57846 68.000
10.59841 58.000
10.61836 58.000
10.63830 72.000
10.65825 72.000
10.67820 63.000
10.69814 80.000
10.71809 65.000
10.73804 53.000
10.75798 57.000
10.77793 55.000
10.79788 61.000
10.81783 61.000
10.83777 64.000
10.85772 61.000
10.87767 61.000
10.89761 60.000
10.91756 60.000
10.93751 69.000
10.95745 61.000
10.97740 61.000
10.99735 67.000
11.01730 58.000
11.03724 54.000
11.05719 57.000
11.07714 67.000
11.09708 58.000
11.11703 71.000
11.13698 69.000
11.15692 58.000
11.17687 62.000
11.19682 57.000
11.21676 65.000
11.23671 62.000
11.25666 67.000
11.27661 71.000
11.29655 58.000
11.31650 67.000
11.33645 49.000
11.35639 70.000
11.37634 60.000
11.39629 54.000
11.41623 72.000
11.43618 50.000
11.45613 43.000
11.47608 55.000
11.49602 61.000
11.51597 55.000
11.53592 82.000
11.55586 64.000
11.57581 61.000
11.59576 53.000
11.61570 49.000
11.63565 47.000
11.65560 60.000
11.67554 62.000
11.69549 49.000
11.71544 65.000
11.73539 71.000
11.75533 58.000
11.77528 54.000
11.79523 61.000
11.81517 61.000
11.83512 50.000
11.85507 44.000
11.87501 58.000
11.89496 66.000
11.91491 52.000
11.93486 64.000
11.95480 57.000
11.97475 53.000
11.99470 66.000
12.01464 69.000
12.03459 57.000
12.05454 57.000
12.07448 67.000
12.09443 49.000
12.11438 55.000
12.13432 57.000
12.15427 62.000
12.17422 64.000
12.19417 57.000
12.21411 53.000
12.23406 71.000
12.25401 62.000
12.27395 74.000
12.29390 54.000
12.31385 57.000
12.33379 55.000
12.35374 66.000
12.37369 63.000
12.39364 45.000
12.41358 60.000
12.43353 63.000
12.45348 61.000
12.47342 66.000
12.49337 58.000
12.51332 62.000
12.53326 62.000
12.55321 53.000
12.57316 73.000
12.59311 49.000
12.61305 56.000
12.63300 61.000
12.65295 58.000
12.67289 61.000
12.69284 57.000
12.71279 73.000
12.73273 64.000
12.75268 58.000
12.77263 45.000
12.79257 47.000
12.81252 58.000
12.83247 63.000
12.85242 60.000
12.87236 54.000
12.89231 41.000
12.91226 51.000
12.93220 64.000
12.95215 58.000
12.97210 59.000
12.99204 52.000
13.01199 45.000
13.03194 53.000
13.05189 62.000
13.07183 47.000
13.09178 54.000
13.11173 57.000
13.13167 48.000
13.15162 69.000
13.17157 59.000
13.19151 56.000
13.21146 61.000
13.23141 62.000
13.25135 68.000
13.27130 52.000
13.29125 49.000
13.31120 43.000
13.33114 36.000
13.35109 56.000
13.37104 65.000
13.39098 58.000
13.41093 55.000
13.43088 50.000
13.45082 52.000
13.47077 58.000
13.49072 59.000
13.51067 62.000
13.53061 60.000
13.55056 62.000
13.57051 47.000
13.59045 48.000
13.61040 50.000
13.63035 59.000
13.65029 75.000
13.67024 61.000
13.69019 51.000
13.71013 57.000
13.73008 66.000
13.75003 50.000
13.76998 48.000
13.78992 65.000
13.80987 51.000
13.82982 61.000
13.84976 49.000
13.86971 67.000
13.88966 60.000
13.90960 47.000
13.92955 48.000
13.94950 66.000
13.96945 82.000
13.98939 81.000
14.00934 71.000
14.02929 63.000
14.04923 49.000
14.06918 67.000
14.08913 54.000
14.10907 56.000
14.12902 69.000
14.14897 66.000
14.16892 74.000
14.18886 63.000
14.20881 73.000
14.22876 61.000
14.24870 62.000
14.26865 60.000
14.28860 47.000
14.30854 52.000
14.32849 70.000
14.34844 61.000
14.36838 62.000
14.38833 52.000
14.40828 53.000
14.42823 57.000
14.44817 66.000
14.46812 59.000
14.48807 61.000
14.50801 63.000
14.52796 56.000
14.54791 69.000
14.56785 64.000
14.58780 77.000
14.60775 47.000
14.62770 55.000
14.64764 76.000
14.66759 74.000
14.68754 81.000
14.70748 60.000
14.72743 90.000
14.74738 65.000
14.76732 81.000
14.78727 76.000
14.80722 61.000
14.82716 96.000
14.84711 80.000
14.86706 87.000
14.88701 65.000
14.90695 80.000
14.92690 74.000
14.94685 86.000
14.96679 78.000
14.98674 107.000
15.00669 99.000
15.02663 79.000
15.04658 89.000
15.06653 95.000
15.08648 110.000
15.10642 102.000
15.12637 94.000
15.14632 111.000
15.16626 115.000
15.18621 95.000
15.20616 174.000
15.22610 145.000
15.24605 186.000
15.26600 181.000
15.28594 235.000
15.30589 339.000
15.32584 417.000
15.34579 472.000
15.36573 666.000
15.38568 852.000
15.40563 1045.000
15.42557 1297.000
15.44552 1456.000
15.46547 1849.000
15.48541 2005.000
15.50536 2145.000
15.52531 2404.000
15.54526 2571.000
15.56520 2569.000
15.58515 2252.000
15.60510 1852.000
15.62504 1309.000
15.64499 885.000
15.66494 462.000
15.68488 354.000
15.70483 194.000
15.72478 126.000
15.74472 91.000
15.76467 114.000
15.78462 126.000
15.80457 80.000
15.82451 81.000
15.84446 94.000
15.86441 72.000
15.88435 71.000
15.90430 87.000
15.92425 62.000
15.94419 76.000
15.96414 58.000
15.98409 72.000
16.00404 70.000
16.02398 76.000
16.04393 51.000
16.06388 49.000
16.08382 48.000
16.10377 66.000
16.12372 60.000
16.14366 58.000
16.16361 62.000
16.18356 61.000
16.20351 67.000
16.22345 54.000
16.24340 61.000
16.26335 61.000
16.28329 47.000
16.30324 54.000
16.32319 59.000
16.34313 56.000
16.36308 50.000
16.38303 49.000
16.40297 44.000
16.42292 48.000
16.44287 43.000
16.46282 49.000
16.48276 71.000
16.50271 39.000
16.52266 49.000
16.54260 41.000
16.56255 59.000
16.58250 49.000
16.60244 54.000
16.62239 53.000
16.64234 48.000
16.66229 49.000
16.68223 45.000
16.70218 56.000
16.72213 36.000
16.74207 41.000
16.76202 62.000
16.78197 58.000
16.80191 49.000
16.82186 43.000
16.84181 57.000
16.86175 44.000
16.88170 49.000
16.90165 59.000
16.92160 57.000
16.94154 58.000
16.96149 49.000
16.98144 40.000
17.00138 48.000
17.02133 35.000
17.04128 40.000
17.06122 39.000
17.08117 51.000
17.10112 44.000
17.12107 48.000
17.14101 50.000
17.16096 46.000
17.18091 58.000
17.20085 42.000
17.22080 40.000
17.24075 46.000
17.26069 44.000
17.28064 38.000
17.30059 45.000
17.32053 41.000
17.34048 47.000
17.36043 48.000
17.38038 45.000
17.40032 36.000
17.42027 48.000
17.44022 54.000
17.46016 38.000
17.48011 67.000
17.50006 55.000
17.52000 39.000
17.53995 47.000
17.55990 55.000
17.57985 50.000
17.59979 45.000
17.61974 50.000
17.63969 63.000
17.65963 57.000
17.67958 55.000
17.69953 62.000
17.71947 60.000
17.73942 59.000
17.75937 62.000
17.77932 82.000
17.79926 112.000
17.81921 131.000
17.83916 117.000
17.85910 124.000
17.87905 139.000
17.89900 149.000
17.91894 123.000
17.93889 150.000
17.95884 125.000
17.97878 88.000
17.99873 77.000
18.01868 72.000
18.03863 57.000
18.05857 57.000
18.07852 36.000
18.09847 45.000
18.11841 58.000
18.13836 44.000
18.15831 33.000
18.17825 48.000
18.19820 41.000
18.21815 48.000
18.23810 58.000
18.25804 59.000
18.27799 54.000
18.29794 51.000
18.31788 41.000
18.33783 52.000
18.35778 55.000
18.37772 42.000
18.39767 49.000
18.41762 41.000
18.43756 52.000
18.45751 51.000
18.47746 49.000
18.49741 41.000
18.51735 40.000
18.53730 49.000
18.55725 51.000
18.57719 56.000
18.59714 38.000
18.61709 39.000
18.63703 47.000
18.65698 41.000
18.67693 51.000
18.69688 51.000
18.71682 40.000
18.73677 45.000
18.75672 32.000
18.77666 44.000
18.79661 56.000
18.81656 45.000
18.83650 61.000
18.85645 57.000
18.87640 49.000
18.89634 52.000
18.91629 39.000
18.93624 41.000
18.95619 54.000
18.97613 37.000
18.99608 50.000
19.01603 43.000
19.03597 48.000
19.05592 62.000
19.07587 42.000
19.09581 55.000
19.11576 45.000
19.13571 49.000
19.15566 54.000
19.17560 47.000
19.19555 55.000
19.21550 57.000
19.23544 47.000
19.25539 50.000
19.27534 39.000
19.29528 43.000
19.31523 53.000
19.33518 44.000
19.35513 53.000
19.37507 50.000
19.39502 47.000
19.41497 54.000
19.43491 57.000
19.45486 48.000
19.47481 56.000
19.49475 42.000
19.51470 49.000
19.53465 46.000
19.55459 41.000
19.57454 37.000
19.59449 48.000
19.61444 38.000
19.63438 44.000
19.65433 45.000
19.67428 37.000
19.69422 47.000
19.71417 49.000
19.73412 41.000
19.75406 53.000
19.77401 47.000
19.79396 58.000
19.81391 43.000
19.83385 51.000
19.85380 52.000
19.87375 50.000
19.89369 47.000
19.91364 49.000
19.93359 45.000
19.95353 42.000
19.97348 35.000
19.99343 42.000
20.01337 52.000
20.03332 50.000
20.05327 56.000
20.07322 48.000
20.09316 47.000
20.11311 54.000
20.13306 44.000
20.15300 49.000
20.17295 36.000
20.19290 51.000
20.21284 59.000
20.23279 33.000
20.25274 53.000
20.27269 62.000
20.29263 45.000
20.31258 46.000
20.33253 43.000
20.35247 35.000
20.37242 44.000
20.39237 45.000
20.41231 46.000
20.43226 47.000
20.45221 35.000
20.47215 43.000
20.49210 53.000
20.51205 44.000
20.53200 47.000
20.55194 52.000
20.57189 51.000
20.59184 57.000
20.61178 56.000
20.63173 60.000
20.65168 59.000
20.67162 73.000
20.69157 67.000
20.71152 93.000
20.73147 73.000
20.75141 84.000
20.77136 101.000
20.79131 111.000
20.81125 103.000
20.83120 124.000
20.85115 94.000
20.87109 106.000
20.89104 83.000
20.91099 108.000
20.93094 92.000
20.95088 98.000
20.97083 87.000
20.99078 75.000
21.01072 64.000
21.03067 53.000
21.05062 61.000
21.07056 54.000
21.09051 53.000
21.11046 51.000
21.13040 57.000
21.15035 47.000
21.17030 63.000
21.19025 39.000
21.21019 49.000
21.23014 47.000
21.25009 48.000
21.27003 44.000
21.28998 52.000
21.30993 40.000
21.32987 43.000
21.34982 39.000
21.36977 46.000
21.38972 52.000
21.40966 58.000
21.42961 45.000
21.44956 48.000
21.46950 57.000
21.48945 57.000
21.50940 48.000
21.52934 48.000
21.54929 46.000
21.56924 37.000
21.58918 38.000
21.60913 59.000
21.62908 44.000
21.64903 59.000
21.66897 45.000
21.68892 37.000
21.70887 38.000
21.72881 59.000
21.74876 51.000
21.76871 61.000
21.78865 55.000
21.80860 41.000
21.82855 52.000
21.84850 55.000
21.86844 38.000
21.88839 48.000
21.90834 48.000
21.92828 47.000
21.94823 40.000
21.96818 47.000
21.98812 38.000
22.00807 51.000
22.02802 43.000
22.04796 47.000
22.06791 48.000
22.08786 53.000
22.10781 47.000
22.12775 52.000
22.14770 36.000
22.16765 42.000
22.18759 56.000
22.20754 38.000
22.22749 45.000
22.24743 44.000
22.26738 51.000
22.28733 42.000
22.30728 33.000
22.32722 43.000
22.34717 40.000
22.36712 44.000
22.38706 47.000
22.40701 44.000
22.42696 57.000
22.44690 61.000
22.46685 37.000
22.48680 40.000
22.50675 48.000
22.52669 41.000
22.54664 49.000
22.56659 48.000
22.58653 60.000
22.60648 46.000
22.62643 36.000
22.64637 46.000
22.66632 44.000
22.68627 52.000
22.70621 41.000
22.72616 51.000
22.74611 61.000
22.76606 59.000
22.78600 47.000
22.80595 57.000
22.82590 50.000
22.84584 62.000
22.86579 61.000
22.88574 54.000
22.90568 64.000
22.92563 47.000
22.94558 40.000
22.96553 50.000
22.98547 52.000
23.00542 40.000
23.02537 53.000
23.04531 54.000
23.06526 57.000
23.08521 47.000
23.10515 46.000
23.12510 40.000
23.14505 48.000
23.16499 50.000
23.18494 42.000
23.20489 59.000
23.22484 66.000
23.24478 58.000
23.26473 67.000
23.28468 37.000
23.30462 58.000
23.32457 36.000
23.34452 40.000
23.36446 45.000
23.38441 48.000
23.40436 64.000
23.42431 43.000
23.44425 52.000
23.46420 57.000
23.48415 60.000
23.50409 57.000
23.52404 43.000
23.54399 37.000
23.56393 52.000
23.58388 35.000
23.60383 50.000
23.62377 55.000
23.64372 49.000
23.66367 61.000
23.68362 50.000
23.70356 37.000
23.72351 44.000
23.74346 47.000
23.76340 50.000
23.78335 51.000
23.80330 40.000
23.82324 36.000
23.84319 58.000
23.86314 57.000
23.88309 61.000
23.90303 51.000
23.92298 56.000
23.94293 52.000
23.96287 48.000
23.98282 42.000
24.00277 56.000
24.02271 39.000
24.04266 53.000
24.06261 47.000
24.08256 53.000
24.10250 54.000
24.12245 50.000
24.14240 33.000
24.16234 45.000
24.18229 42.000
24.20224 43.000
24.22218 53.000
24.24213 51.000
24.26208 35.000
24.28202 57.000
24.30197 48.000
24.32192 46.000
24.34187 43.000
24.36181 43.000
24.38176 46.000
24.40171 46.000
24.42165 49.000
24.44160 42.000
24.46155 39.000
24.48149 63.000
24.50144 53.000
24.52139 43.000
24.54134 58.000
24.56128 62.000
24.58123 43.000
24.60118 61.000
24.62112 51.000
24.64107 50.000
24.66102 45.000
24.68096 51.000
24.70091 55.000
24.72086 39.000
24.74080 66.000
24.76075 51.000
24.78070 47.000
24.80065 59.000
24.82059 48.000
24.84054 40.000
24.86049 65.000
24.88043 49.000
24.90038 68.000
24.92033 49.000
24.94027 51.000
24.96022 49.000
24.98017 38.000
25.00012 52.000
25.02006 50.000
25.04001 44.000
25.05996 67.000
25.07990 52.000
25.09985 49.000
25.11980 55.000
25.13974 59.000
25.15969 59.000
25.17964 48.000
25.19958 48.000
25.21953 53.000
25.23948 59.000
25.25943 59.000
25.27937 44.000
25.29932 47.000
25.31927 56.000
25.33921 69.000
25.35916 60.000
25.37911 59.000
25.39905 56.000
25.41900 36.000
25.43895 48.000
25.45890 50.000
25.47884 51.000
25.49879 63.000
25.51874 53.000
25.53868 50.000
25.55863 57.000
25.57858 56.000
25.59852 66.000
25.61847 50.000
25.63842 46.000
25.65837 55.000
25.67831 50.000
25.69826 45.000
25.71821 46.000
25.73815 43.000
25.75810 61.000
25.77805 61.000
25.79799 59.000
25.81794 67.000
25.83789 58.000
25.85783 54.000
25.87778 76.000
25.89773 58.000
25.91768 51.000
25.93762 66.000
25.95757 52.000
25.97752 53.000
25.99746 77.000
26.01741 47.000
26.03736 62.000
26.05730 57.000
26.07725 64.000
26.09720 57.000
26.11715 46.000
26.13709 63.000
26.15704 49.000
26.17699 58.000
26.19693 36.000
26.21688 49.000
26.23683 56.000
26.25677 68.000
26.27672 60.000
26.29667 45.000
26.31661 54.000
26.33656 56.000
26.35651 56.000
26.37646 51.000
26.39640 69.000
26.41635 69.000
26.43630 52.000
26.45624 67.000
26.47619 54.000
26.49614 56.000
26.51608 61.000
26.53603 72.000
26.55598 54.000
26.57593 61.000
26.59587 71.000
26.61582 57.000
26.63577 56.000
26.65571 53.000
26.67566 54.000
26.69561 55.000
26.71555 65.000
26.73550 73.000
26.75545 68.000
26.77539 56.000
26.79534 57.000
26.81529 70.000
26.83524 64.000
26.85518 68.000
26.87513 51.000
26.89508 60.000
26.91502 53.000
26.93497 60.000
26.95492 53.000
26.97486 69.000
26.99481 62.000
27.01476 69.000
27.03471 51.000
27.05465 59.000
27.07460 61.000
27.09455 56.000
27.11449 67.000
27.13444 82.000
27.15439 51.000
27.17433 54.000
27.19428 61.000
27.21423 58.000
27.23417 59.000
27.25412 57.000
27.27407 55.000
27.29402 52.000
27.31396 62.000
27.33391 62.000
27.35386 60.000
27.37380 65.000
27.39375 58.000
27.41370 56.000
27.43364 76.000
27.45359 67.000
27.47354 73.000
27.49349 46.000
27.51343 51.000
27.53338 54.000
27.55333 63.000
27.57327 58.000
27.59322 65.000
27.61317 55.000
27.63311 59.000
27.65306 64.000
27.67301 54.000
27.69296 47.000
27.71290 62.000
27.73285 68.000
27.75280 72.000
27.77274 59.000
27.79269 62.000
27.81264 61.000
27.83258 59.000
27.85253 56.000
27.87248 67.000
27.89242 58.000
27.91237 65.000
27.93232 64.000
27.95227 54.000
27.97221 57.000
27.99216 75.000
28.01211 71.000
28.03205 58.000
28.05200 62.000
28.07195 64.000
28.09189 58.000
28.11184 54.000
28.13179 68.000
28.15174 55.000
28.17168 69.000
28.19163 72.000
28.21158 72.000
28.23152 64.000
28.25147 64.000
28.27142 70.000
28.29136 67.000
28.31131 70.000
28.33126 47.000
28.35120 52.000
28.37115 51.000
28.39110 77.000
28.41105 69.000
28.43099 69.000
28.45094 52.000
28.47089 65.000
28.49083 62.000
28.51078 63.000
28.53073 57.000
28.55067 64.000
28.57062 67.000
28.59057 69.000
28.61052 86.000
28.63046 57.000
28.65041 72.000
28.67036 64.000
28.69030 73.000
28.71025 78.000
28.73020 59.000
28.75014 55.000
28.77009 59.000
28.79004 69.000
28.80998 77.000
28.82993 70.000
28.84988 72.000
28.86983 65.000
28.88977 60.000
28.90972 70.000
28.92967 79.000
28.94961 84.000
28.96956 73.000
28.98951 67.000
29.00945 56.000
29.02940 49.000
29.04935 64.000
29.06930 77.000
29.08924 65.000
29.10919 56.000
29.12914 70.000
29.14908 54.000
29.16903 65.000
29.18898 62.000
29.20892 64.000
29.22887 64.000
29.24882 68.000
29.26877 70.000
29.28871 62.000
29.30866 69.000
29.32861 80.000
29.34855 83.000
29.36850 74.000
29.38845 76.000
29.40839 105.000
29.42834 92.000
29.44829 120.000
29.46823 140.000
29.48818 160.000
29.50813 165.000
29.52808 169.000
29.54802 173.000
29.56797 209.000
29.58792 184.000
29.60786 171.000
29.62781 170.000
29.64776 146.000
29.66770 133.000
29.68765 117.000
29.70760 107.000
29.72755 95.000
29.74749 90.000
29.76744 82.000
29.78739 80.000
29.80733 100.000
29.82728 75.000
29.84723 89.000
29.86717 86.000
29.88712 90.000
29.90707 68.000
29.92701 85.000
29.94696 100.000
29.96691 74.000
29.98686 68.000
30.00680 75.000
30.02675 82.000
30.04670 79.000
30.06664 73.000
30.08659 79.000
30.10654 54.000
30.12648 71.000
30.14643 66.000
30.16638 85.000
30.18633 66.000
30.20627 70.000
30.22622 63.000
30.24617 81.000
30.26611 62.000
30.28606 82.000
30.30601 59.000
30.32595 74.000
30.34590 71.000
30.36585 52.000
30.38579 56.000
30.40574 84.000
30.42569 76.000
30.44564 72.000
30.46558 82.000
30.48553 46.000
30.50548 70.000
30.52542 71.000
30.54537 68.000
30.56532 57.000
30.58526 75.000
30.60521 82.000
30.62516 73.000
30.64511 73.000
30.66505 82.000
30.68500 72.000
30.70495 71.000
30.72489 71.000
30.74484 58.000
30.76479 74.000
30.78473 68.000
30.80468 83.000
30.82463 77.000
30.84458 75.000
30.86452 61.000
30.88447 75.000
30.90442 65.000
30.92436 65.000
30.94431 66.000
30.96426 59.000
30.98420 74.000
31.00415 57.000
31.02410 57.000
31.04404 67.000
31.06399 66.000
31.08394 64.000
31.10389 60.000
31.12383 70.000
31.14378 79.000
31.16373 85.000
31.18367 88.000
31.20362 85.000
31.22357 70.000
31.24351 83.000
31.26346 85.000
31.28341 86.000
31.30336 70.000
31.32330 90.000
31.34325 105.000
31.36320 109.000
31.38314 105.000
31.40309 125.000
31.42304 171.000
31.44298 175.000
31.46293 232.000
31.48288 218.000
31.50282 266.000
31.52277 292.000
31.54272 298.000
31.56267 321.000
31.58261 300.000
31.60256 310.000
31.62251 316.000
31.64245 257.000
31.66240 209.000
31.68235 168.000
31.70229 157.000
31.72224 152.000
31.74219 107.000
31.76214 97.000
31.78208 83.000
31.80203 93.000
31.82198 75.000
31.84192 64.000
31.86187 76.000
31.88182 74.000
31.90176 69.000
31.92171 77.000
31.94166 66.000
31.96160 68.000
31.98155 70.000
32.00150 67.000
32.02145 69.000
32.04139 77.000
32.06134 64.000
32.08129 82.000
32.10123 66.000
32.12118 71.000
32.14113 72.000
32.16107 65.000
32.18102 63.000
32.20097 67.000
32.22092 66.000
32.24086 76.000
32.26081 69.000
32.28076 63.000
32.30070 61.000
32.32065 67.000
32.34060 82.000
32.36054 72.000
32.38049 60.000
32.40044 79.000
32.42039 58.000
32.44033 74.000
32.46028 74.000
32.48023 60.000
32.50017 64.000
32.52012 62.000
32.54007 79.000
32.56001 76.000
32.57996 61.000
32.59991 57.000
32.61985 78.000
32.63980 59.000
32.65975 70.000
32.67970 60.000
32.69964 65.000
32.71959 77.000
32.73954 70.000
32.75948 69.000
32.77943 62.000
32.79938 89.000
32.81932 69.000
32.83927 72.000
32.85922 72.000
32.87917 66.000
32.89911 57.000
32.91906 70.000
32.93901 65.000
32.95895 67.000
32.97890 74.000
32.99885 63.000
33.01879 54.000
33.03874 62.000
33.05869 74.000
33.07863 66.000
33.09858 59.000
33.11853 62.000
33.13848 66.000
33.15842 67.000
33.17837 54.000
33.19832 53.000
33.21826 60.000
33.23821 73.000
33.25816 48.000
33.27810 61.000
33.29805 54.000
33.31800 49.000
33.33795 68.000
33.35789 72.000
33.37784 60.000
33.39779 55.000
33.41773 66.000
33.43768 52.000
33.45763 71.000
33.47757 51.000
33.49752 74.000
33.51747 56.000
33.53741 63.000
33.55736 67.000
33.57731 80.000
33.59726 66.000
33.61720 60.000
33.63715 51.000
33.65710 61.000
33.67704 56.000
33.69699 55.000
33.71694 58.000
33.73688 49.000
33.75683 64.000
33.77678 67.000
33.79673 60.000
33.81667 51.000
33.83662 72.000
33.85657 60.000
33.87651 52.000
33.89646 69.000
33.91641 49.000
33.93635 69.000
33.95630 40.000
33.97625 71.000
33.99620 64.000
34.01614 75.000
34.03609 84.000
34.05604 67.000
34.07598 68.000
34.09593 85.000
34.11588 74.000
34.13582 76.000
34.15577 82.000
34.17572 99.000
34.19566 85.000
34.21561 102.000
34.23556 89.000
34.25551 105.000
34.27545 112.000
34.29540 96.000
34.31535 112.000
34.33529 106.000
34.35524 127.000
34.37519 103.000
34.39513 109.000
34.41508 111.000
34.43503 124.000
34.45498 101.000
34.47492 125.000
34.49487 84.000
34.51482 106.000
34.53476 124.000
34.55471 115.000
34.57466 120.000
34.59460 116.000
34.61455 118.000
34.63450 116.000
34.65444 130.000
34.67439 143.000
34.69434 199.000
34.71429 224.000
34.73423 235.000
34.75418 296.000
34.77413 341.000
34.79407 405.000
34.81402 452.000
34.83397 485.000
34.85391 470.000
34.87386 430.000
34.89381 429.000
34.91376 371.000
34.93370 354.000
34.95365 315.000
34.97360 253.000
34.99354 254.000
35.01349 207.000
35.03344 163.000
35.05338 160.000
35.07333 158.000
35.09328 143.000
35.11322 125.000
35.13317 160.000
35.15312 192.000
35.17307 199.000
35.19301 252.000
35.21296 314.000
35.23291 335.000
35.25285 395.000
35.27280 425.000
35.29275 409.000
35.31269 409.000
35.33264 370.000
35.35259 364.000
35.37254 328.000
35.39248 296.000
35.41243 235.000
35.43238 187.000
35.45232 197.000
35.47227 174.000
35.49222 143.000
35.51216 124.000
35.53211 114.000
35.55206 88.000
35.57201 85.000
35.59195 78.000
35.61190 75.000
35.63185 58.000
35.65179 71.000
35.67174 72.000
35.69169 80.000
35.71163 52.000
35.73158 54.000
35.75153 64.000
35.77147 73.000
35.79142 67.000
35.81137 63.000
35.83132 76.000
35.85126 65.000
35.87121 55.000
35.89116 61.000
35.91110 64.000
35.93105 71.000
35.95100 57.000
35.97094 59.000
35.99089 72.000
36.01084 54.000
36.03079 82.000
36.05073 51.000
36.07068 69.000
36.09063 92.000
36.11057 102.000
36.13052 89.000
36.15047 93.000
36.17041 103.000
36.19036 104.000
36.21031 102.000
36.23025 98.000
36.25020 86.000
36.27015 97.000
36.29010 69.000
36.31004 87.000
36.32999 68.000
36.34994 64.000
36.36988 94.000
36.38983 91.000
36.40978 87.000
36.42972 86.000
36.44967 81.000
36.46962 83.000
36.48957 90.000
36.50951 69.000
36.52946 69.000
36.54941 60.000
36.56935 69.000
36.58930 73.000
36.60925 60.000
36.62919 65.000
36.64914 52.000
36.66909 40.000
36.68903 53.000
36.70898 62.000
36.72893 50.000
36.74888 49.000
36.76882 50.000
36.78877 50.000
36.80872 53.000
36.82866 51.000
36.84861 52.000
36.86856 55.000
36.88850 46.000
36.90845 62.000
36.92840 46.000
36.94835 36.000
36.96829 77.000
36.98824 36.000
37.00819 51.000
37.02813 46.000
37.04808 42.000
37.06803 55.000
37.08797 59.000
37.10792 44.000
37.12787 53.000
37.14781 40.000
37.16776 39.000
37.18771 36.000
37.20766 59.000
37.22760 39.000
37.24755 49.000
37.26750 40.000
37.28744 42.000
37.30739 35.000
37.32734 38.000
37.34728 61.000
37.36723 56.000
37.38718 49.000
37.40713 58.000
37.42707 44.000
37.44702 48.000
37.46697 50.000
37.48691 39.000
37.50686 47.000
37.52681 55.000
37.54675 54.000
37.56670 47.000
37.58665 49.000
37.60660 38.000
37.62654 43.000
37.64649 48.000
37.66644 54.000
37.68638 46.000
37.70633 64.000
37.72628 53.000
37.74622 56.000
37.76617 61.000
37.78612 54.000
37.80606 54.000
37.82601 63.000
37.84596 53.000
37.86591 47.000
37.88585 59.000
37.90580 54.000
37.92575 50.000
37.94569 62.000
37.96564 57.000
37.98559 54.000
38.00553 57.000
38.02548 50.000
38.04543 48.000
38.06538 56.000
38.08532 49.000
38.10527 54.000
38.12522 53.000
38.14516 49.000
38.16511 63.000
38.18506 43.000
38.20500 61.000
38.22495 66.000
38.24490 72.000
38.26484 74.000
38.28479 64.000
38.30474 67.000
38.32469 86.000
38.34463 64.000
38.36458 75.000
38.38453 82.000
38.40447 81.000
38.42442 80.000
38.44437 80.000
38.46431 82.000
38.48426 78.000
38.50421 117.000
38.52416 125.000
38.54410 106.000
38.56405 102.000
38.58400 137.000
38.60394 155.000
38.62389 155.000
38.64384 163.000
38.66378 185.000
38.68373 217.000
38.70368 276.000
38.72362 402.000
38.74357 478.000
38.76352 550.000
38.78347 659.000
38.80341 801.000
38.82336 840.000
38.84331 820.000
38.86325 817.000
38.88320 709.000
38.90315 700.000
38.92309 637.000
38.94304 531.000
38.96299 490.000
38.98294 340.000
39.00288 285.000
39.02283 253.000
39.04278 210.000
39.06272 162.000
39.08267 159.000
39.10262 112.000
39.12256 125.000
39.14251 115.000
39.16246 87.000
39.18241 82.000
39.20235 77.000
39.22230 74.000
39.24225 53.000
39.26219 72.000
39.28214 41.000
39.30209 69.000
39.32203 61.000
39.34198 50.000
39.36193 61.000
39.38187 65.000
39.40182 52.000
39.42177 60.000
39.44172 55.000
39.46166 56.000
39.48161 38.000
39.50156 47.000
39.52150 65.000
39.54145 45.000
39.56140 54.000
39.58134 52.000
39.60129 54.000
39.62124 55.000
39.64119 45.000
39.66113 39.000
39.68108 50.000
39.70103 49.000
39.72097 48.000
39.74092 52.000
39.76087 53.000
39.78081 54.000
39.80076 39.000
39.82071 51.000
39.84065 47.000
39.86060 40.000
39.88055 58.000
39.90050 50.000
39.92044 47.000
39.94039 39.000
39.96034 35.000
39.98028 47.000
40.00023 46.000
40.02018 42.000
40.04012 48.000
40.06007 40.000
40.08002 42.000
40.09997 42.000
40.11991 59.000
40.13986 44.000
40.15981 37.000
40.17975 45.000
40.19970 54.000
40.21965 40.000
40.23959 52.000
40.25954 33.000
40.27949 53.000
40.29943 40.000
40.31938 39.000
40.33933 42.000
40.35928 34.000
40.37922 43.000
40.39917 42.000
40.41912 43.000
40.43906 32.000
40.45901 32.000
40.47896 32.000
40.49890 39.000
40.51885 43.000
40.53880 39.000
40.55875 48.000
40.57869 38.000
40.59864 51.000
40.61859 41.000
40.63853 35.000
40.65848 42.000
40.67843 39.000
40.69837 38.000
40.71832 52.000
40.73827 39.000
40.75822 53.000
40.77816 49.000
40.79811 43.000
40.81806 43.000
40.83800 43.000
40.85795 43.000
40.87790 39.000
40.89784 45.000
40.91779 49.000
40.93774 49.000
40.95768 46.000
40.97763 45.000
40.99758 43.000
41.01753 61.000
41.03747 49.000
41.05742 45.000
41.07737 44.000
41.09731 46.000
41.11726 42.000
41.13721 49.000
41.15715 43.000
41.17710 33.000
41.19705 28.000
41.21700 37.000
41.23694 46.000
41.25689 34.000
41.27684 54.000
41.29678 48.000
41.31673 43.000
41.33668 50.000
41.35662 58.000
41.37657 60.000
41.39652 36.000
41.41646 49.000
41.43641 43.000
41.45636 29.000
41.47631 52.000
41.49625 43.000
41.51620 42.000
41.53615 36.000
41.55609 51.000
41.57604 45.000
41.59599 37.000
41.61593 51.000
41.63588 37.000
41.65583 49.000
41.67578 40.000
41.69572 48.000
41.71567 32.000
41.73562 41.000
41.75556 45.000
41.77551 35.000
41.79546 32.000
41.81540 44.000
41.83535 46.000
41.85530 51.000
41.87524 42.000
41.89519 36.000
41.91514 50.000
41.93509 43.000
41.95503 27.000
41.97498 49.000
41.99493 50.000
42.01487 60.000
42.03482 47.000
42.05477 43.000
42.07471 60.000
42.09466 40.000
42.11461 42.000
42.13456 58.000
42.15450 57.000
42.17445 59.000
42.19440 63.000
42.21434 61.000
42.23429 82.000
42.25424 90.000
42.27418 95.000
42.29413 116.000
42.31408 144.000
42.33403 139.000
42.35397 148.000
42.37392 167.000
42.39387 150.000
42.41381 167.000
42.43376 183.000
42.45371 172.000
42.47365 160.000
42.49360 134.000
42.51355 136.000
42.53349 119.000
42.55344 115.000
42.57339 128.000
42.59334 118.000
42.61328 88.000
42.63323 77.000
42.65318 88.000
42.67312 96.000
42.69307 83.000
42.71302 94.000
42.73296 104.000
42.75291 104.000
42.77286 141.000
42.79281 167.000
42.81275 210.000
42.83270 217.000
42.85265 288.000
42.87259 341.000
42.89254 325.000
42.91249 360.000
42.93243 347.000
42.95238 311.000
42.97233 292.000
42.99227 294.000
43.01222 274.000
43.03217 246.000
43.05212 200.000
43.07206 175.000
43.09201 152.000
43.11196 133.000
43.13190 121.000
43.15185 95.000
43.17180 64.000
43.19174 68.000
43.21169 65.000
43.23164 46.000
43.25159 49.000
43.27153 51.000
43.29148 59.000
43.31143 60.000
43.33137 57.000
43.35132 45.000
43.37127 39.000
43.39121 49.000
43.41116 42.000
43.43111 47.000
43.45105 33.000
43.47100 38.000
43.49095 34.000
43.51090 57.000
43.53084 34.000
43.55079 42.000
43.57074 40.000
43.59068 45.000
43.61063 39.000
43.63058 44.000
43.65052 35.000
43.67047 38.000
43.69042 32.000
43.71037 34.000
43.73031 44.000
43.75026 36.000
43.77021 39.000
43.79015 31.000
43.81010 42.000
43.83005 34.000
43.84999 40.000
43.86994 46.000
43.88989 33.000
43.90984 40.000
43.92978 51.000
43.94973 34.000
43.96968 43.000
43.98962 40.000
44.00957 39.000
44.02952 31.000
44.04946 49.000
44.06941 35.000
44.08936 46.000
44.10930 42.000
44.12925 29.000
44.14920 39.000
44.16915 29.000
44.18909 37.000
44.20904 35.000
44.22899 32.000
44.24893 50.000
44.26888 37.000
44.28883 33.000
44.30877 29.000
44.32872 34.000
44.34867 33.000
44.36862 43.000
44.38856 36.000
44.40851 32.000
44.42846 40.000
44.44840 34.000
44.46835 44.000
44.48830 32.000
44.50824 37.000
44.52819 32.000
44.54814 37.000
44.56808 31.000
44.58803 29.000
44.60798 34.000
44.62793 32.000
44.64787 40.000
44.66782 41.000
44.68777 25.000
44.70771 41.000
44.72766 36.000
44.74761 37.000
44.76755 33.000
44.78750 32.000
44.80745 24.000
44.82740 33.000
44.84734 41.000
44.86729 38.000
44.88724 28.000
44.90718 35.000
44.92713 33.000
44.94708 29.000
44.96702 34.000
44.98697 42.000
45.00692 28.000
45.02686 29.000
45.04681 42.000
45.06676 37.000
45.08671 36.000
45.10665 34.000
45.12660 42.000
45.14655 41.000
45.16649 32.000
45.18644 30.000
45.20639 37.000
45.22633 33.000
45.24628 34.000
45.26623 35.000
45.28618 37.000
45.30612 44.000
45.32607 33.000
45.34602 28.000
45.36596 41.000
45.38591 48.000
45.40586 31.000
45.42580 29.000
45.44575 31.000
45.46570 50.000
45.48565 32.000
45.50559 40.000
45.52554 32.000
45.54549 27.000
45.56543 53.000
45.58538 33.000
45.60533 32.000
45.62527 39.000
45.64522 37.000
45.66517 30.000
45.68511 39.000
45.70506 28.000
45.72501 34.000
45.74496 36.000
45.76490 29.000
45.78485 35.000
45.80480 27.000
45.82474 33.000
45.84469 31.000
45.86464 38.000
45.88458 29.000
45.90453 38.000
45.92448 28.000
45.94443 31.000
45.96437 36.000
45.98432 37.000
46.00427 38.000
46.02421 41.000
46.04416 41.000
46.06411 33.000
46.08405 33.000
46.10400 31.000
46.12395 40.000
46.14389 36.000
46.16384 27.000
46.18379 41.000
46.20374 47.000
46.22368 32.000
46.24363 26.000
46.26358 37.000
46.28352 33.000
46.30347 37.000
46.32342 36.000
46.34336 40.000
46.36331 30.000
46.38326 26.000
46.40321 38.000
46.42315 33.000
46.44310 45.000
46.46305 38.000
46.48299 39.000
46.50294 28.000
46.52289 27.000
46.54283 22.000
46.56278 35.000
46.58273 40.000
46.60267 35.000
46.62262 34.000
46.64257 38.000
46.66252 40.000
46.68246 42.000
46.70241 26.000
46.72236 41.000
46.74230 46.000
46.76225 32.000
46.78220 35.000
46.80214 53.000
46.82209 35.000
46.84204 33.000
46.86199 27.000
46.88193 42.000
46.90188 43.000
46.92183 27.000
46.94177 47.000
46.96172 40.000
46.98167 45.000
47.00161 29.000
47.02156 40.000
47.04151 25.000
47.06146 47.000
47.08140 40.000
47.10135 37.000
47.12130 41.000
47.14124 29.000
47.16119 35.000
47.18114 45.000
47.20108 28.000
47.22103 34.000
47.24098 36.000
47.26092 37.000
47.28087 50.000
47.30082 39.000
47.32077 36.000
47.34071 46.000
47.36066 40.000
47.38061 45.000
47.40055 34.000
47.42050 35.000
47.44045 39.000
47.46039 44.000
47.48034 58.000
47.50029 40.000
47.52024 58.000
47.54018 52.000
47.56013 54.000
47.58008 61.000
47.60002 54.000
47.61997 57.000
47.63992 52.000
47.65986 58.000
47.67981 67.000
47.69976 62.000
47.71970 65.000
47.73965 67.000
47.75960 79.000
47.77955 73.000
47.79949 82.000
47.81944 81.000
47.83939 95.000
47.85933 86.000
47.87928 103.000
47.89923 115.000
47.91917 128.000
47.93912 120.000
47.95907 139.000
47.97902 167.000
47.99896 214.000
48.01891 274.000
48.03886 330.000
48.05880 390.000
48.07875 496.000
48.09870 605.000
48.11864 666.000
48.13859 777.000
48.15854 766.000
48.17848 723.000
48.19843 675.000
48.21838 627.000
48.23833 564.000
48.25827 534.000
48.27822 481.000
48.29817 455.000
48.31811 406.000
48.33806 319.000
48.35801 246.000
48.37795 214.000
48.39790 169.000
48.41785 155.000
48.43780 127.000
48.45774 109.000
48.47769 92.000
48.49764 86.000
48.51758 67.000
48.53753 67.000
48.55748 66.000
48.57742 55.000
48.59737 62.000
48.61732 74.000
48.63726 58.000
48.65721 54.000
48.67716 48.000
48.69711 49.000
48.71705 46.000
48.73700 45.000
48.75695 43.000
48.77689 52.000
48.79684 31.000
48.81679 41.000
48.83673 41.000
48.85668 48.000
48.87663 40.000
48.89658 41.000
48.91652 31.000
48.93647 35.000
48.95642 41.000
48.97636 26.000
48.99631 32.000
49.01626 40.000
49.03620 41.000
49.05615 32.000
49.07610 51.000
49.09605 34.000
49.11599 35.000
49.13594 29.000
49.15589 32.000
49.17583 32.000
49.19578 27.000
49.21573 29.000
49.23567 30.000
49.25562 41.000
49.27557 53.000
49.29551 50.000
49.31546 42.000
49.33541 41.000
49.35536 31.000
49.37530 42.000
49.39525 39.000
49.41520 30.000
49.43514 30.000
49.45509 40.000
49.47504 31.000
49.49498 37.000
49.51493 39.000
49.53488 37.000
49.55483 33.000
49.57477 37.000
49.59472 38.000
49.61467 33.000
49.63461 29.000
49.65456 28.000
49.67451 32.000
49.69445 32.000
49.71440 32.000
49.73435 33.000
49.75429 27.000
49.77424 37.000
49.79419 33.000
49.81414 32.000
49.83408 40.000
49.85403 32.000
49.87398 30.000
49.89392 27.000
49.91387 32.000
49.93382 37.000
49.95376 34.000
49.97371 37.000
49.99366 34.000
50.01361 41.000
50.03355 34.000
50.05350 41.000
50.07345 35.000
50.09339 41.000
50.11334 33.000
50.13329 28.000
50.15323 21.000
50.17318 31.000
50.19313 29.000
50.21307 39.000
50.23302 33.000
50.25297 30.000
50.27292 28.000
50.29286 30.000
50.31281 18.000
50.33276 29.000
50.35270 29.000
50.37265 30.000
50.39260 37.000
50.41254 31.000
50.43249 32.000
50.45244 29.000
50.47239 27.000
50.49233 33.000
50.51228 35.000
50.53223 21.000
50.55217 33.000
50.57212 29.000
50.59207 30.000
50.61201 27.000
50.63196 29.000
50.65191 32.000
50.67186 29.000
50.69180 20.000
50.71175 27.000
50.73170 35.000
50.75164 31.000
50.77159 34.000
50.79154 34.000
50.81148 34.000
50.83143 28.000
50.85138 34.000
50.87132 27.000
50.89127 30.000
50.91122 35.000
50.93117 21.000
50.95111 27.000
50.97106 30.000
50.99101 46.000
51.01095 37.000
51.03090 27.000
51.05085 22.000
51.07079 37.000
51.09074 34.000
51.11069 26.000
51.13064 31.000
51.15058 26.000
51.17053 20.000
51.19048 39.000
51.21042 47.000
51.23037 31.000
51.25032 37.000
51.27026 41.000
51.29021 24.000
51.31016 32.000
51.33010 23.000
51.35005 42.000
51.37000 23.000
51.38995 29.000
51.40989 25.000
51.42984 32.000
51.44979 31.000
51.46973 27.000
51.48968 25.000
51.50963 35.000
51.52957 36.000
51.54952 25.000
51.56947 33.000
51.58942 28.000
51.60936 32.000
51.62931 32.000
51.64926 32.000
51.66920 30.000
51.68915 36.000
51.70910 34.000
51.72904 30.000
51.74899 30.000
51.76894 36.000
51.78888 32.000
51.80883 24.000
51.82878 40.000
51.84873 35.000
51.86867 31.000
51.88862 29.000
51.90857 21.000
51.92851 31.000
51.94846 20.000
51.96841 40.000
51.98835 24.000
52.00830 22.000
52.02825 30.000
52.04820 31.000
52.06814 37.000
52.08809 35.000
52.10804 26.000
52.12798 37.000
52.14793 27.000
52.16788 29.000
52.18782 30.000
52.20777 27.000
52.22772 33.000
52.24767 35.000
52.26761 42.000
52.28756 36.000
52.30751 20.000
52.32745 25.000
52.34740 37.000
52.36735 32.000
52.38729 33.000
52.40724 37.000
52.42719 31.000
52.44713 31.000
52.46708 36.000
52.48703 44.000
52.50698 31.000
52.52692 42.000
52.54687 52.000
52.56682 42.000
52.58676 65.000
52.60671 43.000
52.62666 52.000
52.64660 46.000
52.66655 58.000
52.68650 58.000
52.70645 63.000
52.72639 50.000
52.74634 40.000
52.76629 34.000
52.78623 38.000
52.80618 35.000
52.82613 36.000
52.84607 42.000
52.86602 38.000
52.88597 37.000
52.90591 29.000
52.92586 32.000
52.94581 34.000
52.96576 30.000
52.98570 36.000
53.00565 40.000
53.02560 32.000
53.04554 33.000
53.06549 32.000
53.08544 36.000
53.10538 31.000
53.12533 31.000
53.14528 37.000
53.16523 25.000
53.18517 19.000
53.20512 28.000
53.22507 32.000
53.24501 29.000
53.26496 30.000
53.28491 27.000
53.30485 29.000
53.32480 31.000
53.34475 32.000
53.36469 30.000
53.38464 32.000
53.40459 25.000
53.42454 29.000
53.44448 31.000
53.46443 29.000
53.48438 26.000
53.50432 23.000
53.52427 31.000
53.54422 30.000
53.56416 33.000
53.58411 36.000
53.60406 27.000
53.62401 43.000
53.64395 32.000
53.66390 30.000
53.68385 22.000
53.70379 32.000
53.72374 34.000
53.74369 27.000
53.76363 32.000
53.78358 26.000
53.80353 24.000
53.82348 20.000
53.84342 35.000
53.86337 31.000
53.88332 34.000
53.90326 26.000
53.92321 28.000
53.94316 27.000
53.96310 29.000
53.98305 34.000
54.00300 34.000
54.02294 30.000
54.04289 38.000
54.06284 27.000
54.08279 23.000
54.10273 29.000
54.12268 23.000
54.14263 39.000
54.16257 38.000
54.18252 34.000
54.20247 29.000
54.22241 42.000
54.24236 25.000
54.26231 20.000
54.28226 34.000
54.30220 29.000
54.32215 35.000
54.34210 22.000
54.36204 37.000
54.38199 30.000
54.40194 34.000
54.42188 24.000
54.44183 26.000
54.46178 27.000
54.48172 37.000
54.50167 47.000
54.52162 41.000
54.54157 29.000
54.56151 25.000
54.58146 34.000
54.60141 33.000
54.62135 32.000
54.64130 30.000
54.66125 31.000
54.68119 41.000
54.70114 39.000
54.72109 25.000
54.74104 31.000
54.76098 26.000
54.78093 31.000
54.80088 36.000
54.82082 23.000
54.84077 31.000
54.86072 26.000
54.88066 33.000
54.90061 22.000
54.92056 40.000
54.94050 31.000
54.96045 24.000
54.98040 32.000
55.00035 32.000
55.02029 34.000
55.04024 29.000
55.06019 34.000
55.08013 36.000
55.10008 21.000
55.12003 32.000
55.13997 41.000
55.15992 26.000
55.17987 24.000
55.19982 35.000
55.21976 35.000
55.23971 36.000
55.25966 24.000
55.27960 37.000
55.29955 28.000
55.31950 38.000
55.33944 26.000
55.35939 28.000
55.37934 24.000
55.39929 35.000
55.41923 29.000
55.43918 33.000
55.45913 20.000
55.47907 29.000
55.49902 27.000
55.51897 21.000
55.53891 28.000
55.55886 46.000
55.57881 30.000
55.59875 35.000
55.61870 20.000
55.63865 35.000
55.65860 26.000
55.67854 37.000
55.69849 40.000
55.71844 27.000
55.73838 45.000
55.75833 29.000
55.77828 41.000
55.79822 35.000
55.81817 50.000
55.83812 48.000
55.85807 41.000
55.87801 52.000
55.89796 56.000
55.91791 68.000
55.93785 76.000
55.95780 101.000
55.97775 117.000
55.99769 115.000
56.01764 109.000
56.03759 98.000
56.05753 139.000
56.07748 136.000
56.09743 113.000
56.11738 148.000
56.13732 138.000
56.15727 127.000
56.17722 106.000
56.19716 103.000
56.21711 103.000
56.23706 122.000
56.25700 78.000
56.27695 70.000
56.29690 62.000
56.31685 74.000
56.33679 50.000
56.35674 44.000
56.37669 50.000
56.39663 46.000
56.41658 39.000
56.43653 35.000
56.45647 54.000
56.47642 33.000
56.49637 40.000
56.51631 39.000
56.53626 38.000
56.55621 31.000
56.57616 27.000
56.59610 35.000
56.61605 45.000
56.63600 32.000
56.65594 43.000
56.67589 42.000
56.69584 34.000
56.71578 35.000
56.73573 32.000
56.75568 31.000
56.77563 42.000
56.79557 36.000
56.81552 32.000
56.83547 28.000
56.85541 24.000
56.87536 41.000
56.89531 22.000
56.91525 31.000
56.93520 29.000
56.95515 21.000
56.97510 31.000
56.99504 25.000
57.01499 36.000
57.03494 33.000
57.05488 23.000
57.07483 28.000
57.09478 34.000
57.11472 31.000
57.13467 17.000
57.15462 21.000
57.17456 33.000
57.19451 23.000
57.21446 26.000
57.23441 23.000
57.25435 26.000
57.27430 25.000
57.29425 24.000
57.31419 27.000
57.33414 30.000
57.35409 38.000
57.37403 32.000
57.39398 30.000
57.41393 29.000
57.43388 27.000
57.45382 28.000
57.47377 25.000
57.49372 34.000
57.51366 28.000
57.53361 24.000
57.55356 35.000
57.57350 42.000
57.59345 31.000
57.61340 37.000
57.63334 30.000
57.65329 19.000
57.67324 29.000
57.69319 23.000
57.71313 34.000
57.73308 23.000
57.75303 23.000
57.77297 25.000
57.79292 43.000
57.81287 28.000
57.83281 25.000
57.85276 16.000
57.87271 29.000
57.89266 28.000
57.91260 20.000
57.93255 30.000
57.95250 25.000
57.97244 37.000
57.99239 33.000
58.01234 37.000
58.03228 31.000
58.05223 39.000
58.07218 35.000
58.09212 34.000
58.11207 34.000
58.13202 31.000
58.15197 39.000
58.17191 30.000
58.19186 31.000
58.21181 31.000
58.23175 23.000
58.25170 28.000
58.27165 44.000
58.29159 25.000
58.31154 35.000
58.33149 18.000
58.35144 43.000
58.37138 33.000
58.39133 34.000
58.41128 40.000
58.43122 29.000
58.45117 24.000
58.47112 39.000
58.49106 36.000
58.51101 27.000
58.53096 30.000
58.55090 35.000
58.57085 26.000
58.59080 30.000
58.61075 30.000
58.63069 30.000
58.65064 40.000
58.67059 30.000
58.69053 26.000
58.71048 30.000
58.73043 28.000
58.75037 30.000
58.77032 23.000
58.79027 35.000
58.81022 30.000
58.83016 28.000
58.85011 27.000
58.87006 33.000
58.89000 40.000
58.90995 31.000
58.92990 30.000
58.94984 25.000
58.96979 28.000
58.98974 31.000
59.00969 26.000
59.02963 28.000
59.04958 38.000
59.06953 28.000
59.08947 30.000
59.10942 37.000
59.12937 26.000
59.14931 39.000
59.16926 34.000
59.18921 19.000
59.20915 40.000
59.22910 33.000
59.24905 28.000
59.26900 24.000
59.28894 33.000
59.30889 38.000
59.32884 18.000
59.34878 23.000
59.36873 30.000
59.38868 36.000
59.40862 24.000
59.42857 32.000
59.44852 31.000
59.46847 32.000
59.48841 37.000
59.50836 39.000
59.52831 36.000
59.54825 35.000
59.56820 35.000
59.58815 25.000
59.60809 22.000
59.62804 34.000
59.64799 27.000
59.66793 31.000
59.68788 22.000
59.70783 31.000
59.72778 23.000
59.74772 33.000
59.76767 25.000
59.78762 24.000
59.80756 32.000
59.82751 40.000
59.84746 34.000
59.86740 35.000
59.88735 30.000
59.90730 33.000
59.92725 34.000
59.94719 42.000
59.96714 39.000
59.98709 26.000
60.00703 25.000
60.02698 27.000
60.04693 33.000
60.06687 35.000
60.08682 27.000
60.10677 22.000
60.12671 39.000
60.14666 31.000
60.16661 30.000
60.18656 31.000
60.20650 37.000
60.22645 35.000
60.24640 43.000
60.26634 30.000
60.28629 37.000
60.30624 35.000
60.32618 34.000
60.34613 35.000
60.36608 35.000
60.38603 29.000
60.40597 26.000
60.42592 33.000
60.44587 49.000
60.46581 36.000
60.48576 25.000
60.50571 32.000
60.52565 34.000
60.54560 32.000
60.56555 40.000
60.58550 34.000
60.60544 33.000
60.62539 36.000
60.64534 37.000
60.66528 31.000
60.68523 34.000
60.70518 31.000
60.72512 40.000
60.74507 37.000
60.76502 38.000
60.78496 55.000
60.80491 42.000
60.82486 54.000
60.84481 39.000
60.86475 55.000
60.88470 51.000
60.90465 49.000
60.92459 48.000
60.94454 48.000
60.96449 57.000
60.98443 78.000
61.00438 57.000
61.02433 68.000
61.04428 90.000
61.06422 77.000
61.08417 85.000
61.10412 72.000
61.12406 110.000
61.14401 130.000
61.16396 136.000
61.18390 174.000
61.20385 210.000
61.22380 249.000
61.24374 317.000
61.26369 301.000
61.28364 327.000
61.30359 305.000
61.32353 309.000
61.34348 309.000
61.36343 258.000
61.38337 247.000
61.40332 250.000
61.42327 241.000
61.44321 257.000
61.46316 271.000
61.48311 295.000
61.50306 248.000
61.52300 242.000
61.54295 213.000
61.56290 214.000
61.58284 175.000
61.60279 187.000
61.62274 175.000
61.64268 175.000
61.66263 165.000
61.68258 174.000
61.70252 156.000
61.72247 161.000
61.74242 115.000
61.76237 117.000
61.78231 114.000
61.80226 100.000
61.82221 81.000
61.84215 74.000
61.86210 94.000
61.88205 88.000
61.90199 80.000
61.92194 67.000
61.94189 64.000
61.96184 66.000
61.98178 59.000
62.00173 70.000
62.02168 48.000
62.04162 53.000
62.06157 61.000
62.08152 54.000
62.10146 44.000
62.12141 52.000
62.14136 55.000
62.16131 46.000
62.18125 49.000
62.20120 51.000
62.22115 55.000
62.24109 46.000
62.26104 49.000
62.28099 34.000
62.30093 38.000
62.32088 35.000
62.34083 37.000
62.36077 35.000
62.38072 44.000
62.40067 39.000
62.42062 43.000
62.44056 45.000
62.46051 34.000
62.48046 30.000
62.50040 27.000
62.52035 34.000
62.54030 46.000
62.56024 37.000
62.58019 42.000
62.60014 33.000
62.62009 38.000
62.64003 29.000
62.65998 34.000
62.67993 46.000
62.69987 44.000
62.71982 44.000
62.73977 28.000
62.75971 36.000
62.77966 39.000
62.79961 33.000
62.81955 45.000
62.83950 52.000
62.85945 37.000
62.87940 44.000
62.89934 33.000
62.91929 42.000
62.93924 34.000
62.95918 42.000
62.97913 42.000
62.99908 32.000
63.01902 38.000
63.03897 26.000
63.05892 47.000
63.07887 34.000
63.09881 34.000
63.11876 34.000
63.13871 40.000
63.15865 48.000
63.17860 64.000
63.19855 64.000
63.21849 50.000
63.23844 48.000
63.25839 61.000
63.27833 57.000
63.29828 78.000
63.31823 85.000
63.33818 95.000
63.35812 120.000
63.37807 156.000
63.39802 172.000
63.41796 167.000
63.43791 207.000
63.45786 226.000
63.47780 239.000
63.49775 212.000
63.51770 218.000
63.53765 203.000
63.55759 201.000
63.57754 191.000
63.59749 200.000
63.61743 183.000
63.63738 176.000
63.65733 207.000
63.67727 190.000
63.69722 163.000
63.71717 143.000
63.73712 119.000
63.75706 122.000
63.77701 118.000
63.79696 105.000
63.81690 95.000
63.83685 89.000
63.85680 84.000
63.87674 65.000
63.89669 67.000
63.91664 63.000
63.93658 44.000
63.95653 51.000
63.97648 46.000
63.99643 43.000
64.01637 51.000
64.03632 52.000
64.05627 45.000
64.07621 29.000
64.09616 51.000
64.11611 42.000
64.13605 50.000
64.15600 31.000
64.17595 30.000
64.19590 25.000
64.21584 39.000
64.23579 23.000
64.25574 27.000
64.27568 36.000
64.29563 44.000
64.31558 52.000
64.33552 29.000
64.35547 43.000
64.37542 32.000
64.39536 31.000
64.41531 38.000
64.43526 33.000
64.45521 23.000
64.47515 33.000
64.49510 38.000
64.51505 28.000
64.53499 31.000
64.55494 28.000
64.57489 33.000
64.59483 37.000
64.61478 29.000
64.63473 39.000
64.65468 36.000
64.67462 31.000
64.69457 29.000
64.71452 39.000
64.73446 40.000
64.75441 39.000
64.77436 37.000
64.79430 37.000
64.81425 33.000
64.83420 31.000
64.85414 36.000
64.87409 38.000
64.89404 39.000
64.91399 40.000
64.93393 33.000
64.95388 40.000
64.97383 32.000
64.99377 39.000
65.01372 32.000
65.03367 39.000
65.05361 36.000
65.07356 36.000
65.09351 36.000
65.11346 41.000
65.13340 37.000
65.15335 30.000
65.17330 34.000
65.19324 34.000
65.21319 29.000
65.23314 28.000
65.25308 38.000
65.27303 36.000
65.29298 36.000
65.31293 42.000
65.33287 31.000
65.35282 35.000
65.37277 27.000
65.39271 32.000
65.41266 31.000
65.43261 37.000
65.45255 35.000
65.47250 43.000
65.49245 43.000
65.51239 42.000
65.53234 42.000
65.55229 44.000
65.57224 48.000
65.59218 56.000
65.61213 56.000
65.63208 55.000
65.65202 55.000
65.67197 71.000
65.69192 68.000
65.71186 81.000
65.73181 91.000
65.75176 98.000
65.77171 111.000
65.79165 148.000
65.81160 182.000
65.83155 157.000
65.85149 158.000
65.87144 169.000
65.89139 169.000
65.91133 177.000
65.93128 142.000
65.95123 156.000
65.97117 132.000
65.99112 155.000
66.01107 164.000
66.03102 157.000
66.05096 152.000
66.07091 129.000
66.09086 133.000
66.11080 119.000
66.13075 140.000
66.15070 117.000
66.17064 85.000
66.19059 115.000
66.21054 91.000
66.23049 98.000
66.25043 73.000
66.27038 68.000
66.29033 67.000
66.31027 64.000
66.33022 56.000
66.35017 71.000
66.37011 57.000
66.39006 57.000
66.41001 53.000
66.42995 48.000
66.44990 60.000
66.46985 53.000
66.48980 46.000
66.50974 26.000
66.52969 43.000
66.54964 38.000
66.56958 37.000
66.58953 41.000
66.60948 34.000
66.62942 36.000
66.64937 28.000
66.66932 35.000
66.68927 31.000
66.70921 34.000
66.72916 29.000
66.74911 30.000
66.76905 28.000
66.78900 24.000
66.80895 28.000
66.82889 22.000
66.84884 30.000
66.86879 31.000
66.88874 36.000
66.90868 27.000
66.92863 22.000
66.94858 26.000
66.96852 38.000
66.98847 19.000
67.00842 31.000
67.02836 24.000
67.04831 26.000
67.06826 24.000
67.08820 27.000
67.10815 29.000
67.12810 37.000
67.14805 32.000
67.16799 30.000
67.18794 30.000
67.20789 33.000
67.22783 30.000
67.24778 21.000
67.26773 23.000
67.28767 22.000
67.30762 34.000
67.32757 30.000
67.34752 23.000
67.36746 31.000
67.38741 18.000
67.40736 33.000
67.42730 21.000
67.44725 23.000
67.46720 36.000
67.48714 31.000
67.50709 35.000
67.52704 29.000
67.54698 30.000
67.56693 25.000
67.58688 29.000
67.60683 31.000
67.62677 28.000
67.64672 22.000
67.66667 23.000
67.68661 24.000
67.70656 32.000
67.72651 29.000
67.74645 25.000
67.76640 29.000
67.78635 18.000
67.80630 20.000
67.82624 13.000
67.84619 26.000
67.86614 23.000
67.88608 18.000
67.90603 26.000
67.92598 21.000
67.94592 23.000
67.96587 24.000
67.98582 18.000
68.00576 14.000
68.02571 26.000
68.04566 22.000
68.06561 31.000
68.08555 25.000
68.10550 20.000
68.12545 20.000
68.14539 15.000
68.16534 30.000
68.18529 26.000
68.20523 30.000
68.22518 24.000
68.24513 27.000
68.26508 21.000
68.28502 34.000
68.30497 17.000
68.32492 27.000
68.34486 30.000
68.36481 29.000
68.38476 33.000
68.40470 15.000
68.42465 32.000
68.44460 25.000
68.46455 23.000
68.48449 20.000
68.50444 28.000
68.52439 27.000
68.54433 38.000
68.56428 21.000
68.58423 32.000
68.60417 23.000
68.62412 23.000
68.64407 22.000
68.66401 22.000
68.68396 30.000
68.70391 22.000
68.72386 26.000
68.74380 23.000
68.76375 24.000
68.78370 17.000
68.80364 16.000
68.82359 29.000
68.84354 34.000
68.86348 32.000
68.88343 31.000
68.90338 39.000
68.92333 27.000
68.94327 36.000
68.96322 24.000
68.98317 31.000
69.00311 24.000
69.02306 32.000
69.04301 21.000
69.06295 28.000
69.08290 26.000
69.10285 30.000
69.12279 22.000
69.14274 26.000
69.16269 27.000
69.18264 22.000
69.20258 29.000
69.22253 30.000
69.24248 33.000
69.26242 25.000
69.28237 24.000
69.30232 12.000
69.32226 20.000
69.34221 26.000
69.36216 22.000
69.38211 19.000
69.40205 33.000
69.42200 29.000
69.44195 24.000
69.46189 25.000
69.48184 28.000
69.50179 17.000
69.52173 33.000
69.54168 28.000
69.56163 25.000
69.58157 27.000
69.60152 17.000
69.62147 31.000
69.64142 30.000
69.66136 26.000
69.68131 26.000
69.70126 31.000
69.72120 18.000
69.74115 32.000
69.76110 34.000
69.78104 29.000
69.80099 28.000
69.82094 21.000
69.84089 30.000
69.86083 26.000
69.88078 32.000
69.90073 40.000
69.92067 29.000
69.94062 20.000
69.96057 28.000
69.98051 23.000
70.00046 35.000
70.02041 15.000
70.04035 30.000
70.06030 32.000
70.08025 41.000
70.10020 31.000
70.12014 27.000
70.14009 27.000
70.16004 26.000
70.17998 30.000
70.19993 14.000
70.21988 13.000
70.23982 33.000
70.25977 28.000
70.27972 27.000
70.29967 26.000
70.31961 21.000
70.33956 16.000
70.35951 25.000
70.37945 17.000
70.39940 19.000
70.41935 21.000
70.43929 21.000
70.45924 23.000
70.47919 20.000
70.49914 27.000
70.51908 24.000
70.53903 29.000
70.55898 19.000
70.57892 18.000
70.59887 26.000
70.61882 19.000
70.63876 13.000
70.65871 18.000
70.67866 29.000
70.69860 26.000
70.71855 26.000
70.73850 19.000
70.75845 25.000
70.77839 27.000
70.79834 36.000
70.81829 21.000
70.83823 30.000
70.85818 22.000
70.87813 25.000
70.89807 33.000
70.91802 26.000
70.93797 18.000
70.95792 17.000
70.97786 21.000
70.99781 14.000
71.01776 16.000
71.03770 25.000
71.05765 20.000
71.07760 30.000
71.09754 19.000
71.11749 26.000
71.13744 21.000
71.15738 26.000
71.17733 29.000
71.19728 20.000
71.21723 26.000
71.23717 22.000
71.25712 17.000
71.27707 15.000
71.29701 25.000
71.31696 23.000
71.33691 20.000
71.35685 20.000
71.37680 25.000
71.39675 25.000
71.41670 19.000
71.43664 21.000
71.45659 28.000
71.47654 29.000
71.49648 25.000
71.51643 28.000
71.53638 28.000
71.55632 18.000
71.57627 25.000
71.59622 23.000
71.61616 18.000
71.63611 19.000
71.65606 24.000
71.67601 16.000
71.69595 20.000
71.71590 21.000
71.73585 22.000
71.75579 26.000
71.77574 20.000
71.79569 33.000
71.81563 28.000
71.83558 29.000
71.85553 20.000
71.87548 13.000
71.89542 21.000
71.91537 18.000
71.93532 22.000
71.95526 31.000
71.97521 24.000
71.99516 22.000
72.01510 29.000
72.03505 25.000
72.05500 18.000
72.07495 24.000
72.09489 24.000
72.11484 17.000
72.13479 19.000
72.15473 29.000
72.17468 25.000
72.19463 17.000
72.21457 19.000
72.23452 22.000
72.25447 30.000
72.27441 23.000
72.29436 23.000
72.31431 35.000
72.33426 23.000
72.35420 22.000
72.37415 30.000
72.39410 26.000
72.41404 23.000
72.43399 37.000
72.45394 36.000
72.47388 20.000
72.49383 41.000
72.51378 33.000
72.53373 31.000
72.55367 46.000
72.57362 52.000
72.59357 59.000
72.61351 45.000
72.63346 61.000
72.65341 75.000
72.67335 96.000
72.69330 93.000
72.71325 111.000
72.73319 101.000
72.75314 100.000
72.77309 106.000
72.79304 89.000
72.81298 91.000
72.83293 100.000
72.85288 89.000
72.87282 105.000
72.89277 112.000
72.91272 86.000
72.93266 111.000
72.95261 91.000
72.97256 89.000
72.99251 79.000
73.01245 80.000
73.03240 71.000
73.05235 62.000
73.07229 56.000
73.09224 48.000
73.11219 45.000
73.13213 46.000
73.15208 50.000
73.17203 50.000
73.19197 40.000
73.21192 43.000
73.23187 32.000
73.25182 23.000
73.27176 37.000
73.29171 31.000
73.31166 30.000
73.33160 28.000
73.35155 32.000
73.37150 29.000
73.39144 31.000
73.41139 18.000
73.43134 31.000
73.45129 21.000
73.47123 19.000
73.49118 23.000
73.51113 24.000
73.53107 26.000
73.55102 33.000
73.57097 30.000
73.59091 23.000
73.61086 36.000
73.63081 23.000
73.65076 30.000
73.67070 27.000
73.69065 28.000
73.71060 34.000
73.73054 33.000
73.75049 49.000
73.77044 36.000
73.79038 36.000
73.81033 29.000
73.83028 41.000
73.85022 39.000
73.87017 27.000
73.89012 36.000
73.91007 36.000
73.93001 40.000
73.94996 29.000
73.96991 29.000
73.98985 38.000
74.00980 32.000
74.02975 30.000
74.04969 28.000
74.06964 21.000
74.08959 27.000
74.10954 30.000
74.12948 27.000
74.14943 28.000
74.16938 22.000
74.18932 27.000
74.20927 30.000
74.22922 22.000
74.24916 18.000
74.26911 23.000
74.28906 31.000
74.30900 19.000
74.32895 29.000
74.34890 21.000
74.36885 24.000
74.38879 30.000
74.40874 30.000
74.42869 21.000
74.44863 17.000
74.46858 17.000
74.48853 24.000
74.50847 25.000
74.52842 28.000
74.54837 22.000
74.56832 30.000
74.58826 20.000
74.60821 26.000
74.62816 26.000
74.64810 23.000
74.66805 29.000
74.68800 28.000
74.70794 24.000
74.72789 28.000
74.74784 32.000
74.76778 31.000
74.78773 42.000
74.80768 34.000
74.82763 46.000
74.84757 48.000
74.86752 48.000
74.88747 47.000
74.90741 43.000
74.92736 34.000
74.94731 37.000
74.96725 33.000
74.98720 29.000
75.00715 48.000
75.02710 27.000
75.04704 37.000
75.06699 42.000
75.08694 29.000
75.10688 38.000
75.12683 32.000
75.14678 41.000
75.16672 27.000
75.18667 28.000
75.20662 37.000
75.22657 29.000
75.24651 31.000
75.26646 31.000
75.28641 32.000
75.30635 32.000
75.32630 20.000
75.34625 27.000
75.36619 14.000
75.38614 34.000
75.40609 24.000
75.42603 25.000
75.44598 25.000
75.46593 27.000
75.48588 32.000
75.50582 24.000
75.52577 24.000
75.54572 22.000
75.56566 19.000
75.58561 25.000
75.60556 27.000
75.62550 30.000
75.64545 23.000
75.66540 30.000
75.68535 29.000
75.70529 34.000
75.72524 27.000
75.74519 16.000
75.76513 22.000
75.78508 26.000
75.80503 18.000
75.82497 17.000
75.84492 21.000
75.86487 20.000
75.88481 26.000
75.90476 24.000
75.92471 24.000
75.94466 22.000
75.96460 18.000
75.98455 26.000
76.00450 26.000
76.02444 21.000
76.04439 19.000
76.06434 31.000
76.08428 20.000
76.10423 28.000
76.12418 25.000
76.14413 31.000
76.16407 26.000
76.18402 28.000
76.20397 19.000
76.22391 21.000
76.24386 13.000
76.26381 25.000
76.28375 27.000
76.30370 22.000
76.32365 12.000
76.34359 10.000
76.36354 26.000
76.38349 29.000
76.40344 23.000
76.42338 31.000
76.44333 14.000
76.46328 15.000
76.48322 19.000
76.50317 21.000
76.52312 22.000
76.54306 25.000
76.56301 33.000
76.58296 23.000
76.60291 21.000
76.62285 30.000
76.64280 21.000
76.66275 24.000
76.68269 20.000
76.70264 30.000
76.72259 23.000
76.74253 29.000
76.76248 35.000
76.78243 30.000
76.80238 36.000
76.82232 39.000
76.84227 41.000
76.86222 34.000
76.88216 56.000
76.90211 52.000
76.92206 54.000
76.94200 67.000
76.96195 72.000
76.98190 79.000
77.00184 82.000
77.02179 72.000
77.04174 74.000
77.06169 77.000
77.08163 81.000
77.10158 91.000
77.12153 72.000
77.14147 78.000
77.16142 75.000
77.18137 81.000
77.20131 91.000
77.22126 95.000
77.24121 88.000
77.26116 93.000
77.28110 116.000
77.30105 109.000
77.32100 121.000
77.34094 119.000
77.36089 121.000
77.38084 109.000
77.40078 111.000
77.42073 101.000
77.44068 126.000
77.46062 75.000
77.48057 91.000
77.50052 86.000
77.52047 78.000
77.54041 82.000
77.56036 68.000
77.58031 74.000
77.60025 87.000
77.62020 78.000
77.64015 63.000
77.66009 68.000
77.68004 64.000
77.69999 70.000
77.71994 54.000
77.73988 53.000
77.75983 33.000
77.77978 38.000
77.79972 34.000
77.81967 35.000
77.83962 33.000
77.85956 32.000
77.87951 28.000
77.89946 32.000
77.91940 33.000
77.93935 39.000
77.95930 18.000
77.97925 28.000
77.99919 25.000
78.01914 31.000
78.03909 25.000
78.05903 22.000
78.07898 19.000
78.09893 30.000
78.11887 29.000
78.13882 22.000
78.15877 24.000
78.17872 23.000
78.19866 23.000
78.21861 22.000
78.23856 18.000
78.25850 20.000
78.27845 14.000
78.29840 26.000
78.31834 30.000
78.33829 16.000
78.35824 16.000
78.37819 23.000
78.39813 28.000
78.41808 14.000
78.43803 16.000
78.45797 22.000
78.47792 17.000
78.49787 23.000
78.51781 20.000
78.53776 17.000
78.55771 21.000
78.57765 17.000
78.59760 20.000
78.61755 14.000
78.63750 23.000
78.65744 16.000
78.67739 21.000
78.69734 24.000
78.71728 21.000
78.73723 21.000
78.75718 26.000
78.77712 15.000
78.79707 20.000
78.81702 21.000
78.83697 25.000
78.85691 20.000
78.87686 24.000
78.89681 29.000
78.91675 23.000
78.93670 22.000
78.95665 16.000
78.97659 12.000
78.99654 14.000
79.01649 18.000
79.03643 21.000
79.05638 15.000
79.07633 22.000
79.09628 18.000
79.11622 31.000
79.13617 24.000
79.15612 21.000
79.17606 20.000
79.19601 24.000
79.21596 22.000
79.23590 25.000
79.25585 11.000
79.27580 17.000
79.29575 21.000
79.31569 16.000
79.33564 22.000
79.35559 12.000
79.37553 25.000
79.39548 18.000
79.41543 19.000
79.43537 24.000
79.45532 15.000
79.47527 22.000
79.49521 27.000
79.51516 20.000
79.53511 15.000
79.55506 29.000
79.57500 20.000
79.59495 19.000
79.61490 24.000
79.63484 26.000
79.65479 34.000
79.67474 20.000
79.69468 22.000
79.71463 28.000
79.73458 24.000
79.75453 31.000
79.77447 26.000
79.79442 23.000
79.81437 28.000
79.83431 28.000
79.85426 24.000
79.87421 28.000
79.89415 23.000
79.91410 28.000
79.93405 26.000
79.95399 33.000
79.97394 29.000
79.99389 21.000
80.01384 26.000
80.03378 24.000
80.05373 28.000
80.07368 32.000
80.09362 23.000
80.11357 24.000
80.13352 21.000
80.15346 21.000
80.17341 27.000
80.19336 21.000
80.21331 23.000
80.23325 25.000
80.25320 28.000
80.27315 23.000
80.29309 19.000
80.31304 24.000
80.33299 18.000
80.35293 27.000
80.37288 22.000
80.39283 30.000
80.41278 21.000
80.43272 21.000
80.45267 20.000
80.47262 22.000
80.49256 24.000
80.51251 27.000
80.53246 17.000
80.55240 17.000
80.57235 26.000
80.59230 27.000
80.61224 14.000
80.63219 14.000
80.65214 21.000
80.67209 28.000
80.69203 22.000
80.71198 22.000
80.73193 18.000
80.75187 17.000
80.77182 23.000
80.79177 17.000
80.81171 20.000
80.83166 14.000
80.85161 12.000
80.87156 19.000
80.89150 28.000
80.91145 27.000
80.93140 18.000
80.95134 22.000
80.97129 16.000
80.99124 18.000
81.01118 15.000
81.03113 18.000
81.05108 17.000
81.07102 12.000
81.09097 17.000
81.11092 19.000
81.13087 14.000
81.15081 15.000
81.17076 14.000
81.19071 10.000
81.21065 25.000
81.23060 17.000
81.25055 20.000
81.27049 19.000
81.29044 27.000
81.31039 19.000
81.33034 20.000
81.35028 24.000
81.37023 27.000
81.39018 13.000
81.41012 20.000
81.43007 11.000
81.45002 23.000
81.46996 18.000
81.48991 33.000
81.50986 16.000
81.52980 14.000
81.54975 14.000
81.56970 19.000
81.58965 22.000
81.60959 19.000
81.62954 8.000
81.64949 21.000
81.66943 16.000
81.68938 20.000
81.70933 11.000
81.72927 23.000
81.74922 24.000
81.76917 27.000
81.78912 11.000
81.80906 23.000
81.82901 9.000
81.84896 17.000
81.86890 12.000
81.88885 14.000
81.90880 17.000
81.92874 18.000
81.94869 11.000
81.96864 19.000
81.98859 19.000
82.00853 17.000
82.02848 21.000
82.04843 13.000
82.06837 16.000
82.08832 10.000
82.10827 22.000
82.12821 16.000
82.14816 21.000
82.16811 16.000
82.18805 20.000
82.20800 24.000
82.22795 24.000
82.24790 18.000
82.26784 33.000
82.28779 12.000
82.30774 22.000
82.32768 24.000
82.34763 20.000
82.36758 11.000
82.38752 20.000
82.40747 22.000
82.42742 17.000
82.44737 21.000
82.46731 20.000
82.48726 21.000
82.50721 22.000
82.52715 25.000
82.54710 25.000
82.56705 20.000
82.58699 16.000
82.60694 20.000
82.62689 23.000
82.64683 14.000
82.66678 14.000
82.68673 28.000
82.70668 21.000
82.72662 17.000
82.74657 21.000
82.76652 19.000
82.78646 21.000
82.80641 26.000
82.82636 21.000
82.84630 19.000
82.86625 23.000
82.88620 24.000
82.90615 25.000
82.92609 23.000
82.94604 22.000
82.96599 19.000
82.98593 18.000
83.00588 14.000
83.02583 21.000
83.04577 20.000
83.06572 20.000
83.08567 21.000
83.10561 26.000
83.12556 23.000
83.14551 18.000
83.16546 27.000
83.18540 17.000
83.20535 25.000
83.22530 28.000
83.24524 40.000
83.26519 27.000
83.28514 19.000
83.30508 27.000
83.32503 21.000
83.34498 34.000
83.36493 43.000
83.38487 40.000
83.40482 46.000
83.42477 33.000
83.44471 41.000
83.46466 61.000
83.48461 55.000
83.50455 69.000
83.52450 77.000
83.54445 77.000
83.56440 73.000
83.58434 93.000
83.60429 78.000
83.62424 71.000
83.64418 81.000
83.66413 72.000
83.68408 70.000
83.70402 60.000
83.72397 75.000
83.74392 70.000
83.76386 79.000
83.78381 64.000
83.80376 69.000
83.82371 72.000
83.84365 62.000
83.86360 68.000
83.88355 75.000
83.90349 62.000
83.92344 48.000
83.94339 56.000
83.96333 40.000
83.98328 48.000
84.00323 46.000
84.02318 44.000
84.04312 47.000
84.06307 38.000
84.08302 33.000
84.10296 25.000
84.12291 36.000
84.14286 30.000
84.16280 34.000
84.18275 27.000
84.20270 24.000
84.22264 29.000
84.24259 29.000
84.26254 29.000
84.28249 33.000
84.30243 23.000
84.32238 23.000
84.34233 24.000
84.36227 17.000
84.38222 24.000
84.40217 25.000
84.42211 12.000
84.44206 20.000
84.46201 25.000
84.48196 19.000
84.50190 25.000
84.52185 22.000
84.54180 32.000
84.56174 20.000
84.58169 19.000
84.60164 28.000
84.62158 21.000
84.64153 21.000
84.66148 14.000
84.68142 13.000
84.70137 24.000
84.72132 13.000
84.74127 18.000
84.76121 13.000
84.78116 19.000
84.80111 8.000
84.82105 27.000
84.84100 21.000
84.86095 30.000
84.88089 28.000
84.90084 25.000
84.92079 17.000
84.94074 23.000
84.96068 13.000
84.98063 17.000
85.00058 29.000
85.02052 22.000
85.04047 12.000
85.06042 20.000
85.08036 22.000
85.10031 16.000
85.12026 23.000
85.14021 23.000
85.16015 23.000
85.18010 27.000
85.20005 24.000
85.21999 30.000
85.23994 15.000
85.25989 22.000
85.27983 29.000
85.29978 28.000
85.31973 26.000
85.33967 23.000
85.35962 20.000
85.37957 25.000
85.39952 26.000
85.41946 32.000
85.43941 21.000
85.45936 17.000
85.47930 28.000
85.49925 25.000
85.51920 27.000
85.53914 32.000
85.55909 23.000
85.57904 29.000
85.59899 17.000
85.61893 23.000
85.63888 24.000
85.65883 21.000
85.67877 17.000
85.69872 18.000
85.71867 26.000
85.73861 18.000
85.75856 25.000
85.77851 33.000
85.79845 28.000
85.81840 17.000
85.83835 18.000
85.85830 23.000
85.87824 17.000
85.89819 25.000
85.91814 24.000
85.93808 16.000
85.95803 33.000
85.97798 24.000
85.99792 22.000
86.01787 26.000
86.03782 22.000
86.05777 24.000
86.07771 22.000
86.09766 21.000
86.11761 36.000
86.13755 26.000
86.15750 35.000
86.17745 33.000
86.19739 14.000
86.21734 33.000
86.23729 28.000
86.25723 26.000
86.27718 25.000
86.29713 29.000
86.31708 19.000
86.33702 26.000
86.35697 30.000
86.37692 20.000
86.39686 17.000
86.41681 20.000
86.43676 30.000
86.45670 28.000
86.47665 23.000
86.49660 29.000
86.51655 34.000
86.53649 32.000
86.55644 35.000
86.57639 28.000
86.59633 21.000
86.61628 29.000
86.63623 24.000
86.65617 38.000
86.67612 32.000
86.69607 25.000
86.71602 28.000
86.73596 23.000
86.75591 20.000
86.77586 27.000
86.79580 21.000
86.81575 23.000
86.83570 18.000
86.85564 20.000
86.87559 25.000
86.89554 22.000
86.91548 26.000
86.93543 23.000
86.95538 27.000
86.97533 17.000
86.99527 29.000
87.01522 21.000
87.03517 21.000
87.05511 17.000
87.07506 24.000
87.09501 18.000
87.11495 19.000
87.13490 19.000
87.15485 17.000
87.17480 11.000
87.19474 15.000
87.21469 18.000
87.23464 21.000
87.25458 22.000
87.27453 14.000
87.29448 16.000
87.31442 22.000
87.33437 15.000
87.35432 27.000
87.37426 18.000
87.39421 24.000
87.41416 17.000
87.43411 26.000
87.45405 23.000
87.47400 22.000
87.49395 16.000
87.51389 15.000
87.53384 19.000
87.55379 20.000
87.57373 17.000
87.59368 14.000
87.61363 18.000
87.63358 15.000
87.65352 12.000
87.67347 19.000
87.69342 18.000
87.71336 16.000
87.73331 21.000
87.75326 10.000
87.77320 24.000
87.79315 13.000
87.81310 18.000
87.83304 18.000
87.85299 23.000
87.87294 23.000
87.89289 27.000
87.91283 29.000
87.93278 17.000
87.95273 31.000
87.97267 23.000
87.99262 39.000
88.01257 43.000
88.03251 33.000
88.05246 44.000
88.07241 40.000
88.09236 35.000
88.11230 31.000
88.13225 50.000
88.15220 50.000
88.17214 49.000
88.19209 40.000
88.21204 54.000
88.23198 43.000
88.25193 41.000
88.27188 45.000
88.29183 52.000
88.31177 42.000
88.33172 58.000
88.35167 44.000
88.37161 36.000
88.39156 41.000
88.41151 32.000
88.43145 42.000
88.45140 34.000
88.47135 40.000
88.49129 32.000
88.51124 30.000
88.53119 27.000
88.55114 44.000
88.57108 24.000
88.59103 34.000
88.61098 36.000
88.63092 28.000
88.65087 27.000
88.67082 21.000
88.69076 24.000
88.71071 27.000
88.73066 24.000
88.75061 34.000
88.77055 20.000
88.79050 22.000
88.81045 22.000
88.83039 25.000
88.85034 26.000
88.87029 24.000
88.89023 24.000
88.91018 20.000
88.93013 20.000
88.95007 16.000
88.97002 17.000
88.98997 15.000
89.00992 21.000
89.02986 26.000
89.04981 20.000
89.06976 23.000
89.08970 21.000
89.10965 16.000
89.12960 15.000
89.14954 21.000
89.16949 31.000
89.18944 20.000
89.20939 18.000
89.22933 29.000
89.24928 13.000
89.26923 22.000
89.28917 12.000
89.30912 21.000
89.32907 9.000
89.34901 14.000
89.36896 17.000
89.38891 15.000
89.40885 19.000
89.42880 20.000
89.44875 11.000
89.46870 21.000
89.48864 10.000
89.50859 16.000
89.52854 25.000
89.54848 12.000
89.56843 23.000
89.58838 23.000
89.60832 21.000
89.62827 17.000
89.64822 19.000
89.66817 26.000
89.68811 19.000
89.70806 15.000
89.72801 19.000
89.74795 19.000
89.76790 19.000
89.78785 23.000
89.80779 21.000
89.82774 9.000
89.84769 14.000
89.86764 25.000
89.88758 16.000
89.90753 21.000
89.92748 19.000
89.94742 10.000
89.96737 21.000
89.98732 15.000
90.00726 19.000
