10.00000 40.000
10.01995 36.000
10.03989 49.000
10.05984 36.000
10.07979 36.000
10.09973 39.000
10.11968 35.000
10.13963 40.000
10.15958 33.000
10.17952 33.000
10.19947 48.000
10.21942 45.000
10.23936 42.000
10.25931 32.000
10.27926 41.000
10.29920 41.000
10.31915 47.000
10.33910 32.000
10.35905 35.000
10.37899 42.000
10.39894 37.000
10.41889 31.000
10.43883 33.000
10.45878 44.000
10.47873 33.000
10.49867 44.000
10.51862 36.000
10.53857 33.000
10.55851 37.000
10.57846 40.000
10.59841 35.000
10.61836 26.000
10.63830 30.000
10.65825 38.000
10.67820 38.000
10.69814 35.000
10.71809 29.000
10.73804 42.000
10.75798 30.000
10.77793 32.000
10.79788 33.000
10.81783 39.000
10.83777 37.000
10.85772 33.000
10.87767 42.000
10.89761 34.000
10.91756 25.000
10.93751 40.000
10.95745 56.000
10.97740 50.000
10.99735 37.000
11.01730 33.000
11.03724 40.000
11.05719 41.000
11.07714 27.000
11.09708 47.000
11.11703 40.000
11.13698 40.000
11.15692 44.000
11.17687 36.000
11.19682 34.000
11.21676 35.000
11.23671 33.000
11.25666 37.000
11.27661 29.000
11.29655 36.000
11.31650 35.000
11.33645 36.000
11.35639 49.000
11.37634 39.000
11.39629 38.000
11.41623 44.000
11.43618 35.000
11.45613 42.000
11.47608 38.000
11.49602 25.000
11.51597 40.000
11.53592 39.000
11.55586 42.000
11.57581 38.000
11.59576 33.000
11.61570 36.000
11.63565 36.000
11.65560 34.000
11.67554 37.000
11.69549 42.000
11.71544 33.000
11.73539 40.000
11.75533 51.000
11.77528 42.000
11.79523 35.000
11.81517 42.000
11.83512 39.000
11.85507 45.000
11.87501 45.000
11.89496 37.000
11.91491 40.000
11.93486 39.000
11.95480 41.000
11.97475 39.000
11.99470 41.000
12.01464 37.000
12.03459 34.000
12.05454 40.000
12.07448 47.000
12.09443 33.000
12.11438 40.000
12.13432 34.000
12.15427 52.000
12.17422 47.000
12.19417 33.000
12.21411 37.000
12.23406 49.000
12.25401 33.000
12.27395 40.000
12.29390 36.000
12.31385 49.000
12.33379 56.000
12.35374 46.000
12.37369 45.000
12.39364 56.000
12.41358 57.000
12.43353 51.000
12.45348 39.000
12.47342 47.000
12.49337 53.000
12.51332 77.000
12.53326 63.000
12.55321 62.000
12.57316 55.000
12.59311 64.000
12.61305 63.000
12.63300 64.000
12.65295 66.000
12.67289 68.000
12.69284 56.000
12.71279 54.000
12.73273 60.000
12.75268 66.000
12.77263 60.000
12.79257 46.000
12.81252 56.000
12.83247 41.000
12.85242 61.000
12.87236 56.000
12.89231 65.000
12.91226 60.000
12.93220 52.000
12.95215 50.000
12.97210 52.000
12.99204 43.000
13.01199 50.000
13.03194 61.000
13.05189 53.000
13.07183 46.000
13.09178 45.000
13.11173 48.000
13.13167 53.000
13.15162 54.000
13.17157 53.000
13.19151 53.000
13.21146 49.000
13.23141 45.000
13.25135 50.000
13.27130 54.000
13.29125 45.000
13.31120 43.000
13.33114 58.000
13.35109 50.000
13.37104 48.000
13.39098 44.000
13.41093 59.000
13.43088 46.000
13.45082 58.000
13.47077 58.000
13.49072 58.000
13.51067 55.000
13.53061 48.000
13.55056 55.000
13.57051 66.000
13.59045 57.000
13.61040 66.000
13.63035 69.000
13.65029 64.000
13.67024 59.000
13.69019 58.000
13.71013 63.000
13.73008 56.000
13.75003 55.000
13.76998 65.000
13.78992 61.000
13.80987 61.000
13.82982 67.000
13.84976 64.000
13.86971 58.000
13.88966 55.000
13.90960 69.000
13.92955 70.000
13.94950 59.000
13.96945 66.000
13.98939 64.000
14.00934 82.000
14.02929 68.000
14.04923 79.000
14.06918 65.000
14.08913 82.000
14.10907 81.000
14.12902 65.000
14.14897 83.000
14.16892 70.000
14.18886 65.000
14.20881 78.000
14.22876 85.000
14.24870 70.000
14.26865 83.000
14.28860 82.000
14.30854 78.000
14.32849 80.000
14.34844 87.000
14.36838 109.000
14.38833 96.000
14.40828 90.000
14.42823 77.000
14.44817 83.000
14.46812 90.000
14.48807 95.000
14.50801 70.000
14.52796 100.000
14.54791 85.000
14.56785 81.000
14.58780 103.000
14.60775 91.000
14.62770 102.000
14.64764 106.000
14.66759 116.000
14.68754 112.000
14.70748 116.000
14.72743 120.000
14.74738 89.000
14.76732 116.000
14.78727 98.000
14.80722 112.000
14.82716 106.000
14.84711 105.000
14.86706 103.000
14.88701 105.000
14.90695 120.000
14.92690 112.000
14.94685 116.000
14.96679 139.000
14.98674 153.000
15.00669 144.000
15.02663 166.000
15.04658 164.000
15.06653 132.000
15.08648 159.000
15.10642 155.000
15.12637 155.000
15.14632 168.000
15.16626 142.000
15.18621 162.000
15.20616 146.000
15.22610 180.000
15.24605 148.000
15.26600 172.000
15.28594 187.000
15.30589 206.000
15.32584 196.000
15.34579 241.000
15.36573 240.000
15.38568 252.000
15.40563 269.000
15.42557 281.000
15.44552 323.000
15.46547 347.000
15.48541 360.000
15.50536 430.000
15.52531 573.000
15.54526 639.000
15.56520 826.000
15.58515 1168.000
15.60510 1761.000
15.62504 2744.000
15.64499 4508.000
15.66494 7039.000
15.68488 7730.000
15.70483 5983.000
15.72478 4067.000
15.74472 2011.000
15.76467 879.000
15.78462 476.000
15.80457 318.000
15.82451 237.000
15.84446 208.000
15.86441 195.000
15.88435 176.000
15.90430 157.000
15.92425 143.000
15.94419 137.000
15.96414 142.000
15.98409 104.000
16.00404 101.000
16.02398 90.000
16.04393 101.000
16.06388 78.000
16.08382 86.000
16.10377 92.000
16.12372 102.000
16.14366 95.000
16.16361 96.000
16.18356 80.000
16.20351 66.000
16.22345 72.000
16.24340 95.000
16.26335 56.000
16.28329 77.000
16.30324 72.000
16.32319 68.000
16.34313 59.000
16.36308 63.000
16.38303 65.000
16.40297 63.000
16.42292 75.000
16.44287 50.000
16.46282 56.000
16.48276 68.000
16.50271 64.000
16.52266 49.000
16.54260 48.000
16.56255 60.000
16.58250 63.000
16.60244 68.000
16.62239 52.000
16.64234 35.000
16.66229 54.000
16.68223 49.000
16.70218 61.000
16.72213 51.000
16.74207 42.000
16.76202 59.000
16.78197 53.000
16.80191 69.000
16.82186 39.000
16.84181 56.000
16.86175 43.000
16.88170 54.000
16.90165 34.000
16.92160 53.000
16.94154 52.000
16.96149 57.000
16.98144 46.000
17.00138 54.000
17.02133 39.000
17.04128 36.000
17.06122 44.000
17.08117 28.000
17.10112 56.000
17.12107 52.000
17.14101 43.000
17.16096 53.000
17.18091 50.000
17.20085 44.000
17.22080 44.000
17.24075 62.000
17.26069 41.000
17.28064 38.000
17.30059 54.000
17.32053 40.000
17.34048 55.000
17.36043 43.000
17.38038 53.000
17.40032 43.000
17.42027 41.000
17.44022 46.000
17.46016 31.000
17.48011 39.000
17.50006 56.000
17.52000 53.000
17.53995 60.000
17.55990 37.000
17.57985 43.000
17.59979 52.000
17.61974 39.000
17.63969 54.000
17.65963 49.000
17.67958 44.000
17.69953 33.000
17.71947 46.000
17.73942 55.000
17.75937 38.000
17.77932 57.000
17.79926 47.000
17.81921 44.000
17.83916 58.000
17.85910 49.000
17.87905 49.000
17.89900 59.000
17.91894 58.000
17.93889 67.000
17.95884 90.000
17.97878 122.000
17.99873 170.000
18.01868 268.000
18.03863 391.000
18.05857 380.000
18.07852 328.000
18.09847 309.000
18.11841 173.000
18.13836 130.000
18.15831 71.000
18.17825 67.000
18.19820 39.000
18.21815 39.000
18.23810 39.000
18.25804 44.000
18.27799 46.000
18.29794 48.000
18.31788 35.000
18.33783 47.000
18.35778 52.000
18.37772 44.000
18.39767 37.000
18.41762 45.000
18.43756 36.000
18.45751 42.000
18.47746 34.000
18.49741 55.000
18.51735 37.000
18.53730 46.000
18.55725 44.000
18.57719 37.000
18.59714 46.000
18.61709 46.000
18.63703 45.000
18.65698 45.000
18.67693 49.000
18.69688 47.000
18.71682 40.000
18.73677 33.000
18.75672 35.000
18.77666 55.000
18.79661 27.000
18.81656 33.000
18.83650 39.000
18.85645 36.000
18.87640 36.000
18.89634 44.000
18.91629 39.000
18.93624 44.000
18.95619 42.000
18.97613 36.000
18.99608 47.000
19.01603 34.000
19.03597 30.000
19.05592 43.000
19.07587 42.000
19.09581 38.000
19.11576 47.000
19.13571 38.000
19.15566 53.000
19.17560 42.000
19.19555 36.000
19.21550 35.000
19.23544 38.000
19.25539 54.000
19.27534 39.000
19.29528 44.000
19.31523 35.000
19.33518 41.000
19.35513 28.000
19.37507 45.000
19.39502 40.000
19.41497 47.000
19.43491 54.000
19.45486 56.000
19.47481 36.000
19.49475 41.000
19.51470 46.000
19.53465 43.000
19.55459 37.000
19.57454 39.000
19.59449 47.000
19.61444 40.000
19.63438 48.000
19.65433 41.000
19.67428 45.000
19.69422 47.000
19.71417 51.000
19.73412 46.000
19.75406 34.000
19.77401 43.000
19.79396 34.000
19.81391 41.000
19.83385 46.000
19.85380 56.000
19.87375 36.000
19.89369 52.000
19.91364 50.000
19.93359 38.000
19.95353 41.000
19.97348 42.000
19.99343 37.000
20.01337 47.000
20.03332 47.000
20.05327 38.000
20.07322 47.000
20.09316 29.000
20.11311 42.000
20.13306 37.000
20.15300 31.000
20.17295 38.000
20.19290 48.000
20.21284 46.000
20.23279 48.000
20.25274 47.000
20.27269 54.000
20.29263 44.000
20.31258 46.000
20.33253 41.000
20.35247 47.000
20.37242 35.000
20.39237 25.000
20.41231 44.000
20.43226 34.000
20.45221 42.000
20.47215 41.000
20.49210 45.000
20.51205 37.000
20.53200 43.000
20.55194 40.000
20.57189 44.000
20.59184 54.000
20.61178 45.000
20.63173 50.000
20.65168 32.000
20.67162 41.000
20.69157 46.000
20.71152 37.000
20.73147 53.000
20.75141 46.000
20.77136 49.000
20.79131 61.000
20.81125 46.000
20.83120 46.000
20.85115 45.000
20.87109 63.000
20.89104 54.000
20.91099 56.000
20.93094 55.000
20.95088 50.000
20.97083 64.000
20.99078 78.000
21.01072 61.000
21.03067 52.000
21.05062 53.000
21.07056 64.000
21.09051 80.000
21.11046 61.000
21.13040 60.000
21.15035 47.000
21.17030 50.000
21.19025 44.000
21.21019 46.000
21.23014 39.000
21.25009 36.000
21.27003 37.000
21.28998 43.000
21.30993 48.000
21.32987 40.000
21.34982 45.000
21.36977 46.000
21.38972 48.000
21.40966 61.000
21.42961 46.000
21.44956 41.000
21.46950 43.000
21.48945 40.000
21.50940 43.000
21.52934 45.000
21.54929 44.000
21.56924 53.000
21.58918 38.000
21.60913 56.000
21.62908 43.000
21.64903 45.000
21.66897 53.000
21.68892 44.000
21.70887 43.000
21.72881 53.000
21.74876 59.000
21.76871 51.000
21.78865 56.000
21.80860 47.000
21.82855 38.000
21.84850 50.000
21.86844 45.000
21.88839 45.000
21.90834 47.000
21.92828 65.000
21.94823 41.000
21.96818 54.000
21.98812 45.000
22.00807 50.000
22.02802 61.000
22.04796 45.000
22.06791 47.000
22.08786 49.000
22.10781 44.000
22.12775 43.000
22.14770 39.000
22.16765 55.000
22.18759 48.000
22.20754 45.000
22.22749 38.000
22.24743 56.000
22.26738 51.000
22.28733 48.000
22.30728 46.000
22.32722 49.000
22.34717 43.000
22.36712 42.000
22.38706 43.000
22.40701 53.000
22.42696 47.000
22.44690 52.000
22.46685 49.000
22.48680 42.000
22.50675 54.000
22.52669 51.000
22.54664 43.000
22.56659 54.000
22.58653 47.000
22.60648 55.000
22.62643 43.000
22.64637 49.000
22.66632 60.000
22.68627 50.000
22.70621 49.000
22.72616 55.000
22.74611 47.000
22.76606 41.000
22.78600 38.000
22.80595 38.000
22.82590 36.000
22.84584 53.000
22.86579 35.000
22.88574 48.000
22.90568 43.000
22.92563 59.000
22.94558 46.000
22.96553 49.000
22.98547 49.000
23.00542 49.000
23.02537 66.000
23.04531 41.000
23.06526 43.000
23.08521 50.000
23.10515 49.000
23.12510 41.000
23.14505 49.000
23.16499 53.000
23.18494 51.000
23.20489 58.000
23.22484 53.000
23.24478 41.000
23.26473 57.000
23.28468 54.000
23.30462 53.000
23.32457 50.000
23.34452 52.000
23.36446 58.000
23.38441 46.000
23.40436 40.000
23.42431 59.000
23.44425 48.000
23.46420 41.000
23.48415 51.000
23.50409 47.000
23.52404 48.000
23.54399 57.000
23.56393 47.000
23.58388 60.000
23.60383 51.000
23.62377 45.000
23.64372 38.000
23.66367 65.000
23.68362 44.000
23.70356 54.000
23.72351 69.000
23.74346 56.000
23.76340 64.000
23.78335 54.000
23.80330 49.000
23.82324 46.000
23.84319 52.000
23.86314 56.000
23.88309 44.000
23.90303 56.000
23.92298 47.000
23.94293 48.000
23.96287 44.000
23.98282 49.000
24.00277 59.000
24.02271 67.000
24.04266 49.000
24.06261 63.000
24.08256 59.000
24.10250 54.000
24.12245 64.000
24.14240 54.000
24.16234 45.000
24.18229 55.000
24.20224 73.000
24.22218 50.000
24.24213 54.000
24.26208 53.000
24.28202 51.000
24.30197 62.000
24.32192 54.000
24.34187 53.000
24.36181 59.000
24.38176 52.000
24.40171 40.000
24.42165 54.000
24.44160 46.000
24.46155 47.000
24.48149 40.000
24.50144 53.000
24.52139 49.000
24.54134 62.000
24.56128 59.000
24.58123 76.000
24.60118 55.000
24.62112 53.000
24.64107 55.000
24.66102 45.000
24.68096 52.000
24.70091 47.000
24.72086 55.000
24.74080 63.000
24.76075 51.000
24.78070 56.000
24.80065 44.000
24.82059 49.000
24.84054 55.000
24.86049 46.000
24.88043 43.000
24.90038 64.000
24.92033 56.000
24.94027 59.000
24.96022 52.000
24.98017 65.000
25.00012 75.000
25.02006 64.000
25.04001 58.000
25.05996 58.000
25.07990 66.000
25.09985 59.000
25.11980 58.000
25.13974 52.000
25.15969 60.000
25.17964 48.000
25.19958 65.000
25.21953 69.000
25.23948 63.000
25.25943 60.000
25.27937 58.000
25.29932 54.000
25.31927 41.000
25.33921 67.000
25.35916 63.000
25.37911 65.000
25.39905 60.000
25.41900 52.000
25.43895 62.000
25.45890 75.000
25.47884 63.000
25.49879 59.000
25.51874 69.000
25.53868 68.000
25.55863 71.000
25.57858 73.000
25.59852 64.000
25.61847 72.000
25.63842 45.000
25.65837 57.000
25.67831 61.000
25.69826 59.000
25.71821 57.000
25.73815 67.000
25.75810 70.000
25.77805 78.000
25.79799 66.000
25.81794 68.000
25.83789 67.000
25.85783 67.000
25.87778 52.000
25.89773 59.000
25.91768 72.000
25.93762 69.000
25.95757 66.000
25.97752 66.000
25.99746 82.000
26.01741 58.000
26.03736 66.000
26.05730 86.000
26.07725 59.000
26.09720 55.000
26.11715 57.000
26.13709 76.000
26.15704 64.000
26.17699 72.000
26.19693 86.000
26.21688 60.000
26.23683 67.000
26.25677 64.000
26.27672 62.000
26.29667 71.000
26.31661 79.000
26.33656 66.000
26.35651 66.000
26.37646 80.000
26.39640 76.000
26.41635 70.000
26.43630 61.000
26.45624 74.000
26.47619 76.000
26.49614 72.000
26.51608 62.000
26.53603 62.000
26.55598 58.000
26.57593 48.000
26.59587 79.000
26.61582 75.000
26.63577 83.000
26.65571 76.000
26.67566 74.000
26.69561 70.000
26.71555 78.000
26.73550 85.000
26.75545 63.000
26.77539 74.000
26.79534 94.000
26.81529 79.000
26.83524 68.000
26.85518 86.000
26.87513 67.000
26.89508 72.000
26.91502 72.000
26.93497 75.000
26.95492 72.000
26.97486 77.000
26.99481 65.000
27.01476 59.000
27.03471 81.000
27.05465 68.000
27.07460 60.000
27.09455 66.000
27.11449 85.000
27.13444 96.000
27.15439 68.000
27.17433 71.000
27.19428 70.000
27.21423 65.000
27.23417 75.000
27.25412 75.000
27.27407 79.000
27.29402 67.000
27.31396 74.000
27.33391 75.000
27.35386 87.000
27.37380 83.000
27.39375 80.000
27.41370 66.000
27.43364 90.000
27.45359 82.000
27.47354 88.000
27.49349 81.000
27.51343 74.000
27.53338 86.000
27.55333 75.000
27.57327 88.000
27.59322 77.000
27.61317 81.000
27.63311 64.000
27.65306 77.000
27.67301 83.000
27.69296 87.000
27.71290 78.000
27.73285 93.000
27.75280 81.000
27.77274 84.000
27.79269 79.000
27.81264 79.000
27.83258 95.000
27.85253 74.000
27.87248 70.000
27.89242 72.000
27.91237 88.000
27.93232 90.000
27.95227 89.000
27.97221 77.000
27.99216 87.000
28.01211 75.000
28.03205 64.000
28.05200 84.000
28.07195 75.000
28.09189 80.000
28.11184 81.000
28.13179 105.000
28.15174 85.000
28.17168 70.000
28.19163 76.000
28.21158 72.000
28.23152 102.000
28.25147 82.000
28.27142 95.000
28.29136 86.000
28.31131 75.000
28.33126 82.000
28.35120 86.000
28.37115 95.000
28.39110 100.000
28.41105 91.000
28.43099 94.000
28.45094 86.000
28.47089 115.000
28.49083 88.000
28.51078 85.000
28.53073 87.000
28.55067 81.000
28.57062 80.000
28.59057 99.000
28.61052 80.000
28.63046 77.000
28.65041 82.000
28.67036 86.000
28.69030 92.000
28.71025 89.000
28.73020 83.000
28.75014 90.000
28.77009 89.000
28.79004 74.000
28.80998 91.000
28.82993 99.000
28.84988 111.000
28.86983 91.000
28.88977 85.000
28.90972 71.000
28.92967 99.000
28.94961 86.000
28.96956 76.000
28.98951 98.000
29.00945 107.000
29.02940 94.000
29.04935 88.000
29.06930 105.000
29.08924 98.000
29.10919 103.000
29.12914 103.000
29.14908 98.000
29.16903 89.000
29.18898 80.000
29.20892 87.000
29.22887 83.000
29.24882 70.000
29.26877 90.000
29.28871 91.000
29.30866 106.000
29.32861 99.000
29.34855 95.000
29.36850 105.000
29.38845 73.000
29.40839 79.000
29.42834 107.000
29.44829 84.000
29.46823 86.000
29.48818 110.000
29.50813 95.000
29.52808 118.000
29.54802 125.000
29.56797 120.000
29.58792 149.000
29.60786 148.000
29.62781 213.000
29.64776 276.000
29.66770 295.000
29.68765 357.000
29.70760 345.000
29.72755 321.000
29.74749 322.000
29.76744 290.000
29.78739 250.000
29.80733 200.000
29.82728 152.000
29.84723 147.000
29.86717 113.000
29.88712 118.000
29.90707 96.000
29.92701 103.000
29.94696 108.000
29.96691 94.000
29.98686 117.000
30.00680 112.000
30.02675 102.000
30.04670 121.000
30.06664 110.000
30.08659 107.000
30.10654 114.000
30.12648 116.000
30.14643 104.000
30.16638 111.000
30.18633 103.000
30.20627 107.000
30.22622 89.000
30.24617 106.000
30.26611 108.000
30.28606 91.000
30.30601 99.000
30.32595 91.000
30.34590 95.000
30.36585 105.000
30.38579 87.000
30.40574 103.000
30.42569 91.000
30.44564 103.000
30.46558 85.000
30.48553 84.000
30.50548 97.000
30.52542 110.000
30.54537 99.000
30.56532 103.000
30.58526 104.000
30.60521 99.000
30.62516 88.000
30.64511 88.000
30.66505 108.000
30.68500 98.000
30.70495 104.000
30.72489 85.000
30.74484 96.000
30.76479 96.000
30.78473 98.000
30.80468 107.000
30.82463 99.000
30.84458 105.000
30.86452 96.000
30.88447 89.000
30.90442 82.000
30.92436 93.000
30.94431 107.000
30.96426 101.000
30.98420 88.000
31.00415 106.000
31.02410 90.000
31.04404 90.000
31.06399 116.000
31.08394 106.000
31.10389 121.000
31.12383 116.000
31.14378 111.000
31.16373 98.000
31.18367 102.000
31.20362 92.000
31.22357 92.000
31.24351 99.000
31.26346 117.000
31.28341 116.000
31.30336 97.000
31.32330 105.000
31.34325 96.000
31.36320 107.000
31.38314 119.000
31.40309 101.000
31.42304 101.000
31.44298 131.000
31.46293 96.000
31.48288 111.000
31.50282 126.000
31.52277 146.000
31.54272 150.000
31.56267 185.000
31.58261 223.000
31.60256 274.000
31.62251 327.000
31.64245 442.000
31.66240 554.000
31.68235 534.000
31.70229 491.000
31.72224 396.000
31.74219 421.000
31.76214 327.000
31.78208 230.000
31.80203 177.000
31.82198 146.000
31.84192 134.000
31.86187 120.000
31.88182 117.000
31.90176 102.000
31.92171 115.000
31.94166 100.000
31.96160 96.000
31.98155 82.000
32.00150 113.000
32.02145 95.000
32.04139 96.000
32.06134 140.000
32.08129 102.000
32.10123 109.000
32.12118 106.000
32.14113 93.000
32.16107 95.000
32.18102 98.000
32.20097 83.000
32.22092 82.000
32.24086 86.000
32.26081 85.000
32.28076 96.000
32.30070 101.000
32.32065 89.000
32.34060 92.000
32.36054 102.000
32.38049 106.000
32.40044 89.000
32.42039 91.000
32.44033 97.000
32.46028 121.000
32.48023 83.000
32.50017 107.000
32.52012 93.000
32.54007 90.000
32.56001 83.000
32.57996 90.000
32.59991 84.000
32.61985 96.000
32.63980 110.000
32.65975 100.000
32.67970 96.000
32.69964 94.000
32.71959 74.000
32.73954 97.000
32.75948 89.000
32.77943 81.000
32.79938 89.000
32.81932 85.000
32.83927 105.000
32.85922 82.000
32.87917 96.000
32.89911 95.000
32.91906 71.000
32.93901 89.000
32.95895 99.000
32.97890 79.000
32.99885 99.000
33.01879 80.000
33.03874 86.000
33.05869 92.000
33.07863 89.000
33.09858 82.000
33.11853 97.000
33.13848 92.000
33.15842 106.000
33.17837 91.000
33.19832 105.000
33.21826 77.000
33.23821 102.000
33.25816 93.000
33.27810 88.000
33.29805 96.000
33.31800 80.000
33.33795 82.000
33.35789 87.000
33.37784 87.000
33.39779 78.000
33.41773 82.000
33.43768 73.000
33.45763 87.000
33.47757 93.000
33.49752 82.000
33.51747 73.000
33.53741 95.000
33.55736 76.000
33.57731 84.000
33.59726 114.000
33.61720 93.000
33.63715 81.000
33.65710 87.000
33.67704 79.000
33.69699 106.000
33.71694 99.000
33.73688 87.000
33.75683 113.000
33.77678 73.000
33.79673 84.000
33.81667 89.000
33.83662 85.000
33.85657 84.000
33.87651 80.000
33.89646 86.000
33.91641 85.000
33.93635 95.000
33.95630 77.000
33.97625 97.000
33.99620 81.000
34.01614 95.000
34.03609 98.000
34.05604 111.000
34.07598 94.000
34.09593 95.000
34.11588 102.000
34.13582 88.000
34.15577 78.000
34.17572 111.000
34.19566 114.000
34.21561 93.000
34.23556 98.000
34.25551 91.000
34.27545 115.000
34.29540 98.000
34.31535 100.000
34.33529 103.000
34.35524 102.000
34.37519 120.000
34.39513 95.000
34.41508 112.000
34.43503 110.000
34.45498 97.000
34.47492 119.000
34.49487 113.000
34.51482 124.000
34.53476 125.000
34.55471 127.000
34.57466 124.000
34.59460 124.000
34.61455 140.000
34.63450 153.000
34.65444 147.000
34.67439 144.000
34.69434 142.000
34.71429 129.000
34.73423 148.000
34.75418 157.000
34.77413 162.000
34.79407 156.000
34.81402 198.000
34.83397 222.000
34.85391 229.000
34.87386 338.000
34.89381 413.000
34.91376 541.000
34.93370 698.000
34.95365 823.000
34.97360 955.000
34.99354 966.000
35.01349 952.000
35.03344 853.000
35.05338 767.000
35.07333 631.000
35.09328 572.000
35.11322 454.000
35.13317 330.000
35.15312 274.000
35.17307 217.000
35.19301 191.000
35.21296 142.000
35.23291 178.000
35.25285 141.000
35.27280 145.000
35.29275 148.000
35.31269 162.000
35.33264 159.000
35.35259 157.000
35.37254 184.000
35.39248 226.000
35.41243 277.000
35.43238 359.000
35.45232 492.000
35.47227 498.000
35.49222 483.000
35.51216 434.000
35.53211 450.000
35.55206 412.000
35.57201 381.000
35.59195 350.000
35.61190 293.000
35.63185 223.000
35.65179 194.000
35.67174 177.000
35.69169 153.000
35.71163 132.000
35.73158 141.000
35.75153 125.000
35.77147 126.000
35.79142 130.000
35.81137 112.000
35.83132 109.000
35.85126 111.000
35.87121 95.000
35.89116 83.000
35.91110 94.000
35.93105 94.000
35.95100 82.000
35.97094 87.000
35.99089 94.000
36.01084 83.000
36.03079 79.000
36.05073 92.000
36.07068 83.000
36.09063 87.000
36.11057 79.000
36.13052 78.000
36.15047 91.000
36.17041 85.000
36.19036 110.000
36.21031 81.000
36.23025 95.000
36.25020 81.000
36.27015 108.000
36.29010 97.000
36.31004 123.000
36.32999 112.000
36.34994 127.000
36.36988 122.000
36.38983 124.000
36.40978 126.000
36.42972 156.000
36.44967 127.000
36.46962 135.000
36.48957 143.000
36.50951 146.000
36.52946 143.000
36.54941 169.000
36.56935 184.000
36.58930 154.000
36.60925 140.000
36.62919 149.000
36.64914 142.000
36.66909 123.000
36.68903 104.000
36.70898 95.000
36.72893 88.000
36.74888 80.000
36.76882 103.000
36.78877 83.000
36.80872 74.000
36.82866 73.000
36.84861 77.000
36.86856 89.000
36.88850 84.000
36.90845 96.000
36.92840 78.000
36.94835 82.000
36.96829 64.000
36.98824 90.000
37.00819 60.000
37.02813 62.000
37.04808 80.000
37.06803 85.000
37.08797 78.000
37.10792 88.000
37.12787 75.000
37.14781 72.000
37.16776 63.000
37.18771 67.000
37.20766 75.000
37.22760 78.000
37.24755 62.000
37.26750 66.000
37.28744 73.000
37.30739 77.000
37.32734 76.000
37.34728 64.000
37.36723 75.000
37.38718 80.000
37.40713 60.000
37.42707 66.000
37.44702 78.000
37.46697 86.000
37.48691 83.000
37.50686 77.000
37.52681 87.000
37.54675 82.000
37.56670 78.000
37.58665 69.000
37.60660 87.000
37.62654 81.000
37.64649 87.000
37.66644 71.000
37.68638 86.000
37.70633 91.000
37.72628 76.000
37.74622 88.000
37.76617 84.000
37.78612 82.000
37.80606 86.000
37.82601 108.000
37.84596 79.000
37.86591 91.000
37.88585 87.000
37.90580 93.000
37.92575 99.000
37.94569 96.000
37.96564 82.000
37.98559 97.000
38.00553 90.000
38.02548 93.000
38.04543 81.000
38.06538 87.000
38.08532 89.000
38.10527 104.000
38.12522 99.000
38.14516 88.000
38.16511 75.000
38.18506 77.000
38.20500 94.000
38.22495 107.000
38.24490 81.000
38.26484 84.000
38.28479 91.000
38.30474 98.000
38.32469 107.000
38.34463 100.000
38.36458 96.000
38.38453 104.000
38.40447 100.000
38.42442 96.000
38.44437 116.000
38.46431 114.000
38.48426 114.000
38.50421 106.000
38.52416 103.000
38.54410 114.000
38.56405 114.000
38.58400 129.000
38.60394 124.000
38.62389 128.000
38.64384 122.000
38.66378 131.000
38.68373 151.000
38.70368 137.000
38.72362 124.000
38.74357 143.000
38.76352 165.000
38.78347 177.000
38.80341 184.000
38.82336 177.000
38.84331 174.000
38.86325 224.000
38.88320 244.000
38.90315 271.000
38.92309 379.000
38.94304 498.000
38.96299 743.000
38.98294 937.000
39.00288 936.000
39.02283 829.000
39.04278 765.000
39.06272 716.000
39.08267 739.000
39.10262 652.000
39.12256 566.000
39.14251 476.000
39.16246 371.000
39.18241 283.000
39.20235 249.000
39.22230 233.000
39.24225 196.000
39.26219 178.000
39.28214 174.000
39.30209 128.000
39.32203 133.000
39.34198 132.000
39.36193 117.000
39.38187 120.000
39.40182 108.000
39.42177 80.000
39.44172 107.000
39.46166 101.000
39.48161 90.000
39.50156 87.000
39.52150 95.000
39.54145 108.000
39.56140 72.000
39.58134 100.000
39.60129 90.000
39.62124 102.000
39.64119 80.000
39.66113 99.000
39.68108 78.000
39.70103 78.000
39.72097 92.000
39.74092 71.000
39.76087 85.000
39.78081 80.000
39.80076 86.000
39.82071 61.000
39.84065 77.000
39.86060 68.000
39.88055 78.000
39.90050 84.000
39.92044 84.000
39.94039 82.000
39.96034 91.000
39.98028 74.000
40.00023 77.000
40.02018 83.000
40.04012 84.000
40.06007 81.000
40.08002 78.000
40.09997 88.000
40.11991 72.000
40.13986 73.000
40.15981 74.000
40.17975 79.000
40.19970 63.000
40.21965 78.000
40.23959 60.000
40.25954 73.000
40.27949 65.000
40.29943 69.000
40.31938 66.000
40.33933 74.000
40.35928 70.000
40.37922 72.000
40.39917 83.000
40.41912 66.000
40.43906 79.000
40.45901 74.000
40.47896 64.000
40.49890 68.000
40.51885 80.000
40.53880 84.000
40.55875 80.000
40.57869 70.000
40.59864 66.000
40.61859 63.000
40.63853 71.000
40.65848 82.000
40.67843 84.000
40.69837 68.000
40.71832 61.000
40.73827 61.000
40.75822 59.000
40.77816 64.000
40.79811 76.000
40.81806 57.000
40.83800 67.000
40.85795 75.000
40.87790 72.000
40.89784 68.000
40.91779 74.000
40.93774 86.000
40.95768 75.000
40.97763 63.000
40.99758 80.000
41.01753 79.000
41.03747 65.000
41.05742 82.000
41.07737 72.000
41.09731 62.000
41.11726 85.000
41.13721 72.000
41.15715 83.000
41.17710 79.000
41.19705 94.000
41.21700 76.000
41.23694 57.000
41.25689 93.000
41.27684 79.000
41.29678 63.000
41.31673 90.000
41.33668 67.000
41.35662 68.000
41.37657 89.000
41.39652 73.000
41.41646 68.000
41.43641 73.000
41.45636 86.000
41.47631 59.000
41.49625 76.000
41.51620 78.000
41.53615 79.000
41.55609 68.000
41.57604 74.000
41.59599 80.000
41.61593 82.000
41.63588 74.000
41.65583 64.000
41.67578 75.000
41.69572 91.000
41.71567 66.000
41.73562 68.000
41.75556 67.000
41.77551 69.000
41.79546 90.000
41.81540 80.000
41.83535 73.000
41.85530 79.000
41.87524 69.000
41.89519 69.000
41.91514 71.000
41.93509 87.000
41.95503 83.000
41.97498 83.000
41.99493 70.000
42.01487 78.000
42.03482 66.000
42.05477 82.000
42.07471 86.000
42.09466 85.000
42.11461 82.000
42.13456 90.000
42.15450 92.000
42.17445 89.000
42.19440 90.000
42.21434 84.000
42.23429 81.000
42.25424 84.000
42.27418 94.000
42.29413 91.000
42.31408 95.000
42.33403 121.000
42.35397 102.000
42.37392 158.000
42.39387 138.000
42.41381 192.000
42.43376 193.000
42.45371 227.000
42.47365 261.000
42.49360 280.000
42.51355 304.000
42.53349 251.000
42.55344 244.000
42.57339 244.000
42.59334 241.000
42.61328 213.000
42.63323 213.000
42.65318 169.000
42.67312 143.000
42.69307 145.000
42.71302 109.000
42.73296 102.000
42.75291 115.000
42.77286 102.000
42.79281 104.000
42.81275 118.000
42.83270 96.000
42.85265 104.000
42.87259 107.000
42.89254 129.000
42.91249 104.000
42.93243 120.000
42.95238 121.000
42.97233 149.000
42.99227 210.000
43.01222 228.000
43.03217 325.000
43.05212 409.000
43.07206 392.000
43.09201 357.000
43.11196 287.000
43.13190 337.000
43.15185 284.000
43.17180 311.000
43.19174 257.000
43.21169 225.000
43.23164 186.000
43.25159 178.000
43.27153 140.000
43.29148 136.000
43.31143 97.000
43.33137 115.000
43.35132 96.000
43.37127 119.000
43.39121 92.000
43.41116 77.000
43.43111 103.000
43.45105 78.000
43.47100 79.000
43.49095 82.000
43.51090 75.000
43.53084 76.000
43.55079 73.000
43.57074 69.000
43.59068 95.000
43.61063 69.000
43.63058 80.000
43.65052 64.000
43.67047 65.000
43.69042 69.000
43.71037 81.000
43.73031 60.000
43.75026 85.000
43.77021 63.000
43.79015 66.000
43.81010 71.000
43.83005 58.000
43.84999 71.000
43.86994 65.000
43.88989 69.000
43.90984 64.000
43.92978 48.000
43.94973 58.000
43.96968 71.000
43.98962 63.000
44.00957 60.000
44.02952 65.000
44.04946 63.000
44.06941 69.000
44.08936 65.000
44.10930 66.000
44.12925 51.000
44.14920 54.000
44.16915 74.000
44.18909 66.000
44.20904 52.000
44.22899 65.000
44.24893 69.000
44.26888 56.000
44.28883 75.000
44.30877 68.000
44.32872 76.000
44.34867 64.000
44.36862 70.000
44.38856 66.000
44.40851 62.000
44.42846 66.000
44.44840 72.000
44.46835 69.000
44.48830 72.000
44.50824 53.000
44.52819 58.000
44.54814 65.000
44.56808 55.000
44.58803 73.000
44.60798 64.000
44.62793 73.000
44.64787 55.000
44.66782 65.000
44.68777 62.000
44.70771 61.000
44.72766 64.000
44.74761 61.000
44.76755 53.000
44.78750 56.000
44.80745 55.000
44.82740 70.000
44.84734 63.000
44.86729 62.000
44.88724 56.000
44.90718 60.000
44.92713 58.000
44.94708 65.000
44.96702 57.000
44.98697 52.000
45.00692 58.000
45.02686 62.000
45.04681 60.000
45.06676 62.000
45.08671 51.000
45.10665 77.000
45.12660 49.000
45.14655 55.000
45.16649 60.000
45.18644 49.000
45.20639 49.000
45.22633 49.000
45.24628 61.000
45.26623 58.000
45.28618 65.000
45.30612 52.000
45.32607 53.000
45.34602 53.000
45.36596 45.000
45.38591 54.000
45.40586 44.000
45.42580 51.000
45.44575 51.000
45.46570 56.000
45.48565 52.000
45.50559 48.000
45.52554 48.000
45.54549 60.000
45.56543 40.000
45.58538 52.000
45.60533 58.000
45.62527 61.000
45.64522 60.000
45.66517 55.000
45.68511 58.000
45.70506 63.000
45.72501 70.000
45.74496 65.000
45.76490 60.000
45.78485 64.000
45.80480 57.000
45.82474 63.000
45.84469 56.000
45.86464 70.000
45.88458 55.000
45.90453 53.000
45.92448 52.000
45.94443 52.000
45.96437 45.000
45.98432 57.000
46.00427 61.000
46.02421 69.000
46.04416 57.000
46.06411 42.000
46.08405 65.000
46.10400 61.000
46.12395 57.000
46.14389 59.000
46.16384 63.000
46.18379 57.000
46.20374 53.000
46.22368 48.000
46.24363 68.000
46.26358 56.000
46.28352 54.000
46.30347 63.000
46.32342 55.000
46.34336 65.000
46.36331 72.000
46.38326 73.000
46.40321 62.000
46.42315 65.000
46.44310 76.000
46.46305 83.000
46.48299 69.000
46.50294 69.000
46.52289 74.000
46.54283 63.000
46.56278 65.000
46.58273 75.000
46.60267 56.000
46.62262 63.000
46.64257 60.000
46.66252 56.000
46.68246 58.000
46.70241 59.000
46.72236 59.000
46.74230 53.000
46.76225 59.000
46.78220 63.000
46.80214 57.000
46.82209 66.000
46.84204 64.000
46.86199 66.000
46.88193 59.000
46.90188 68.000
46.92183 59.000
46.94177 64.000
46.96172 76.000
46.98167 45.000
47.00161 52.000
47.02156 59.000
47.04151 48.000
47.06146 52.000
47.08140 71.000
47.10135 65.000
47.12130 57.000
47.14124 61.000
47.16119 56.000
47.18114 72.000
47.20108 56.000
47.22103 55.000
47.24098 60.000
47.26092 62.000
47.28087 57.000
47.30082 69.000
47.32077 64.000
47.34071 74.000
47.36066 66.000
47.38061 62.000
47.40055 72.000
47.42050 62.000
47.44045 68.000
47.46039 72.000
47.48034 55.000
47.50029 69.000
47.52024 72.000
47.54018 58.000
47.56013 69.000
47.58008 82.000
47.60002 59.000
47.61997 75.000
47.63992 77.000
47.65986 80.000
47.67981 67.000
47.69976 76.000
47.71970 76.000
47.73965 73.000
47.75960 80.000
47.77955 105.000
47.79949 86.000
47.81944 91.000
47.83939 101.000
47.85933 89.000
47.87928 94.000
47.89923 98.000
47.91917 102.000
47.93912 91.000
47.95907 102.000
47.97902 107.000
47.99896 118.000
48.01891 137.000
48.03886 116.000
48.05880 146.000
48.07875 120.000
48.09870 150.000
48.11864 192.000
48.13859 215.000
48.15854 230.000
48.17848 228.000
48.19843 287.000
48.21838 365.000
48.23833 504.000
48.25827 697.000
48.27822 780.000
48.29817 834.000
48.31811 733.000
48.33806 607.000
48.35801 543.000
48.37795 539.000
48.39790 590.000
48.41785 561.000
48.43780 516.000
48.45774 413.000
48.47769 265.000
48.49764 240.000
48.51758 213.000
48.53753 193.000
48.55748 153.000
48.57742 126.000
48.59737 132.000
48.61732 133.000
48.63726 119.000
48.65721 108.000
48.67716 113.000
48.69711 81.000
48.71705 75.000
48.73700 83.000
48.75695 66.000
48.77689 81.000
48.79684 79.000
48.81679 81.000
48.83673 57.000
48.85668 58.000
48.87663 54.000
48.89658 87.000
48.91652 65.000
48.93647 57.000
48.95642 72.000
48.97636 55.000
48.99631 76.000
49.01626 76.000
49.03620 67.000
49.05615 63.000
49.07610 59.000
49.09605 54.000
49.11599 62.000
49.13594 61.000
49.15589 53.000
49.17583 70.000
49.19578 48.000
49.21573 66.000
49.23567 57.000
49.25562 57.000
49.27557 60.000
49.29551 68.000
49.31546 53.000
49.33541 62.000
49.35536 59.000
49.37530 59.000
49.39525 57.000
49.41520 54.000
49.43514 52.000
49.45509 52.000
49.47504 64.000
49.49498 77.000
49.51493 55.000
49.53488 55.000
49.55483 61.000
49.57477 58.000
49.59472 55.000
49.61467 63.000
49.63461 52.000
49.65456 67.000
49.67451 61.000
49.69445 53.000
49.71440 52.000
49.73435 57.000
49.75429 54.000
49.77424 49.000
49.79419 57.000
49.81414 46.000
49.83408 52.000
49.85403 46.000
49.87398 58.000
49.89392 47.000
49.91387 54.000
49.93382 53.000
49.95376 59.000
49.97371 46.000
49.99366 56.000
50.01361 41.000
50.03355 55.000
50.05350 49.000
50.07345 50.000
50.09339 48.000
50.11334 63.000
50.13329 38.000
50.15323 44.000
50.17318 48.000
50.19313 52.000
50.21307 62.000
50.23302 50.000
50.25297 54.000
50.27292 48.000
50.29286 54.000
50.31281 54.000
50.33276 44.000
50.35270 63.000
50.37265 77.000
50.39260 58.000
50.41254 39.000
50.43249 53.000
50.45244 59.000
50.47239 38.000
50.49233 56.000
50.51228 55.000
50.53223 63.000
50.55217 53.000
50.57212 46.000
50.59207 42.000
50.61201 43.000
50.63196 49.000
50.65191 52.000
50.67186 57.000
50.69180 54.000
50.71175 38.000
50.73170 52.000
50.75164 48.000
50.77159 54.000
50.79154 50.000
50.81148 39.000
50.83143 60.000
50.85138 60.000
50.87132 42.000
50.89127 54.000
50.91122 57.000
50.93117 47.000
50.95111 53.000
50.97106 41.000
50.99101 44.000
51.01095 54.000
51.03090 37.000
51.05085 47.000
51.07079 42.000
51.09074 61.000
51.11069 53.000
51.13064 47.000
51.15058 35.000
51.17053 47.000
51.19048 52.000
51.21042 45.000
51.23037 40.000
51.25032 42.000
51.27026 51.000
51.29021 55.000
51.31016 47.000
51.33010 45.000
51.35005 41.000
51.37000 48.000
51.38995 57.000
51.40989 48.000
51.42984 42.000
51.44979 47.000
51.46973 47.000
51.48968 35.000
51.50963 42.000
51.52957 43.000
51.54952 44.000
51.56947 59.000
51.58942 50.000
51.60936 50.000
51.62931 50.000
51.64926 58.000
51.66920 44.000
51.68915 44.000
51.70910 48.000
51.72904 45.000
51.74899 40.000
51.76894 43.000
51.78888 46.000
51.80883 37.000
51.82878 52.000
51.84873 47.000
51.86867 40.000
51.88862 46.000
51.90857 34.000
51.92851 41.000
51.94846 43.000
51.96841 51.000
51.98835 49.000
52.00830 43.000
52.02825 40.000
52.04820 45.000
52.06814 48.000
52.08809 47.000
52.10804 52.000
52.12798 55.000
52.14793 41.000
52.16788 37.000
52.18782 49.000
52.20777 47.000
52.22772 36.000
52.24767 44.000
52.26761 44.000
52.28756 47.000
52.30751 47.000
52.32745 43.000
52.34740 40.000
52.36735 39.000
52.38729 52.000
52.40724 48.000
52.42719 56.000
52.44713 59.000
52.46708 50.000
52.48703 55.000
52.50698 43.000
52.52692 51.000
52.54687 56.000
52.56682 66.000
52.58676 68.000
52.60671 71.000
52.62666 79.000
52.64660 84.000
52.66655 83.000
52.68650 69.000
52.70645 99.000
52.72639 93.000
52.74634 116.000
52.76629 98.000
52.78623 102.000
52.80618 79.000
52.82613 80.000
52.84607 62.000
52.86602 71.000
52.88597 75.000
52.90591 69.000
52.92586 79.000
52.94581 61.000
52.96576 68.000
52.98570 59.000
53.00565 58.000
53.02560 52.000
53.04554 56.000
53.06549 58.000
53.08544 44.000
53.10538 52.000
53.12533 45.000
53.14528 47.000
53.16523 46.000
53.18517 52.000
53.20512 52.000
53.22507 41.000
53.24501 42.000
53.26496 49.000
53.28491 53.000
53.30485 46.000
53.32480 49.000
53.34475 45.000
53.36469 40.000
53.38464 43.000
53.40459 40.000
53.42454 43.000
53.44448 62.000
53.46443 57.000
53.48438 52.000
53.50432 51.000
53.52427 47.000
53.54422 59.000
53.56416 47.000
53.58411 64.000
53.60406 35.000
53.62401 49.000
53.64395 39.000
53.66390 51.000
53.68385 50.000
53.70379 51.000
53.72374 49.000
53.74369 40.000
53.76363 45.000
53.78358 51.000
53.80353 42.000
53.82348 59.000
53.84342 56.000
53.86337 40.000
53.88332 45.000
53.90326 60.000
53.92321 40.000
53.94316 67.000
53.96310 57.000
53.98305 47.000
54.00300 42.000
54.02294 44.000
54.04289 40.000
54.06284 41.000
54.08279 44.000
54.10273 45.000
54.12268 55.000
54.14263 38.000
54.16257 40.000
54.18252 46.000
54.20247 39.000
54.22241 46.000
54.24236 54.000
54.26231 58.000
54.28226 46.000
54.30220 35.000
54.32215 46.000
54.34210 48.000
54.36204 49.000
54.38199 48.000
54.40194 59.000
54.42188 45.000
54.44183 39.000
54.46178 56.000
54.48172 36.000
54.50167 54.000
54.52162 55.000
54.54157 52.000
54.56151 54.000
54.58146 49.000
54.60141 53.000
54.62135 40.000
54.64130 35.000
54.66125 32.000
54.68119 59.000
54.70114 36.000
54.72109 52.000
54.74104 40.000
54.76098 49.000
54.78093 68.000
54.80088 45.000
54.82082 43.000
54.84077 54.000
54.86072 51.000
54.88066 40.000
54.90061 47.000
54.92056 49.000
54.94050 55.000
54.96045 47.000
54.98040 49.000
55.00035 39.000
55.02029 49.000
55.04024 49.000
55.06019 37.000
55.08013 46.000
55.10008 48.000
55.12003 61.000
55.13997 46.000
55.15992 34.000
55.17987 48.000
55.19982 51.000
55.21976 48.000
55.23971 39.000
55.25966 38.000
55.27960 59.000
55.29955 39.000
55.31950 47.000
55.33944 46.000
55.35939 30.000
55.37934 56.000
55.39929 41.000
55.41923 43.000
55.43918 36.000
55.45913 60.000
55.47907 50.000
55.49902 46.000
55.51897 36.000
55.53891 49.000
55.55886 57.000
55.57881 46.000
55.59875 52.000
55.61870 46.000
55.63865 54.000
55.65860 48.000
55.67854 37.000
55.69849 53.000
55.71844 49.000
55.73838 70.000
55.75833 63.000
55.77828 51.000
55.79822 63.000
55.81817 54.000
55.83812 62.000
55.85807 54.000
55.87801 57.000
55.89796 64.000
55.91791 73.000
55.93785 73.000
55.95780 72.000
55.97775 83.000
55.99769 87.000
56.01764 117.000
56.03759 124.000
56.05753 123.000
56.07748 150.000
56.09743 199.000
56.11738 202.000
56.13732 196.000
56.15727 232.000
56.17722 261.000
56.19716 253.000
56.21711 239.000
56.23706 244.000
56.25700 236.000
56.27695 210.000
56.29690 177.000
56.31685 186.000
56.33679 190.000
56.35674 177.000
56.37669 164.000
56.39663 141.000
56.41658 107.000
56.43653 110.000
56.45647 91.000
56.47642 91.000
56.49637 62.000
56.51631 75.000
56.53626 58.000
56.55621 60.000
56.57616 44.000
56.59610 56.000
56.61605 47.000
56.63600 56.000
56.65594 44.000
56.67589 55.000
56.69584 45.000
56.71578 40.000
56.73573 53.000
56.75568 50.000
56.77563 44.000
56.79557 55.000
56.81552 51.000
56.83547 55.000
56.85541 50.000
56.87536 55.000
56.89531 46.000
56.91525 51.000
56.93520 50.000
56.95515 56.000
56.97510 47.000
56.99504 45.000
57.01499 52.000
57.03494 46.000
57.05488 33.000
57.07483 48.000
57.09478 46.000
57.11472 44.000
57.13467 50.000
57.15462 40.000
57.17456 51.000
57.19451 47.000
57.21446 37.000
57.23441 38.000
57.25435 42.000
57.27430 33.000
57.29425 46.000
57.31419 47.000
57.33414 42.000
57.35409 41.000
57.37403 47.000
57.39398 45.000
57.41393 47.000
57.43388 50.000
57.45382 51.000
57.47377 44.000
57.49372 34.000
57.51366 42.000
57.53361 48.000
57.55356 41.000
57.57350 40.000
57.59345 33.000
57.61340 42.000
57.63334 45.000
57.65329 56.000
57.67324 33.000
57.69319 36.000
57.71313 40.000
57.73308 45.000
57.75303 51.000
57.77297 35.000
57.79292 48.000
57.81287 45.000
57.83281 39.000
57.85276 37.000
57.87271 47.000
57.89266 47.000
57.91260 50.000
57.93255 41.000
57.95250 50.000
57.97244 51.000
57.99239 46.000
58.01234 29.000
58.03228 51.000
58.05223 43.000
58.07218 50.000
58.09212 40.000
58.11207 57.000
58.13202 42.000
58.15197 49.000
58.17191 43.000
58.19186 46.000
58.21181 36.000
58.23175 57.000
58.25170 46.000
58.27165 47.000
58.29159 50.000
58.31154 48.000
58.33149 42.000
58.35144 47.000
58.37138 41.000
58.39133 46.000
58.41128 40.000
58.43122 39.000
58.45117 43.000
58.47112 44.000
58.49106 44.000
58.51101 38.000
58.53096 53.000
58.55090 46.000
58.57085 43.000
58.59080 36.000
58.61075 56.000
58.63069 45.000
58.65064 39.000
58.67059 40.000
58.69053 46.000
58.71048 52.000
58.73043 53.000
58.75037 48.000
58.77032 38.000
58.79027 48.000
58.81022 39.000
58.83016 45.000
58.85011 39.000
58.87006 56.000
58.89000 38.000
58.90995 55.000
58.92990 46.000
58.94984 43.000
58.96979 44.000
58.98974 45.000
59.00969 58.000
59.02963 46.000
59.04958 51.000
59.06953 46.000
59.08947 45.000
59.10942 41.000
59.12937 33.000
59.14931 50.000
59.16926 62.000
59.18921 54.000
59.20915 59.000
59.22910 49.000
59.24905 55.000
59.26900 48.000
59.28894 39.000
59.30889 47.000
59.32884 46.000
59.34878 35.000
59.36873 50.000
59.38868 33.000
59.40862 45.000
59.42857 44.000
59.44852 34.000
59.46847 37.000
59.48841 43.000
59.50836 48.000
59.52831 39.000
59.54825 39.000
59.56820 54.000
59.58815 54.000
59.60809 48.000
59.62804 38.000
59.64799 44.000
59.66793 48.000
59.68788 49.000
59.70783 50.000
59.72778 51.000
59.74772 43.000
59.76767 43.000
59.78762 55.000
59.80756 44.000
59.82751 39.000
59.84746 37.000
59.86740 37.000
59.88735 41.000
59.90730 43.000
59.92725 67.000
59.94719 50.000
59.96714 45.000
59.98709 39.000
60.00703 47.000
60.02698 54.000
60.04693 59.000
60.06687 52.000
60.08682 45.000
60.10677 45.000
60.12671 44.000
60.14666 36.000
60.16661 55.000
60.18656 55.000
60.20650 44.000
60.22645 50.000
60.24640 41.000
60.26634 52.000
60.28629 36.000
60.30624 45.000
60.32618 57.000
60.34613 43.000
60.36608 52.000
60.38603 43.000
60.40597 75.000
60.42592 40.000
60.44587 51.000
60.46581 47.000
60.48576 56.000
60.50571 53.000
60.52565 65.000
60.54560 49.000
60.56555 60.000
60.58550 42.000
60.60544 50.000
60.62539 41.000
60.64534 53.000
60.66528 48.000
60.68523 58.000
60.70518 51.000
60.72512 45.000
60.74507 46.000
60.76502 46.000
60.78496 52.000
60.80491 56.000
60.82486 55.000
60.84481 65.000
60.86475 57.000
60.88470 71.000
60.90465 61.000
60.92459 60.000
60.94454 72.000
60.96449 82.000
60.98443 66.000
61.00438 69.000
61.02433 61.000
61.04428 86.000
61.06422 81.000
61.08417 103.000
61.10412 96.000
61.12406 102.000
61.14401 99.000
61.16396 101.000
61.18390 110.000
61.20385 115.000
61.22380 144.000
61.24374 127.000
61.26369 173.000
61.28364 183.000
61.30359 215.000
61.32353 286.000
61.34348 325.000
61.36343 358.000
61.38337 358.000
61.40332 336.000
61.42327 264.000
61.44321 305.000
61.46316 264.000
61.48311 302.000
61.50306 276.000
61.52300 287.000
61.54295 351.000
61.56290 317.000
61.58284 360.000
61.60279 355.000
61.62274 306.000
61.64268 319.000
61.66263 341.000
61.68258 275.000
61.70252 272.000
61.72247 287.000
61.74242 290.000
61.76237 246.000
61.78231 265.000
61.80226 211.000
61.82221 226.000
61.84215 201.000
61.86210 204.000
61.88205 171.000
61.90199 135.000
61.92194 123.000
61.94189 129.000
61.96184 112.000
61.98178 108.000
62.00173 103.000
62.02168 99.000
62.04162 72.000
62.06157 75.000
62.08152 88.000
62.10146 67.000
62.12141 70.000
62.14136 61.000
62.16131 43.000
62.18125 72.000
62.20120 59.000
62.22115 64.000
62.24109 54.000
62.26104 58.000
62.28099 53.000
62.30093 45.000
62.32088 57.000
62.34083 54.000
62.36077 37.000
62.38072 52.000
62.40067 60.000
62.42062 49.000
62.44056 58.000
62.46051 60.000
62.48046 65.000
62.50040 43.000
62.52035 51.000
62.54030 45.000
62.56024 57.000
62.58019 61.000
62.60014 67.000
62.62009 62.000
62.64003 48.000
62.65998 33.000
62.67993 47.000
62.69987 55.000
62.71982 47.000
62.73977 48.000
62.75971 54.000
62.77966 51.000
62.79961 48.000
62.81955 42.000
62.83950 45.000
62.85945 46.000
62.87940 49.000
62.89934 49.000
62.91929 45.000
62.93924 46.000
62.95918 53.000
62.97913 61.000
62.99908 44.000
63.01902 58.000
63.03897 77.000
63.05892 61.000
63.07887 44.000
63.09881 46.000
63.11876 65.000
63.13871 49.000
63.15865 60.000
63.17860 61.000
63.19855 58.000
63.21849 67.000
63.23844 54.000
63.25839 42.000
63.27833 63.000
63.29828 49.000
63.31823 66.000
63.33818 56.000
63.35812 72.000
63.37807 57.000
63.39802 46.000
63.41796 62.000
63.43791 64.000
63.45786 84.000
63.47780 74.000
63.49775 92.000
63.51770 70.000
63.53765 84.000
63.55759 120.000
63.57754 125.000
63.59749 148.000
63.61743 184.000
63.63738 192.000
63.65733 229.000
63.67727 231.000
63.69722 232.000
63.71717 199.000
63.73712 198.000
63.75706 196.000
63.77701 179.000
63.79696 190.000
63.81690 193.000
63.83685 188.000
63.85680 199.000
63.87674 168.000
63.89669 193.000
63.91664 153.000
63.93658 153.000
63.95653 130.000
63.97648 112.000
63.99643 102.000
64.01637 103.000
64.03632 100.000
64.05627 99.000
64.07621 99.000
64.09616 75.000
64.11611 85.000
64.13605 63.000
64.15600 71.000
64.17595 60.000
64.19590 70.000
64.21584 68.000
64.23579 62.000
64.25574 70.000
64.27568 74.000
64.29563 57.000
64.31558 52.000
64.33552 70.000
64.35547 60.000
64.37542 42.000
64.39536 31.000
64.41531 68.000
64.43526 45.000
64.45521 47.000
64.47515 52.000
64.49510 62.000
64.51505 55.000
64.53499 54.000
64.55494 45.000
64.57489 55.000
64.59483 43.000
64.61478 41.000
64.63473 55.000
64.65468 43.000
64.67462 54.000
64.69457 64.000
64.71452 47.000
64.73446 55.000
64.75441 61.000
64.77436 65.000
64.79430 62.000
64.81425 53.000
64.83420 53.000
64.85414 51.000
64.87409 59.000
64.89404 46.000
64.91399 50.000
64.93393 59.000
64.95388 62.000
64.97383 55.000
64.99377 58.000
65.01372 49.000
65.03367 54.000
65.05361 56.000
65.07356 54.000
65.09351 47.000
65.11346 55.000
65.13340 45.000
65.15335 37.000
65.17330 40.000
65.19324 47.000
65.21319 47.000
65.23314 53.000
65.25308 46.000
65.27303 50.000
65.29298 46.000
65.31293 45.000
65.33287 39.000
65.35282 51.000
65.37277 45.000
65.39271 47.000
65.41266 41.000
65.43261 41.000
65.45255 59.000
65.47250 51.000
65.49245 48.000
65.51239 55.000
65.53234 55.000
65.55229 60.000
65.57224 68.000
65.59218 56.000
65.61213 56.000
65.63208 53.000
65.65202 67.000
65.67197 47.000
65.69192 47.000
65.71186 58.000
65.73181 66.000
65.75176 63.000
65.77171 76.000
65.79165 67.000
65.81160 59.000
65.83155 67.000
65.85149 82.000
65.87144 56.000
65.89139 71.000
65.91133 91.000
65.93128 117.000
65.95123 117.000
65.97117 144.000
65.99112 155.000
66.01107 197.000
66.03102 200.000
66.05096 230.000
66.07091 168.000
66.09086 202.000
66.11080 158.000
66.13075 170.000
66.15070 199.000
66.17064 171.000
66.19059 189.000
66.21054 152.000
66.23049 157.000
66.25043 169.000
66.27038 146.000
66.29033 130.000
66.31027 133.000
66.33022 119.000
66.35017 124.000
66.37011 93.000
66.39006 93.000
66.41001 73.000
66.42995 84.000
66.44990 96.000
66.46985 86.000
66.48980 56.000
66.50974 66.000
66.52969 57.000
66.54964 59.000
66.56958 40.000
66.58953 51.000
66.60948 47.000
66.62942 48.000
66.64937 34.000
66.66932 36.000
66.68927 49.000
66.70921 54.000
66.72916 39.000
66.74911 44.000
66.76905 41.000
66.78900 54.000
66.80895 33.000
66.82889 44.000
66.84884 36.000
66.86879 32.000
66.88874 31.000
66.90868 51.000
66.92863 32.000
66.94858 38.000
66.96852 41.000
66.98847 43.000
67.00842 36.000
67.02836 51.000
67.04831 35.000
67.06826 42.000
67.08820 31.000
67.10815 44.000
67.12810 33.000
67.14805 49.000
67.16799 34.000
67.18794 38.000
67.20789 40.000
67.22783 39.000
67.24778 33.000
67.26773 46.000
67.28767 39.000
67.30762 35.000
67.32757 37.000
67.34752 34.000
67.36746 44.000
67.38741 36.000
67.40736 31.000
67.42730 37.000
67.44725 44.000
67.46720 38.000
67.48714 38.000
67.50709 50.000
67.52704 42.000
67.54698 30.000
67.56693 40.000
67.58688 38.000
67.60683 51.000
67.62677 48.000
67.64672 33.000
67.66667 31.000
67.68661 28.000
67.70656 39.000
67.72651 40.000
67.74645 44.000
67.76640 47.000
67.78635 34.000
67.80630 39.000
67.82624 42.000
67.84619 34.000
67.86614 39.000
67.88608 38.000
67.90603 34.000
67.92598 32.000
67.94592 40.000
67.96587 39.000
67.98582 38.000
68.00576 34.000
68.02571 38.000
68.04566 25.000
68.06561 36.000
68.08555 44.000
68.10550 45.000
68.12545 27.000
68.14539 37.000
68.16534 40.000
68.18529 37.000
68.20523 39.000
68.22518 38.000
68.24513 45.000
68.26508 24.000
68.28502 35.000
68.30497 34.000
68.32492 42.000
68.34486 44.000
68.36481 29.000
68.38476 50.000
68.40470 21.000
68.42465 32.000
68.44460 40.000
68.46455 38.000
68.48449 28.000
68.50444 29.000
68.52439 35.000
68.54433 31.000
68.56428 36.000
68.58423 35.000
68.60417 33.000
68.62412 37.000
68.64407 33.000
68.66401 40.000
68.68396 35.000
68.70391 25.000
68.72386 32.000
68.74380 35.000
68.76375 38.000
68.78370 33.000
68.80364 37.000
68.82359 45.000
68.84354 44.000
68.86348 47.000
68.88343 45.000
68.90338 21.000
68.92333 38.000
68.94327 33.000
68.96322 38.000
68.98317 34.000
69.00311 33.000
69.02306 39.000
69.04301 51.000
69.06295 51.000
69.08290 42.000
69.10285 35.000
69.12279 40.000
69.14274 40.000
69.16269 33.000
69.18264 35.000
69.20258 41.000
69.22253 49.000
69.24248 34.000
69.26242 38.000
69.28237 45.000
69.30232 34.000
69.32226 33.000
69.34221 33.000
69.36216 35.000
69.38211 25.000
69.40205 44.000
69.42200 31.000
69.44195 42.000
69.46189 29.000
69.48184 43.000
69.50179 34.000
69.52173 35.000
69.54168 31.000
69.56163 35.000
69.58157 45.000
69.60152 32.000
69.62147 43.000
69.64142 39.000
69.66136 41.000
69.68131 47.000
69.70126 38.000
69.72120 33.000
69.74115 27.000
69.76110 31.000
69.78104 38.000
69.80099 33.000
69.82094 35.000
69.84089 37.000
69.86083 40.000
69.88078 43.000
69.90073 41.000
69.92067 40.000
69.94062 28.000
69.96057 38.000
69.98051 52.000
70.00046 33.000
70.02041 49.000
70.04035 49.000
70.06030 50.000
70.08025 43.000
70.10020 52.000
70.12014 34.000
70.14009 42.000
70.16004 45.000
70.17998 29.000
70.19993 30.000
70.21988 34.000
70.23982 46.000
70.25977 41.000
70.27972 37.000
70.29967 29.000
70.31961 33.000
70.33956 45.000
70.35951 37.000
70.37945 31.000
70.39940 35.000
70.41935 39.000
70.43929 29.000
70.45924 47.000
70.47919 33.000
70.49914 26.000
70.51908 30.000
70.53903 36.000
70.55898 38.000
70.57892 44.000
70.59887 35.000
70.61882 35.000
70.63876 38.000
70.65871 33.000
70.67866 41.000
70.69860 36.000
70.71855 31.000
70.73850 40.000
70.75845 33.000
70.77839 33.000
70.79834 40.000
70.81829 38.000
70.83823 43.000
70.85818 38.000
70.87813 32.000
70.89807 36.000
70.91802 35.000
70.93797 35.000
70.95792 31.000
70.97786 27.000
70.99781 26.000
71.01776 37.000
71.03770 29.000
71.05765 41.000
71.07760 30.000
71.09754 38.000
71.11749 28.000
71.13744 28.000
71.15738 27.000
71.17733 40.000
71.19728 36.000
71.21723 36.000
71.23717 26.000
71.25712 30.000
71.27707 36.000
71.29701 29.000
71.31696 36.000
71.33691 34.000
71.35685 36.000
71.37680 28.000
71.39675 31.000
71.41670 35.000
71.43664 47.000
71.45659 29.000
71.47654 38.000
71.49648 29.000
71.51643 39.000
71.53638 37.000
71.55632 42.000
71.57627 32.000
71.59622 31.000
71.61616 38.000
71.63611 28.000
71.65606 29.000
71.67601 48.000
71.69595 35.000
71.71590 38.000
71.73585 32.000
71.75579 39.000
71.77574 34.000
71.79569 40.000
71.81563 28.000
71.83558 38.000
71.85553 34.000
71.87548 43.000
71.89542 32.000
71.91537 36.000
71.93532 39.000
71.95526 24.000
71.97521 37.000
71.99516 26.000
72.01510 37.000
72.03505 46.000
72.05500 35.000
72.07495 32.000
72.09489 24.000
72.11484 34.000
72.13479 45.000
72.15473 45.000
72.17468 35.000
72.19463 40.000
72.21457 44.000
72.23452 31.000
72.25447 36.000
72.27441 33.000
72.29436 31.000
72.31431 41.000
72.33426 28.000
72.35420 34.000
72.37415 40.000
72.39410 46.000
72.41404 33.000
72.43399 36.000
72.45394 37.000
72.47388 48.000
72.49383 40.000
72.51378 34.000
72.53373 46.000
72.55367 42.000
72.57362 48.000
72.59357 39.000
72.61351 40.000
72.63346 44.000
72.65341 53.000
72.67335 64.000
72.69330 51.000
72.71325 67.000
72.73319 60.000
72.75314 86.000
72.77309 88.000
72.79304 81.000
72.81298 100.000
72.83293 110.000
72.85288 136.000
72.87282 105.000
72.89277 128.000
72.91272 124.000
72.93266 117.000
72.95261 93.000
72.97256 120.000
72.99251 107.000
73.01245 109.000
73.03240 101.000
73.05235 92.000
73.07229 122.000
73.09224 106.000
73.11219 109.000
73.13213 87.000
73.15208 100.000
73.17203 90.000
73.19197 64.000
73.21192 78.000
73.23187 59.000
73.25182 73.000
73.27176 59.000
73.29171 56.000
73.31166 54.000
73.33160 50.000
73.35155 58.000
73.37150 48.000
73.39144 49.000
73.41139 33.000
73.43134 38.000
73.45129 38.000
73.47123 41.000
73.49118 42.000
73.51113 33.000
73.53107 46.000
73.55102 30.000
73.57097 30.000
73.59091 29.000
73.61086 40.000
73.63081 33.000
73.65076 35.000
73.67070 33.000
73.69065 33.000
73.71060 36.000
73.73054 40.000
73.75049 47.000
73.77044 58.000
73.79038 52.000
73.81033 52.000
73.83028 66.000
73.85022 46.000
73.87017 46.000
73.89012 62.000
73.91007 67.000
73.93001 53.000
73.94996 50.000
73.96991 56.000
73.98985 44.000
74.00980 53.000
74.02975 51.000
74.04969 63.000
74.06964 54.000
74.08959 57.000
74.10954 51.000
74.12948 53.000
74.14943 50.000
74.16938 48.000
74.18932 41.000
74.20927 32.000
74.22922 48.000
74.24916 41.000
74.26911 41.000
74.28906 40.000
74.30900 35.000
74.32895 31.000
74.34890 40.000
74.36885 33.000
74.38879 24.000
74.40874 36.000
74.42869 30.000
74.44863 35.000
74.46858 20.000
74.48853 41.000
74.50847 33.000
74.52842 38.000
74.54837 39.000
74.56832 27.000
74.58826 37.000
74.60821 39.000
74.62816 35.000
74.64810 31.000
74.66805 35.000
74.68800 32.000
74.70794 33.000
74.72789 46.000
74.74784 29.000
74.76778 36.000
74.78773 38.000
74.80768 40.000
74.82763 36.000
74.84757 49.000
74.86752 27.000
74.88747 42.000
74.90741 42.000
74.92736 46.000
74.94731 39.000
74.96725 40.000
74.98720 41.000
75.00715 53.000
75.02710 54.000
75.04704 54.000
75.06699 48.000
75.08694 40.000
75.10688 44.000
75.12683 47.000
75.14678 50.000
75.16672 46.000
75.18667 54.000
75.20662 42.000
75.22657 43.000
75.24651 53.000
75.26646 44.000
75.28641 52.000
75.30635 39.000
75.32630 47.000
75.34625 53.000
75.36619 36.000
75.38614 42.000
75.40609 45.000
75.42603 38.000
75.44598 36.000
75.46593 28.000
75.48588 32.000
75.50582 33.000
75.52577 46.000
75.54572 38.000
75.56566 33.000
75.58561 41.000
75.60556 29.000
75.62550 28.000
75.64545 42.000
75.66540 37.000
75.68535 43.000
75.70529 38.000
75.72524 35.000
75.74519 36.000
75.76513 39.000
75.78508 40.000
75.80503 32.000
75.82497 31.000
75.84492 36.000
75.86487 24.000
75.88481 44.000
75.90476 31.000
75.92471 34.000
75.94466 29.000
75.96460 30.000
75.98455 38.000
76.00450 32.000
76.02444 22.000
76.04439 41.000
76.06434 34.000
76.08428 36.000
76.10423 28.000
76.12418 26.000
76.14413 40.000
76.16407 41.000
76.18402 27.000
76.20397 36.000
76.22391 28.000
76.24386 25.000
76.26381 26.000
76.28375 35.000
76.30370 27.000
76.32365 35.000
76.34359 28.000
76.36354 37.000
76.38349 40.000
76.40344 36.000
76.42338 28.000
76.44333 24.000
76.46328 38.000
76.48322 31.000
76.50317 30.000
76.52312 24.000
76.54306 32.000
76.56301 39.000
76.58296 31.000
76.60291 26.000
76.62285 40.000
76.64280 22.000
76.66275 27.000
76.68269 47.000
76.70264 39.000
76.72259 34.000
76.74253 40.000
76.76248 43.000
76.78243 37.000
76.80238 43.000
76.82232 36.000
76.84227 40.000
76.86222 40.000
76.88216 41.000
76.90211 45.000
76.92206 48.000
76.94200 50.000
76.96195 46.000
76.98190 58.000
77.00184 59.000
77.02179 74.000
77.04174 50.000
77.06169 50.000
77.08163 70.000
77.10158 74.000
77.12153 75.000
77.14147 87.000
77.16142 86.000
77.18137 101.000
77.20131 84.000
77.22126 99.000
77.24121 108.000
77.26116 125.000
77.28110 112.000
77.30105 152.000
77.32100 115.000
77.34094 152.000
77.36089 127.000
77.38084 149.000
77.40078 152.000
77.42073 149.000
77.44068 133.000
77.46062 115.000
77.48057 127.000
77.50052 124.000
77.52047 119.000
77.54041 112.000
77.56036 114.000
77.58031 91.000
77.60025 109.000
77.62020 101.000
77.64015 90.000
77.66009 72.000
77.68004 107.000
77.69999 95.000
77.71994 85.000
77.73988 71.000
77.75983 73.000
77.77978 77.000
77.79972 77.000
77.81967 59.000
77.83962 71.000
77.85956 84.000
77.87951 56.000
77.89946 58.000
77.91940 53.000
77.93935 49.000
77.95930 64.000
77.97925 56.000
77.99919 47.000
78.01914 45.000
78.03909 43.000
78.05903 47.000
78.07898 34.000
78.09893 44.000
78.11887 40.000
78.13882 36.000
78.15877 43.000
78.17872 32.000
78.19866 29.000
78.21861 45.000
78.23856 33.000
78.25850 40.000
78.27845 36.000
78.29840 35.000
78.31834 28.000
78.33829 32.000
78.35824 25.000
78.37819 40.000
78.39813 42.000
78.41808 41.000
78.43803 34.000
78.45797 25.000
78.47792 41.000
78.49787 37.000
78.51781 24.000
78.53776 29.000
78.55771 37.000
78.57765 33.000
78.59760 21.000
78.61755 40.000
78.63750 40.000
78.65744 32.000
78.67739 32.000
78.69734 37.000
78.71728 36.000
78.73723 31.000
78.75718 32.000
78.77712 26.000
78.79707 31.000
78.81702 39.000
78.83697 34.000
78.85691 37.000
78.87686 32.000
78.89681 27.000
78.91675 28.000
78.93670 39.000
78.95665 31.000
78.97659 29.000
78.99654 25.000
79.01649 29.000
79.03643 32.000
79.05638 46.000
79.07633 29.000
79.09628 34.000
79.11622 30.000
79.13617 31.000
79.15612 23.000
79.17606 41.000
79.19601 21.000
79.21596 25.000
79.23590 36.000
79.25585 29.000
79.27580 32.000
79.29575 36.000
79.31569 36.000
79.33564 26.000
79.35559 36.000
79.37553 23.000
79.39548 28.000
79.41543 20.000
79.43537 27.000
79.45532 36.000
79.47527 30.000
79.49521 33.000
79.51516 27.000
79.53511 33.000
79.55506 40.000
79.57500 25.000
79.59495 26.000
79.61490 29.000
79.63484 55.000
79.65479 35.000
79.67474 27.000
79.69468 30.000
79.71463 29.000
79.73458 31.000
79.75453 36.000
79.77447 37.000
79.79442 17.000
79.81437 34.000
79.83431 39.000
79.85426 31.000
79.87421 36.000
79.89415 30.000
79.91410 36.000
79.93405 39.000
79.95399 35.000
79.97394 34.000
79.99389 37.000
80.01384 40.000
80.03378 40.000
80.05373 34.000
80.07368 25.000
80.09362 33.000
80.11357 39.000
80.13352 35.000
80.15346 30.000
80.17341 34.000
80.19336 34.000
80.21331 33.000
80.23325 37.000
80.25320 37.000
80.27315 44.000
80.29309 32.000
80.31304 41.000
80.33299 36.000
80.35293 33.000
80.37288 28.000
80.39283 32.000
80.41278 34.000
80.43272 29.000
80.45267 39.000
80.47262 38.000
80.49256 35.000
80.51251 30.000
80.53246 37.000
80.55240 48.000
80.57235 33.000
80.59230 36.000
80.61224 35.000
80.63219 34.000
80.65214 32.000
80.67209 34.000
80.69203 35.000
80.71198 33.000
80.73193 33.000
80.75187 41.000
80.77182 40.000
80.79177 31.000
80.81171 27.000
80.83166 29.000
80.85161 27.000
80.87156 31.000
80.89150 41.000
80.91145 37.000
80.93140 25.000
80.95134 35.000
80.97129 28.000
80.99124 27.000
81.01118 18.000
81.03113 35.000
81.05108 40.000
81.07102 33.000
81.09097 32.000
81.11092 23.000
81.13087 38.000
81.15081 28.000
81.17076 34.000
81.19071 21.000
81.21065 24.000
81.23060 22.000
81.25055 29.000
81.27049 30.000
81.29044 27.000
81.31039 32.000
81.33034 35.000
81.35028 29.000
81.37023 25.000
81.39018 28.000
81.41012 20.000
81.43007 26.000
81.45002 24.000
81.46996 22.000
81.48991 29.000
81.50986 29.000
81.52980 26.000
81.54975 19.000
81.56970 34.000
81.58965 27.000
81.60959 15.000
81.62954 30.000
81.64949 40.000
81.66943 25.000
81.68938 21.000
81.70933 32.000
81.72927 35.000
81.74922 39.000
81.76917 22.000
81.78912 30.000
81.80906 32.000
81.82901 28.000
81.84896 21.000
81.86890 30.000
81.88885 29.000
81.90880 32.000
81.92874 24.000
81.94869 23.000
81.96864 33.000
81.98859 29.000
82.00853 26.000
82.02848 42.000
82.04843 24.000
82.06837 28.000
82.08832 31.000
82.10827 33.000
82.12821 28.000
82.14816 32.000
82.16811 33.000
82.18805 26.000
82.20800 25.000
82.22795 32.000
82.24790 26.000
82.26784 23.000
82.28779 36.000
82.30774 25.000
82.32768 26.000
82.34763 31.000
82.36758 27.000
82.38752 38.000
82.40747 30.000
82.42742 36.000
82.44737 35.000
82.46731 22.000
82.48726 27.000
82.50721 16.000
82.52715 28.000
82.54710 29.000
82.56705 25.000
82.58699 33.000
82.60694 31.000
82.62689 26.000
82.64683 34.000
82.66678 35.000
82.68673 26.000
82.70668 36.000
82.72662 29.000
82.74657 30.000
82.76652 28.000
82.78646 27.000
82.80641 24.000
82.82636 28.000
82.84630 27.000
82.86625 33.000
82.88620 35.000
82.90615 34.000
82.92609 45.000
82.94604 32.000
82.96599 33.000
82.98593 26.000
83.00588 30.000
83.02583 36.000
83.04577 25.000
83.06572 27.000
83.08567 23.000
83.10561 30.000
83.12556 24.000
83.14551 26.000
83.16546 26.000
83.18540 33.000
83.20535 27.000
83.22530 43.000
83.24524 41.000
83.26519 35.000
83.28514 31.000
83.30508 34.000
83.32503 40.000
83.34498 34.000
83.36493 45.000
83.38487 37.000
83.40482 38.000
83.42477 33.000
83.44471 30.000
83.46466 45.000
83.48461 40.000
83.50455 44.000
83.52450 27.000
83.54445 42.000
83.56440 54.000
83.58434 47.000
83.60429 49.000
83.62424 57.000
83.64418 74.000
83.66413 60.000
83.68408 77.000
83.70402 85.000
83.72397 83.000
83.74392 102.000
83.76386 90.000
83.78381 96.000
83.80376 97.000
83.82371 85.000
83.84365 75.000
83.86360 91.000
83.88355 71.000
83.90349 68.000
83.92344 90.000
83.94339 82.000
83.96333 76.000
83.98328 64.000
84.00323 69.000
84.02318 85.000
84.04312 70.000
84.06307 72.000
84.08302 66.000
84.10296 48.000
84.12291 57.000
84.14286 41.000
84.16280 58.000
84.18275 48.000
84.20270 55.000
84.22264 39.000
84.24259 44.000
84.26254 32.000
84.28249 49.000
84.30243 39.000
84.32238 31.000
84.34233 36.000
84.36227 32.000
84.38222 38.000
84.40217 41.000
84.42211 40.000
84.44206 43.000
84.46201 40.000
84.48196 26.000
84.50190 24.000
84.52185 27.000
84.54180 28.000
84.56174 27.000
84.58169 39.000
84.60164 41.000
84.62158 30.000
84.64153 32.000
84.66148 35.000
84.68142 25.000
84.70137 34.000
84.72132 28.000
84.74127 39.000
84.76121 40.000
84.78116 28.000
84.80111 28.000
84.82105 32.000
84.84100 28.000
84.86095 46.000
84.88089 20.000
84.90084 34.000
84.92079 38.000
84.94074 34.000
84.96068 33.000
84.98063 25.000
85.00058 41.000
85.02052 30.000
85.04047 35.000
85.06042 29.000
85.08036 31.000
85.10031 35.000
85.12026 37.000
85.14021 33.000
85.16015 38.000
85.18010 27.000
85.20005 36.000
85.21999 34.000
85.23994 29.000
85.25989 37.000
85.27983 31.000
85.29978 41.000
85.31973 38.000
85.33967 42.000
85.35962 32.000
85.37957 42.000
85.39952 35.000
85.41946 28.000
85.43941 39.000
85.45936 21.000
85.47930 42.000
85.49925 38.000
85.51920 43.000
85.53914 39.000
85.55909 38.000
85.57904 47.000
85.59899 42.000
85.61893 36.000
85.63888 47.000
85.65883 32.000
85.67877 29.000
85.69872 36.000
85.71867 39.000
85.73861 31.000
85.75856 36.000
85.77851 33.000
85.79845 46.000
85.81840 38.000
85.83835 34.000
85.85830 38.000
85.87824 33.000
85.89819 35.000
85.91814 33.000
85.93808 35.000
85.95803 40.000
85.97798 42.000
85.99792 27.000
86.01787 29.000
86.03782 28.000
86.05777 42.000
86.07771 29.000
86.09766 38.000
86.11761 33.000
86.13755 42.000
86.15750 29.000
86.17745 39.000
86.19739 40.000
86.21734 38.000
86.23729 37.000
86.25723 30.000
86.27718 46.000
86.29713 32.000
86.31708 39.000
86.33702 41.000
86.35697 31.000
86.37692 31.000
86.39686 29.000
86.41681 39.000
86.43676 33.000
86.45670 27.000
86.47665 40.000
86.49660 38.000
86.51655 54.000
86.53649 37.000
86.55644 44.000
86.57639 46.000
86.59633 32.000
86.61628 36.000
86.63623 45.000
86.65617 34.000
86.67612 31.000
86.69607 31.000
86.71602 41.000
86.73596 38.000
86.75591 41.000
86.77586 21.000
86.79580 35.000
86.81575 34.000
86.83570 23.000
86.85564 44.000
86.87559 34.000
86.89554 27.000
86.91548 21.000
86.93543 22.000
86.95538 33.000
86.97533 20.000
86.99527 23.000
87.01522 27.000
87.03517 16.000
87.05511 38.000
87.07506 24.000
87.09501 24.000
87.11495 32.000
87.13490 28.000
87.15485 30.000
87.17480 22.000
87.19474 26.000
87.21469 35.000
87.23464 30.000
87.25458 33.000
87.27453 31.000
87.29448 29.000
87.31442 33.000
87.33437 29.000
87.35432 29.000
87.37426 34.000
87.39421 25.000
87.41416 21.000
87.43411 25.000
87.45405 31.000
87.47400 33.000
87.49395 22.000
87.51389 26.000
87.53384 27.000
87.55379 29.000
87.57373 30.000
87.59368 34.000
87.61363 22.000
87.63358 30.000
87.65352 26.000
87.67347 28.000
87.69342 38.000
87.71336 27.000
87.73331 30.000
87.75326 41.000
87.77320 23.000
87.79315 35.000
87.81310 35.000
87.83304 41.000
87.85299 36.000
87.87294 48.000
87.89289 34.000
87.91283 38.000
87.93278 37.000
87.95273 35.000
87.97267 44.000
87.99262 38.000
88.01257 66.000
88.03251 48.000
88.05246 57.000
88.07241 50.000
88.09236 60.000
88.11230 63.000
88.13225 51.000
88.15220 59.000
88.17214 70.000
88.19209 65.000
88.21204 64.000
88.23198 59.000
88.25193 66.000
88.27188 73.000
88.29183 71.000
88.31177 66.000
88.33172 69.000
88.35167 68.000
88.37161 77.000
88.39156 55.000
88.41151 70.000
88.43145 66.000
88.45140 47.000
88.47135 53.000
88.49129 54.000
88.51124 55.000
88.53119 58.000
88.55114 57.000
88.57108 52.000
88.59103 54.000
88.61098 62.000
88.63092 38.000
88.65087 50.000
88.67082 45.000
88.69076 42.000
88.71071 36.000
88.73066 39.000
88.75061 35.000
88.77055 43.000
88.79050 38.000
88.81045 29.000
88.83039 39.000
88.85034 25.000
88.87029 30.000
88.89023 25.000
88.91018 29.000
88.93013 25.000
88.95007 27.000
88.97002 24.000
88.98997 22.000
89.00992 30.000
89.02986 25.000
89.04981 25.000
89.06976 27.000
89.08970 18.000
89.10965 26.000
89.12960 22.000
89.14954 28.000
89.16949 21.000
89.18944 29.000
89.20939 24.000
89.22933 23.000
89.24928 16.000
89.26923 33.000
89.28917 33.000
89.30912 34.000
89.32907 35.000
89.34901 26.000
89.36896 28.000
89.38891 25.000
89.40885 29.000
89.42880 28.000
89.44875 24.000
89.46870 24.000
89.48864 39.000
89.50859 25.000
89.52854 29.000
89.54848 28.000
89.56843 27.000
89.58838 23.000
89.60832 14.000
89.62827 30.000
89.64822 24.000
89.66817 33.000
89.68811 23.000
89.70806 30.000
89.72801 27.000
89.74795 28.000
89.76790 27.000
89.78785 36.000
89.80779 21.000
89.82774 25.000
89.84769 21.000
89.86764 32.000
89.88758 27.000
89.90753 25.000
89.92748 27.000
89.94742 33.000
89.96737 30.000
89.98732 26.000
90.00726 24.000
