10.00000 94.000
10.01995 103.000
10.03989 85.000
10.05984 88.000
10.07979 90.000
10.09973 75.000
10.11968 79.000
10.13963 72.000
10.15958 86.000
10.17952 80.000
10.19947 86.000
10.21942 87.000
10.23936 67.000
10.25931 88.000
10.27926 79.000
10.29920 73.000
10.31915 83.000
10.33910 91.000
10.35905 91.000
10.37899 91.000
10.39894 72.000
10.41889 82.000
10.43883 82.000
10.45878 89.000
10.47873 80.000
10.49867 98.000
10.51862 97.000
10.53857 72.000
10.55851 87.000
10.57846 95.000
10.59841 76.000
10.61836 81.000
10.63830 91.000
10.65825 83.000
10.67820 71.000
10.69814 79.000
10.71809 70.000
10.73804 69.000
10.75798 74.000
10.77793 77.000
10.79788 102.000
10.81783 83.000
10.83777 84.000
10.85772 95.000
10.87767 88.000
10.89761 81.000
10.91756 84.000
10.93751 75.000
10.95745 86.000
10.97740 90.000
10.99735 85.000
11.01730 70.000
11.03724 74.000
11.05719 96.000
11.07714 72.000
11.09708 88.000
11.11703 67.000
11.13698 84.000
11.15692 81.000
11.17687 89.000
11.19682 100.000
11.21676 85.000
11.23671 79.000
11.25666 80.000
11.27661 82.000
11.29655 81.000
11.31650 60.000
11.33645 87.000
11.35639 82.000
11.37634 87.000
11.39629 70.000
11.41623 83.000
11.43618 89.000
11.45613 77.000
11.47608 84.000
11.49602 72.000
11.51597 83.000
11.53592 90.000
11.55586 106.000
11.57581 90.000
11.59576 80.000
11.61570 93.000
11.63565 70.000
11.65560 91.000
11.67554 92.000
11.69549 81.000
11.71544 72.000
11.73539 70.000
11.75533 76.000
11.77528 77.000
11.79523 85.000
11.81517 86.000
11.83512 79.000
11.85507 99.000
11.87501 72.000
11.89496 84.000
11.91491 86.000
11.93486 98.000
11.95480 86.000
11.97475 96.000
11.99470 69.000
12.01464 78.000
12.03459 84.000
12.05454 92.000
12.07448 80.000
12.09443 80.000
12.11438 76.000
12.13432 84.000
12.15427 71.000
12.17422 80.000
12.19417 98.000
12.21411 98.000
12.23406 90.000
12.25401 82.000
12.27395 85.000
12.29390 73.000
12.31385 87.000
12.33379 86.000
12.35374 77.000
12.37369 85.000
12.39364 77.000
12.41358 78.000
12.43353 80.000
12.45348 71.000
12.47342 82.000
12.49337 85.000
12.51332 87.000
12.53326 82.000
12.55321 104.000
12.57316 72.000
12.59311 92.000
12.61305 82.000
12.63300 78.000
12.65295 81.000
12.67289 83.000
12.69284 76.000
12.71279 82.000
12.73273 64.000
12.75268 72.000
12.77263 97.000
12.79257 91.000
12.81252 69.000
12.83247 77.000
12.85242 79.000
12.87236 87.000
12.89231 85.000
12.91226 89.000
12.93220 76.000
12.95215 86.000
12.97210 88.000
12.99204 89.000
13.01199 68.000
13.03194 79.000
13.05189 72.000
13.07183 89.000
13.09178 97.000
13.11173 82.000
13.13167 89.000
13.15162 89.000
13.17157 74.000
13.19151 91.000
13.21146 75.000
13.23141 79.000
13.25135 91.000
13.27130 76.000
13.29125 95.000
13.31120 66.000
13.33114 76.000
13.35109 72.000
13.37104 100.000
13.39098 77.000
13.41093 95.000
13.43088 83.000
13.45082 81.000
13.47077 93.000
13.49072 94.000
13.51067 61.000
13.53061 68.000
13.55056 97.000
13.57051 78.000
13.59045 82.000
13.61040 88.000
13.63035 83.000
13.65029 89.000
13.67024 84.000
13.69019 89.000
13.71013 83.000
13.73008 83.000
13.75003 86.000
13.76998 85.000
13.78992 86.000
13.80987 96.000
13.82982 91.000
13.84976 69.000
13.86971 92.000
13.88966 87.000
13.90960 79.000
13.92955 79.000
13.94950 95.000
13.96945 88.000
13.98939 86.000
14.00934 74.000
14.02929 74.000
14.04923 87.000
14.06918 101.000
14.08913 86.000
14.10907 77.000
14.12902 82.000
14.14897 78.000
14.16892 92.000
14.18886 83.000
14.20881 97.000
14.22876 88.000
14.24870 96.000
14.26865 104.000
14.28860 89.000
14.30854 84.000
14.32849 86.000
14.34844 94.000
14.36838 95.000
14.38833 91.000
14.40828 97.000
14.42823 82.000
14.44817 72.000
14.46812 86.000
14.48807 98.000
14.50801 94.000
14.52796 67.000
14.54791 92.000
14.56785 82.000
14.58780 92.000
14.60775 78.000
14.62770 86.000
14.64764 94.000
14.66759 77.000
14.68754 81.000
14.70748 93.000
14.72743 97.000
14.74738 104.000
14.76732 90.000
14.78727 89.000
14.80722 108.000
14.82716 87.000
14.84711 82.000
14.86706 100.000
14.88701 84.000
14.90695 83.000
14.92690 79.000
14.94685 90.000
14.96679 93.000
14.98674 93.000
15.00669 93.000
15.02663 102.000
15.04658 94.000
15.06653 89.000
15.08648 115.000
15.10642 89.000
15.12637 77.000
15.14632 127.000
15.16626 106.000
15.18621 101.000
15.20616 117.000
15.22610 138.000
15.24605 108.000
15.26600 109.000
15.28594 121.000
15.30589 88.000
15.32584 121.000
15.34579 122.000
15.36573 117.000
15.38568 133.000
15.40563 130.000
15.42557 118.000
15.44552 156.000
15.46547 170.000
15.48541 168.000
15.50536 169.000
15.52531 166.000
15.54526 165.000
15.56520 182.000
15.58515 184.000
15.60510 219.000
15.62504 202.000
15.64499 218.000
15.66494 225.000
15.68488 249.000
15.70483 295.000
15.72478 323.000
15.74472 405.000
15.76467 481.000
15.78462 594.000
15.80457 820.000
15.82451 1143.000
15.84446 1737.000
15.86441 2644.000
15.88435 3775.000
15.90430 4451.000
15.92425 3896.000
15.94419 3032.000
15.96414 2104.000
15.98409 1195.000
16.00404 996.000
16.02398 953.000
16.04393 1149.000
16.06388 1246.000
16.08382 1473.000
16.10377 1861.000
16.12372 2343.000
16.14366 2675.000
16.16361 3147.000
16.18356 3308.000
16.20351 3184.000
16.22345 2815.000
16.24340 2173.000
16.26335 1621.000
16.28329 1199.000
16.30324 876.000
16.32319 608.000
16.34313 466.000
16.36308 408.000
16.38303 343.000
16.40297 299.000
16.42292 240.000
16.44287 230.000
16.46282 192.000
16.48276 225.000
16.50271 201.000
16.52266 191.000
16.54260 194.000
16.56255 181.000
16.58250 185.000
16.60244 174.000
16.62239 149.000
16.64234 150.000
16.66229 123.000
16.68223 133.000
16.70218 146.000
16.72213 149.000
16.74207 159.000
16.76202 133.000
16.78197 145.000
16.80191 140.000
16.82186 184.000
16.84181 186.000
16.86175 176.000
16.88170 153.000
16.90165 150.000
16.92160 143.000
16.94154 124.000
16.96149 123.000
16.98144 118.000
17.00138 118.000
17.02133 109.000
17.04128 97.000
17.06122 103.000
17.08117 114.000
17.10112 86.000
17.12107 92.000
17.14101 113.000
17.16096 113.000
17.18091 106.000
17.20085 104.000
17.22080 99.000
17.24075 102.000
17.26069 101.000
17.28064 95.000
17.30059 94.000
17.32053 96.000
17.34048 104.000
17.36043 94.000
17.38038 87.000
17.40032 83.000
17.42027 91.000
17.44022 80.000
17.46016 96.000
17.48011 82.000
17.50006 86.000
17.52000 82.000
17.53995 84.000
17.55990 87.000
17.57985 81.000
17.59979 92.000
17.61974 67.000
17.63969 96.000
17.65963 89.000
17.67958 70.000
17.69953 80.000
17.71947 90.000
17.73942 96.000
17.75937 103.000
17.77932 101.000
17.79926 76.000
17.81921 88.000
17.83916 78.000
17.85910 85.000
17.87905 88.000
17.89900 80.000
17.91894 77.000
17.93889 77.000
17.95884 73.000
17.97878 99.000
17.99873 92.000
18.01868 71.000
18.03863 90.000
18.05857 85.000
18.07852 71.000
18.09847 80.000
18.11841 64.000
18.13836 105.000
18.15831 75.000
18.17825 70.000
18.19820 90.000
18.21815 92.000
18.23810 81.000
18.25804 84.000
18.27799 93.000
18.29794 93.000
18.31788 83.000
18.33783 107.000
18.35778 108.000
18.37772 132.000
18.39767 153.000
18.41762 175.000
18.43756 192.000
18.45751 161.000
18.47746 146.000
18.49741 113.000
18.51735 98.000
18.53730 96.000
18.55725 84.000
18.57719 76.000
18.59714 85.000
18.61709 89.000
18.63703 93.000
18.65698 102.000
18.67693 70.000
18.69688 91.000
18.71682 88.000
18.73677 84.000
18.75672 66.000
18.77666 80.000
18.79661 74.000
18.81656 82.000
18.83650 83.000
18.85645 74.000
18.87640 78.000
18.89634 87.000
18.91629 77.000
18.93624 99.000
18.95619 58.000
18.97613 87.000
18.99608 80.000
19.01603 74.000
19.03597 91.000
19.05592 91.000
19.07587 76.000
19.09581 78.000
19.11576 76.000
19.13571 81.000
19.15566 80.000
19.17560 82.000
19.19555 93.000
19.21550 78.000
19.23544 76.000
19.25539 68.000
19.27534 74.000
19.29528 99.000
19.31523 77.000
19.33518 85.000
19.35513 82.000
19.37507 101.000
19.39502 84.000
19.41497 62.000
19.43491 73.000
19.45486 83.000
19.47481 76.000
19.49475 70.000
19.51470 77.000
19.53465 78.000
19.55459 85.000
19.57454 83.000
19.59449 67.000
19.61444 74.000
19.63438 85.000
19.65433 82.000
19.67428 51.000
19.69422 76.000
19.71417 82.000
19.73412 84.000
19.75406 75.000
19.77401 69.000
19.79396 87.000
19.81391 86.000
19.83385 88.000
19.85380 88.000
19.87375 68.000
19.89369 79.000
19.91364 74.000
19.93359 77.000
19.95353 75.000
19.97348 92.000
19.99343 71.000
20.01337 92.000
20.03332 83.000
20.05327 84.000
20.07322 54.000
20.09316 73.000
20.11311 72.000
20.13306 73.000
20.15300 77.000
20.17295 70.000
20.19290 78.000
20.21284 61.000
20.23279 66.000
20.25274 89.000
20.27269 73.000
20.29263 76.000
20.31258 75.000
20.33253 79.000
20.35247 90.000
20.37242 75.000
20.39237 66.000
20.41231 81.000
20.43226 69.000
20.45221 81.000
20.47215 73.000
20.49210 86.000
20.51205 77.000
20.53200 87.000
20.55194 88.000
20.57189 81.000
20.59184 98.000
20.61178 85.000
20.63173 94.000
20.65168 100.000
20.67162 96.000
20.69157 103.000
20.71152 128.000
20.73147 133.000
20.75141 160.000
20.77136 170.000
20.79131 169.000
20.81125 204.000
20.83120 178.000
20.85115 217.000
20.87109 216.000
20.89104 176.000
20.91099 207.000
20.93094 174.000
20.95088 166.000
20.97083 154.000
20.99078 162.000
21.01072 121.000
21.03067 119.000
21.05062 108.000
21.07056 101.000
21.09051 87.000
21.11046 84.000
21.13040 91.000
21.15035 75.000
21.17030 82.000
21.19025 78.000
21.21019 94.000
21.23014 86.000
21.25009 72.000
21.27003 76.000
21.28998 79.000
21.30993 92.000
21.32987 64.000
21.34982 77.000
21.36977 89.000
21.38972 78.000
21.40966 73.000
21.42961 83.000
21.44956 69.000
21.46950 71.000
21.48945 70.000
21.50940 80.000
21.52934 61.000
21.54929 84.000
21.56924 74.000
21.58918 75.000
21.60913 74.000
21.62908 75.000
21.64903 76.000
21.66897 68.000
21.68892 77.000
21.70887 81.000
21.72881 73.000
21.74876 85.000
21.76871 73.000
21.78865 84.000
21.80860 82.000
21.82855 69.000
21.84850 74.000
21.86844 74.000
21.88839 75.000
21.90834 69.000
21.92828 84.000
21.94823 73.000
21.96818 90.000
21.98812 94.000
22.00807 79.000
22.02802 93.000
22.04796 83.000
22.06791 86.000
22.08786 65.000
22.10781 81.000
22.12775 78.000
22.14770 77.000
22.16765 91.000
22.18759 72.000
22.20754 67.000
22.22749 73.000
22.24743 66.000
22.26738 87.000
22.28733 71.000
22.30728 65.000
22.32722 61.000
22.34717 80.000
22.36712 73.000
22.38706 82.000
22.40701 77.000
22.42696 75.000
22.44690 82.000
22.46685 63.000
22.48680 71.000
22.50675 69.000
22.52669 82.000
22.54664 85.000
22.56659 82.000
22.58653 68.000
22.60648 71.000
22.62643 69.000
22.64637 79.000
22.66632 69.000
22.68627 83.000
22.70621 72.000
22.72616 77.000
22.74611 82.000
22.76606 85.000
22.78600 81.000
22.80595 78.000
22.82590 82.000
22.84584 86.000
22.86579 73.000
22.88574 89.000
22.90568 67.000
22.92563 75.000
22.94558 74.000
22.96553 84.000
22.98547 82.000
23.00542 80.000
23.02537 79.000
23.04531 92.000
23.06526 94.000
23.08521 66.000
23.10515 73.000
23.12510 75.000
23.14505 83.000
23.16499 72.000
23.18494 72.000
23.20489 85.000
23.22484 95.000
23.24478 65.000
23.26473 75.000
23.28468 81.000
23.30462 76.000
23.32457 69.000
23.34452 94.000
23.36446 85.000
23.38441 81.000
23.40436 72.000
23.42431 74.000
23.44425 76.000
23.46420 90.000
23.48415 92.000
23.50409 69.000
23.52404 78.000
23.54399 73.000
23.56393 68.000
23.58388 86.000
23.60383 79.000
23.62377 82.000
23.64372 92.000
23.66367 69.000
23.68362 79.000
23.70356 85.000
23.72351 79.000
23.74346 86.000
23.76340 85.000
23.78335 70.000
23.80330 74.000
23.82324 77.000
23.84319 80.000
23.86314 85.000
23.88309 65.000
23.90303 62.000
23.92298 86.000
23.94293 84.000
23.96287 77.000
23.98282 66.000
24.00277 71.000
24.02271 72.000
24.04266 79.000
24.06261 87.000
24.08256 68.000
24.10250 70.000
24.12245 81.000
24.14240 77.000
24.16234 92.000
24.18229 59.000
24.20224 65.000
24.22218 66.000
24.24213 79.000
24.26208 77.000
24.28202 71.000
24.30197 75.000
24.32192 91.000
24.34187 85.000
24.36181 81.000
24.38176 86.000
24.40171 75.000
24.42165 77.000
24.44160 89.000
24.46155 87.000
24.48149 82.000
24.50144 76.000
24.52139 65.000
24.54134 79.000
24.56128 76.000
24.58123 74.000
24.60118 68.000
24.62112 73.000
24.64107 66.000
24.66102 71.000
24.68096 79.000
24.70091 68.000
24.72086 94.000
24.74080 74.000
24.76075 71.000
24.78070 76.000
24.80065 86.000
24.82059 73.000
24.84054 86.000
24.86049 74.000
24.88043 91.000
24.90038 94.000
24.92033 99.000
24.94027 112.000
24.96022 106.000
24.98017 108.000
25.00012 134.000
25.02006 107.000
25.04001 107.000
25.05996 101.000
25.07990 98.000
25.09985 85.000
25.11980 88.000
25.13974 76.000
25.15969 87.000
25.17964 74.000
25.19958 94.000
25.21953 81.000
25.23948 84.000
25.25943 89.000
25.27937 81.000
25.29932 78.000
25.31927 71.000
25.33921 73.000
25.35916 74.000
25.37911 69.000
25.39905 90.000
25.41900 77.000
25.43895 82.000
25.45890 77.000
25.47884 94.000
25.49879 84.000
25.51874 69.000
25.53868 81.000
25.55863 91.000
25.57858 71.000
25.59852 89.000
25.61847 84.000
25.63842 82.000
25.65837 81.000
25.67831 84.000
25.69826 70.000
25.71821 90.000
25.73815 85.000
25.75810 88.000
25.77805 73.000
25.79799 82.000
25.81794 75.000
25.83789 86.000
25.85783 71.000
25.87778 76.000
25.89773 68.000
25.91768 58.000
25.93762 88.000
25.95757 83.000
25.97752 69.000
25.99746 73.000
26.01741 62.000
26.03736 82.000
26.05730 103.000
26.07725 80.000
26.09720 86.000
26.11715 79.000
26.13709 71.000
26.15704 78.000
26.17699 76.000
26.19693 88.000
26.21688 88.000
26.23683 71.000
26.25677 79.000
26.27672 70.000
26.29667 76.000
26.31661 89.000
26.33656 69.000
26.35651 84.000
26.37646 59.000
26.39640 79.000
26.41635 85.000
26.43630 82.000
26.45624 67.000
26.47619 75.000
26.49614 89.000
26.51608 86.000
26.53603 75.000
26.55598 77.000
26.57593 67.000
26.59587 78.000
26.61582 68.000
26.63577 76.000
26.65571 68.000
26.67566 83.000
26.69561 81.000
26.71555 73.000
26.73550 82.000
26.75545 77.000
26.77539 75.000
26.79534 70.000
26.81529 80.000
26.83524 92.000
26.85518 64.000
26.87513 79.000
26.89508 79.000
26.91502 83.000
26.93497 76.000
26.95492 73.000
26.97486 106.000
26.99481 110.000
27.01476 74.000
27.03471 78.000
27.05465 90.000
27.07460 79.000
27.09455 98.000
27.11449 79.000
27.13444 79.000
27.15439 78.000
27.17433 79.000
27.19428 67.000
27.21423 107.000
27.23417 89.000
27.25412 92.000
27.27407 73.000
27.29402 67.000
27.31396 77.000
27.33391 75.000
27.35386 72.000
27.37380 81.000
27.39375 80.000
27.41370 84.000
27.43364 64.000
27.45359 71.000
27.47354 87.000
27.49349 85.000
27.51343 76.000
27.53338 78.000
27.55333 67.000
27.57327 88.000
27.59322 79.000
27.61317 88.000
27.63311 83.000
27.65306 75.000
27.67301 83.000
27.69296 83.000
27.71290 96.000
27.73285 86.000
27.75280 81.000
27.77274 92.000
27.79269 87.000
27.81264 107.000
27.83258 76.000
27.85253 82.000
27.87248 72.000
27.89242 93.000
27.91237 74.000
27.93232 85.000
27.95227 79.000
27.97221 75.000
27.99216 104.000
28.01211 90.000
28.03205 94.000
28.05200 89.000
28.07195 81.000
28.09189 99.000
28.11184 80.000
28.13179 87.000
28.15174 95.000
28.17168 71.000
28.19163 70.000
28.21158 71.000
28.23152 90.000
28.25147 73.000
28.27142 81.000
28.29136 75.000
28.31131 94.000
28.33126 74.000
28.35120 90.000
28.37115 62.000
28.39110 77.000
28.41105 85.000
28.43099 77.000
28.45094 75.000
28.47089 82.000
28.49083 67.000
28.51078 84.000
28.53073 77.000
28.55067 105.000
28.57062 89.000
28.59057 68.000
28.61052 81.000
28.63046 87.000
28.65041 103.000
28.67036 79.000
28.69030 73.000
28.71025 84.000
28.73020 87.000
28.75014 81.000
28.77009 81.000
28.79004 79.000
28.80998 87.000
28.82993 93.000
28.84988 77.000
28.86983 96.000
28.88977 79.000
28.90972 105.000
28.92967 75.000
28.94961 77.000
28.96956 86.000
28.98951 91.000
29.00945 84.000
29.02940 95.000
29.04935 83.000
29.06930 90.000
29.08924 76.000
29.10919 95.000
29.12914 93.000
29.14908 104.000
29.16903 89.000
29.18898 112.000
29.20892 99.000
29.22887 104.000
29.24882 110.000
29.26877 105.000
29.28871 136.000
29.30866 161.000
29.32861 161.000
29.34855 185.000
29.36850 165.000
29.38845 180.000
29.40839 232.000
29.42834 176.000
29.44829 197.000
29.46823 150.000
29.48818 141.000
29.50813 142.000
29.52808 145.000
29.54802 120.000
29.56797 97.000
29.58792 99.000
29.60786 110.000
29.62781 80.000
29.64776 102.000
29.66770 110.000
29.68765 82.000
29.70760 89.000
29.72755 70.000
29.74749 114.000
29.76744 95.000
29.78739 94.000
29.80733 92.000
29.82728 85.000
29.84723 79.000
29.86717 97.000
29.88712 92.000
29.90707 99.000
29.92701 93.000
29.94696 97.000
29.96691 115.000
29.98686 95.000
30.00680 93.000
30.02675 97.000
30.04670 97.000
30.06664 101.000
30.08659 98.000
30.10654 102.000
30.12648 113.000
30.14643 94.000
30.16638 104.000
30.18633 131.000
30.20627 148.000
30.22622 149.000
30.24617 184.000
30.26611 219.000
30.28606 275.000
30.30601 348.000
30.32595 318.000
30.34590 299.000
30.36585 294.000
30.38579 270.000
30.40574 226.000
30.42569 148.000
30.44564 143.000
30.46558 139.000
30.48553 112.000
30.50548 110.000
30.52542 96.000
30.54537 99.000
30.56532 81.000
30.58526 94.000
30.60521 105.000
30.62516 87.000
30.64511 103.000
30.66505 80.000
30.68500 104.000
30.70495 90.000
30.72489 85.000
30.74484 74.000
30.76479 90.000
30.78473 95.000
30.80468 81.000
30.82463 80.000
30.84458 92.000
30.86452 96.000
30.88447 74.000
30.90442 96.000
30.92436 69.000
30.94431 83.000
30.96426 85.000
30.98420 80.000
31.00415 89.000
31.02410 77.000
31.04404 84.000
31.06399 97.000
31.08394 87.000
31.10389 107.000
31.12383 74.000
31.14378 86.000
31.16373 80.000
31.18367 88.000
31.20362 88.000
31.22357 75.000
31.24351 72.000
31.26346 87.000
31.28341 88.000
31.30336 104.000
31.32330 102.000
31.34325 89.000
31.36320 79.000
31.38314 77.000
31.40309 85.000
31.42304 86.000
31.44298 99.000
31.46293 104.000
31.48288 77.000
31.50282 96.000
31.52277 89.000
31.54272 94.000
31.56267 84.000
31.58261 93.000
31.60256 98.000
31.62251 97.000
31.64245 102.000
31.66240 82.000
31.68235 86.000
31.70229 87.000
31.72224 100.000
31.74219 87.000
31.76214 85.000
31.78208 97.000
31.80203 93.000
31.82198 102.000
31.84192 104.000
31.86187 100.000
31.88182 82.000
31.90176 127.000
31.92171 114.000
31.94166 132.000
31.96160 125.000
31.98155 126.000
32.00150 176.000
32.02145 199.000
32.04139 212.000
32.06134 251.000
32.08129 288.000
32.10123 418.000
32.12118 347.000
32.14113 379.000
32.16107 330.000
32.18102 285.000
32.20097 300.000
32.22092 233.000
32.24086 205.000
32.26081 168.000
32.28076 154.000
32.30070 113.000
32.32065 112.000
32.34060 106.000
32.36054 115.000
32.38049 120.000
32.40044 131.000
32.42039 110.000
32.44033 114.000
32.46028 135.000
32.48023 148.000
32.50017 153.000
32.52012 159.000
32.54007 188.000
32.56001 195.000
32.57996 209.000
32.59991 229.000
32.61985 275.000
32.63980 283.000
32.65975 284.000
32.67970 331.000
32.69964 348.000
32.71959 366.000
32.73954 319.000
32.75948 320.000
32.77943 293.000
32.79938 255.000
32.81932 299.000
32.83927 261.000
32.85922 243.000
32.87917 205.000
32.89911 201.000
32.91906 144.000
32.93901 176.000
32.95895 159.000
32.97890 117.000
32.99885 134.000
33.01879 119.000
33.03874 124.000
33.05869 106.000
33.07863 124.000
33.09858 93.000
33.11853 119.000
33.13848 107.000
33.15842 103.000
33.17837 100.000
33.19832 86.000
33.21826 104.000
33.23821 90.000
33.25816 114.000
33.27810 86.000
33.29805 89.000
33.31800 77.000
33.33795 87.000
33.35789 94.000
33.37784 96.000
33.39779 99.000
33.41773 101.000
33.43768 82.000
33.45763 107.000
33.47757 89.000
33.49752 79.000
33.51747 95.000
33.53741 89.000
33.55736 95.000
33.57731 101.000
33.59726 72.000
33.61720 93.000
33.63715 89.000
33.65710 90.000
33.67704 83.000
33.69699 106.000
33.71694 110.000
33.73688 94.000
33.75683 90.000
33.77678 99.000
33.79673 96.000
33.81667 88.000
33.83662 85.000
33.85657 112.000
33.87651 83.000
33.89646 90.000
33.91641 96.000
33.93635 71.000
33.95630 93.000
33.97625 87.000
33.99620 130.000
34.01614 109.000
34.03609 119.000
34.05604 122.000
34.07598 122.000
34.09593 145.000
34.11588 128.000
34.13582 138.000
34.15577 140.000
34.17572 134.000
34.19566 159.000
34.21561 142.000
34.23556 182.000
34.25551 183.000
34.27545 166.000
34.29540 203.000
34.31535 214.000
34.33529 189.000
34.35524 173.000
34.37519 173.000
34.39513 180.000
34.41508 196.000
34.43503 192.000
34.45498 179.000
34.47492 204.000
34.49487 173.000
34.51482 175.000
34.53476 129.000
34.55471 179.000
34.57466 151.000
34.59460 151.000
34.61455 144.000
34.63450 124.000
34.65444 143.000
34.67439 125.000
34.69434 106.000
34.71429 148.000
34.73423 122.000
34.75418 120.000
34.77413 149.000
34.79407 131.000
34.81402 131.000
34.83397 141.000
34.85391 141.000
34.87386 146.000
34.89381 168.000
34.91376 147.000
34.93370 134.000
34.95365 119.000
34.97360 140.000
34.99354 125.000
35.01349 121.000
35.03344 119.000
35.05338 129.000
35.07333 116.000
35.09328 116.000
35.11322 111.000
35.13317 126.000
35.15312 93.000
35.17307 110.000
35.19301 111.000
35.21296 112.000
35.23291 129.000
35.25285 120.000
35.27280 114.000
35.29275 129.000
35.31269 129.000
35.33264 139.000
35.35259 120.000
35.37254 133.000
35.39248 143.000
35.41243 179.000
35.43238 179.000
35.45232 187.000
35.47227 251.000
35.49222 267.000
35.51216 303.000
35.53211 428.000
35.55206 506.000
35.57201 595.000
35.59195 720.000
35.61190 815.000
35.63185 1062.000
35.65179 1125.000
35.67174 1270.000
35.69169 1357.000
35.71163 1379.000
35.73158 1259.000
35.75153 1067.000
35.77147 950.000
35.79142 839.000
35.81137 756.000
35.83132 592.000
35.85126 450.000
35.87121 376.000
35.89116 306.000
35.91110 266.000
35.93105 254.000
35.95100 183.000
35.97094 211.000
35.99089 174.000
36.01084 188.000
36.03079 164.000
36.05073 144.000
36.07068 131.000
36.09063 125.000
36.11057 120.000
36.13052 152.000
36.15047 125.000
36.17041 136.000
36.19036 119.000
36.21031 121.000
36.23025 134.000
36.25020 110.000
36.27015 102.000
36.29010 119.000
36.31004 122.000
36.32999 127.000
36.34994 110.000
36.36988 120.000
36.38983 126.000
36.40978 121.000
36.42972 119.000
36.44967 121.000
36.46962 126.000
36.48957 136.000
36.50951 125.000
36.52946 130.000
36.54941 107.000
36.56935 141.000
36.58930 129.000
36.60925 121.000
36.62919 115.000
36.64914 137.000
36.66909 150.000
36.68903 148.000
36.70898 146.000
36.72893 181.000
36.74888 210.000
36.76882 204.000
36.78877 236.000
36.80872 281.000
36.82866 289.000
36.84861 331.000
36.86856 438.000
36.88850 478.000
36.90845 521.000
36.92840 559.000
36.94835 540.000
36.96829 509.000
36.98824 548.000
37.00819 458.000
37.02813 415.000
37.04808 405.000
37.06803 349.000
37.08797 334.000
37.10792 322.000
37.12787 309.000
37.14781 399.000
37.16776 478.000
37.18771 612.000
37.20766 774.000
37.22760 831.000
37.24755 817.000
37.26750 708.000
37.28744 668.000
37.30739 616.000
37.32734 625.000
37.34728 550.000
37.36723 392.000
37.38718 305.000
37.40713 248.000
37.42707 221.000
37.44702 200.000
37.46697 172.000
37.48691 176.000
37.50686 130.000
37.52681 135.000
37.54675 118.000
37.56670 114.000
37.58665 102.000
37.60660 105.000
37.62654 103.000
37.64649 107.000
37.66644 90.000
37.68638 108.000
37.70633 108.000
37.72628 100.000
37.74622 103.000
37.76617 107.000
37.78612 80.000
37.80606 96.000
37.82601 93.000
37.84596 98.000
37.86591 88.000
37.88585 100.000
37.90580 115.000
37.92575 105.000
37.94569 88.000
37.96564 110.000
37.98559 112.000
38.00553 89.000
38.02548 115.000
38.04543 101.000
38.06538 73.000
38.08532 94.000
38.10527 107.000
38.12522 121.000
38.14516 78.000
38.16511 88.000
38.18506 99.000
38.20500 106.000
38.22495 92.000
38.24490 101.000
38.26484 104.000
38.28479 97.000
38.30474 83.000
38.32469 74.000
38.34463 86.000
38.36458 82.000
38.38453 97.000
38.40447 92.000
38.42442 78.000
38.44437 103.000
38.46431 106.000
38.48426 83.000
38.50421 75.000
38.52416 98.000
38.54410 80.000
38.56405 103.000
38.58400 87.000
38.60394 72.000
38.62389 93.000
38.64384 99.000
38.66378 103.000
38.68373 90.000
38.70368 97.000
38.72362 94.000
38.74357 95.000
38.76352 99.000
38.78347 79.000
38.80341 90.000
38.82336 91.000
38.84331 114.000
38.86325 96.000
38.88320 102.000
38.90315 99.000
38.92309 106.000
38.94304 107.000
38.96299 131.000
38.98294 133.000
39.00288 134.000
39.02283 140.000
39.04278 154.000
39.06272 151.000
39.08267 194.000
39.10262 215.000
39.12256 252.000
39.14251 342.000
39.16246 435.000
39.18241 497.000
39.20235 454.000
39.22230 433.000
39.24225 469.000
39.26219 482.000
39.28214 441.000
39.30209 391.000
39.32203 349.000
39.34198 332.000
39.36193 279.000
39.38187 252.000
39.40182 235.000
39.42177 217.000
39.44172 190.000
39.46166 169.000
39.48161 153.000
39.50156 142.000
39.52150 156.000
39.54145 134.000
39.56140 108.000
39.58134 99.000
39.60129 119.000
39.62124 112.000
39.64119 113.000
39.66113 95.000
39.68108 95.000
39.70103 108.000
39.72097 101.000
39.74092 114.000
39.76087 114.000
39.78081 99.000
39.80076 111.000
39.82071 96.000
39.84065 97.000
39.86060 108.000
39.88055 120.000
39.90050 126.000
39.92044 87.000
39.94039 110.000
39.96034 102.000
39.98028 101.000
40.00023 102.000
40.02018 100.000
40.04012 89.000
40.06007 86.000
40.08002 109.000
40.09997 90.000
40.11991 96.000
40.13986 107.000
40.15981 81.000
40.17975 83.000
40.19970 90.000
40.21965 107.000
40.23959 93.000
40.25954 94.000
40.27949 103.000
40.29943 86.000
40.31938 92.000
40.33933 86.000
40.35928 92.000
40.37922 66.000
40.39917 89.000
40.41912 86.000
40.43906 87.000
40.45901 77.000
40.47896 89.000
40.49890 101.000
40.51885 111.000
40.53880 86.000
40.55875 92.000
40.57869 90.000
40.59864 105.000
40.61859 101.000
40.63853 105.000
40.65848 85.000
40.67843 93.000
40.69837 93.000
40.71832 93.000
40.73827 91.000
40.75822 100.000
40.77816 103.000
40.79811 101.000
40.81806 101.000
40.83800 112.000
40.85795 114.000
40.87790 97.000
40.89784 103.000
40.91779 82.000
40.93774 106.000
40.95768 101.000
40.97763 106.000
40.99758 99.000
41.01753 93.000
41.03747 115.000
41.05742 107.000
41.07737 90.000
41.09731 120.000
41.11726 105.000
41.13721 112.000
41.15715 136.000
41.17710 118.000
41.19705 111.000
41.21700 150.000
41.23694 127.000
41.25689 127.000
41.27684 133.000
41.29678 146.000
41.31673 143.000
41.33668 155.000
41.35662 158.000
41.37657 170.000
41.39652 168.000
41.41646 187.000
41.43641 192.000
41.45636 219.000
41.47631 220.000
41.49625 240.000
41.51620 286.000
41.53615 311.000
41.55609 378.000
41.57604 477.000
41.59599 635.000
41.61593 907.000
41.63588 1203.000
41.65583 1582.000
41.67578 2078.000
41.69572 2446.000
41.71567 2397.000
41.73562 2109.000
41.75556 1870.000
41.77551 1797.000
41.79546 1633.000
41.81540 1548.000
41.83535 1336.000
41.85530 1012.000
41.87524 807.000
41.89519 526.000
41.91514 427.000
41.93509 328.000
41.95503 309.000
41.97498 255.000
41.99493 246.000
42.01487 227.000
42.03482 208.000
42.05477 183.000
42.07471 179.000
42.09466 171.000
42.11461 145.000
42.13456 164.000
42.15450 158.000
42.17445 126.000
42.19440 150.000
42.21434 143.000
42.23429 141.000
42.25424 132.000
42.27418 163.000
42.29413 121.000
42.31408 121.000
42.33403 147.000
42.35397 102.000
42.37392 127.000
42.39387 114.000
42.41381 100.000
42.43376 119.000
42.45371 102.000
42.47365 117.000
42.49360 110.000
42.51355 119.000
42.53349 114.000
42.55344 107.000
42.57339 134.000
42.59334 122.000
42.61328 129.000
42.63323 132.000
42.65318 129.000
42.67312 120.000
42.69307 133.000
42.71302 112.000
42.73296 94.000
42.75291 123.000
42.77286 101.000
42.79281 118.000
42.81275 120.000
42.83270 116.000
42.85265 109.000
42.87259 114.000
42.89254 128.000
42.91249 123.000
42.93243 121.000
42.95238 116.000
42.97233 126.000
42.99227 151.000
43.01222 152.000
43.03217 158.000
43.05212 166.000
43.07206 175.000
43.09201 160.000
43.11196 195.000
43.13190 228.000
43.15185 261.000
43.17180 388.000
43.19174 599.000
43.21169 919.000
43.23164 1183.000
43.25159 1320.000
43.27153 1258.000
43.29148 1099.000
43.31143 1028.000
43.33137 1088.000
43.35132 1064.000
43.37127 994.000
43.39121 884.000
43.41116 734.000
43.43111 661.000
43.45105 518.000
43.47100 440.000
43.49095 346.000
43.51090 315.000
43.53084 300.000
43.55079 245.000
43.57074 227.000
43.59068 205.000
43.61063 164.000
43.63058 152.000
43.65052 142.000
43.67047 141.000
43.69042 124.000
43.71037 112.000
43.73031 151.000
43.75026 127.000
43.77021 107.000
43.79015 118.000
43.81010 112.000
43.83005 96.000
43.84999 101.000
43.86994 123.000
43.88989 84.000
43.90984 112.000
43.92978 109.000
43.94973 106.000
43.96968 95.000
43.98962 105.000
44.00957 84.000
44.02952 95.000
44.04946 84.000
44.06941 94.000
44.08936 96.000
44.10930 104.000
44.12925 90.000
44.14920 96.000
44.16915 101.000
44.18909 85.000
44.20904 107.000
44.22899 86.000
44.24893 117.000
44.26888 93.000
44.28883 94.000
44.30877 96.000
44.32872 96.000
44.34867 101.000
44.36862 92.000
44.38856 95.000
44.40851 85.000
44.42846 77.000
44.44840 88.000
44.46835 94.000
44.48830 94.000
44.50824 78.000
44.52819 99.000
44.54814 98.000
44.56808 92.000
44.58803 101.000
44.60798 89.000
44.62793 88.000
44.64787 103.000
44.66782 88.000
44.68777 81.000
44.70771 90.000
44.72766 91.000
44.74761 96.000
44.76755 103.000
44.78750 114.000
44.80745 94.000
44.82740 92.000
44.84734 112.000
44.86729 107.000
44.88724 103.000
44.90718 95.000
44.92713 133.000
44.94708 121.000
44.96702 158.000
44.98697 152.000
45.00692 143.000
45.02686 168.000
45.04681 131.000
45.06676 136.000
45.08671 150.000
45.10665 131.000
45.12660 128.000
45.14655 137.000
45.16649 127.000
45.18644 126.000
45.20639 130.000
45.22633 92.000
45.24628 96.000
45.26623 109.000
45.28618 94.000
45.30612 108.000
45.32607 111.000
45.34602 92.000
45.36596 105.000
45.38591 91.000
45.40586 93.000
45.42580 98.000
45.44575 115.000
45.46570 84.000
45.48565 99.000
45.50559 102.000
45.52554 108.000
45.54549 104.000
45.56543 98.000
45.58538 83.000
45.60533 77.000
45.62527 101.000
45.64522 86.000
45.66517 81.000
45.68511 93.000
45.70506 88.000
45.72501 85.000
45.74496 101.000
45.76490 82.000
45.78485 95.000
45.80480 77.000
45.82474 96.000
45.84469 100.000
45.86464 81.000
45.88458 96.000
45.90453 76.000
45.92448 80.000
45.94443 87.000
45.96437 71.000
45.98432 83.000
46.00427 88.000
46.02421 91.000
46.04416 83.000
46.06411 97.000
46.08405 72.000
46.10400 80.000
46.12395 78.000
46.14389 83.000
46.16384 85.000
46.18379 93.000
46.20374 77.000
46.22368 79.000
46.24363 91.000
46.26358 81.000
46.28352 89.000
46.30347 97.000
46.32342 80.000
46.34336 81.000
46.36331 84.000
46.38326 88.000
46.40321 95.000
46.42315 86.000
46.44310 74.000
46.46305 67.000
46.48299 95.000
46.50294 85.000
46.52289 113.000
46.54283 80.000
46.56278 86.000
46.58273 108.000
46.60267 86.000
46.62262 83.000
46.64257 86.000
46.66252 87.000
46.68246 81.000
46.70241 77.000
46.72236 79.000
46.74230 80.000
46.76225 86.000
46.78220 82.000
46.80214 81.000
46.82209 76.000
46.84204 81.000
46.86199 92.000
46.88193 75.000
46.90188 70.000
46.92183 77.000
46.94177 89.000
46.96172 85.000
46.98167 82.000
47.00161 77.000
47.02156 94.000
47.04151 66.000
47.06146 96.000
47.08140 100.000
47.10135 93.000
47.12130 82.000
47.14124 65.000
47.16119 76.000
47.18114 74.000
47.20108 74.000
47.22103 79.000
47.24098 77.000
47.26092 77.000
47.28087 78.000
47.30082 66.000
47.32077 84.000
47.34071 78.000
47.36066 94.000
47.38061 96.000
47.40055 70.000
47.42050 81.000
47.44045 99.000
47.46039 61.000
47.48034 75.000
47.50029 99.000
47.52024 86.000
47.54018 81.000
47.56013 86.000
47.58008 68.000
47.60002 84.000
47.61997 92.000
47.63992 70.000
47.65986 83.000
47.67981 107.000
47.69976 73.000
47.71970 83.000
47.73965 79.000
47.75960 77.000
47.77955 89.000
47.79949 86.000
47.81944 74.000
47.83939 96.000
47.85933 80.000
47.87928 86.000
47.89923 97.000
47.91917 98.000
47.93912 88.000
47.95907 96.000
47.97902 112.000
47.99896 102.000
48.01891 103.000
48.03886 100.000
48.05880 105.000
48.07875 104.000
48.09870 92.000
48.11864 119.000
48.13859 98.000
48.15854 109.000
48.17848 108.000
48.19843 102.000
48.21838 119.000
48.23833 95.000
48.25827 102.000
48.27822 93.000
48.29817 99.000
48.31811 88.000
48.33806 108.000
48.35801 108.000
48.37795 110.000
48.39790 106.000
48.41785 119.000
48.43780 116.000
48.45774 130.000
48.47769 144.000
48.49764 140.000
48.51758 134.000
48.53753 160.000
48.55748 176.000
48.57742 203.000
48.59737 231.000
48.61732 278.000
48.63726 343.000
48.65721 379.000
48.67716 395.000
48.69711 390.000
48.71705 401.000
48.73700 368.000
48.75695 373.000
48.77689 336.000
48.79684 366.000
48.81679 318.000
48.83673 294.000
48.85668 270.000
48.87663 252.000
48.89658 190.000
48.91652 185.000
48.93647 176.000
48.95642 152.000
48.97636 151.000
48.99631 137.000
49.01626 136.000
49.03620 120.000
49.05615 111.000
49.07610 106.000
49.09605 121.000
49.11599 105.000
49.13594 105.000
49.15589 97.000
49.17583 114.000
49.19578 91.000
49.21573 94.000
49.23567 103.000
49.25562 94.000
49.27557 96.000
49.29551 96.000
49.31546 99.000
49.33541 104.000
49.35536 94.000
49.37530 81.000
49.39525 94.000
49.41520 103.000
49.43514 100.000
49.45509 84.000
49.47504 100.000
49.49498 115.000
49.51493 105.000
49.53488 105.000
49.55483 83.000
49.57477 107.000
49.59472 96.000
49.61467 87.000
49.63461 99.000
49.65456 75.000
49.67451 94.000
49.69445 93.000
49.71440 90.000
49.73435 96.000
49.75429 92.000
49.77424 92.000
49.79419 98.000
49.81414 90.000
49.83408 70.000
49.85403 85.000
49.87398 92.000
49.89392 92.000
49.91387 91.000
49.93382 80.000
49.95376 84.000
49.97371 88.000
49.99366 73.000
50.01361 90.000
50.03355 81.000
50.05350 71.000
50.07345 84.000
50.09339 91.000
50.11334 76.000
50.13329 82.000
50.15323 82.000
50.17318 86.000
50.19313 90.000
50.21307 83.000
50.23302 80.000
50.25297 95.000
50.27292 75.000
50.29286 66.000
50.31281 87.000
50.33276 75.000
50.35270 69.000
50.37265 80.000
50.39260 79.000
50.41254 101.000
50.43249 79.000
50.45244 80.000
50.47239 79.000
50.49233 84.000
50.51228 81.000
50.53223 68.000
50.55217 90.000
50.57212 74.000
50.59207 70.000
50.61201 64.000
50.63196 78.000
50.65191 80.000
50.67186 75.000
50.69180 78.000
50.71175 77.000
50.73170 97.000
50.75164 99.000
50.77159 80.000
50.79154 100.000
50.81148 79.000
50.83143 84.000
50.85138 77.000
50.87132 71.000
50.89127 73.000
50.91122 76.000
50.93117 83.000
50.95111 76.000
50.97106 64.000
50.99101 81.000
51.01095 83.000
51.03090 75.000
51.05085 83.000
51.07079 71.000
51.09074 69.000
51.11069 82.000
51.13064 73.000
51.15058 72.000
51.17053 74.000
51.19048 85.000
51.21042 98.000
51.23037 62.000
51.25032 89.000
51.27026 74.000
51.29021 93.000
51.31016 69.000
51.33010 86.000
51.35005 79.000
51.37000 90.000
51.38995 84.000
51.40989 76.000
51.42984 80.000
51.44979 81.000
51.46973 70.000
51.48968 93.000
51.50963 77.000
51.52957 85.000
51.54952 71.000
51.56947 71.000
51.58942 79.000
51.60936 78.000
51.62931 69.000
51.64926 79.000
51.66920 83.000
51.68915 91.000
51.70910 70.000
51.72904 93.000
51.74899 87.000
51.76894 81.000
51.78888 76.000
51.80883 66.000
51.82878 93.000
51.84873 93.000
51.86867 74.000
51.88862 82.000
51.90857 113.000
51.92851 87.000
51.94846 76.000
51.96841 91.000
51.98835 99.000
52.00830 88.000
52.02825 111.000
52.04820 118.000
52.06814 120.000
52.08809 118.000
52.10804 101.000
52.12798 115.000
52.14793 109.000
52.16788 110.000
52.18782 116.000
52.20777 87.000
52.22772 96.000
52.24767 116.000
52.26761 110.000
52.28756 94.000
52.30751 93.000
52.32745 116.000
52.34740 115.000
52.36735 100.000
52.38729 91.000
52.40724 78.000
52.42719 89.000
52.44713 84.000
52.46708 102.000
52.48703 82.000
52.50698 84.000
52.52692 96.000
52.54687 93.000
52.56682 91.000
52.58676 93.000
52.60671 94.000
52.62666 102.000
52.64660 97.000
52.66655 104.000
52.68650 85.000
52.70645 120.000
52.72639 107.000
52.74634 129.000
52.76629 135.000
52.78623 119.000
52.80618 140.000
52.82613 135.000
52.84607 135.000
52.86602 141.000
52.88597 177.000
52.90591 168.000
52.92586 187.000
52.94581 222.000
52.96576 250.000
52.98570 281.000
53.00565 295.000
53.02560 359.000
53.04554 360.000
53.06549 333.000
53.08544 350.000
53.10538 284.000
53.12533 267.000
53.14528 281.000
53.16523 259.000
53.18517 270.000
53.20512 248.000
53.22507 200.000
53.24501 188.000
53.26496 159.000
53.28491 150.000
53.30485 137.000
53.32480 130.000
53.34475 105.000
53.36469 127.000
53.38464 127.000
53.40459 106.000
53.42454 86.000
53.44448 115.000
53.46443 98.000
53.48438 101.000
53.50432 92.000
53.52427 94.000
53.54422 93.000
53.56416 92.000
53.58411 80.000
53.60406 103.000
53.62401 95.000
53.64395 96.000
53.66390 111.000
53.68385 104.000
53.70379 97.000
53.72374 89.000
53.74369 118.000
53.76363 100.000
53.78358 120.000
53.80353 136.000
53.82348 157.000
53.84342 149.000
53.86337 139.000
53.88332 144.000
53.90326 114.000
53.92321 141.000
53.94316 125.000
53.96310 122.000
53.98305 134.000
54.00300 119.000
54.02294 123.000
54.04289 91.000
54.06284 88.000
54.08279 105.000
54.10273 94.000
54.12268 93.000
54.14263 79.000
54.16257 90.000
54.18252 91.000
54.20247 88.000
54.22241 90.000
54.24236 82.000
54.26231 75.000
54.28226 92.000
54.30220 90.000
54.32215 95.000
54.34210 86.000
54.36204 96.000
54.38199 85.000
54.40194 94.000
54.42188 103.000
54.44183 76.000
54.46178 87.000
54.48172 82.000
54.50167 98.000
54.52162 90.000
54.54157 94.000
54.56151 103.000
54.58146 86.000
54.60141 97.000
54.62135 77.000
54.64130 78.000
54.66125 82.000
54.68119 85.000
54.70114 83.000
54.72109 77.000
54.74104 77.000
54.76098 90.000
54.78093 79.000
54.80088 77.000
54.82082 91.000
54.84077 80.000
54.86072 86.000
54.88066 86.000
54.90061 71.000
54.92056 95.000
54.94050 97.000
54.96045 88.000
54.98040 77.000
55.00035 86.000
55.02029 89.000
55.04024 66.000
55.06019 89.000
55.08013 78.000
55.10008 71.000
55.12003 58.000
55.13997 76.000
55.15992 80.000
55.17987 73.000
55.19982 63.000
55.21976 75.000
55.23971 78.000
55.25966 94.000
55.27960 100.000
55.29955 85.000
55.31950 72.000
55.33944 85.000
55.35939 78.000
55.37934 87.000
55.39929 75.000
55.41923 64.000
55.43918 77.000
55.45913 77.000
55.47907 76.000
55.49902 109.000
55.51897 77.000
55.53891 96.000
55.55886 85.000
55.57881 75.000
55.59875 78.000
55.61870 72.000
55.63865 86.000
55.65860 71.000
55.67854 76.000
55.69849 84.000
55.71844 88.000
55.73838 87.000
55.75833 82.000
55.77828 77.000
55.79822 71.000
55.81817 75.000
55.83812 71.000
55.85807 78.000
55.87801 81.000
55.89796 80.000
55.91791 96.000
55.93785 91.000
55.95780 100.000
55.97775 81.000
55.99769 86.000
56.01764 74.000
56.03759 84.000
56.05753 70.000
56.07748 77.000
56.09743 104.000
56.11738 77.000
56.13732 83.000
56.15727 79.000
56.17722 97.000
56.19716 73.000
56.21711 94.000
56.23706 84.000
56.25700 92.000
56.27695 92.000
56.29690 80.000
56.31685 101.000
56.33679 81.000
56.35674 100.000
56.37669 76.000
56.39663 85.000
56.41658 91.000
56.43653 76.000
56.45647 66.000
56.47642 83.000
56.49637 87.000
56.51631 68.000
56.53626 71.000
56.55621 71.000
56.57616 87.000
56.59610 90.000
56.61605 81.000
56.63600 101.000
56.65594 91.000
56.67589 90.000
56.69584 100.000
56.71578 83.000
56.73573 90.000
56.75568 83.000
56.77563 98.000
56.79557 85.000
56.81552 91.000
56.83547 84.000
56.85541 101.000
56.87536 91.000
56.89531 93.000
56.91525 86.000
56.93520 100.000
56.95515 100.000
56.97510 96.000
56.99504 101.000
57.01499 98.000
57.03494 104.000
57.05488 99.000
57.07483 118.000
57.09478 120.000
57.11472 103.000
57.13467 110.000
57.15462 98.000
57.17456 117.000
57.19451 129.000
57.21446 135.000
57.23441 153.000
57.25435 152.000
57.27430 141.000
57.29425 190.000
57.31419 211.000
57.33414 215.000
57.35409 226.000
57.37403 278.000
57.39398 324.000
57.41393 287.000
57.43388 310.000
57.45382 290.000
57.47377 310.000
57.49372 323.000
57.51366 298.000
57.53361 359.000
57.55356 389.000
57.57350 421.000
57.59345 422.000
57.61340 450.000
57.63334 445.000
57.65329 519.000
57.67324 468.000
57.69319 466.000
57.71313 471.000
57.73308 408.000
57.75303 437.000
57.77297 369.000
57.79292 341.000
57.81287 348.000
57.83281 305.000
57.85276 278.000
57.87271 257.000
57.89266 229.000
57.91260 196.000
57.93255 195.000
57.95250 151.000
57.97244 144.000
57.99239 134.000
58.01234 127.000
58.03228 121.000
58.05223 105.000
58.07218 108.000
58.09212 101.000
58.11207 96.000
58.13202 105.000
58.15197 105.000
58.17191 98.000
58.19186 94.000
58.21181 99.000
58.23175 82.000
58.25170 85.000
58.27165 83.000
58.29159 81.000
58.31154 93.000
58.33149 92.000
58.35144 82.000
58.37138 85.000
58.39133 87.000
58.41128 85.000
58.43122 70.000
58.45117 85.000
58.47112 98.000
58.49106 85.000
58.51101 82.000
58.53096 80.000
58.55090 75.000
58.57085 87.000
58.59080 99.000
58.61075 91.000
58.63069 76.000
58.65064 77.000
58.67059 82.000
58.69053 78.000
58.71048 82.000
58.73043 87.000
58.75037 93.000
58.77032 89.000
58.79027 71.000
58.81022 81.000
58.83016 99.000
58.85011 83.000
58.87006 81.000
58.89000 102.000
58.90995 74.000
58.92990 100.000
58.94984 85.000
58.96979 85.000
58.98974 84.000
59.00969 103.000
59.02963 86.000
59.04958 93.000
59.06953 85.000
59.08947 80.000
59.10942 95.000
59.12937 88.000
59.14931 101.000
59.16926 75.000
59.18921 71.000
59.20915 92.000
59.22910 102.000
59.24905 72.000
59.26900 77.000
59.28894 95.000
59.30889 81.000
59.32884 76.000
59.34878 93.000
59.36873 75.000
59.38868 77.000
59.40862 91.000
59.42857 79.000
59.44852 57.000
59.46847 87.000
59.48841 79.000
59.50836 84.000
59.52831 89.000
59.54825 100.000
59.56820 104.000
59.58815 82.000
59.60809 78.000
59.62804 87.000
59.64799 76.000
59.66793 96.000
59.68788 82.000
59.70783 86.000
59.72778 79.000
59.74772 79.000
59.76767 78.000
59.78762 77.000
59.80756 79.000
59.82751 84.000
59.84746 86.000
59.86740 79.000
59.88735 96.000
59.90730 83.000
59.92725 88.000
59.94719 71.000
59.96714 82.000
59.98709 75.000
60.00703 96.000
60.02698 83.000
60.04693 105.000
60.06687 74.000
60.08682 96.000
60.10677 75.000
60.12671 87.000
60.14666 84.000
60.16661 72.000
60.18656 85.000
60.20650 76.000
60.22645 94.000
60.24640 78.000
60.26634 81.000
60.28629 90.000
60.30624 85.000
60.32618 78.000
60.34613 75.000
60.36608 63.000
60.38603 76.000
60.40597 93.000
60.42592 84.000
60.44587 82.000
60.46581 100.000
60.48576 96.000
60.50571 89.000
60.52565 82.000
60.54560 77.000
60.56555 68.000
60.58550 81.000
60.60544 85.000
60.62539 70.000
60.64534 87.000
60.66528 88.000
60.68523 81.000
60.70518 79.000
60.72512 74.000
60.74507 90.000
60.76502 92.000
60.78496 87.000
60.80491 105.000
60.82486 98.000
60.84481 86.000
60.86475 100.000
60.88470 90.000
60.90465 73.000
60.92459 87.000
60.94454 93.000
60.96449 78.000
60.98443 101.000
61.00438 89.000
61.02433 96.000
61.04428 95.000
61.06422 95.000
61.08417 88.000
61.10412 89.000
61.12406 103.000
61.14401 94.000
61.16396 112.000
61.18390 105.000
61.20385 100.000
61.22380 82.000
61.24374 106.000
61.26369 90.000
61.28364 112.000
61.30359 99.000
61.32353 90.000
61.34348 99.000
61.36343 93.000
61.38337 87.000
61.40332 110.000
61.42327 108.000
61.44321 118.000
61.46316 100.000
61.48311 120.000
61.50306 101.000
61.52300 98.000
61.54295 108.000
61.56290 112.000
61.58284 130.000
61.60279 109.000
61.62274 127.000
61.64268 107.000
61.66263 96.000
61.68258 106.000
61.70252 89.000
61.72247 104.000
61.74242 117.000
61.76237 121.000
61.78231 83.000
61.80226 143.000
61.82221 132.000
61.84215 121.000
61.86210 124.000
61.88205 118.000
61.90199 129.000
61.92194 170.000
61.94189 173.000
61.96184 174.000
61.98178 177.000
62.00173 248.000
62.02168 270.000
62.04162 256.000
62.06157 223.000
62.08152 245.000
62.10146 238.000
62.12141 211.000
62.14136 206.000
62.16131 196.000
62.18125 180.000
62.20120 179.000
62.22115 191.000
62.24109 170.000
62.26104 176.000
62.28099 135.000
62.30093 145.000
62.32088 134.000
62.34083 119.000
62.36077 127.000
62.38072 100.000
62.40067 114.000
62.42062 106.000
62.44056 109.000
62.46051 100.000
62.48046 124.000
62.50040 119.000
62.52035 110.000
62.54030 122.000
62.56024 129.000
62.58019 113.000
62.60014 130.000
62.62009 141.000
62.64003 143.000
62.65998 150.000
62.67993 180.000
62.69987 198.000
62.71982 254.000
62.73977 310.000
62.75971 367.000
62.77966 408.000
62.79961 495.000
62.81955 496.000
62.83950 555.000
62.85945 544.000
62.87940 517.000
62.89934 473.000
62.91929 474.000
62.93924 507.000
62.95918 537.000
62.97913 592.000
62.99908 591.000
63.01902 604.000
63.03897 631.000
63.05892 634.000
63.07887 591.000
63.09881 548.000
63.11876 556.000
63.13871 546.000
63.15865 560.000
63.17860 543.000
63.19855 516.000
63.21849 501.000
63.23844 462.000
63.25839 445.000
63.27833 449.000
63.29828 413.000
63.31823 382.000
63.33818 342.000
63.35812 328.000
63.37807 288.000
63.39802 280.000
63.41796 235.000
63.43791 231.000
63.45786 202.000
63.47780 243.000
63.49775 183.000
63.51770 180.000
63.53765 164.000
63.55759 143.000
63.57754 160.000
63.59749 138.000
63.61743 120.000
63.63738 132.000
63.65733 145.000
63.67727 117.000
63.69722 113.000
63.71717 144.000
63.73712 116.000
63.75706 126.000
63.77701 151.000
63.79696 162.000
63.81690 131.000
63.83685 155.000
63.85680 160.000
63.87674 148.000
63.89669 191.000
63.91664 181.000
63.93658 178.000
63.95653 174.000
63.97648 153.000
63.99643 164.000
64.01637 146.000
64.03632 186.000
64.05627 141.000
64.07621 176.000
64.09616 154.000
64.11611 168.000
64.13605 138.000
64.15600 125.000
64.17595 140.000
64.19590 145.000
64.21584 139.000
64.23579 141.000
64.25574 140.000
64.27568 141.000
64.29563 136.000
64.31558 151.000
64.33552 126.000
64.35547 115.000
64.37542 100.000
64.39536 89.000
64.41531 102.000
64.43526 118.000
64.45521 115.000
64.47515 92.000
64.49510 105.000
64.51505 100.000
64.53499 90.000
64.55494 99.000
64.57489 92.000
64.59483 89.000
64.61478 101.000
64.63473 87.000
64.65468 97.000
64.67462 104.000
64.69457 81.000
64.71452 102.000
64.73446 92.000
64.75441 81.000
64.77436 118.000
64.79430 94.000
64.81425 94.000
64.83420 77.000
64.85414 77.000
64.87409 91.000
64.89404 84.000
64.91399 93.000
64.93393 73.000
64.95388 84.000
64.97383 80.000
64.99377 79.000
65.01372 87.000
65.03367 101.000
65.05361 108.000
65.07356 94.000
65.09351 83.000
65.11346 93.000
65.13340 90.000
65.15335 82.000
65.17330 91.000
65.19324 94.000
65.21319 75.000
65.23314 90.000
65.25308 97.000
65.27303 97.000
65.29298 107.000
65.31293 118.000
65.33287 104.000
65.35282 116.000
65.37277 117.000
65.39271 125.000
65.41266 106.000
65.43261 114.000
65.45255 126.000
65.47250 139.000
65.49245 140.000
65.51239 129.000
65.53234 148.000
65.55229 152.000
65.57224 218.000
65.59218 183.000
65.61213 194.000
65.63208 227.000
65.65202 228.000
65.67197 234.000
65.69192 249.000
65.71186 194.000
65.73181 219.000
65.75176 239.000
65.77171 249.000
65.79165 232.000
65.81160 247.000
65.83155 233.000
65.85149 219.000
65.87144 202.000
65.89139 190.000
65.91133 194.000
65.93128 174.000
65.95123 161.000
65.97117 161.000
65.99112 169.000
66.01107 145.000
66.03102 142.000
66.05096 129.000
66.07091 148.000
66.09086 112.000
66.11080 117.000
66.13075 102.000
66.15070 136.000
66.17064 124.000
66.19059 103.000
66.21054 136.000
66.23049 143.000
66.25043 134.000
66.27038 117.000
66.29033 150.000
66.31027 129.000
66.33022 139.000
66.35017 119.000
66.37011 127.000
66.39006 151.000
66.41001 143.000
66.42995 132.000
66.44990 148.000
66.46985 134.000
66.48980 114.000
66.50974 117.000
66.52969 115.000
66.54964 110.000
66.56958 108.000
66.58953 123.000
66.60948 137.000
66.62942 113.000
66.64937 99.000
66.66932 107.000
66.68927 111.000
66.70921 99.000
66.72916 106.000
66.74911 112.000
66.76905 100.000
66.78900 102.000
66.80895 92.000
66.82889 97.000
66.84884 101.000
66.86879 85.000
66.88874 90.000
66.90868 98.000
66.92863 91.000
66.94858 114.000
66.96852 109.000
66.98847 106.000
67.00842 100.000
67.02836 91.000
67.04831 104.000
67.06826 100.000
67.08820 106.000
67.10815 106.000
67.12810 99.000
67.14805 101.000
67.16799 110.000
67.18794 120.000
67.20789 104.000
67.22783 104.000
67.24778 99.000
67.26773 89.000
67.28767 98.000
67.30762 97.000
67.32757 118.000
67.34752 88.000
67.36746 98.000
67.38741 95.000
67.40736 106.000
67.42730 118.000
67.44725 85.000
67.46720 68.000
67.48714 86.000
67.50709 108.000
67.52704 95.000
67.54698 75.000
67.56693 101.000
67.58688 90.000
67.60683 95.000
67.62677 105.000
67.64672 115.000
67.66667 117.000
67.68661 114.000
67.70656 114.000
67.72651 129.000
67.74645 127.000
67.76640 119.000
67.78635 116.000
67.80630 136.000
67.82624 142.000
67.84619 137.000
67.86614 149.000
67.88608 146.000
67.90603 156.000
67.92598 143.000
67.94592 131.000
67.96587 139.000
67.98582 160.000
68.00576 174.000
68.02571 149.000
68.04566 143.000
68.06561 152.000
68.08555 144.000
68.10550 141.000
68.12545 127.000
68.14539 106.000
68.16534 123.000
68.18529 112.000
68.20523 117.000
68.22518 133.000
68.24513 118.000
68.26508 107.000
68.28502 107.000
68.30497 112.000
68.32492 103.000
68.34486 117.000
68.36481 101.000
68.38476 111.000
68.40470 112.000
68.42465 111.000
68.44460 102.000
68.46455 119.000
68.48449 115.000
68.50444 86.000
68.52439 113.000
68.54433 114.000
68.56428 121.000
68.58423 110.000
68.60417 102.000
68.62412 103.000
68.64407 116.000
68.66401 107.000
68.68396 108.000
68.70391 123.000
68.72386 113.000
68.74380 96.000
68.76375 113.000
68.78370 111.000
68.80364 93.000
68.82359 96.000
68.84354 106.000
68.86348 98.000
68.88343 111.000
68.90338 105.000
68.92333 94.000
68.94327 85.000
68.96322 97.000
68.98317 87.000
69.00311 77.000
69.02306 90.000
69.04301 89.000
69.06295 76.000
69.08290 83.000
69.10285 69.000
69.12279 74.000
69.14274 94.000
69.16269 93.000
69.18264 96.000
69.20258 79.000
69.22253 77.000
69.24248 70.000
69.26242 68.000
69.28237 68.000
69.30232 90.000
69.32226 83.000
69.34221 95.000
69.36216 80.000
69.38211 83.000
69.40205 71.000
69.42200 76.000
69.44195 71.000
69.46189 77.000
69.48184 82.000
69.50179 73.000
69.52173 100.000
69.54168 68.000
69.56163 75.000
69.58157 81.000
69.60152 77.000
69.62147 80.000
69.64142 74.000
69.66136 81.000
69.68131 87.000
69.70126 70.000
69.72120 88.000
69.74115 81.000
69.76110 69.000
69.78104 84.000
69.80099 74.000
69.82094 73.000
69.84089 86.000
69.86083 70.000
69.88078 88.000
69.90073 87.000
69.92067 73.000
69.94062 77.000
69.96057 87.000
69.98051 76.000
70.00046 73.000
70.02041 58.000
70.04035 95.000
70.06030 84.000
70.08025 78.000
70.10020 101.000
70.12014 72.000
70.14009 64.000
70.16004 84.000
70.17998 91.000
70.19993 83.000
70.21988 73.000
70.23982 89.000
70.25977 77.000
70.27972 83.000
70.29967 72.000
70.31961 59.000
70.33956 62.000
70.35951 89.000
70.37945 87.000
70.39940 78.000
70.41935 84.000
70.43929 69.000
70.45924 86.000
70.47919 68.000
70.49914 79.000
70.51908 67.000
70.53903 67.000
70.55898 91.000
70.57892 92.000
70.59887 91.000
70.61882 77.000
70.63876 71.000
70.65871 72.000
70.67866 61.000
70.69860 84.000
70.71855 82.000
70.73850 90.000
70.75845 65.000
70.77839 79.000
70.79834 72.000
70.81829 83.000
70.83823 78.000
70.85818 67.000
70.87813 83.000
70.89807 101.000
70.91802 82.000
70.93797 80.000
70.95792 58.000
70.97786 72.000
70.99781 64.000
71.01776 84.000
71.03770 69.000
71.05765 79.000
71.07760 54.000
71.09754 94.000
71.11749 76.000
71.13744 73.000
71.15738 66.000
71.17733 79.000
71.19728 104.000
71.21723 72.000
71.23717 85.000
71.25712 87.000
71.27707 74.000
71.29701 91.000
71.31696 93.000
71.33691 81.000
71.35685 86.000
71.37680 73.000
71.39675 73.000
71.41670 92.000
71.43664 73.000
71.45659 90.000
71.47654 88.000
71.49648 105.000
71.51643 86.000
71.53638 98.000
71.55632 80.000
71.57627 80.000
71.59622 91.000
71.61616 84.000
71.63611 84.000
71.65606 106.000
71.67601 86.000
71.69595 80.000
71.71590 97.000
71.73585 82.000
71.75579 82.000
71.77574 97.000
71.79569 91.000
71.81563 76.000
71.83558 80.000
71.85553 84.000
71.87548 68.000
71.89542 85.000
71.91537 83.000
71.93532 91.000
71.95526 91.000
71.97521 85.000
71.99516 85.000
72.01510 89.000
72.03505 80.000
72.05500 73.000
72.07495 69.000
72.09489 71.000
72.11484 66.000
72.13479 80.000
72.15473 91.000
72.17468 82.000
72.19463 73.000
72.21457 83.000
72.23452 93.000
72.25447 77.000
72.27441 94.000
72.29436 74.000
72.31431 79.000
72.33426 95.000
72.35420 93.000
72.37415 81.000
72.39410 79.000
72.41404 87.000
72.43399 75.000
72.45394 75.000
72.47388 85.000
72.49383 86.000
72.51378 90.000
72.53373 91.000
72.55367 80.000
72.57362 94.000
72.59357 81.000
72.61351 67.000
72.63346 79.000
72.65341 92.000
72.67335 75.000
72.69330 102.000
72.71325 92.000
72.73319 118.000
72.75314 106.000
72.77309 104.000
72.79304 129.000
72.81298 134.000
72.83293 110.000
72.85288 122.000
72.87282 141.000
72.89277 128.000
72.91272 165.000
72.93266 154.000
72.95261 170.000
72.97256 149.000
72.99251 152.000
73.01245 173.000
73.03240 183.000
73.05235 146.000
73.07229 159.000
73.09224 169.000
73.11219 157.000
73.13213 168.000
73.15208 153.000
73.17203 173.000
73.19197 153.000
73.21192 171.000
73.23187 154.000
73.25182 151.000
73.27176 150.000
73.29171 138.000
73.31166 153.000
73.33160 146.000
73.35155 145.000
73.37150 140.000
73.39144 154.000
73.41139 145.000
73.43134 156.000
73.45129 147.000
73.47123 156.000
73.49118 173.000
73.51113 169.000
73.53107 176.000
73.55102 138.000
73.57097 147.000
73.59091 143.000
73.61086 154.000
73.63081 141.000
73.65076 122.000
73.67070 151.000
73.69065 156.000
73.71060 123.000
73.73054 132.000
73.75049 125.000
73.77044 127.000
73.79038 91.000
73.81033 115.000
73.83028 121.000
73.85022 107.000
73.87017 95.000
73.89012 97.000
73.91007 81.000
73.93001 85.000
73.94996 79.000
73.96991 99.000
73.98985 85.000
74.00980 84.000
74.02975 77.000
74.04969 86.000
74.06964 83.000
74.08959 93.000
74.10954 89.000
74.12948 88.000
74.14943 74.000
74.16938 97.000
74.18932 69.000
74.20927 84.000
74.22922 94.000
74.24916 97.000
74.26911 88.000
74.28906 91.000
74.30900 88.000
74.32895 70.000
74.34890 72.000
74.36885 90.000
74.38879 99.000
74.40874 93.000
74.42869 87.000
74.44863 97.000
74.46858 97.000
74.48853 106.000
74.50847 118.000
74.52842 116.000
74.54837 96.000
74.56832 143.000
74.58826 128.000
74.60821 130.000
74.62816 135.000
74.64810 152.000
74.66805 134.000
74.68800 116.000
74.70794 126.000
74.72789 122.000
74.74784 114.000
74.76778 136.000
74.78773 138.000
74.80768 131.000
74.82763 124.000
74.84757 132.000
74.86752 108.000
74.88747 107.000
74.90741 94.000
74.92736 102.000
74.94731 144.000
74.96725 115.000
74.98720 103.000
75.00715 96.000
75.02710 103.000
75.04704 108.000
75.06699 87.000
75.08694 91.000
75.10688 101.000
75.12683 132.000
75.14678 100.000
75.16672 106.000
75.18667 102.000
75.20662 142.000
75.22657 138.000
75.24651 167.000
75.26646 163.000
75.28641 185.000
75.30635 190.000
75.32630 207.000
75.34625 215.000
75.36619 203.000
75.38614 231.000
75.40609 193.000
75.42603 202.000
75.44598 192.000
75.46593 196.000
75.48588 187.000
75.50582 205.000
75.52577 192.000
75.54572 164.000
75.56566 196.000
75.58561 190.000
75.60556 202.000
75.62550 171.000
75.64545 137.000
75.66540 150.000
75.68535 144.000
75.70529 146.000
75.72524 113.000
75.74519 115.000
75.76513 115.000
75.78508 116.000
75.80503 98.000
75.82497 112.000
75.84492 111.000
75.86487 112.000
75.88481 84.000
75.90476 82.000
75.92471 93.000
75.94466 86.000
75.96460 91.000
75.98455 93.000
76.00450 88.000
76.02444 82.000
76.04439 80.000
76.06434 88.000
76.08428 98.000
76.10423 93.000
76.12418 85.000
76.14413 85.000
76.16407 82.000
76.18402 90.000
76.20397 84.000
76.22391 86.000
76.24386 92.000
76.26381 77.000
76.28375 94.000
76.30370 73.000
76.32365 77.000
76.34359 79.000
76.36354 92.000
76.38349 76.000
76.40344 74.000
76.42338 68.000
76.44333 73.000
76.46328 56.000
76.48322 81.000
76.50317 88.000
76.52312 79.000
76.54306 81.000
76.56301 114.000
76.58296 82.000
76.60291 103.000
76.62285 57.000
76.64280 65.000
76.66275 71.000
76.68269 85.000
76.70264 70.000
76.72259 76.000
76.74253 88.000
76.76248 68.000
76.78243 84.000
76.80238 85.000
76.82232 82.000
76.84227 93.000
76.86222 75.000
76.88216 82.000
76.90211 75.000
76.92206 83.000
76.94200 85.000
76.96195 72.000
76.98190 90.000
77.00184 84.000
77.02179 73.000
77.04174 79.000
77.06169 74.000
77.08163 68.000
77.10158 80.000
77.12153 67.000
77.14147 73.000
77.16142 70.000
77.18137 75.000
77.20131 78.000
77.22126 72.000
77.24121 79.000
77.26116 71.000
77.28110 75.000
77.30105 78.000
77.32100 84.000
77.34094 84.000
77.36089 66.000
77.38084 71.000
77.40078 70.000
77.42073 102.000
77.44068 97.000
77.46062 93.000
77.48057 94.000
77.50052 87.000
77.52047 95.000
77.54041 99.000
77.56036 99.000
77.58031 106.000
77.60025 90.000
77.62020 87.000
77.64015 92.000
77.66009 112.000
77.68004 103.000
77.69999 82.000
77.71994 106.000
77.73988 90.000
77.75983 94.000
77.77978 109.000
77.79972 106.000
77.81967 88.000
77.83962 94.000
77.85956 101.000
77.87951 94.000
77.89946 85.000
77.91940 90.000
77.93935 101.000
77.95930 95.000
77.97925 92.000
77.99919 89.000
78.01914 99.000
78.03909 92.000
78.05903 91.000
78.07898 73.000
78.09893 89.000
78.11887 106.000
78.13882 112.000
78.15877 115.000
78.17872 103.000
78.19866 98.000
78.21861 100.000
78.23856 99.000
78.25850 107.000
78.27845 116.000
78.29840 131.000
78.31834 118.000
78.33829 120.000
78.35824 148.000
78.37819 140.000
78.39813 164.000
78.41808 175.000
78.43803 159.000
78.45797 161.000
78.47792 171.000
78.49787 175.000
78.51781 187.000
78.53776 168.000
78.55771 188.000
78.57765 203.000
78.59760 166.000
78.61755 200.000
78.63750 211.000
78.65744 203.000
78.67739 175.000
78.69734 189.000
78.71728 157.000
78.73723 168.000
78.75718 152.000
78.77712 145.000
78.79707 143.000
78.81702 137.000
78.83697 122.000
78.85691 122.000
78.87686 117.000
78.89681 115.000
78.91675 108.000
78.93670 120.000
78.95665 123.000
78.97659 125.000
78.99654 119.000
79.01649 91.000
79.03643 92.000
79.05638 103.000
79.07633 101.000
79.09628 93.000
79.11622 94.000
79.13617 104.000
79.15612 115.000
79.17606 129.000
79.19601 110.000
79.21596 150.000
79.23590 137.000
79.25585 138.000
79.27580 141.000
79.29575 175.000
79.31569 145.000
79.33564 161.000
79.35559 149.000
79.37553 175.000
79.39548 147.000
79.41543 140.000
79.43537 126.000
79.45532 133.000
79.47527 151.000
79.49521 113.000
79.51516 153.000
79.53511 128.000
79.55506 131.000
79.57500 143.000
79.59495 133.000
79.61490 113.000
79.63484 109.000
79.65479 138.000
79.67474 105.000
79.69468 111.000
79.71463 120.000
79.73458 107.000
79.75453 92.000
79.77447 93.000
79.79442 93.000
79.81437 89.000
79.83431 104.000
79.85426 80.000
79.87421 85.000
79.89415 86.000
79.91410 71.000
79.93405 91.000
79.95399 82.000
79.97394 85.000
79.99389 78.000
80.01384 91.000
80.03378 72.000
80.05373 76.000
80.07368 76.000
80.09362 75.000
80.11357 66.000
80.13352 72.000
80.15346 72.000
80.17341 80.000
80.19336 87.000
80.21331 87.000
80.23325 90.000
80.25320 103.000
80.27315 94.000
80.29309 81.000
80.31304 67.000
80.33299 85.000
80.35293 97.000
80.37288 69.000
80.39283 68.000
80.41278 87.000
80.43272 80.000
80.45267 83.000
80.47262 82.000
80.49256 95.000
80.51251 84.000
80.53246 82.000
80.55240 77.000
80.57235 84.000
80.59230 79.000
80.61224 73.000
80.63219 87.000
80.65214 80.000
80.67209 72.000
80.69203 80.000
80.71198 88.000
80.73193 69.000
80.75187 90.000
80.77182 72.000
80.79177 93.000
80.81171 82.000
80.83166 73.000
80.85161 88.000
80.87156 80.000
80.89150 76.000
80.91145 94.000
80.93140 95.000
80.95134 82.000
80.97129 88.000
80.99124 102.000
81.01118 73.000
81.03113 77.000
81.05108 87.000
81.07102 73.000
81.09097 70.000
81.11092 78.000
81.13087 86.000
81.15081 71.000
81.17076 74.000
81.19071 93.000
81.21065 75.000
81.23060 70.000
81.25055 85.000
81.27049 89.000
81.29044 61.000
81.31039 62.000
81.33034 73.000
81.35028 83.000
81.37023 68.000
81.39018 77.000
81.41012 81.000
81.43007 88.000
81.45002 78.000
81.46996 72.000
81.48991 90.000
81.50986 69.000
81.52980 57.000
81.54975 87.000
81.56970 62.000
81.58965 76.000
81.60959 79.000
81.62954 62.000
81.64949 75.000
81.66943 84.000
81.68938 67.000
81.70933 82.000
81.72927 78.000
81.74922 63.000
81.76917 67.000
81.78912 69.000
81.80906 62.000
81.82901 76.000
81.84896 71.000
81.86890 57.000
81.88885 77.000
81.90880 66.000
81.92874 76.000
81.94869 78.000
81.96864 79.000
81.98859 91.000
82.00853 59.000
82.02848 67.000
82.04843 70.000
82.06837 72.000
82.08832 74.000
82.10827 77.000
82.12821 80.000
82.14816 70.000
82.16811 79.000
82.18805 86.000
82.20800 79.000
82.22795 73.000
82.24790 75.000
82.26784 66.000
82.28779 94.000
82.30774 79.000
82.32768 80.000
82.34763 85.000
82.36758 86.000
82.38752 82.000
82.40747 81.000
82.42742 67.000
82.44737 72.000
82.46731 79.000
82.48726 58.000
82.50721 80.000
82.52715 78.000
82.54710 79.000
82.56705 88.000
82.58699 76.000
82.60694 91.000
82.62689 67.000
82.64683 81.000
82.66678 76.000
82.68673 82.000
82.70668 80.000
82.72662 72.000
82.74657 82.000
82.76652 75.000
82.78646 78.000
82.80641 67.000
82.82636 80.000
82.84630 76.000
82.86625 70.000
82.88620 76.000
82.90615 91.000
82.92609 76.000
82.94604 66.000
82.96599 93.000
82.98593 70.000
83.00588 75.000
83.02583 70.000
83.04577 74.000
83.06572 74.000
83.08567 64.000
83.10561 66.000
83.12556 65.000
83.14551 69.000
83.16546 57.000
83.18540 83.000
83.20535 86.000
83.22530 70.000
83.24524 63.000
83.26519 70.000
83.28514 87.000
83.30508 68.000
83.32503 65.000
83.34498 71.000
83.36493 83.000
83.38487 53.000
83.40482 72.000
83.42477 62.000
83.44471 66.000
83.46466 56.000
83.48461 73.000
83.50455 82.000
83.52450 92.000
83.54445 78.000
83.56440 72.000
83.58434 83.000
83.60429 53.000
83.62424 77.000
83.64418 80.000
83.66413 56.000
83.68408 78.000
83.70402 65.000
83.72397 57.000
83.74392 59.000
83.76386 73.000
83.78381 77.000
83.80376 78.000
83.82371 65.000
83.84365 60.000
83.86360 87.000
83.88355 66.000
83.90349 90.000
83.92344 92.000
83.94339 82.000
83.96333 68.000
83.98328 85.000
84.00323 100.000
84.02318 82.000
84.04312 84.000
84.06307 99.000
84.08302 86.000
84.10296 97.000
84.12291 92.000
84.14286 88.000
84.16280 102.000
84.18275 101.000
84.20270 91.000
84.22264 107.000
84.24259 105.000
84.26254 99.000
84.28249 113.000
84.30243 87.000
84.32238 108.000
84.34233 109.000
84.36227 95.000
84.38222 94.000
84.40217 115.000
84.42211 105.000
84.44206 119.000
84.46201 103.000
84.48196 99.000
84.50190 112.000
84.52185 96.000
84.54180 98.000
84.56174 116.000
84.58169 94.000
84.60164 110.000
84.62158 95.000
84.64153 117.000
84.66148 106.000
84.68142 97.000
84.70137 100.000
84.72132 100.000
84.74127 86.000
84.76121 78.000
84.78116 86.000
84.80111 98.000
84.82105 83.000
84.84100 82.000
84.86095 95.000
84.88089 91.000
84.90084 76.000
84.92079 84.000
84.94074 91.000
84.96068 61.000
84.98063 82.000
85.00058 84.000
85.02052 97.000
85.04047 100.000
85.06042 78.000
85.08036 82.000
85.10031 78.000
85.12026 73.000
85.14021 84.000
85.16015 75.000
85.18010 69.000
85.20005 90.000
85.21999 84.000
85.23994 83.000
85.25989 70.000
85.27983 77.000
85.29978 77.000
85.31973 65.000
85.33967 85.000
85.35962 84.000
85.37957 82.000
85.39952 85.000
85.41946 77.000
85.43941 92.000
85.45936 66.000
85.47930 64.000
85.49925 67.000
85.51920 74.000
85.53914 66.000
85.55909 74.000
85.57904 70.000
85.59899 67.000
85.61893 104.000
85.63888 89.000
85.65883 73.000
85.67877 102.000
85.69872 61.000
85.71867 83.000
85.73861 73.000
85.75856 71.000
85.77851 70.000
85.79845 66.000
85.81840 89.000
85.83835 73.000
85.85830 78.000
85.87824 72.000
85.89819 84.000
85.91814 70.000
85.93808 77.000
85.95803 81.000
85.97798 78.000
85.99792 77.000
86.01787 80.000
86.03782 81.000
86.05777 84.000
86.07771 69.000
86.09766 69.000
86.11761 66.000
86.13755 97.000
86.15750 84.000
86.17745 85.000
86.19739 79.000
86.21734 77.000
86.23729 67.000
86.25723 71.000
86.27718 84.000
86.29713 75.000
86.31708 79.000
86.33702 76.000
86.35697 86.000
86.37692 70.000
86.39686 66.000
86.41681 60.000
86.43676 79.000
86.45670 75.000
86.47665 84.000
86.49660 90.000
86.51655 74.000
86.53649 73.000
86.55644 79.000
86.57639 68.000
86.59633 81.000
86.61628 81.000
86.63623 82.000
86.65617 91.000
86.67612 68.000
86.69607 76.000
86.71602 102.000
86.73596 101.000
86.75591 96.000
86.77586 84.000
86.79580 92.000
86.81575 101.000
86.83570 114.000
86.85564 92.000
86.87559 92.000
86.89554 99.000
86.91548 94.000
86.93543 118.000
86.95538 108.000
86.97533 92.000
86.99527 129.000
87.01522 109.000
87.03517 117.000
87.05511 137.000
87.07506 106.000
87.09501 85.000
87.11495 125.000
87.13490 107.000
87.15485 99.000
87.17480 103.000
87.19474 105.000
87.21469 99.000
87.23464 103.000
87.25458 92.000
87.27453 119.000
87.29448 107.000
87.31442 98.000
87.33437 99.000
87.35432 83.000
87.37426 92.000
87.39421 104.000
87.41416 102.000
87.43411 98.000
87.45405 101.000
87.47400 100.000
87.49395 115.000
87.51389 93.000
87.53384 90.000
87.55379 111.000
87.57373 104.000
87.59368 107.000
87.61363 106.000
87.63358 90.000
87.65352 93.000
87.67347 104.000
87.69342 106.000
87.71336 83.000
87.73331 101.000
87.75326 101.000
87.77320 97.000
87.79315 92.000
87.81310 95.000
87.83304 80.000
87.85299 82.000
87.87294 93.000
87.89289 78.000
87.91283 78.000
87.93278 77.000
87.95273 80.000
87.97267 93.000
87.99262 85.000
88.01257 84.000
88.03251 64.000
88.05246 85.000
88.07241 77.000
88.09236 79.000
88.11230 85.000
88.13225 90.000
88.15220 90.000
88.17214 85.000
88.19209 76.000
88.21204 65.000
88.23198 77.000
88.25193 81.000
88.27188 76.000
88.29183 62.000
88.31177 73.000
88.33172 88.000
88.35167 64.000
88.37161 86.000
88.39156 73.000
88.41151 72.000
88.43145 63.000
88.45140 85.000
88.47135 72.000
88.49129 70.000
88.51124 85.000
88.53119 60.000
88.55114 74.000
88.57108 74.000
88.59103 81.000
88.61098 70.000
88.63092 81.000
88.65087 67.000
88.67082 101.000
88.69076 77.000
88.71071 66.000
88.73066 62.000
88.75061 77.000
88.77055 65.000
88.79050 65.000
88.81045 75.000
88.83039 85.000
88.85034 74.000
88.87029 81.000
88.89023 84.000
88.91018 77.000
88.93013 75.000
88.95007 78.000
88.97002 70.000
88.98997 81.000
89.00992 84.000
89.02986 77.000
89.04981 81.000
89.06976 97.000
89.08970 79.000
89.10965 81.000
89.12960 84.000
89.14954 75.000
89.16949 70.000
89.18944 92.000
89.20939 77.000
89.22933 88.000
89.24928 92.000
89.26923 82.000
89.28917 86.000
89.30912 86.000
89.32907 81.000
89.34901 88.000
89.36896 66.000
89.38891 63.000
89.40885 72.000
89.42880 87.000
89.44875 79.000
89.46870 80.000
89.48864 84.000
89.50859 70.000
89.52854 95.000
89.54848 76.000
89.56843 75.000
89.58838 85.000
89.60832 77.000
89.62827 69.000
89.64822 78.000
89.66817 77.000
89.68811 77.000
89.70806 82.000
89.72801 79.000
89.74795 91.000
89.76790 98.000
89.78785 81.000
89.80779 94.000
89.82774 91.000
89.84769 90.000
89.86764 89.000
89.88758 90.000
89.90753 75.000
89.92748 83.000
89.94742 83.000
89.96737 76.000
89.98732 81.000
90.00726 73.000
