10.00000 51.000
10.01995 75.000
10.03989 63.000
10.05984 71.000
10.07979 69.000
10.09973 57.000
10.11968 59.000
10.13963 67.000
10.15958 75.000
10.17952 54.000
10.19947 58.000
10.21942 72.000
10.23936 70.000
10.25931 84.000
10.27926 66.000
10.29920 75.000
10.31915 64.000
10.33910 59.000
10.35905 79.000
10.37899 65.000
10.39894 77.000
10.41889 62.000
10.43883 74.000
10.45878 67.000
10.47873 66.000
10.49867 59.000
10.51862 78.000
10.53857 73.000
10.55851 60.000
10.57846 59.000
10.59841 74.000
10.61836 57.000
10.63830 55.000
10.65825 69.000
10.67820 62.000
10.69814 68.000
10.71809 64.000
10.73804 56.000
10.75798 57.000
10.77793 61.000
10.79788 59.000
10.81783 65.000
10.83777 67.000
10.85772 53.000
10.87767 65.000
10.89761 57.000
10.91756 59.000
10.93751 76.000
10.95745 58.000
10.97740 54.000
10.99735 46.000
11.01730 69.000
11.03724 61.000
11.05719 67.000
11.07714 68.000
11.09708 63.000
11.11703 55.000
11.13698 62.000
11.15692 71.000
11.17687 61.000
11.19682 74.000
11.21676 65.000
11.23671 73.000
11.25666 60.000
11.27661 66.000
11.29655 50.000
11.31650 81.000
11.33645 75.000
11.35639 68.000
11.37634 83.000
11.39629 61.000
11.41623 62.000
11.43618 65.000
11.45613 63.000
11.47608 58.000
11.49602 65.000
11.51597 51.000
11.53592 65.000
11.55586 75.000
11.57581 60.000
11.59576 52.000
11.61570 57.000
11.63565 55.000
11.65560 52.000
11.67554 72.000
11.69549 86.000
11.71544 80.000
11.73539 54.000
11.75533 63.000
11.77528 56.000
11.79523 73.000
11.81517 62.000
11.83512 74.000
11.85507 68.000
11.87501 79.000
11.89496 69.000
11.91491 66.000
11.93486 69.000
11.95480 66.000
11.97475 69.000
11.99470 70.000
12.01464 52.000
12.03459 67.000
12.05454 59.000
12.07448 62.000
12.09443 70.000
12.11438 70.000
12.13432 68.000
12.15427 70.000
12.17422 52.000
12.19417 66.000
12.21411 76.000
12.23406 55.000
12.25401 71.000
12.27395 66.000
12.29390 81.000
12.31385 66.000
12.33379 68.000
12.35374 54.000
12.37369 70.000
12.39364 57.000
12.41358 83.000
12.43353 70.000
12.45348 92.000
12.47342 95.000
12.49337 84.000
12.51332 88.000
12.53326 78.000
12.55321 84.000
12.57316 72.000
12.59311 69.000
12.61305 81.000
12.63300 74.000
12.65295 85.000
12.67289 85.000
12.69284 89.000
12.71279 81.000
12.73273 78.000
12.75268 80.000
12.77263 89.000
12.79257 84.000
12.81252 92.000
12.83247 85.000
12.85242 92.000
12.87236 74.000
12.89231 79.000
12.91226 80.000
12.93220 89.000
12.95215 74.000
12.97210 81.000
12.99204 95.000
13.01199 76.000
13.03194 82.000
13.05189 85.000
13.07183 85.000
13.09178 79.000
13.11173 111.000
13.13167 100.000
13.15162 99.000
13.17157 92.000
13.19151 102.000
13.21146 83.000
13.23141 86.000
13.25135 75.000
13.27130 103.000
13.29125 101.000
13.31120 86.000
13.33114 90.000
13.35109 83.000
13.37104 95.000
13.39098 100.000
13.41093 90.000
13.43088 87.000
13.45082 86.000
13.47077 102.000
13.49072 98.000
13.51067 93.000
13.53061 102.000
13.55056 109.000
13.57051 113.000
13.59045 107.000
13.61040 102.000
13.63035 93.000
13.65029 94.000
13.67024 95.000
13.69019 101.000
13.71013 111.000
13.73008 94.000
13.75003 100.000
13.76998 112.000
13.78992 109.000
13.80987 117.000
13.82982 118.000
13.84976 103.000
13.86971 111.000
13.88966 102.000
13.90960 108.000
13.92955 87.000
13.94950 125.000
13.96945 117.000
13.98939 110.000
14.00934 110.000
14.02929 119.000
14.04923 129.000
14.06918 120.000
14.08913 135.000
14.10907 120.000
14.12902 113.000
14.14897 124.000
14.16892 108.000
14.18886 124.000
14.20881 114.000
14.22876 116.000
14.24870 121.000
14.26865 115.000
14.28860 119.000
14.30854 101.000
14.32849 122.000
14.34844 130.000
14.36838 128.000
14.38833 118.000
14.40828 124.000
14.42823 116.000
14.44817 117.000
14.46812 129.000
14.48807 126.000
14.50801 138.000
14.52796 126.000
14.54791 128.000
14.56785 124.000
14.58780 132.000
14.60775 110.000
14.62770 140.000
14.64764 113.000
14.66759 140.000
14.68754 155.000
14.70748 157.000
14.72743 138.000
14.74738 147.000
14.76732 153.000
14.78727 151.000
14.80722 141.000
14.82716 156.000
14.84711 154.000
14.86706 169.000
14.88701 155.000
14.90695 189.000
14.92690 166.000
14.94685 143.000
14.96679 169.000
14.98674 177.000
15.00669 176.000
15.02663 158.000
15.04658 171.000
15.06653 184.000
15.08648 200.000
15.10642 227.000
15.12637 221.000
15.14632 236.000
15.16626 223.000
15.18621 266.000
15.20616 260.000
15.22610 304.000
15.24605 307.000
15.26600 352.000
15.28594 375.000
15.30589 455.000
15.32584 503.000
15.34579 638.000
15.36573 780.000
15.38568 911.000
15.40563 1147.000
15.42557 1305.000
15.44552 1521.000
15.46547 1741.000
15.48541 1790.000
15.50536 2050.000
15.52531 2067.000
15.54526 2075.000
15.56520 1898.000
15.58515 1566.000
15.60510 1069.000
15.62504 712.000
15.64499 392.000
15.66494 307.000
15.68488 219.000
15.70483 189.000
15.72478 148.000
15.74472 167.000
15.76467 139.000
15.78462 126.000
15.80457 144.000
15.82451 138.000
15.84446 120.000
15.86441 114.000
15.88435 92.000
15.90430 116.000
15.92425 92.000
15.94419 101.000
15.96414 88.000
15.98409 90.000
16.00404 92.000
16.02398 89.000
16.04393 81.000
16.06388 101.000
16.08382 85.000
16.10377 82.000
16.12372 63.000
16.14366 72.000
16.16361 89.000
16.18356 60.000
16.20351 62.000
16.22345 63.000
16.24340 66.000
16.26335 76.000
16.28329 68.000
16.30324 77.000
16.32319 67.000
16.34313 51.000
16.36308 52.000
16.38303 65.000
16.40297 75.000
16.42292 64.000
16.44287 70.000
16.46282 67.000
16.48276 51.000
16.50271 53.000
16.52266 57.000
16.54260 63.000
16.56255 61.000
16.58250 56.000
16.60244 65.000
16.62239 55.000
16.64234 58.000
16.66229 61.000
16.68223 63.000
16.70218 65.000
16.72213 72.000
16.74207 60.000
16.76202 45.000
16.78197 72.000
16.80191 53.000
16.82186 54.000
16.84181 48.000
16.86175 54.000
16.88170 51.000
16.90165 50.000
16.92160 48.000
16.94154 53.000
16.96149 59.000
16.98144 57.000
17.00138 73.000
17.02133 64.000
17.04128 54.000
17.06122 65.000
17.08117 61.000
17.10112 63.000
17.12107 49.000
17.14101 60.000
17.16096 50.000
17.18091 51.000
17.20085 47.000
17.22080 63.000
17.24075 54.000
17.26069 49.000
17.28064 59.000
17.30059 51.000
17.32053 50.000
17.34048 56.000
17.36043 56.000
17.38038 49.000
17.40032 45.000
17.42027 42.000
17.44022 49.000
17.46016 52.000
17.48011 54.000
17.50006 53.000
17.52000 69.000
17.53995 38.000
17.55990 70.000
17.57985 53.000
17.59979 59.000
17.61974 77.000
17.63969 89.000
17.65963 63.000
17.67958 95.000
17.69953 118.000
17.71947 117.000
17.73942 159.000
17.75937 178.000
17.77932 210.000
17.79926 215.000
17.81921 248.000
17.83916 300.000
17.85910 334.000
17.87905 356.000
17.89900 336.000
17.91894 320.000
17.93889 267.000
17.95884 225.000
17.97878 186.000
17.99873 137.000
18.01868 116.000
18.03863 100.000
18.05857 81.000
18.07852 61.000
18.09847 78.000
18.11841 62.000
18.13836 45.000
18.15831 45.000
18.17825 40.000
18.19820 52.000
18.21815 56.000
18.23810 52.000
18.25804 54.000
18.27799 52.000
18.29794 59.000
18.31788 54.000
18.33783 54.000
18.35778 47.000
18.37772 35.000
18.39767 47.000
18.41762 62.000
18.43756 54.000
18.45751 53.000
18.47746 43.000
18.49741 43.000
18.51735 54.000
18.53730 55.000
18.55725 55.000
18.57719 60.000
18.59714 41.000
18.61709 51.000
18.63703 52.000
18.65698 55.000
18.67693 52.000
18.69688 47.000
18.71682 48.000
18.73677 59.000
18.75672 40.000
18.77666 45.000
18.79661 66.000
18.81656 51.000
18.83650 43.000
18.85645 47.000
18.87640 44.000
18.89634 38.000
18.91629 57.000
18.93624 55.000
18.95619 52.000
18.97613 51.000
18.99608 59.000
19.01603 59.000
19.03597 38.000
19.05592 51.000
19.07587 48.000
19.09581 49.000
19.11576 54.000
19.13571 48.000
19.15566 46.000
19.17560 46.000
19.19555 46.000
19.21550 59.000
19.23544 55.000
19.25539 48.000
19.27534 44.000
19.29528 51.000
19.31523 51.000
19.33518 43.000
19.35513 51.000
19.37507 40.000
19.39502 51.000
19.41497 39.000
19.43491 50.000
19.45486 53.000
19.47481 48.000
19.49475 49.000
19.51470 37.000
19.53465 47.000
19.55459 55.000
19.57454 50.000
19.59449 43.000
19.61444 57.000
19.63438 63.000
19.65433 54.000
19.67428 51.000
19.69422 57.000
19.71417 50.000
19.73412 48.000
19.75406 42.000
19.77401 47.000
19.79396 63.000
19.81391 53.000
19.83385 42.000
19.85380 39.000
19.87375 62.000
19.89369 52.000
19.91364 55.000
19.93359 67.000
19.95353 36.000
19.97348 39.000
19.99343 60.000
20.01337 52.000
20.03332 46.000
20.05327 39.000
20.07322 50.000
20.09316 39.000
20.11311 45.000
20.13306 53.000
20.15300 57.000
20.17295 43.000
20.19290 60.000
20.21284 50.000
20.23279 53.000
20.25274 51.000
20.27269 68.000
20.29263 70.000
20.31258 54.000
20.33253 66.000
20.35247 62.000
20.37242 50.000
20.39237 51.000
20.41231 49.000
20.43226 50.000
20.45221 50.000
20.47215 52.000
20.49210 50.000
20.51205 41.000
20.53200 55.000
20.55194 58.000
20.57189 53.000
20.59184 49.000
20.61178 59.000
20.63173 58.000
20.65168 43.000
20.67162 48.000
20.69157 48.000
20.71152 44.000
20.73147 51.000
20.75141 54.000
20.77136 50.000
20.79131 48.000
20.81125 53.000
20.83120 44.000
20.85115 57.000
20.87109 73.000
20.89104 49.000
20.91099 62.000
20.93094 52.000
20.95088 62.000
20.97083 45.000
20.99078 59.000
21.01072 71.000
21.03067 60.000
21.05062 51.000
21.07056 54.000
21.09051 43.000
21.11046 46.000
21.13040 57.000
21.15035 54.000
21.17030 63.000
21.19025 42.000
21.21019 54.000
21.23014 38.000
21.25009 44.000
21.27003 45.000
21.28998 47.000
21.30993 51.000
21.32987 52.000
21.34982 56.000
21.36977 40.000
21.38972 46.000
21.40966 63.000
21.42961 63.000
21.44956 43.000
21.46950 44.000
21.48945 59.000
21.50940 55.000
21.52934 52.000
21.54929 42.000
21.56924 50.000
21.58918 57.000
21.60913 44.000
21.62908 42.000
21.64903 40.000
21.66897 59.000
21.68892 54.000
21.70887 56.000
21.72881 47.000
21.74876 48.000
21.76871 46.000
21.78865 51.000
21.80860 52.000
21.82855 44.000
21.84850 40.000
21.86844 70.000
21.88839 57.000
21.90834 48.000
21.92828 44.000
21.94823 62.000
21.96818 67.000
21.98812 55.000
22.00807 44.000
22.02802 48.000
22.04796 54.000
22.06791 55.000
22.08786 46.000
22.10781 49.000
22.12775 53.000
22.14770 49.000
22.16765 48.000
22.18759 60.000
22.20754 51.000
22.22749 60.000
22.24743 52.000
22.26738 59.000
22.28733 57.000
22.30728 60.000
22.32722 47.000
22.34717 54.000
22.36712 44.000
22.38706 53.000
22.40701 59.000
22.42696 52.000
22.44690 67.000
22.46685 47.000
22.48680 48.000
22.50675 49.000
22.52669 51.000
22.54664 62.000
22.56659 52.000
22.58653 65.000
22.60648 60.000
22.62643 56.000
22.64637 50.000
22.66632 55.000
22.68627 55.000
22.70621 48.000
22.72616 45.000
22.74611 61.000
22.76606 67.000
22.78600 59.000
22.80595 61.000
22.82590 41.000
22.84584 56.000
22.86579 58.000
22.88574 59.000
22.90568 54.000
22.92563 72.000
22.94558 51.000
22.96553 72.000
22.98547 52.000
23.00542 73.000
23.02537 56.000
23.04531 54.000
23.06526 64.000
23.08521 67.000
23.10515 56.000
23.12510 42.000
23.14505 57.000
23.16499 46.000
23.18494 58.000
23.20489 45.000
23.22484 50.000
23.24478 50.000
23.26473 53.000
23.28468 55.000
23.30462 67.000
23.32457 56.000
23.34452 54.000
23.36446 67.000
23.38441 55.000
23.40436 43.000
23.42431 56.000
23.44425 57.000
23.46420 58.000
23.48415 56.000
23.50409 75.000
23.52404 44.000
23.54399 54.000
23.56393 54.000
23.58388 57.000
23.60383 59.000
23.62377 61.000
23.64372 49.000
23.66367 58.000
23.68362 59.000
23.70356 54.000
23.72351 59.000
23.74346 57.000
23.76340 49.000
23.78335 58.000
23.80330 66.000
23.82324 44.000
23.84319 64.000
23.86314 68.000
23.88309 65.000
23.90303 55.000
23.92298 55.000
23.94293 65.000
23.96287 71.000
23.98282 54.000
24.00277 76.000
24.02271 70.000
24.04266 57.000
24.06261 74.000
24.08256 52.000
24.10250 61.000
24.12245 65.000
24.14240 75.000
24.16234 62.000
24.18229 77.000
24.20224 73.000
24.22218 70.000
24.24213 67.000
24.26208 47.000
24.28202 60.000
24.30197 53.000
24.32192 67.000
24.34187 61.000
24.36181 60.000
24.38176 64.000
24.40171 62.000
24.42165 56.000
24.44160 50.000
24.46155 65.000
24.48149 53.000
24.50144 51.000
24.52139 43.000
24.54134 68.000
24.56128 56.000
24.58123 53.000
24.60118 78.000
24.62112 66.000
24.64107 60.000
24.66102 66.000
24.68096 63.000
24.70091 62.000
24.72086 58.000
24.74080 79.000
24.76075 59.000
24.78070 72.000
24.80065 61.000
24.82059 81.000
24.84054 59.000
24.86049 77.000
24.88043 65.000
24.90038 56.000
24.92033 48.000
24.94027 77.000
24.96022 70.000
24.98017 71.000
25.00012 58.000
25.02006 50.000
25.04001 80.000
25.05996 74.000
25.07990 65.000
25.09985 64.000
25.11980 72.000
25.13974 84.000
25.15969 69.000
25.17964 75.000
25.19958 65.000
25.21953 68.000
25.23948 56.000
25.25943 67.000
25.27937 57.000
25.29932 80.000
25.31927 75.000
25.33921 76.000
25.35916 62.000
25.37911 66.000
25.39905 66.000
25.41900 90.000
25.43895 84.000
25.45890 68.000
25.47884 77.000
25.49879 66.000
25.51874 55.000
25.53868 83.000
25.55863 69.000
25.57858 70.000
25.59852 70.000
25.61847 63.000
25.63842 65.000
25.65837 58.000
25.67831 74.000
25.69826 69.000
25.71821 68.000
25.73815 82.000
25.75810 68.000
25.77805 67.000
25.79799 65.000
25.81794 72.000
25.83789 64.000
25.85783 70.000
25.87778 83.000
25.89773 78.000
25.91768 76.000
25.93762 77.000
25.95757 81.000
25.97752 74.000
25.99746 67.000
26.01741 82.000
26.03736 58.000
26.05730 87.000
26.07725 75.000
26.09720 87.000
26.11715 61.000
26.13709 87.000
26.15704 64.000
26.17699 68.000
26.19693 83.000
26.21688 63.000
26.23683 87.000
26.25677 64.000
26.27672 82.000
26.29667 94.000
26.31661 72.000
26.33656 73.000
26.35651 74.000
26.37646 78.000
26.39640 68.000
26.41635 69.000
26.43630 77.000
26.45624 70.000
26.47619 71.000
26.49614 88.000
26.51608 67.000
26.53603 84.000
26.55598 76.000
26.57593 82.000
26.59587 62.000
26.61582 71.000
26.63577 86.000
26.65571 75.000
26.67566 88.000
26.69561 81.000
26.71555 72.000
26.73550 80.000
26.75545 71.000
26.77539 69.000
26.79534 74.000
26.81529 77.000
26.83524 99.000
26.85518 61.000
26.87513 75.000
26.89508 90.000
26.91502 87.000
26.93497 98.000
26.95492 76.000
26.97486 76.000
26.99481 98.000
27.01476 59.000
27.03471 75.000
27.05465 85.000
27.07460 75.000
27.09455 81.000
27.11449 86.000
27.13444 83.000
27.15439 85.000
27.17433 90.000
27.19428 93.000
27.21423 77.000
27.23417 77.000
27.25412 78.000
27.27407 79.000
27.29402 84.000
27.31396 86.000
27.33391 75.000
27.35386 77.000
27.37380 88.000
27.39375 72.000
27.41370 96.000
27.43364 85.000
27.45359 93.000
27.47354 93.000
27.49349 78.000
27.51343 91.000
27.53338 83.000
27.55333 59.000
27.57327 92.000
27.59322 107.000
27.61317 76.000
27.63311 91.000
27.65306 90.000
27.67301 74.000
27.69296 103.000
27.71290 92.000
27.73285 84.000
27.75280 79.000
27.77274 94.000
27.79269 104.000
27.81264 104.000
27.83258 84.000
27.85253 115.000
27.87248 93.000
27.89242 90.000
27.91237 89.000
27.93232 85.000
27.95227 92.000
27.97221 97.000
27.99216 69.000
28.01211 85.000
28.03205 90.000
28.05200 78.000
28.07195 84.000
28.09189 85.000
28.11184 98.000
28.13179 84.000
28.15174 82.000
28.17168 114.000
28.19163 87.000
28.21158 86.000
28.23152 96.000
28.25147 118.000
28.27142 112.000
28.29136 80.000
28.31131 92.000
28.33126 111.000
28.35120 88.000
28.37115 90.000
28.39110 93.000
28.41105 80.000
28.43099 98.000
28.45094 108.000
28.47089 96.000
28.49083 76.000
28.51078 96.000
28.53073 98.000
28.55067 108.000
28.57062 94.000
28.59057 92.000
28.61052 117.000
28.63046 104.000
28.65041 91.000
28.67036 97.000
28.69030 110.000
28.71025 93.000
28.73020 92.000
28.75014 95.000
28.77009 96.000
28.79004 111.000
28.80998 90.000
28.82993 117.000
28.84988 121.000
28.86983 94.000
28.88977 91.000
28.90972 111.000
28.92967 120.000
28.94961 93.000
28.96956 98.000
28.98951 109.000
29.00945 93.000
29.02940 81.000
29.04935 93.000
29.06930 118.000
29.08924 103.000
29.10919 87.000
29.12914 92.000
29.14908 100.000
29.16903 103.000
29.18898 113.000
29.20892 103.000
29.22887 123.000
29.24882 150.000
29.26877 124.000
29.28871 139.000
29.30866 130.000
29.32861 139.000
29.34855 195.000
29.36850 191.000
29.38845 208.000
29.40839 230.000
29.42834 247.000
29.44829 240.000
29.46823 253.000
29.48818 271.000
29.50813 281.000
29.52808 274.000
29.54802 297.000
29.56797 284.000
29.58792 281.000
29.60786 225.000
29.62781 207.000
29.64776 183.000
29.66770 201.000
29.68765 194.000
29.70760 144.000
29.72755 132.000
29.74749 122.000
29.76744 120.000
29.78739 113.000
29.80733 109.000
29.82728 130.000
29.84723 109.000
29.86717 109.000
29.88712 95.000
29.90707 122.000
29.92701 94.000
29.94696 119.000
29.96691 114.000
29.98686 110.000
30.00680 107.000
30.02675 95.000
30.04670 100.000
30.06664 102.000
30.08659 104.000
30.10654 89.000
30.12648 101.000
30.14643 103.000
30.16638 105.000
30.18633 113.000
30.20627 94.000
30.22622 98.000
30.24617 105.000
30.26611 107.000
30.28606 122.000
30.30601 106.000
30.32595 108.000
30.34590 91.000
30.36585 97.000
30.38579 100.000
30.40574 89.000
30.42569 82.000
30.44564 110.000
30.46558 111.000
30.48553 105.000
30.50548 108.000
30.52542 79.000
30.54537 102.000
30.56532 103.000
30.58526 115.000
30.60521 103.000
30.62516 116.000
30.64511 126.000
30.66505 108.000
30.68500 105.000
30.70495 104.000
30.72489 112.000
30.74484 97.000
30.76479 113.000
30.78473 89.000
30.80468 98.000
30.82463 93.000
30.84458 87.000
30.86452 97.000
30.88447 110.000
30.90442 124.000
30.92436 119.000
30.94431 115.000
30.96426 107.000
30.98420 93.000
31.00415 108.000
31.02410 108.000
31.04404 119.000
31.06399 109.000
31.08394 102.000
31.10389 128.000
31.12383 108.000
31.14378 120.000
31.16373 124.000
31.18367 127.000
31.20362 117.000
31.22357 108.000
31.24351 117.000
31.26346 107.000
31.28341 116.000
31.30336 134.000
31.32330 152.000
31.34325 145.000
31.36320 153.000
31.38314 200.000
31.40309 184.000
31.42304 235.000
31.44298 268.000
31.46293 309.000
31.48288 286.000
31.50282 301.000
31.52277 278.000
31.54272 283.000
31.56267 236.000
31.58261 210.000
31.60256 188.000
31.62251 164.000
31.64245 159.000
31.66240 135.000
31.68235 127.000
31.70229 124.000
31.72224 124.000
31.74219 116.000
31.76214 92.000
31.78208 105.000
31.80203 100.000
31.82198 116.000
31.84192 105.000
31.86187 101.000
31.88182 92.000
31.90176 96.000
31.92171 100.000
31.94166 102.000
31.96160 105.000
31.98155 92.000
32.00150 99.000
32.02145 114.000
32.04139 108.000
32.06134 93.000
32.08129 94.000
32.10123 99.000
32.12118 90.000
32.14113 94.000
32.16107 102.000
32.18102 102.000
32.20097 83.000
32.22092 75.000
32.24086 97.000
32.26081 100.000
32.28076 123.000
32.30070 111.000
32.32065 91.000
32.34060 94.000
32.36054 84.000
32.38049 75.000
32.40044 106.000
32.42039 92.000
32.44033 95.000
32.46028 98.000
32.48023 101.000
32.50017 76.000
32.52012 89.000
32.54007 81.000
32.56001 94.000
32.57996 112.000
32.59991 90.000
32.61985 96.000
32.63980 100.000
32.65975 87.000
32.67970 69.000
32.69964 82.000
32.71959 89.000
32.73954 89.000
32.75948 97.000
32.77943 92.000
32.79938 98.000
32.81932 99.000
32.83927 97.000
32.85922 92.000
32.87917 102.000
32.89911 93.000
32.91906 97.000
32.93901 92.000
32.95895 83.000
32.97890 97.000
32.99885 121.000
33.01879 121.000
33.03874 106.000
33.05869 99.000
33.07863 100.000
33.09858 94.000
33.11853 106.000
33.13848 106.000
33.15842 104.000
33.17837 79.000
33.19832 96.000
33.21826 96.000
33.23821 98.000
33.25816 113.000
33.27810 85.000
33.29805 99.000
33.31800 91.000
33.33795 98.000
33.35789 83.000
33.37784 86.000
33.39779 89.000
33.41773 75.000
33.43768 98.000
33.45763 98.000
33.47757 64.000
33.49752 84.000
33.51747 94.000
33.53741 84.000
33.55736 82.000
33.57731 96.000
33.59726 92.000
33.61720 85.000
33.63715 88.000
33.65710 71.000
33.67704 92.000
33.69699 101.000
33.71694 79.000
33.73688 76.000
33.75683 74.000
33.77678 84.000
33.79673 87.000
33.81667 114.000
33.83662 78.000
33.85657 90.000
33.87651 96.000
33.89646 99.000
33.91641 91.000
33.93635 95.000
33.95630 100.000
33.97625 99.000
33.99620 107.000
34.01614 111.000
34.03609 103.000
34.05604 93.000
34.07598 110.000
34.09593 107.000
34.11588 105.000
34.13582 106.000
34.15577 85.000
34.17572 106.000
34.19566 106.000
34.21561 97.000
34.23556 97.000
34.25551 100.000
34.27545 102.000
34.29540 124.000
34.31535 114.000
34.33529 135.000
34.35524 134.000
34.37519 144.000
34.39513 169.000
34.41508 144.000
34.43503 191.000
34.45498 202.000
34.47492 216.000
34.49487 219.000
34.51482 262.000
34.53476 257.000
34.55471 285.000
34.57466 278.000
34.59460 319.000
34.61455 322.000
34.63450 360.000
34.65444 387.000
34.67439 449.000
34.69434 541.000
34.71429 564.000
34.73423 574.000
34.75418 713.000
34.77413 726.000
34.79407 851.000
34.81402 734.000
34.83397 779.000
34.85391 761.000
34.87386 684.000
34.89381 595.000
34.91376 488.000
34.93370 480.000
34.95365 386.000
34.97360 398.000
34.99354 357.000
35.01349 264.000
35.03344 271.000
35.05338 205.000
35.07333 197.000
35.09328 191.000
35.11322 196.000
35.13317 169.000
35.15312 141.000
35.17307 157.000
35.19301 176.000
35.21296 193.000
35.23291 212.000
35.25285 223.000
35.27280 283.000
35.29275 313.000
35.31269 360.000
35.33264 411.000
35.35259 440.000
35.37254 474.000
35.39248 531.000
35.41243 445.000
35.43238 472.000
35.45232 389.000
35.47227 365.000
35.49222 341.000
35.51216 306.000
35.53211 248.000
35.55206 227.000
35.57201 176.000
35.59195 161.000
35.61190 124.000
35.63185 156.000
35.65179 144.000
35.67174 110.000
35.69169 127.000
35.71163 102.000
35.73158 96.000
35.75153 97.000
35.77147 127.000
35.79142 119.000
35.81137 94.000
35.83132 103.000
35.85126 104.000
35.87121 97.000
35.89116 84.000
35.91110 102.000
35.93105 104.000
35.95100 122.000
35.97094 76.000
35.99089 102.000
36.01084 111.000
36.03079 98.000
36.05073 102.000
36.07068 119.000
36.09063 111.000
36.11057 115.000
36.13052 114.000
36.15047 103.000
36.17041 137.000
36.19036 112.000
36.21031 140.000
36.23025 156.000
36.25020 142.000
36.27015 164.000
36.29010 163.000
36.31004 180.000
36.32999 188.000
36.34994 199.000
36.36988 195.000
36.38983 180.000
36.40978 155.000
36.42972 150.000
36.44967 135.000
36.46962 122.000
36.48957 143.000
36.50951 127.000
36.52946 124.000
36.54941 118.000
36.56935 114.000
36.58930 107.000
36.60925 89.000
36.62919 94.000
36.64914 82.000
36.66909 71.000
36.68903 104.000
36.70898 99.000
36.72893 91.000
36.74888 91.000
36.76882 72.000
36.78877 85.000
36.80872 85.000
36.82866 80.000
36.84861 83.000
36.86856 80.000
36.88850 90.000
36.90845 90.000
36.92840 82.000
36.94835 103.000
36.96829 75.000
36.98824 71.000
37.00819 88.000
37.02813 100.000
37.04808 88.000
37.06803 77.000
37.08797 92.000
37.10792 102.000
37.12787 83.000
37.14781 102.000
37.16776 82.000
37.18771 96.000
37.20766 79.000
37.22760 87.000
37.24755 72.000
37.26750 81.000
37.28744 80.000
37.30739 92.000
37.32734 76.000
37.34728 76.000
37.36723 68.000
37.38718 91.000
37.40713 82.000
37.42707 100.000
37.44702 111.000
37.46697 99.000
37.48691 79.000
37.50686 70.000
37.52681 98.000
37.54675 95.000
37.56670 85.000
37.58665 101.000
37.60660 82.000
37.62654 100.000
37.64649 98.000
37.66644 89.000
37.68638 98.000
37.70633 100.000
37.72628 89.000
37.74622 101.000
37.76617 108.000
37.78612 87.000
37.80606 96.000
37.82601 113.000
37.84596 132.000
37.86591 114.000
37.88585 111.000
37.90580 102.000
37.92575 109.000
37.94569 111.000
37.96564 120.000
37.98559 117.000
38.00553 110.000
38.02548 132.000
38.04543 107.000
38.06538 102.000
38.08532 102.000
38.10527 101.000
38.12522 117.000
38.14516 108.000
38.16511 113.000
38.18506 110.000
38.20500 140.000
38.22495 134.000
38.24490 119.000
38.26484 118.000
38.28479 133.000
38.30474 138.000
38.32469 98.000
38.34463 141.000
38.36458 145.000
38.38453 122.000
38.40447 135.000
38.42442 144.000
38.44437 148.000
38.46431 145.000
38.48426 144.000
38.50421 155.000
38.52416 158.000
38.54410 156.000
38.56405 157.000
38.58400 197.000
38.60394 200.000
38.62389 176.000
38.64384 211.000
38.66378 202.000
38.68373 202.000
38.70368 241.000
38.72362 263.000
38.74357 298.000
38.76352 314.000
38.78347 381.000
38.80341 413.000
38.82336 493.000
38.84331 508.000
38.86325 560.000
38.88320 630.000
38.90315 584.000
38.92309 604.000
38.94304 610.000
38.96299 543.000
38.98294 472.000
39.00288 425.000
39.02283 418.000
39.04278 352.000
39.06272 299.000
39.08267 240.000
39.10262 259.000
39.12256 190.000
39.14251 173.000
39.16246 160.000
39.18241 163.000
39.20235 148.000
39.22230 117.000
39.24225 136.000
39.26219 122.000
39.28214 114.000
39.30209 125.000
39.32203 120.000
39.34198 103.000
39.36193 90.000
39.38187 88.000
39.40182 98.000
39.42177 105.000
39.44172 116.000
39.46166 107.000
39.48161 81.000
39.50156 86.000
39.52150 87.000
39.54145 77.000
39.56140 100.000
39.58134 85.000
39.60129 82.000
39.62124 91.000
39.64119 78.000
39.66113 94.000
39.68108 81.000
39.70103 75.000
39.72097 92.000
39.74092 68.000
39.76087 103.000
39.78081 88.000
39.80076 69.000
39.82071 90.000
39.84065 72.000
39.86060 83.000
39.88055 92.000
39.90050 72.000
39.92044 75.000
39.94039 81.000
39.96034 90.000
39.98028 76.000
40.00023 79.000
40.02018 72.000
40.04012 84.000
40.06007 85.000
40.08002 85.000
40.09997 76.000
40.11991 88.000
40.13986 78.000
40.15981 76.000
40.17975 80.000
40.19970 83.000
40.21965 74.000
40.23959 76.000
40.25954 69.000
40.27949 70.000
40.29943 96.000
40.31938 65.000
40.33933 89.000
40.35928 70.000
40.37922 78.000
40.39917 75.000
40.41912 65.000
40.43906 69.000
40.45901 73.000
40.47896 86.000
40.49890 75.000
40.51885 66.000
40.53880 80.000
40.55875 85.000
40.57869 77.000
40.59864 66.000
40.61859 76.000
40.63853 82.000
40.65848 80.000
40.67843 70.000
40.69837 68.000
40.71832 77.000
40.73827 69.000
40.75822 62.000
40.77816 93.000
40.79811 83.000
40.81806 91.000
40.83800 97.000
40.85795 75.000
40.87790 79.000
40.89784 83.000
40.91779 83.000
40.93774 76.000
40.95768 60.000
40.97763 78.000
40.99758 72.000
41.01753 78.000
41.03747 65.000
41.05742 85.000
41.07737 76.000
41.09731 87.000
41.11726 82.000
41.13721 91.000
41.15715 77.000
41.17710 75.000
41.19705 82.000
41.21700 74.000
41.23694 87.000
41.25689 78.000
41.27684 87.000
41.29678 95.000
41.31673 93.000
41.33668 85.000
41.35662 89.000
41.37657 93.000
41.39652 93.000
41.41646 65.000
41.43641 76.000
41.45636 97.000
41.47631 73.000
41.49625 86.000
41.51620 90.000
41.53615 74.000
41.55609 76.000
41.57604 87.000
41.59599 90.000
41.61593 87.000
41.63588 90.000
41.65583 91.000
41.67578 80.000
41.69572 80.000
41.71567 91.000
41.73562 100.000
41.75556 102.000
41.77551 97.000
41.79546 105.000
41.81540 97.000
41.83535 91.000
41.85530 99.000
41.87524 121.000
41.89519 136.000
41.91514 102.000
41.93509 107.000
41.95503 95.000
41.97498 112.000
41.99493 102.000
42.01487 129.000
42.03482 110.000
42.05477 126.000
42.07471 116.000
42.09466 142.000
42.11461 140.000
42.13456 131.000
42.15450 143.000
42.17445 165.000
42.19440 177.000
42.21434 201.000
42.23429 216.000
42.25424 222.000
42.27418 249.000
42.29413 239.000
42.31408 247.000
42.33403 247.000
42.35397 239.000
42.37392 202.000
42.39387 239.000
42.41381 213.000
42.43376 213.000
42.45371 215.000
42.47365 202.000
42.49360 173.000
42.51355 182.000
42.53349 163.000
42.55344 153.000
42.57339 134.000
42.59334 116.000
42.61328 129.000
42.63323 152.000
42.65318 114.000
42.67312 138.000
42.69307 107.000
42.71302 137.000
42.73296 128.000
42.75291 141.000
42.77286 145.000
42.79281 143.000
42.81275 154.000
42.83270 171.000
42.85265 201.000
42.87259 212.000
42.89254 226.000
42.91249 238.000
42.93243 257.000
42.95238 238.000
42.97233 268.000
42.99227 235.000
43.01222 248.000
43.03217 213.000
43.05212 218.000
43.07206 200.000
43.09201 184.000
43.11196 143.000
43.13190 151.000
43.15185 138.000
43.17180 115.000
43.19174 113.000
43.21169 109.000
43.23164 94.000
43.25159 107.000
43.27153 109.000
43.29148 90.000
43.31143 89.000
43.33137 108.000
43.35132 107.000
43.37127 80.000
43.39121 89.000
43.41116 88.000
43.43111 67.000
43.45105 97.000
43.47100 85.000
43.49095 66.000
43.51090 84.000
43.53084 82.000
43.55079 86.000
43.57074 81.000
43.59068 97.000
43.61063 89.000
43.63058 78.000
43.65052 59.000
43.67047 88.000
43.69042 69.000
43.71037 72.000
43.73031 69.000
43.75026 75.000
43.77021 85.000
43.79015 76.000
43.81010 65.000
43.83005 90.000
43.84999 68.000
43.86994 64.000
43.88989 65.000
43.90984 60.000
43.92978 55.000
43.94973 58.000
43.96968 49.000
43.98962 76.000
44.00957 62.000
44.02952 67.000
44.04946 77.000
44.06941 82.000
44.08936 63.000
44.10930 76.000
44.12925 71.000
44.14920 75.000
44.16915 70.000
44.18909 71.000
44.20904 59.000
44.22899 63.000
44.24893 49.000
44.26888 71.000
44.28883 70.000
44.30877 67.000
44.32872 57.000
44.34867 57.000
44.36862 69.000
44.38856 74.000
44.40851 66.000
44.42846 64.000
44.44840 77.000
44.46835 61.000
44.48830 77.000
44.50824 66.000
44.52819 65.000
44.54814 75.000
44.56808 62.000
44.58803 72.000
44.60798 71.000
44.62793 87.000
44.64787 74.000
44.66782 69.000
44.68777 56.000
44.70771 70.000
44.72766 65.000
44.74761 70.000
44.76755 70.000
44.78750 55.000
44.80745 64.000
44.82740 69.000
44.84734 68.000
44.86729 50.000
44.88724 59.000
44.90718 60.000
44.92713 71.000
44.94708 59.000
44.96702 68.000
44.98697 57.000
45.00692 63.000
45.02686 69.000
45.04681 70.000
45.06676 79.000
45.08671 54.000
45.10665 66.000
45.12660 72.000
45.14655 62.000
45.16649 62.000
45.18644 58.000
45.20639 53.000
45.22633 59.000
45.24628 72.000
45.26623 59.000
45.28618 70.000
45.30612 57.000
45.32607 73.000
45.34602 63.000
45.36596 64.000
45.38591 73.000
45.40586 60.000
45.42580 66.000
45.44575 60.000
45.46570 63.000
45.48565 76.000
45.50559 62.000
45.52554 59.000
45.54549 49.000
45.56543 79.000
45.58538 68.000
45.60533 60.000
45.62527 65.000
45.64522 66.000
45.66517 62.000
45.68511 60.000
45.70506 75.000
45.72501 83.000
45.74496 68.000
45.76490 72.000
45.78485 57.000
45.80480 59.000
45.82474 63.000
45.84469 57.000
45.86464 60.000
45.88458 70.000
45.90453 73.000
45.92448 63.000
45.94443 78.000
45.96437 67.000
45.98432 77.000
46.00427 64.000
46.02421 72.000
46.04416 62.000
46.06411 60.000
46.08405 62.000
46.10400 71.000
46.12395 77.000
46.14389 76.000
46.16384 69.000
46.18379 63.000
46.20374 90.000
46.22368 81.000
46.24363 60.000
46.26358 82.000
46.28352 79.000
46.30347 88.000
46.32342 67.000
46.34336 75.000
46.36331 68.000
46.38326 63.000
46.40321 86.000
46.42315 63.000
46.44310 65.000
46.46305 54.000
46.48299 77.000
46.50294 76.000
46.52289 96.000
46.54283 84.000
46.56278 66.000
46.58273 62.000
46.60267 63.000
46.62262 72.000
46.64257 67.000
46.66252 60.000
46.68246 69.000
46.70241 57.000
46.72236 69.000
46.74230 81.000
46.76225 72.000
46.78220 50.000
46.80214 64.000
46.82209 87.000
46.84204 66.000
46.86199 69.000
46.88193 62.000
46.90188 64.000
46.92183 59.000
46.94177 63.000
46.96172 77.000
46.98167 62.000
47.00161 65.000
47.02156 76.000
47.04151 73.000
47.06146 57.000
47.08140 86.000
47.10135 70.000
47.12130 81.000
47.14124 70.000
47.16119 66.000
47.18114 83.000
47.20108 68.000
47.22103 76.000
47.24098 75.000
47.26092 60.000
47.28087 76.000
47.30082 79.000
47.32077 56.000
47.34071 72.000
47.36066 61.000
47.38061 80.000
47.40055 79.000
47.42050 85.000
47.44045 89.000
47.46039 79.000
47.48034 82.000
47.50029 70.000
47.52024 90.000
47.54018 85.000
47.56013 76.000
47.58008 99.000
47.60002 79.000
47.61997 96.000
47.63992 95.000
47.65986 94.000
47.67981 87.000
47.69976 118.000
47.71970 87.000
47.73965 105.000
47.75960 130.000
47.77955 112.000
47.79949 131.000
47.81944 134.000
47.83939 144.000
47.85933 142.000
47.87928 148.000
47.89923 179.000
47.91917 172.000
47.93912 163.000
47.95907 165.000
47.97902 206.000
47.99896 229.000
48.01891 247.000
48.03886 276.000
48.05880 344.000
48.07875 368.000
48.09870 381.000
48.11864 451.000
48.13859 433.000
48.15854 443.000
48.17848 436.000
48.19843 438.000
48.21838 402.000
48.23833 364.000
48.25827 355.000
48.27822 339.000
48.29817 327.000
48.31811 287.000
48.33806 236.000
48.35801 254.000
48.37795 197.000
48.39790 161.000
48.41785 159.000
48.43780 125.000
48.45774 115.000
48.47769 126.000
48.49764 121.000
48.51758 122.000
48.53753 114.000
48.55748 116.000
48.57742 117.000
48.59737 93.000
48.61732 92.000
48.63726 90.000
48.65721 74.000
48.67716 86.000
48.69711 89.000
48.71705 96.000
48.73700 78.000
48.75695 84.000
48.77689 69.000
48.79684 69.000
48.81679 70.000
48.83673 84.000
48.85668 68.000
48.87663 77.000
48.89658 62.000
48.91652 59.000
48.93647 70.000
48.95642 51.000
48.97636 59.000
48.99631 71.000
49.01626 70.000
49.03620 62.000
49.05615 69.000
49.07610 72.000
49.09605 66.000
49.11599 60.000
49.13594 62.000
49.15589 73.000
49.17583 62.000
49.19578 54.000
49.21573 62.000
49.23567 54.000
49.25562 69.000
49.27557 61.000
49.29551 72.000
49.31546 58.000
49.33541 69.000
49.35536 66.000
49.37530 66.000
49.39525 57.000
49.41520 72.000
49.43514 63.000
49.45509 65.000
49.47504 61.000
49.49498 68.000
49.51493 57.000
49.53488 53.000
49.55483 64.000
49.57477 68.000
49.59472 56.000
49.61467 63.000
49.63461 49.000
49.65456 56.000
49.67451 47.000
49.69445 69.000
49.71440 65.000
49.73435 55.000
49.75429 64.000
49.77424 54.000
49.79419 50.000
49.81414 69.000
49.83408 55.000
49.85403 56.000
49.87398 52.000
49.89392 48.000
49.91387 52.000
49.93382 55.000
49.95376 64.000
49.97371 57.000
49.99366 46.000
50.01361 58.000
50.03355 51.000
50.05350 53.000
50.07345 67.000
50.09339 57.000
50.11334 52.000
50.13329 58.000
50.15323 44.000
50.17318 50.000
50.19313 50.000
50.21307 57.000
50.23302 57.000
50.25297 51.000
50.27292 63.000
50.29286 55.000
50.31281 42.000
50.33276 57.000
50.35270 55.000
50.37265 50.000
50.39260 60.000
50.41254 45.000
50.43249 46.000
50.45244 70.000
50.47239 60.000
50.49233 46.000
50.51228 61.000
50.53223 47.000
50.55217 48.000
50.57212 50.000
50.59207 46.000
50.61201 48.000
50.63196 58.000
50.65191 50.000
50.67186 49.000
50.69180 56.000
50.71175 59.000
50.73170 48.000
50.75164 60.000
50.77159 49.000
50.79154 47.000
50.81148 50.000
50.83143 55.000
50.85138 49.000
50.87132 56.000
50.89127 55.000
50.91122 49.000
50.93117 59.000
50.95111 45.000
50.97106 57.000
50.99101 46.000
51.01095 42.000
51.03090 49.000
51.05085 55.000
51.07079 47.000
51.09074 57.000
51.11069 46.000
51.13064 44.000
51.15058 43.000
51.17053 53.000
51.19048 53.000
51.21042 57.000
51.23037 50.000
51.25032 38.000
51.27026 51.000
51.29021 46.000
51.31016 41.000
51.33010 60.000
51.35005 52.000
51.37000 51.000
51.38995 61.000
51.40989 44.000
51.42984 42.000
51.44979 61.000
51.46973 37.000
51.48968 53.000
51.50963 38.000
51.52957 58.000
51.54952 59.000
51.56947 71.000
51.58942 41.000
51.60936 53.000
51.62931 47.000
51.64926 50.000
51.66920 50.000
51.68915 46.000
51.70910 37.000
51.72904 59.000
51.74899 45.000
51.76894 40.000
51.78888 46.000
51.80883 48.000
51.82878 48.000
51.84873 42.000
51.86867 45.000
51.88862 43.000
51.90857 45.000
51.92851 47.000
51.94846 64.000
51.96841 47.000
51.98835 51.000
52.00830 46.000
52.02825 35.000
52.04820 46.000
52.06814 52.000
52.08809 49.000
52.10804 52.000
52.12798 62.000
52.14793 45.000
52.16788 50.000
52.18782 59.000
52.20777 58.000
52.22772 49.000
52.24767 75.000
52.26761 59.000
52.28756 52.000
52.30751 60.000
52.32745 63.000
52.34740 66.000
52.36735 66.000
52.38729 72.000
52.40724 63.000
52.42719 83.000
52.44713 107.000
52.46708 78.000
52.48703 77.000
52.50698 76.000
52.52692 78.000
52.54687 97.000
52.56682 71.000
52.58676 71.000
52.60671 69.000
52.62666 47.000
52.64660 68.000
52.66655 58.000
52.68650 71.000
52.70645 60.000
52.72639 59.000
52.74634 58.000
52.76629 61.000
52.78623 52.000
52.80618 50.000
52.82613 50.000
52.84607 59.000
52.86602 57.000
52.88597 45.000
52.90591 44.000
52.92586 57.000
52.94581 47.000
52.96576 43.000
52.98570 51.000
53.00565 60.000
53.02560 52.000
53.04554 46.000
53.06549 42.000
53.08544 41.000
53.10538 46.000
53.12533 59.000
53.14528 52.000
53.16523 56.000
53.18517 38.000
53.20512 45.000
53.22507 36.000
53.24501 48.000
53.26496 35.000
53.28491 48.000
53.30485 37.000
53.32480 60.000
53.34475 47.000
53.36469 53.000
53.38464 49.000
53.40459 49.000
53.42454 44.000
53.44448 44.000
53.46443 43.000
53.48438 51.000
53.50432 47.000
53.52427 44.000
53.54422 47.000
53.56416 49.000
53.58411 46.000
53.60406 39.000
53.62401 43.000
53.64395 39.000
53.66390 49.000
53.68385 54.000
53.70379 45.000
53.72374 64.000
53.74369 40.000
53.76363 50.000
53.78358 51.000
53.80353 51.000
53.82348 56.000
53.84342 48.000
53.86337 41.000
53.88332 41.000
53.90326 47.000
53.92321 37.000
53.94316 54.000
53.96310 51.000
53.98305 45.000
54.00300 59.000
54.02294 48.000
54.04289 57.000
54.06284 53.000
54.08279 36.000
54.10273 39.000
54.12268 58.000
54.14263 46.000
54.16257 43.000
54.18252 37.000
54.20247 48.000
54.22241 45.000
54.24236 52.000
54.26231 44.000
54.28226 40.000
54.30220 40.000
54.32215 38.000
54.34210 35.000
54.36204 52.000
54.38199 46.000
54.40194 49.000
54.42188 39.000
54.44183 35.000
54.46178 57.000
54.48172 44.000
54.50167 44.000
54.52162 42.000
54.54157 42.000
54.56151 41.000
54.58146 41.000
54.60141 47.000
54.62135 38.000
54.64130 40.000
54.66125 51.000
54.68119 51.000
54.70114 39.000
54.72109 50.000
54.74104 49.000
54.76098 52.000
54.78093 37.000
54.80088 49.000
54.82082 44.000
54.84077 41.000
54.86072 53.000
54.88066 47.000
54.90061 49.000
54.92056 44.000
54.94050 40.000
54.96045 53.000
54.98040 50.000
55.00035 42.000
55.02029 50.000
55.04024 33.000
55.06019 43.000
55.08013 35.000
55.10008 43.000
55.12003 49.000
55.13997 60.000
55.15992 46.000
55.17987 44.000
55.19982 45.000
55.21976 53.000
55.23971 49.000
55.25966 50.000
55.27960 54.000
55.29955 53.000
55.31950 64.000
55.33944 54.000
55.35939 58.000
55.37934 62.000
55.39929 70.000
55.41923 80.000
55.43918 52.000
55.45913 79.000
55.47907 71.000
55.49902 74.000
55.51897 78.000
55.53891 63.000
55.55886 66.000
55.57881 87.000
55.59875 69.000
55.61870 77.000
55.63865 82.000
55.65860 72.000
55.67854 91.000
55.69849 89.000
55.71844 106.000
55.73838 109.000
55.75833 111.000
55.77828 124.000
55.79822 158.000
55.81817 120.000
55.83812 161.000
55.85807 148.000
55.87801 162.000
55.89796 198.000
55.91791 192.000
55.93785 181.000
55.95780 189.000
55.97775 228.000
55.99769 213.000
56.01764 192.000
56.03759 193.000
56.05753 195.000
56.07748 185.000
56.09743 172.000
56.11738 188.000
56.13732 161.000
56.15727 146.000
56.17722 163.000
56.19716 134.000
56.21711 126.000
56.23706 118.000
56.25700 119.000
56.27695 116.000
56.29690 80.000
56.31685 90.000
56.33679 66.000
56.35674 87.000
56.37669 79.000
56.39663 76.000
56.41658 73.000
56.43653 51.000
56.45647 58.000
56.47642 57.000
56.49637 45.000
56.51631 64.000
56.53626 41.000
56.55621 53.000
56.57616 49.000
56.59610 56.000
56.61605 48.000
56.63600 47.000
56.65594 54.000
56.67589 46.000
56.69584 49.000
56.71578 57.000
56.73573 43.000
56.75568 42.000
56.77563 45.000
56.79557 49.000
56.81552 53.000
56.83547 49.000
56.85541 62.000
56.87536 48.000
56.89531 56.000
56.91525 45.000
56.93520 50.000
56.95515 49.000
56.97510 41.000
56.99504 46.000
57.01499 43.000
57.03494 38.000
57.05488 38.000
57.07483 52.000
57.09478 51.000
57.11472 42.000
57.13467 54.000
57.15462 44.000
57.17456 51.000
57.19451 39.000
57.21446 45.000
57.23441 36.000
57.25435 45.000
57.27430 40.000
57.29425 42.000
57.31419 45.000
57.33414 37.000
57.35409 46.000
57.37403 49.000
57.39398 36.000
57.41393 35.000
57.43388 42.000
57.45382 41.000
57.47377 39.000
57.49372 45.000
57.51366 43.000
57.53361 40.000
57.55356 45.000
57.57350 46.000
57.59345 40.000
57.61340 47.000
57.63334 40.000
57.65329 48.000
57.67324 41.000
57.69319 35.000
57.71313 41.000
57.73308 52.000
57.75303 43.000
57.77297 36.000
57.79292 32.000
57.81287 53.000
57.83281 50.000
57.85276 43.000
57.87271 38.000
57.89266 41.000
57.91260 32.000
57.93255 44.000
57.95250 36.000
57.97244 37.000
57.99239 45.000
58.01234 42.000
58.03228 36.000
58.05223 38.000
58.07218 41.000
58.09212 53.000
58.11207 35.000
58.13202 35.000
58.15197 54.000
58.17191 41.000
58.19186 52.000
58.21181 40.000
58.23175 40.000
58.25170 49.000
58.27165 42.000
58.29159 48.000
58.31154 45.000
58.33149 43.000
58.35144 41.000
58.37138 39.000
58.39133 27.000
58.41128 46.000
58.43122 32.000
58.45117 44.000
58.47112 40.000
58.49106 40.000
58.51101 35.000
58.53096 36.000
58.55090 27.000
58.57085 34.000
58.59080 46.000
58.61075 40.000
58.63069 50.000
58.65064 49.000
58.67059 44.000
58.69053 46.000
58.71048 47.000
58.73043 38.000
58.75037 45.000
58.77032 42.000
58.79027 39.000
58.81022 39.000
58.83016 40.000
58.85011 56.000
58.87006 49.000
58.89000 39.000
58.90995 49.000
58.92990 47.000
58.94984 34.000
58.96979 47.000
58.98974 44.000
59.00969 41.000
59.02963 46.000
59.04958 45.000
59.06953 51.000
59.08947 46.000
59.10942 38.000
59.12937 35.000
59.14931 44.000
59.16926 46.000
59.18921 31.000
59.20915 43.000
59.22910 39.000
59.24905 41.000
59.26900 39.000
59.28894 36.000
59.30889 45.000
59.32884 50.000
59.34878 37.000
59.36873 37.000
59.38868 38.000
59.40862 41.000
59.42857 41.000
59.44852 42.000
59.46847 49.000
59.48841 45.000
59.50836 43.000
59.52831 47.000
59.54825 39.000
59.56820 45.000
59.58815 43.000
59.60809 44.000
59.62804 45.000
59.64799 39.000
59.66793 44.000
59.68788 48.000
59.70783 52.000
59.72778 50.000
59.74772 36.000
59.76767 46.000
59.78762 40.000
59.80756 60.000
59.82751 42.000
59.84746 62.000
59.86740 62.000
59.88735 54.000
59.90730 56.000
59.92725 43.000
59.94719 51.000
59.96714 51.000
59.98709 48.000
60.00703 52.000
60.02698 49.000
60.04693 54.000
60.06687 46.000
60.08682 41.000
60.10677 53.000
60.12671 50.000
60.14666 51.000
60.16661 47.000
60.18656 52.000
60.20650 37.000
60.22645 39.000
60.24640 40.000
60.26634 52.000
60.28629 52.000
60.30624 59.000
60.32618 48.000
60.34613 55.000
60.36608 51.000
60.38603 41.000
60.40597 50.000
60.42592 52.000
60.44587 59.000
60.46581 61.000
60.48576 44.000
60.50571 46.000
60.52565 59.000
60.54560 48.000
60.56555 39.000
60.58550 44.000
60.60544 57.000
60.62539 65.000
60.64534 64.000
60.66528 65.000
60.68523 73.000
60.70518 58.000
60.72512 69.000
60.74507 82.000
60.76502 82.000
60.78496 76.000
60.80491 73.000
60.82486 97.000
60.84481 79.000
60.86475 80.000
60.88470 111.000
60.90465 82.000
60.92459 105.000
60.94454 93.000
60.96449 101.000
60.98443 145.000
61.00438 156.000
61.02433 167.000
61.04428 165.000
61.06422 183.000
61.08417 199.000
61.10412 230.000
61.12406 257.000
61.14401 254.000
61.16396 297.000
61.18390 317.000
61.20385 307.000
61.22380 306.000
61.24374 295.000
61.26369 292.000
61.28364 329.000
61.30359 312.000
61.32353 279.000
61.34348 288.000
61.36343 315.000
61.38337 290.000
61.40332 299.000
61.42327 248.000
61.44321 270.000
61.46316 287.000
61.48311 305.000
61.50306 253.000
61.52300 248.000
61.54295 222.000
61.56290 245.000
61.58284 224.000
61.60279 220.000
61.62274 192.000
61.64268 175.000
61.66263 181.000
61.68258 171.000
61.70252 150.000
61.72247 149.000
61.74242 121.000
61.76237 135.000
61.78231 125.000
61.80226 107.000
61.82221 126.000
61.84215 110.000
61.86210 104.000
61.88205 100.000
61.90199 96.000
61.92194 92.000
61.94189 85.000
61.96184 71.000
61.98178 69.000
62.00173 79.000
62.02168 87.000
62.04162 56.000
62.06157 72.000
62.08152 66.000
62.10146 73.000
62.12141 67.000
62.14136 61.000
62.16131 53.000
62.18125 67.000
62.20120 54.000
62.22115 46.000
62.24109 49.000
62.26104 64.000
62.28099 63.000
62.30093 54.000
62.32088 68.000
62.34083 62.000
62.36077 53.000
62.38072 58.000
62.40067 52.000
62.42062 62.000
62.44056 46.000
62.46051 56.000
62.48046 59.000
62.50040 57.000
62.52035 48.000
62.54030 45.000
62.56024 43.000
62.58019 50.000
62.60014 52.000
62.62009 47.000
62.64003 46.000
62.65998 57.000
62.67993 44.000
62.69987 55.000
62.71982 47.000
62.73977 62.000
62.75971 42.000
62.77966 55.000
62.79961 66.000
62.81955 48.000
62.83950 39.000
62.85945 56.000
62.87940 59.000
62.89934 42.000
62.91929 50.000
62.93924 59.000
62.95918 53.000
62.97913 58.000
62.99908 56.000
63.01902 42.000
63.03897 54.000
63.05892 49.000
63.07887 49.000
63.09881 57.000
63.11876 60.000
63.13871 61.000
63.15865 70.000
63.17860 45.000
63.19855 78.000
63.21849 62.000
63.23844 68.000
63.25839 66.000
63.27833 62.000
63.29828 87.000
63.31823 73.000
63.33818 87.000
63.35812 71.000
63.37807 76.000
63.39802 82.000
63.41796 94.000
63.43791 83.000
63.45786 88.000
63.47780 112.000
63.49775 132.000
63.51770 142.000
63.53765 169.000
63.55759 174.000
63.57754 188.000
63.59749 217.000
63.61743 226.000
63.63738 231.000
63.65733 234.000
63.67727 190.000
63.69722 216.000
63.71717 218.000
63.73712 184.000
63.75706 216.000
63.77701 187.000
63.79696 211.000
63.81690 184.000
63.83685 164.000
63.85680 173.000
63.87674 141.000
63.89669 124.000
63.91664 130.000
63.93658 105.000
63.95653 85.000
63.97648 96.000
63.99643 86.000
64.01637 79.000
64.03632 77.000
64.05627 83.000
64.07621 60.000
64.09616 74.000
64.11611 74.000
64.13605 60.000
64.15600 64.000
64.17595 68.000
64.19590 43.000
64.21584 66.000
64.23579 53.000
64.25574 59.000
64.27568 55.000
64.29563 51.000
64.31558 62.000
64.33552 51.000
64.35547 61.000
64.37542 46.000
64.39536 63.000
64.41531 52.000
64.43526 55.000
64.45521 65.000
64.47515 67.000
64.49510 56.000
64.51505 63.000
64.53499 61.000
64.55494 62.000
64.57489 58.000
64.59483 58.000
64.61478 63.000
64.63473 55.000
64.65468 52.000
64.67462 52.000
64.69457 55.000
64.71452 53.000
64.73446 54.000
64.75441 43.000
64.77436 46.000
64.79430 52.000
64.81425 54.000
64.83420 64.000
64.85414 53.000
64.87409 53.000
64.89404 39.000
64.91399 59.000
64.93393 52.000
64.95388 46.000
64.97383 48.000
64.99377 51.000
65.01372 38.000
65.03367 48.000
65.05361 52.000
65.07356 49.000
65.09351 43.000
65.11346 35.000
65.13340 45.000
65.15335 37.000
65.17330 60.000
65.19324 45.000
65.21319 60.000
65.23314 70.000
65.25308 41.000
65.27303 44.000
65.29298 44.000
65.31293 48.000
65.33287 50.000
65.35282 42.000
65.37277 55.000
65.39271 58.000
65.41266 56.000
65.43261 52.000
65.45255 54.000
65.47250 50.000
65.49245 54.000
65.51239 72.000
65.53234 68.000
65.55229 60.000
65.57224 54.000
65.59218 56.000
65.61213 64.000
65.63208 78.000
65.65202 68.000
65.67197 66.000
65.69192 76.000
65.71186 76.000
65.73181 61.000
65.75176 89.000
65.77171 86.000
65.79165 89.000
65.81160 88.000
65.83155 111.000
65.85149 108.000
65.87144 131.000
65.89139 164.000
65.91133 176.000
65.93128 154.000
65.95123 190.000
65.97117 183.000
65.99112 192.000
66.01107 177.000
66.03102 169.000
66.05096 145.000
66.07091 163.000
66.09086 163.000
66.11080 135.000
66.13075 144.000
66.15070 139.000
66.17064 121.000
66.19059 94.000
66.21054 113.000
66.23049 98.000
66.25043 93.000
66.27038 101.000
66.29033 74.000
66.31027 71.000
66.33022 61.000
66.35017 70.000
66.37011 62.000
66.39006 53.000
66.41001 59.000
66.42995 59.000
66.44990 48.000
66.46985 43.000
66.48980 45.000
66.50974 59.000
66.52969 54.000
66.54964 41.000
66.56958 42.000
66.58953 49.000
66.60948 50.000
66.62942 32.000
66.64937 42.000
66.66932 34.000
66.68927 34.000
66.70921 32.000
66.72916 36.000
66.74911 44.000
66.76905 40.000
66.78900 39.000
66.80895 30.000
66.82889 53.000
66.84884 40.000
66.86879 45.000
66.88874 35.000
66.90868 28.000
66.92863 38.000
66.94858 46.000
66.96852 23.000
66.98847 29.000
67.00842 34.000
67.02836 33.000
67.04831 37.000
67.06826 31.000
67.08820 39.000
67.10815 38.000
67.12810 44.000
67.14805 35.000
67.16799 45.000
67.18794 34.000
67.20789 22.000
67.22783 44.000
67.24778 34.000
67.26773 55.000
67.28767 36.000
67.30762 41.000
67.32757 28.000
67.34752 34.000
67.36746 44.000
67.38741 35.000
67.40736 37.000
67.42730 34.000
67.44725 37.000
67.46720 30.000
67.48714 36.000
67.50709 37.000
67.52704 38.000
67.54698 24.000
67.56693 44.000
67.58688 39.000
67.60683 24.000
67.62677 33.000
67.64672 38.000
67.66667 33.000
67.68661 38.000
67.70656 42.000
67.72651 35.000
67.74645 39.000
67.76640 35.000
67.78635 38.000
67.80630 35.000
67.82624 37.000
67.84619 21.000
67.86614 27.000
67.88608 32.000
67.90603 41.000
67.92598 41.000
67.94592 43.000
67.96587 40.000
67.98582 31.000
68.00576 29.000
68.02571 31.000
68.04566 35.000
68.06561 30.000
68.08555 39.000
68.10550 47.000
68.12545 27.000
68.14539 33.000
68.16534 24.000
68.18529 50.000
68.20523 32.000
68.22518 39.000
68.24513 36.000
68.26508 40.000
68.28502 44.000
68.30497 35.000
68.32492 23.000
68.34486 32.000
68.36481 34.000
68.38476 38.000
68.40470 38.000
68.42465 32.000
68.44460 33.000
68.46455 40.000
68.48449 36.000
68.50444 38.000
68.52439 30.000
68.54433 30.000
68.56428 34.000
68.58423 29.000
68.60417 41.000
68.62412 30.000
68.64407 26.000
68.66401 34.000
68.68396 26.000
68.70391 42.000
68.72386 34.000
68.74380 49.000
68.76375 38.000
68.78370 48.000
68.80364 37.000
68.82359 44.000
68.84354 45.000
68.86348 38.000
68.88343 42.000
68.90338 22.000
68.92333 36.000
68.94327 35.000
68.96322 29.000
68.98317 35.000
69.00311 32.000
69.02306 39.000
69.04301 29.000
69.06295 34.000
69.08290 38.000
69.10285 45.000
69.12279 30.000
69.14274 41.000
69.16269 42.000
69.18264 34.000
69.20258 37.000
69.22253 29.000
69.24248 36.000
69.26242 33.000
69.28237 35.000
69.30232 23.000
69.32226 43.000
69.34221 41.000
69.36216 34.000
69.38211 27.000
69.40205 34.000
69.42200 28.000
69.44195 30.000
69.46189 33.000
69.48184 28.000
69.50179 35.000
69.52173 28.000
69.54168 43.000
69.56163 39.000
69.58157 33.000
69.60152 33.000
69.62147 35.000
69.64142 43.000
69.66136 29.000
69.68131 39.000
69.70126 42.000
69.72120 30.000
69.74115 35.000
69.76110 38.000
69.78104 41.000
69.80099 48.000
69.82094 36.000
69.84089 44.000
69.86083 44.000
69.88078 33.000
69.90073 52.000
69.92067 37.000
69.94062 49.000
69.96057 43.000
69.98051 45.000
70.00046 30.000
70.02041 43.000
70.04035 31.000
70.06030 40.000
70.08025 35.000
70.10020 40.000
70.12014 32.000
70.14009 31.000
70.16004 37.000
70.17998 38.000
70.19993 38.000
70.21988 23.000
70.23982 29.000
70.25977 30.000
70.27972 32.000
70.29967 27.000
70.31961 25.000
70.33956 31.000
70.35951 30.000
70.37945 36.000
70.39940 38.000
70.41935 33.000
70.43929 33.000
70.45924 32.000
70.47919 29.000
70.49914 32.000
70.51908 28.000
70.53903 27.000
70.55898 30.000
70.57892 27.000
70.59887 30.000
70.61882 32.000
70.63876 26.000
70.65871 36.000
70.67866 28.000
70.69860 35.000
70.71855 29.000
70.73850 26.000
70.75845 41.000
70.77839 37.000
70.79834 32.000
70.81829 25.000
70.83823 21.000
70.85818 33.000
70.87813 24.000
70.89807 36.000
70.91802 31.000
70.93797 34.000
70.95792 36.000
70.97786 35.000
70.99781 29.000
71.01776 32.000
71.03770 39.000
71.05765 35.000
71.07760 36.000
71.09754 17.000
71.11749 30.000
71.13744 31.000
71.15738 47.000
71.17733 29.000
71.19728 47.000
71.21723 27.000
71.23717 30.000
71.25712 37.000
71.27707 35.000
71.29701 25.000
71.31696 24.000
71.33691 25.000
71.35685 39.000
71.37680 35.000
71.39675 33.000
71.41670 36.000
71.43664 33.000
71.45659 23.000
71.47654 35.000
71.49648 28.000
71.51643 29.000
71.53638 29.000
71.55632 24.000
71.57627 23.000
71.59622 39.000
71.61616 33.000
71.63611 27.000
71.65606 26.000
71.67601 35.000
71.69595 27.000
71.71590 32.000
71.73585 33.000
71.75579 38.000
71.77574 39.000
71.79569 42.000
71.81563 33.000
71.83558 23.000
71.85553 28.000
71.87548 45.000
71.89542 48.000
71.91537 49.000
71.93532 29.000
71.95526 35.000
71.97521 41.000
71.99516 35.000
72.01510 33.000
72.03505 40.000
72.05500 36.000
72.07495 38.000
72.09489 30.000
72.11484 37.000
72.13479 44.000
72.15473 48.000
72.17468 34.000
72.19463 43.000
72.21457 40.000
72.23452 47.000
72.25447 48.000
72.27441 44.000
72.29436 49.000
72.31431 48.000
72.33426 37.000
72.35420 52.000
72.37415 40.000
72.39410 54.000
72.41404 72.000
72.43399 60.000
72.45394 65.000
72.47388 62.000
72.49383 65.000
72.51378 80.000
72.53373 90.000
72.55367 72.000
72.57362 90.000
72.59357 91.000
72.61351 82.000
72.63346 72.000
72.65341 82.000
72.67335 91.000
72.69330 89.000
72.71325 82.000
72.73319 113.000
72.75314 100.000
72.77309 104.000
72.79304 104.000
72.81298 112.000
72.83293 111.000
72.85288 87.000
72.87282 95.000
72.89277 89.000
72.91272 72.000
72.93266 95.000
72.95261 87.000
72.97256 83.000
72.99251 80.000
73.01245 69.000
73.03240 73.000
73.05235 58.000
73.07229 60.000
73.09224 72.000
73.11219 72.000
73.13213 69.000
73.15208 47.000
73.17203 52.000
73.19197 57.000
73.21192 50.000
73.23187 47.000
73.25182 42.000
73.27176 51.000
73.29171 35.000
73.31166 42.000
73.33160 42.000
73.35155 42.000
73.37150 43.000
73.39144 57.000
73.41139 49.000
73.43134 52.000
73.45129 35.000
73.47123 51.000
73.49118 44.000
73.51113 43.000
73.53107 63.000
73.55102 47.000
73.57097 48.000
73.59091 48.000
73.61086 49.000
73.63081 50.000
73.65076 60.000
73.67070 47.000
73.69065 49.000
73.71060 55.000
73.73054 58.000
73.75049 55.000
73.77044 53.000
73.79038 58.000
73.81033 51.000
73.83028 45.000
73.85022 43.000
73.87017 40.000
73.89012 45.000
73.91007 38.000
73.93001 49.000
73.94996 32.000
73.96991 47.000
73.98985 40.000
74.00980 29.000
74.02975 36.000
74.04969 37.000
74.06964 31.000
74.08959 42.000
74.10954 32.000
74.12948 28.000
74.14943 28.000
74.16938 33.000
74.18932 37.000
74.20927 34.000
74.22922 28.000
74.24916 36.000
74.26911 39.000
74.28906 29.000
74.30900 27.000
74.32895 35.000
74.34890 28.000
74.36885 31.000
74.38879 40.000
74.40874 33.000
74.42869 36.000
74.44863 27.000
74.46858 40.000
74.48853 33.000
74.50847 34.000
74.52842 33.000
74.54837 31.000
74.56832 28.000
74.58826 35.000
74.60821 27.000
74.62816 36.000
74.64810 37.000
74.66805 25.000
74.68800 45.000
74.70794 41.000
74.72789 36.000
74.74784 47.000
74.76778 40.000
74.78773 39.000
74.80768 40.000
74.82763 46.000
74.84757 40.000
74.86752 30.000
74.88747 49.000
74.90741 55.000
74.92736 43.000
74.94731 49.000
74.96725 48.000
74.98720 50.000
75.00715 66.000
75.02710 53.000
75.04704 56.000
75.06699 74.000
75.08694 42.000
75.10688 62.000
75.12683 51.000
75.14678 57.000
75.16672 46.000
75.18667 43.000
75.20662 38.000
75.22657 47.000
75.24651 54.000
75.26646 55.000
75.28641 43.000
75.30635 36.000
75.32630 47.000
75.34625 41.000
75.36619 46.000
75.38614 41.000
75.40609 44.000
75.42603 32.000
75.44598 26.000
75.46593 34.000
75.48588 32.000
75.50582 36.000
75.52577 35.000
75.54572 42.000
75.56566 31.000
75.58561 35.000
75.60556 29.000
75.62550 31.000
75.64545 44.000
75.66540 29.000
75.68535 21.000
75.70529 35.000
75.72524 32.000
75.74519 28.000
75.76513 35.000
75.78508 23.000
75.80503 28.000
75.82497 44.000
75.84492 41.000
75.86487 32.000
75.88481 38.000
75.90476 39.000
75.92471 26.000
75.94466 28.000
75.96460 29.000
75.98455 32.000
76.00450 31.000
76.02444 35.000
76.04439 30.000
76.06434 37.000
76.08428 32.000
76.10423 43.000
76.12418 32.000
76.14413 35.000
76.16407 29.000
76.18402 38.000
76.20397 24.000
76.22391 38.000
76.24386 33.000
76.26381 41.000
76.28375 34.000
76.30370 29.000
76.32365 32.000
76.34359 37.000
76.36354 30.000
76.38349 36.000
76.40344 37.000
76.42338 42.000
76.44333 35.000
76.46328 34.000
76.48322 48.000
76.50317 45.000
76.52312 31.000
76.54306 41.000
76.56301 41.000
76.58296 38.000
76.60291 26.000
76.62285 45.000
76.64280 37.000
76.66275 42.000
76.68269 46.000
76.70264 50.000
76.72259 34.000
76.74253 66.000
76.76248 40.000
76.78243 51.000
76.80238 56.000
76.82232 45.000
76.84227 54.000
76.86222 55.000
76.88216 54.000
76.90211 50.000
76.92206 68.000
76.94200 47.000
76.96195 52.000
76.98190 57.000
77.00184 66.000
77.02179 63.000
77.04174 81.000
77.06169 82.000
77.08163 92.000
77.10158 106.000
77.12153 104.000
77.14147 106.000
77.16142 116.000
77.18137 113.000
77.20131 130.000
77.22126 135.000
77.24121 120.000
77.26116 116.000
77.28110 125.000
77.30105 123.000
77.32100 126.000
77.34094 116.000
77.36089 100.000
77.38084 118.000
77.40078 104.000
77.42073 111.000
77.44068 92.000
77.46062 116.000
77.48057 101.000
77.50052 107.000
77.52047 77.000
77.54041 87.000
77.56036 70.000
77.58031 70.000
77.60025 63.000
77.62020 64.000
77.64015 67.000
77.66009 59.000
77.68004 49.000
77.69999 51.000
77.71994 57.000
77.73988 63.000
77.75983 54.000
77.77978 39.000
77.79972 57.000
77.81967 46.000
77.83962 43.000
77.85956 47.000
77.87951 45.000
77.89946 42.000
77.91940 51.000
77.93935 43.000
77.95930 48.000
77.97925 41.000
77.99919 31.000
78.01914 40.000
78.03909 31.000
78.05903 32.000
78.07898 29.000
78.09893 29.000
78.11887 31.000
78.13882 42.000
78.15877 32.000
78.17872 43.000
78.19866 24.000
78.21861 37.000
78.23856 31.000
78.25850 26.000
78.27845 27.000
78.29840 33.000
78.31834 42.000
78.33829 39.000
78.35824 24.000
78.37819 41.000
78.39813 33.000
78.41808 36.000
78.43803 24.000
78.45797 31.000
78.47792 35.000
78.49787 33.000
78.51781 24.000
78.53776 37.000
78.55771 29.000
78.57765 29.000
78.59760 37.000
78.61755 33.000
78.63750 28.000
78.65744 22.000
78.67739 45.000
78.69734 31.000
78.71728 24.000
78.73723 25.000
78.75718 29.000
78.77712 38.000
78.79707 22.000
78.81702 21.000
78.83697 28.000
78.85691 28.000
78.87686 28.000
78.89681 24.000
78.91675 29.000
78.93670 37.000
78.95665 28.000
78.97659 36.000
78.99654 37.000
79.01649 31.000
79.03643 23.000
79.05638 37.000
79.07633 43.000
79.09628 34.000
79.11622 38.000
79.13617 22.000
79.15612 28.000
79.17606 28.000
79.19601 28.000
79.21596 24.000
79.23590 26.000
79.25585 28.000
79.27580 21.000
79.29575 34.000
79.31569 34.000
79.33564 33.000
79.35559 28.000
79.37553 20.000
79.39548 33.000
79.41543 31.000
79.43537 29.000
79.45532 40.000
79.47527 23.000
79.49521 27.000
79.51516 31.000
79.53511 26.000
79.55506 29.000
79.57500 37.000
79.59495 35.000
79.61490 29.000
79.63484 40.000
79.65479 27.000
79.67474 30.000
79.69468 34.000
79.71463 33.000
79.73458 23.000
79.75453 25.000
79.77447 29.000
79.79442 30.000
79.81437 34.000
79.83431 32.000
79.85426 29.000
79.87421 36.000
79.89415 36.000
79.91410 37.000
79.93405 37.000
79.95399 42.000
79.97394 39.000
79.99389 41.000
80.01384 33.000
80.03378 33.000
80.05373 37.000
80.07368 39.000
80.09362 57.000
80.11357 37.000
80.13352 32.000
80.15346 38.000
80.17341 40.000
80.19336 44.000
80.21331 27.000
80.23325 44.000
80.25320 32.000
80.27315 48.000
80.29309 33.000
80.31304 36.000
80.33299 40.000
80.35293 32.000
80.37288 37.000
80.39283 34.000
80.41278 35.000
80.43272 32.000
80.45267 30.000
80.47262 35.000
80.49256 41.000
80.51251 27.000
80.53246 34.000
80.55240 30.000
80.57235 40.000
80.59230 34.000
80.61224 43.000
80.63219 31.000
80.65214 26.000
80.67209 35.000
80.69203 36.000
80.71198 26.000
80.73193 25.000
80.75187 28.000
80.77182 25.000
80.79177 35.000
80.81171 31.000
80.83166 28.000
80.85161 30.000
80.87156 20.000
80.89150 30.000
80.91145 35.000
80.93140 27.000
80.95134 39.000
80.97129 23.000
80.99124 28.000
81.01118 35.000
81.03113 31.000
81.05108 26.000
81.07102 28.000
81.09097 37.000
81.11092 21.000
81.13087 36.000
81.15081 21.000
81.17076 24.000
81.19071 28.000
81.21065 31.000
81.23060 22.000
81.25055 25.000
81.27049 28.000
81.29044 30.000
81.31039 26.000
81.33034 24.000
81.35028 21.000
81.37023 25.000
81.39018 26.000
81.41012 20.000
81.43007 39.000
81.45002 29.000
81.46996 28.000
81.48991 30.000
81.50986 24.000
81.52980 34.000
81.54975 26.000
81.56970 29.000
81.58965 23.000
81.60959 27.000
81.62954 35.000
81.64949 27.000
81.66943 22.000
81.68938 30.000
81.70933 36.000
81.72927 35.000
81.74922 31.000
81.76917 24.000
81.78912 33.000
81.80906 19.000
81.82901 21.000
81.84896 25.000
81.86890 17.000
81.88885 29.000
81.90880 27.000
81.92874 23.000
81.94869 26.000
81.96864 36.000
81.98859 28.000
82.00853 27.000
82.02848 25.000
82.04843 35.000
82.06837 24.000
82.08832 28.000
82.10827 22.000
82.12821 31.000
82.14816 16.000
82.16811 27.000
82.18805 27.000
82.20800 37.000
82.22795 24.000
82.24790 33.000
82.26784 26.000
82.28779 33.000
82.30774 21.000
82.32768 40.000
82.34763 33.000
82.36758 30.000
82.38752 30.000
82.40747 25.000
82.42742 26.000
82.44737 33.000
82.46731 26.000
82.48726 28.000
82.50721 26.000
82.52715 24.000
82.54710 34.000
82.56705 28.000
82.58699 30.000
82.60694 31.000
82.62689 28.000
82.64683 34.000
82.66678 20.000
82.68673 31.000
82.70668 27.000
82.72662 32.000
82.74657 29.000
82.76652 24.000
82.78646 24.000
82.80641 33.000
82.82636 29.000
82.84630 34.000
82.86625 33.000
82.88620 34.000
82.90615 22.000
82.92609 33.000
82.94604 32.000
82.96599 28.000
82.98593 24.000
83.00588 30.000
83.02583 29.000
83.04577 37.000
83.06572 28.000
83.08567 38.000
83.10561 31.000
83.12556 30.000
83.14551 34.000
83.16546 33.000
83.18540 30.000
83.20535 36.000
83.22530 38.000
83.24524 26.000
83.26519 42.000
83.28514 25.000
83.30508 48.000
83.32503 28.000
83.34498 46.000
83.36493 36.000
83.38487 30.000
83.40482 51.000
83.42477 46.000
83.44471 36.000
83.46466 37.000
83.48461 39.000
83.50455 45.000
83.52450 54.000
83.54445 56.000
83.56440 61.000
83.58434 50.000
83.60429 67.000
83.62424 72.000
83.64418 81.000
83.66413 79.000
83.68408 59.000
83.70402 69.000
83.72397 85.000
83.74392 63.000
83.76386 65.000
83.78381 78.000
83.80376 72.000
83.82371 62.000
83.84365 57.000
83.86360 71.000
83.88355 58.000
83.90349 62.000
83.92344 43.000
83.94339 66.000
83.96333 51.000
83.98328 59.000
84.00323 47.000
84.02318 50.000
84.04312 54.000
84.06307 49.000
84.08302 45.000
84.10296 42.000
84.12291 34.000
84.14286 50.000
84.16280 41.000
84.18275 44.000
84.20270 38.000
84.22264 35.000
84.24259 38.000
84.26254 35.000
84.28249 36.000
84.30243 41.000
84.32238 31.000
84.34233 43.000
84.36227 32.000
84.38222 29.000
84.40217 38.000
84.42211 38.000
84.44206 20.000
84.46201 37.000
84.48196 35.000
84.50190 35.000
84.52185 33.000
84.54180 33.000
84.56174 41.000
84.58169 48.000
84.60164 28.000
84.62158 45.000
84.64153 28.000
84.66148 37.000
84.68142 33.000
84.70137 26.000
84.72132 23.000
84.74127 36.000
84.76121 35.000
84.78116 40.000
84.80111 35.000
84.82105 32.000
84.84100 41.000
84.86095 33.000
84.88089 33.000
84.90084 46.000
84.92079 37.000
84.94074 42.000
84.96068 34.000
84.98063 41.000
85.00058 53.000
85.02052 33.000
85.04047 34.000
85.06042 34.000
85.08036 43.000
85.10031 47.000
85.12026 29.000
85.14021 31.000
85.16015 37.000
85.18010 28.000
85.20005 34.000
85.21999 27.000
85.23994 36.000
85.25989 34.000
85.27983 37.000
85.29978 28.000
85.31973 35.000
85.33967 32.000
85.35962 38.000
85.37957 30.000
85.39952 37.000
85.41946 31.000
85.43941 46.000
85.45936 25.000
85.47930 34.000
85.49925 32.000
85.51920 33.000
85.53914 46.000
85.55909 38.000
85.57904 26.000
85.59899 39.000
85.61893 34.000
85.63888 29.000
85.65883 31.000
85.67877 39.000
85.69872 36.000
85.71867 32.000
85.73861 43.000
85.75856 39.000
85.77851 34.000
85.79845 41.000
85.81840 37.000
85.83835 38.000
85.85830 38.000
85.87824 37.000
85.89819 28.000
85.91814 30.000
85.93808 38.000
85.95803 33.000
85.97798 28.000
85.99792 35.000
86.01787 33.000
86.03782 33.000
86.05777 36.000
86.07771 32.000
86.09766 36.000
86.11761 32.000
86.13755 32.000
86.15750 28.000
86.17745 47.000
86.19739 39.000
86.21734 27.000
86.23729 27.000
86.25723 44.000
86.27718 41.000
86.29713 34.000
86.31708 42.000
86.33702 29.000
86.35697 46.000
86.37692 28.000
86.39686 31.000
86.41681 27.000
86.43676 37.000
86.45670 29.000
86.47665 23.000
86.49660 23.000
86.51655 38.000
86.53649 22.000
86.55644 40.000
86.57639 28.000
86.59633 36.000
86.61628 32.000
86.63623 27.000
86.65617 25.000
86.67612 22.000
86.69607 29.000
86.71602 24.000
86.73596 48.000
86.75591 24.000
86.77586 28.000
86.79580 38.000
86.81575 29.000
86.83570 28.000
86.85564 31.000
86.87559 29.000
86.89554 32.000
86.91548 34.000
86.93543 27.000
86.95538 36.000
86.97533 32.000
86.99527 32.000
87.01522 33.000
87.03517 29.000
87.05511 33.000
87.07506 22.000
87.09501 24.000
87.11495 24.000
87.13490 36.000
87.15485 24.000
87.17480 30.000
87.19474 33.000
87.21469 31.000
87.23464 32.000
87.25458 31.000
87.27453 19.000
87.29448 33.000
87.31442 30.000
87.33437 29.000
87.35432 34.000
87.37426 29.000
87.39421 24.000
87.41416 40.000
87.43411 42.000
87.45405 30.000
87.47400 37.000
87.49395 45.000
87.51389 40.000
87.53384 36.000
87.55379 42.000
87.57373 45.000
87.59368 42.000
87.61363 39.000
87.63358 55.000
87.65352 51.000
87.67347 33.000
87.69342 53.000
87.71336 59.000
87.73331 51.000
87.75326 41.000
87.77320 64.000
87.79315 62.000
87.81310 62.000
87.83304 57.000
87.85299 57.000
87.87294 64.000
87.89289 57.000
87.91283 54.000
87.93278 54.000
87.95273 53.000
87.97267 54.000
87.99262 55.000
88.01257 70.000
88.03251 66.000
88.05246 46.000
88.07241 70.000
88.09236 55.000
88.11230 52.000
88.13225 56.000
88.15220 56.000
88.17214 54.000
88.19209 50.000
88.21204 53.000
88.23198 54.000
88.25193 43.000
88.27188 51.000
88.29183 42.000
88.31177 36.000
88.33172 41.000
88.35167 54.000
88.37161 45.000
88.39156 38.000
88.41151 40.000
88.43145 35.000
88.45140 49.000
88.47135 42.000
88.49129 46.000
88.51124 34.000
88.53119 41.000
88.55114 24.000
88.57108 38.000
88.59103 37.000
88.61098 39.000
88.63092 30.000
88.65087 26.000
88.67082 31.000
88.69076 30.000
88.71071 21.000
88.73066 28.000
88.75061 29.000
88.77055 35.000
88.79050 24.000
88.81045 25.000
88.83039 34.000
88.85034 27.000
88.87029 29.000
88.89023 28.000
88.91018 32.000
88.93013 23.000
88.95007 27.000
88.97002 31.000
88.98997 32.000
89.00992 32.000
89.02986 19.000
89.04981 18.000
89.06976 28.000
89.08970 32.000
89.10965 32.000
89.12960 20.000
89.14954 32.000
89.16949 23.000
89.18944 36.000
89.20939 21.000
89.22933 25.000
89.24928 31.000
89.26923 19.000
89.28917 19.000
89.30912 27.000
89.32907 22.000
89.34901 37.000
89.36896 23.000
89.38891 28.000
89.40885 29.000
89.42880 19.000
89.44875 29.000
89.46870 23.000
89.48864 32.000
89.50859 31.000
89.52854 24.000
89.54848 28.000
89.56843 25.000
89.58838 25.000
89.60832 17.000
89.62827 26.000
89.64822 23.000
89.66817 24.000
89.68811 30.000
89.70806 28.000
89.72801 27.000
89.74795 20.000
89.76790 23.000
89.78785 40.000
89.80779 27.000
89.82774 20.000
89.84769 15.000
89.86764 14.000
89.88758 21.000
89.90753 33.000
89.92748 30.000
89.94742 24.000
89.96737 33.000
89.98732 21.000
90.00726 30.000
