10.00000 166.000
10.01995 164.000
10.03989 163.000
10.05984 150.000
10.07979 154.000
10.09973 164.000
10.11968 131.000
10.13963 172.000
10.15958 178.000
10.17952 172.000
10.19947 174.000
10.21942 163.000
10.23936 150.000
10.25931 146.000
10.27926 169.000
10.29920 156.000
10.31915 158.000
10.33910 158.000
10.35905 170.000
10.37899 175.000
10.39894 193.000
10.41889 173.000
10.43883 166.000
10.45878 147.000
10.47873 185.000
10.49867 149.000
10.51862 159.000
10.53857 144.000
10.55851 149.000
10.57846 155.000
10.59841 173.000
10.61836 154.000
10.63830 161.000
10.65825 162.000
10.67820 161.000
10.69814 146.000
10.71809 178.000
10.73804 156.000
10.75798 157.000
10.77793 145.000
10.79788 169.000
10.81783 160.000
10.83777 161.000
10.85772 156.000
10.87767 174.000
10.89761 149.000
10.91756 150.000
10.93751 166.000
10.95745 173.000
10.97740 202.000
10.99735 153.000
11.01730 153.000
11.03724 165.000
11.05719 184.000
11.07714 157.000
11.09708 178.000
11.11703 160.000
11.13698 162.000
11.15692 146.000
11.17687 176.000
11.19682 158.000
11.21676 183.000
11.23671 147.000
11.25666 150.000
11.27661 148.000
11.29655 166.000
11.31650 137.000
11.33645 155.000
11.35639 181.000
11.37634 164.000
11.39629 179.000
11.41623 166.000
11.43618 164.000
11.45613 162.000
11.47608 190.000
11.49602 182.000
11.51597 152.000
11.53592 165.000
11.55586 171.000
11.57581 174.000
11.59576 166.000
11.61570 158.000
11.63565 178.000
11.65560 156.000
11.67554 170.000
11.69549 183.000
11.71544 170.000
11.73539 154.000
11.75533 168.000
11.77528 161.000
11.79523 157.000
11.81517 146.000
11.83512 159.000
11.85507 146.000
11.87501 154.000
11.89496 176.000
11.91491 164.000
11.93486 156.000
11.95480 197.000
11.97475 159.000
11.99470 163.000
12.01464 151.000
12.03459 158.000
12.05454 174.000
12.07448 153.000
12.09443 211.000
12.11438 153.000
12.13432 147.000
12.15427 184.000
12.17422 169.000
12.19417 154.000
12.21411 165.000
12.23406 166.000
12.25401 152.000
12.27395 182.000
12.29390 167.000
12.31385 167.000
12.33379 155.000
12.35374 163.000
12.37369 180.000
12.39364 178.000
12.41358 150.000
12.43353 174.000
12.45348 157.000
12.47342 161.000
12.49337 159.000
12.51332 160.000
12.53326 161.000
12.55321 158.000
12.57316 162.000
12.59311 190.000
12.61305 195.000
12.63300 186.000
12.65295 155.000
12.67289 170.000
12.69284 176.000
12.71279 168.000
12.73273 174.000
12.75268 164.000
12.77263 176.000
12.79257 160.000
12.81252 166.000
12.83247 138.000
12.85242 172.000
12.87236 154.000
12.89231 148.000
12.91226 136.000
12.93220 160.000
12.95215 165.000
12.97210 171.000
12.99204 157.000
13.01199 151.000
13.03194 167.000
13.05189 152.000
13.07183 152.000
13.09178 168.000
13.11173 169.000
13.13167 176.000
13.15162 164.000
13.17157 156.000
13.19151 178.000
13.21146 168.000
13.23141 160.000
13.25135 145.000
13.27130 146.000
13.29125 156.000
13.31120 171.000
13.33114 185.000
13.35109 172.000
13.37104 134.000
13.39098 163.000
13.41093 179.000
13.43088 172.000
13.45082 167.000
13.47077 162.000
13.49072 167.000
13.51067 159.000
13.53061 160.000
13.55056 175.000
13.57051 158.000
13.59045 171.000
13.61040 188.000
13.63035 169.000
13.65029 159.000
13.67024 151.000
13.69019 175.000
13.71013 197.000
13.73008 183.000
13.75003 171.000
13.76998 166.000
13.78992 173.000
13.80987 150.000
13.82982 168.000
13.84976 155.000
13.86971 153.000
13.88966 173.000
13.90960 149.000
13.92955 189.000
13.94950 147.000
13.96945 134.000
13.98939 156.000
14.00934 162.000
14.02929 169.000
14.04923 171.000
14.06918 174.000
14.08913 159.000
14.10907 163.000
14.12902 167.000
14.14897 172.000
14.16892 185.000
14.18886 196.000
14.20881 154.000
14.22876 191.000
14.24870 164.000
14.26865 174.000
14.28860 166.000
14.30854 153.000
14.32849 181.000
14.34844 194.000
14.36838 173.000
14.38833 156.000
14.40828 142.000
14.42823 174.000
14.44817 166.000
14.46812 156.000
14.48807 161.000
14.50801 182.000
14.52796 161.000
14.54791 169.000
14.56785 161.000
14.58780 201.000
14.60775 151.000
14.62770 169.000
14.64764 197.000
14.66759 150.000
14.68754 192.000
14.70748 186.000
14.72743 164.000
14.74738 174.000
14.76732 179.000
14.78727 163.000
14.80722 202.000
14.82716 189.000
14.84711 173.000
14.86706 163.000
14.88701 204.000
14.90695 201.000
14.92690 196.000
14.94685 205.000
14.96679 216.000
14.98674 209.000
15.00669 226.000
15.02663 202.000
15.04658 237.000
15.06653 231.000
15.08648 246.000
15.10642 242.000
15.12637 235.000
15.14632 195.000
15.16626 220.000
15.18621 207.000
15.20616 187.000
15.22610 198.000
15.24605 228.000
15.26600 222.000
15.28594 234.000
15.30589 221.000
15.32584 241.000
15.34579 244.000
15.36573 238.000
15.38568 270.000
15.40563 267.000
15.42557 264.000
15.44552 290.000
15.46547 309.000
15.48541 300.000
15.50536 346.000
15.52531 381.000
15.54526 454.000
15.56520 563.000
15.58515 642.000
15.60510 851.000
15.62504 1189.000
15.64499 1778.000
15.66494 2931.000
15.68488 4904.000
15.70483 8622.000
15.72478 13132.000
15.74472 13267.000
15.76467 9961.000
15.78462 6450.000
15.80457 2916.000
15.82451 1388.000
15.84446 844.000
15.86441 635.000
15.88435 487.000
15.90430 394.000
15.92425 393.000
15.94419 367.000
15.96414 321.000
15.98409 254.000
16.00404 297.000
16.02398 293.000
16.04393 259.000
16.06388 259.000
16.08382 239.000
16.10377 243.000
16.12372 232.000
16.14366 217.000
16.16361 226.000
16.18356 223.000
16.20351 230.000
16.22345 198.000
16.24340 189.000
16.26335 209.000
16.28329 213.000
16.30324 209.000
16.32319 193.000
16.34313 187.000
16.36308 219.000
16.38303 186.000
16.40297 230.000
16.42292 187.000
16.44287 191.000
16.46282 179.000
16.48276 181.000
16.50271 179.000
16.52266 172.000
16.54260 173.000
16.56255 179.000
16.58250 171.000
16.60244 173.000
16.62239 173.000
16.64234 172.000
16.66229 158.000
16.68223 158.000
16.70218 168.000
16.72213 159.000
16.74207 178.000
16.76202 159.000
16.78197 168.000
16.80191 147.000
16.82186 145.000
16.84181 177.000
16.86175 154.000
16.88170 162.000
16.90165 155.000
16.92160 184.000
16.94154 173.000
16.96149 167.000
16.98144 158.000
17.00138 165.000
17.02133 151.000
17.04128 163.000
17.06122 178.000
17.08117 138.000
17.10112 179.000
17.12107 149.000
17.14101 176.000
17.16096 152.000
17.18091 159.000
17.20085 157.000
17.22080 145.000
17.24075 161.000
17.26069 136.000
17.28064 176.000
17.30059 177.000
17.32053 163.000
17.34048 165.000
17.36043 138.000
17.38038 178.000
17.40032 152.000
17.42027 179.000
17.44022 168.000
17.46016 176.000
17.48011 165.000
17.50006 166.000
17.52000 161.000
17.53995 164.000
17.55990 172.000
17.57985 167.000
17.59979 172.000
17.61974 161.000
17.63969 175.000
17.65963 149.000
17.67958 151.000
17.69953 178.000
17.71947 182.000
17.73942 152.000
17.75937 180.000
17.77932 185.000
17.79926 158.000
17.81921 166.000
17.83916 174.000
17.85910 138.000
17.87905 172.000
17.89900 161.000
17.91894 168.000
17.93889 160.000
17.95884 163.000
17.97878 141.000
17.99873 154.000
18.01868 166.000
18.03863 163.000
18.05857 166.000
18.07852 164.000
18.09847 167.000
18.11841 181.000
18.13836 214.000
18.15831 297.000
18.17825 386.000
18.19820 503.000
18.21815 462.000
18.23810 374.000
18.25804 288.000
18.27799 221.000
18.29794 182.000
18.31788 189.000
18.33783 196.000
18.35778 153.000
18.37772 152.000
18.39767 173.000
18.41762 155.000
18.43756 146.000
18.45751 184.000
18.47746 151.000
18.49741 151.000
18.51735 169.000
18.53730 174.000
18.55725 159.000
18.57719 160.000
18.59714 142.000
18.61709 161.000
18.63703 173.000
18.65698 166.000
18.67693 169.000
18.69688 155.000
18.71682 161.000
18.73677 170.000
18.75672 163.000
18.77666 168.000
18.79661 177.000
18.81656 153.000
18.83650 194.000
18.85645 179.000
18.87640 151.000
18.89634 151.000
18.91629 174.000
18.93624 160.000
18.95619 165.000
18.97613 148.000
18.99608 144.000
19.01603 147.000
19.03597 173.000
19.05592 148.000
19.07587 166.000
19.09581 160.000
19.11576 173.000
19.13571 155.000
19.15566 168.000
19.17560 171.000
19.19555 164.000
19.21550 168.000
19.23544 159.000
19.25539 158.000
19.27534 169.000
19.29528 152.000
19.31523 170.000
19.33518 177.000
19.35513 151.000
19.37507 160.000
19.39502 149.000
19.41497 170.000
19.43491 149.000
19.45486 159.000
19.47481 156.000
19.49475 187.000
19.51470 164.000
19.53465 161.000
19.55459 147.000
19.57454 153.000
19.59449 164.000
19.61444 166.000
19.63438 141.000
19.65433 182.000
19.67428 167.000
19.69422 161.000
19.71417 145.000
19.73412 139.000
19.75406 177.000
19.77401 161.000
19.79396 162.000
19.81391 167.000
19.83385 153.000
19.85380 151.000
19.87375 156.000
19.89369 175.000
19.91364 149.000
19.93359 161.000
19.95353 177.000
19.97348 160.000
19.99343 171.000
20.01337 142.000
20.03332 179.000
20.05327 161.000
20.07322 161.000
20.09316 163.000
20.11311 158.000
20.13306 141.000
20.15300 171.000
20.17295 152.000
20.19290 172.000
20.21284 158.000
20.23279 167.000
20.25274 139.000
20.27269 148.000
20.29263 168.000
20.31258 166.000
20.33253 185.000
20.35247 165.000
20.37242 141.000
20.39237 178.000
20.41231 180.000
20.43226 153.000
20.45221 166.000
20.47215 173.000
20.49210 158.000
20.51205 146.000
20.53200 166.000
20.55194 166.000
20.57189 170.000
20.59184 162.000
20.61178 149.000
20.63173 174.000
20.65168 151.000
20.67162 157.000
20.69157 166.000
20.71152 153.000
20.73147 159.000
20.75141 160.000
20.77136 153.000
20.79131 157.000
20.81125 181.000
20.83120 166.000
20.85115 190.000
20.87109 222.000
20.89104 201.000
20.91099 170.000
20.93094 202.000
20.95088 209.000
20.97083 181.000
20.99078 196.000
21.01072 172.000
21.03067 205.000
21.05062 170.000
21.07056 195.000
21.09051 169.000
21.11046 164.000
21.13040 170.000
21.15035 195.000
21.17030 170.000
21.19025 145.000
21.21019 158.000
21.23014 173.000
21.25009 162.000
21.27003 157.000
21.28998 164.000
21.30993 144.000
21.32987 164.000
21.34982 152.000
21.36977 155.000
21.38972 152.000
21.40966 166.000
21.42961 186.000
21.44956 156.000
21.46950 169.000
21.48945 195.000
21.50940 170.000
21.52934 174.000
21.54929 159.000
21.56924 149.000
21.58918 149.000
21.60913 171.000
21.62908 144.000
21.64903 154.000
21.66897 156.000
21.68892 145.000
21.70887 149.000
21.72881 146.000
21.74876 147.000
21.76871 171.000
21.78865 182.000
21.80860 177.000
21.82855 167.000
21.84850 153.000
21.86844 146.000
21.88839 168.000
21.90834 146.000
21.92828 140.000
21.94823 176.000
21.96818 176.000
21.98812 165.000
22.00807 178.000
22.02802 156.000
22.04796 161.000
22.06791 154.000
22.08786 131.000
22.10781 183.000
22.12775 177.000
22.14770 150.000
22.16765 178.000
22.18759 154.000
22.20754 151.000
22.22749 151.000
22.24743 176.000
22.26738 146.000
22.28733 163.000
22.30728 167.000
22.32722 172.000
22.34717 167.000
22.36712 161.000
22.38706 144.000
22.40701 169.000
22.42696 176.000
22.44690 153.000
22.46685 141.000
22.48680 191.000
22.50675 168.000
22.52669 159.000
22.54664 170.000
22.56659 144.000
22.58653 165.000
22.60648 167.000
22.62643 177.000
22.64637 165.000
22.66632 138.000
22.68627 162.000
22.70621 175.000
22.72616 188.000
22.74611 177.000
22.76606 170.000
22.78600 167.000
22.80595 181.000
22.82590 178.000
22.84584 152.000
22.86579 152.000
22.88574 178.000
22.90568 167.000
22.92563 173.000
22.94558 150.000
22.96553 181.000
22.98547 183.000
23.00542 171.000
23.02537 192.000
23.04531 175.000
23.06526 153.000
23.08521 161.000
23.10515 176.000
23.12510 162.000
23.14505 180.000
23.16499 160.000
23.18494 156.000
23.20489 191.000
23.22484 179.000
23.24478 166.000
23.26473 186.000
23.28468 153.000
23.30462 155.000
23.32457 162.000
23.34452 181.000
23.36446 157.000
23.38441 160.000
23.40436 165.000
23.42431 179.000
23.44425 179.000
23.46420 159.000
23.48415 163.000
23.50409 180.000
23.52404 172.000
23.54399 156.000
23.56393 158.000
23.58388 169.000
23.60383 147.000
23.62377 155.000
23.64372 177.000
23.66367 171.000
23.68362 156.000
23.70356 153.000
23.72351 151.000
23.74346 155.000
23.76340 149.000
23.78335 155.000
23.80330 185.000
23.82324 148.000
23.84319 160.000
23.86314 158.000
23.88309 179.000
23.90303 160.000
23.92298 159.000
23.94293 178.000
23.96287 186.000
23.98282 165.000
24.00277 153.000
24.02271 163.000
24.04266 163.000
24.06261 173.000
24.08256 179.000
24.10250 160.000
24.12245 181.000
24.14240 174.000
24.16234 163.000
24.18229 169.000
24.20224 149.000
24.22218 167.000
24.24213 177.000
24.26208 176.000
24.28202 176.000
24.30197 157.000
24.32192 164.000
24.34187 165.000
24.36181 154.000
24.38176 165.000
24.40171 162.000
24.42165 179.000
24.44160 184.000
24.46155 175.000
24.48149 153.000
24.50144 169.000
24.52139 146.000
24.54134 185.000
24.56128 182.000
24.58123 161.000
24.60118 158.000
24.62112 183.000
24.64107 172.000
24.66102 159.000
24.68096 180.000
24.70091 152.000
24.72086 152.000
24.74080 168.000
24.76075 159.000
24.78070 172.000
24.80065 155.000
24.82059 129.000
24.84054 163.000
24.86049 161.000
24.88043 184.000
24.90038 141.000
24.92033 157.000
24.94027 163.000
24.96022 159.000
24.98017 151.000
25.00012 183.000
25.02006 156.000
25.04001 196.000
25.05996 186.000
25.07990 176.000
25.09985 181.000
25.11980 164.000
25.13974 161.000
25.15969 161.000
25.17964 162.000
25.19958 160.000
25.21953 190.000
25.23948 163.000
25.25943 185.000
25.27937 168.000
25.29932 144.000
25.31927 170.000
25.33921 160.000
25.35916 176.000
25.37911 192.000
25.39905 177.000
25.41900 186.000
25.43895 173.000
25.45890 178.000
25.47884 194.000
25.49879 158.000
25.51874 153.000
25.53868 184.000
25.55863 187.000
25.57858 186.000
25.59852 167.000
25.61847 169.000
25.63842 186.000
25.65837 187.000
25.67831 176.000
25.69826 181.000
25.71821 168.000
25.73815 155.000
25.75810 175.000
25.77805 147.000
25.79799 158.000
25.81794 182.000
25.83789 157.000
25.85783 172.000
25.87778 162.000
25.89773 187.000
25.91768 169.000
25.93762 171.000
25.95757 145.000
25.97752 157.000
25.99746 158.000
26.01741 168.000
26.03736 188.000
26.05730 202.000
26.07725 168.000
26.09720 164.000
26.11715 157.000
26.13709 172.000
26.15704 161.000
26.17699 177.000
26.19693 164.000
26.21688 188.000
26.23683 157.000
26.25677 195.000
26.27672 145.000
26.29667 188.000
26.31661 142.000
26.33656 167.000
26.35651 174.000
26.37646 148.000
26.39640 183.000
26.41635 151.000
26.43630 179.000
26.45624 169.000
26.47619 165.000
26.49614 161.000
26.51608 168.000
26.53603 176.000
26.55598 139.000
26.57593 170.000
26.59587 172.000
26.61582 193.000
26.63577 167.000
26.65571 176.000
26.67566 198.000
26.69561 176.000
26.71555 161.000
26.73550 196.000
26.75545 182.000
26.77539 180.000
26.79534 157.000
26.81529 160.000
26.83524 192.000
26.85518 182.000
26.87513 174.000
26.89508 183.000
26.91502 152.000
26.93497 175.000
26.95492 153.000
26.97486 176.000
26.99481 170.000
27.01476 157.000
27.03471 175.000
27.05465 164.000
27.07460 190.000
27.09455 166.000
27.11449 181.000
27.13444 181.000
27.15439 164.000
27.17433 170.000
27.19428 142.000
27.21423 176.000
27.23417 163.000
27.25412 194.000
27.27407 206.000
27.29402 196.000
27.31396 172.000
27.33391 163.000
27.35386 168.000
27.37380 171.000
27.39375 172.000
27.41370 175.000
27.43364 186.000
27.45359 169.000
27.47354 173.000
27.49349 171.000
27.51343 163.000
27.53338 181.000
27.55333 167.000
27.57327 159.000
27.59322 173.000
27.61317 189.000
27.63311 174.000
27.65306 182.000
27.67301 183.000
27.69296 146.000
27.71290 167.000
27.73285 186.000
27.75280 159.000
27.77274 183.000
27.79269 141.000
27.81264 177.000
27.83258 153.000
27.85253 182.000
27.87248 190.000
27.89242 174.000
27.91237 164.000
27.93232 176.000
27.95227 171.000
27.97221 166.000
27.99216 164.000
28.01211 175.000
28.03205 173.000
28.05200 168.000
28.07195 177.000
28.09189 157.000
28.11184 159.000
28.13179 174.000
28.15174 148.000
28.17168 186.000
28.19163 199.000
28.21158 169.000
28.23152 171.000
28.25147 171.000
28.27142 176.000
28.29136 191.000
28.31131 166.000
28.33126 184.000
28.35120 155.000
28.37115 174.000
28.39110 157.000
28.41105 181.000
28.43099 149.000
28.45094 158.000
28.47089 180.000
28.49083 178.000
28.51078 171.000
28.53073 167.000
28.55067 170.000
28.57062 143.000
28.59057 176.000
28.61052 160.000
28.63046 180.000
28.65041 173.000
28.67036 175.000
28.69030 177.000
28.71025 160.000
28.73020 175.000
28.75014 186.000
28.77009 174.000
28.79004 178.000
28.80998 188.000
28.82993 192.000
28.84988 157.000
28.86983 181.000
28.88977 166.000
28.90972 159.000
28.92967 217.000
28.94961 176.000
28.96956 156.000
28.98951 170.000
29.00945 156.000
29.02940 156.000
29.04935 189.000
29.06930 180.000
29.08924 179.000
29.10919 175.000
29.12914 175.000
29.14908 181.000
29.16903 212.000
29.18898 170.000
29.20892 196.000
29.22887 209.000
29.24882 174.000
29.26877 164.000
29.28871 177.000
29.30866 175.000
29.32861 156.000
29.34855 175.000
29.36850 179.000
29.38845 187.000
29.40839 190.000
29.42834 193.000
29.44829 157.000
29.46823 141.000
29.48818 182.000
29.50813 182.000
29.52808 175.000
29.54802 180.000
29.56797 167.000
29.58792 162.000
29.60786 181.000
29.62781 180.000
29.64776 172.000
29.66770 195.000
29.68765 192.000
29.70760 179.000
29.72755 181.000
29.74749 176.000
29.76744 179.000
29.78739 218.000
29.80733 166.000
29.82728 196.000
29.84723 224.000
29.86717 236.000
29.88712 300.000
29.90707 398.000
29.92701 485.000
29.94696 516.000
29.96691 469.000
29.98686 386.000
30.00680 374.000
30.02675 343.000
30.04670 334.000
30.06664 232.000
30.08659 201.000
30.10654 211.000
30.12648 191.000
30.14643 196.000
30.16638 167.000
30.18633 171.000
30.20627 198.000
30.22622 161.000
30.24617 181.000
30.26611 172.000
30.28606 178.000
30.30601 163.000
30.32595 179.000
30.34590 202.000
30.36585 180.000
30.38579 185.000
30.40574 192.000
30.42569 193.000
30.44564 191.000
30.46558 162.000
30.48553 171.000
30.50548 178.000
30.52542 184.000
30.54537 173.000
30.56532 172.000
30.58526 181.000
30.60521 181.000
30.62516 184.000
30.64511 179.000
30.66505 185.000
30.68500 170.000
30.70495 174.000
30.72489 171.000
30.74484 181.000
30.76479 168.000
30.78473 180.000
30.80468 205.000
30.82463 197.000
30.84458 196.000
30.86452 195.000
30.88447 167.000
30.90442 180.000
30.92436 176.000
30.94431 174.000
30.96426 187.000
30.98420 174.000
31.00415 191.000
31.02410 170.000
31.04404 178.000
31.06399 192.000
31.08394 180.000
31.10389 187.000
31.12383 191.000
31.14378 194.000
31.16373 190.000
31.18367 180.000
31.20362 204.000
31.22357 181.000
31.24351 179.000
31.26346 205.000
31.28341 180.000
31.30336 183.000
31.32330 172.000
31.34325 197.000
31.36320 187.000
31.38314 193.000
31.40309 214.000
31.42304 197.000
31.44298 185.000
31.46293 176.000
31.48288 172.000
31.50282 226.000
31.52277 187.000
31.54272 180.000
31.56267 246.000
31.58261 178.000
31.60256 208.000
31.62251 245.000
31.64245 241.000
31.66240 276.000
31.68235 333.000
31.70229 342.000
31.72224 498.000
31.74219 749.000
31.76214 1017.000
31.78208 1047.000
31.80203 865.000
31.82198 724.000
31.84192 713.000
31.86187 701.000
31.88182 531.000
31.90176 418.000
31.92171 298.000
31.94166 264.000
31.96160 234.000
31.98155 207.000
32.00150 221.000
32.02145 206.000
32.04139 210.000
32.06134 209.000
32.08129 193.000
32.10123 210.000
32.12118 174.000
32.14113 180.000
32.16107 185.000
32.18102 169.000
32.20097 175.000
32.22092 157.000
32.24086 164.000
32.26081 203.000
32.28076 189.000
32.30070 201.000
32.32065 185.000
32.34060 188.000
32.36054 189.000
32.38049 202.000
32.40044 204.000
32.42039 177.000
32.44033 214.000
32.46028 209.000
32.48023 219.000
32.50017 257.000
32.52012 323.000
32.54007 297.000
32.56001 260.000
32.57996 255.000
32.59991 271.000
32.61985 225.000
32.63980 211.000
32.65975 179.000
32.67970 189.000
32.69964 181.000
32.71959 190.000
32.73954 188.000
32.75948 187.000
32.77943 188.000
32.79938 177.000
32.81932 171.000
32.83927 146.000
32.85922 204.000
32.87917 190.000
32.89911 188.000
32.91906 189.000
32.93901 182.000
32.95895 189.000
32.97890 192.000
32.99885 179.000
33.01879 179.000
33.03874 211.000
33.05869 180.000
33.07863 180.000
33.09858 205.000
33.11853 202.000
33.13848 181.000
33.15842 162.000
33.17837 190.000
33.19832 179.000
33.21826 169.000
33.23821 195.000
33.25816 198.000
33.27810 193.000
33.29805 181.000
33.31800 173.000
33.33795 177.000
33.35789 162.000
33.37784 183.000
33.39779 172.000
33.41773 174.000
33.43768 171.000
33.45763 177.000
33.47757 164.000
33.49752 173.000
33.51747 168.000
33.53741 187.000
33.55736 196.000
33.57731 176.000
33.59726 176.000
33.61720 179.000
33.63715 168.000
33.65710 174.000
33.67704 195.000
33.69699 162.000
33.71694 188.000
33.73688 173.000
33.75683 159.000
33.77678 150.000
33.79673 173.000
33.81667 198.000
33.83662 181.000
33.85657 184.000
33.87651 185.000
33.89646 198.000
33.91641 179.000
33.93635 187.000
33.95630 190.000
33.97625 189.000
33.99620 186.000
34.01614 171.000
34.03609 210.000
34.05604 198.000
34.07598 182.000
34.09593 175.000
34.11588 195.000
34.13582 181.000
34.15577 180.000
34.17572 187.000
34.19566 199.000
34.21561 167.000
34.23556 200.000
34.25551 202.000
34.27545 188.000
34.29540 212.000
34.31535 175.000
34.33529 199.000
34.35524 163.000
34.37519 201.000
34.39513 190.000
34.41508 206.000
34.43503 213.000
34.45498 207.000
34.47492 210.000
34.49487 202.000
34.51482 214.000
34.53476 191.000
34.55471 207.000
34.57466 209.000
34.59460 201.000
34.61455 209.000
34.63450 218.000
34.65444 220.000
34.67439 240.000
34.69434 206.000
34.71429 216.000
34.73423 219.000
34.75418 221.000
34.77413 214.000
34.79407 193.000
34.81402 222.000
34.83397 189.000
34.85391 223.000
34.87386 213.000
34.89381 229.000
34.91376 210.000
34.93370 188.000
34.95365 219.000
34.97360 210.000
34.99354 222.000
35.01349 211.000
35.03344 226.000
35.05338 241.000
35.07333 231.000
35.09328 262.000
35.11322 251.000
35.13317 304.000
35.15312 334.000
35.17307 414.000
35.19301 563.000
35.21296 695.000
35.23291 995.000
35.25285 1130.000
35.27280 1350.000
35.29275 1276.000
35.31269 1159.000
35.33264 1004.000
35.35259 1012.000
35.37254 1012.000
35.39248 993.000
35.41243 1141.000
35.43238 1445.000
35.45232 1595.000
35.47227 1499.000
35.49222 1557.000
35.51216 1924.000
35.53211 2226.000
35.55206 2048.000
35.57201 1672.000
35.59195 1417.000
35.61190 1273.000
35.63185 1190.000
35.65179 979.000
35.67174 750.000
35.69169 541.000
35.71163 457.000
35.73158 349.000
35.75153 303.000
35.77147 277.000
35.79142 261.000
35.81137 253.000
35.83132 255.000
35.85126 234.000
35.87121 226.000
35.89116 221.000
35.91110 215.000
35.93105 218.000
35.95100 211.000
35.97094 183.000
35.99089 216.000
36.01084 220.000
36.03079 197.000
36.05073 169.000
36.07068 202.000
36.09063 199.000
36.11057 216.000
36.13052 193.000
36.15047 200.000
36.17041 233.000
36.19036 197.000
36.21031 214.000
36.23025 204.000
36.25020 183.000
36.27015 183.000
36.29010 195.000
36.31004 188.000
36.32999 223.000
36.34994 262.000
36.36988 274.000
36.38983 236.000
36.40978 250.000
36.42972 248.000
36.44967 227.000
36.46962 257.000
36.48957 230.000
36.50951 215.000
36.52946 210.000
36.54941 220.000
36.56935 198.000
36.58930 221.000
36.60925 181.000
36.62919 214.000
36.64914 214.000
36.66909 224.000
36.68903 184.000
36.70898 210.000
36.72893 186.000
36.74888 218.000
36.76882 208.000
36.78877 200.000
36.80872 216.000
36.82866 218.000
36.84861 231.000
36.86856 266.000
36.88850 296.000
36.90845 314.000
36.92840 238.000
36.94835 243.000
36.96829 267.000
36.98824 212.000
37.00819 230.000
37.02813 214.000
37.04808 210.000
37.06803 188.000
37.08797 163.000
37.10792 188.000
37.12787 174.000
37.14781 172.000
37.16776 181.000
37.18771 193.000
37.20766 197.000
37.22760 206.000
37.24755 175.000
37.26750 167.000
37.28744 193.000
37.30739 162.000
37.32734 200.000
37.34728 197.000
37.36723 195.000
37.38718 169.000
37.40713 192.000
37.42707 188.000
37.44702 193.000
37.46697 208.000
37.48691 182.000
37.50686 185.000
37.52681 199.000
37.54675 178.000
37.56670 186.000
37.58665 199.000
37.60660 177.000
37.62654 190.000
37.64649 177.000
37.66644 191.000
37.68638 163.000
37.70633 185.000
37.72628 185.000
37.74622 175.000
37.76617 202.000
37.78612 220.000
37.80606 171.000
37.82601 178.000
37.84596 210.000
37.86591 173.000
37.88585 211.000
37.90580 191.000
37.92575 196.000
37.94569 213.000
37.96564 197.000
37.98559 195.000
38.00553 179.000
38.02548 191.000
38.04543 188.000
38.06538 221.000
38.08532 169.000
38.10527 212.000
38.12522 230.000
38.14516 217.000
38.16511 239.000
38.18506 189.000
38.20500 206.000
38.22495 209.000
38.24490 214.000
38.26484 207.000
38.28479 189.000
38.30474 220.000
38.32469 209.000
38.34463 215.000
38.36458 231.000
38.38453 230.000
38.40447 250.000
38.42442 237.000
38.44437 210.000
38.46431 261.000
38.48426 242.000
38.50421 245.000
38.52416 269.000
38.54410 291.000
38.56405 302.000
38.58400 350.000
38.60394 382.000
38.62389 457.000
38.64384 525.000
38.66378 631.000
38.68373 810.000
38.70368 1105.000
38.72362 1395.000
38.74357 1496.000
38.76352 1241.000
38.78347 1083.000
38.80341 1076.000
38.82336 1111.000
38.84331 1156.000
38.86325 1083.000
38.88320 974.000
38.90315 951.000
38.92309 987.000
38.94304 1000.000
38.96299 1113.000
38.98294 1411.000
39.00288 1756.000
39.02283 1770.000
39.04278 1689.000
39.06272 1596.000
39.08267 1454.000
39.10262 1360.000
39.12256 1270.000
39.14251 1102.000
39.16246 874.000
39.18241 708.000
39.20235 598.000
39.22230 491.000
39.24225 425.000
39.26219 383.000
39.28214 373.000
39.30209 271.000
39.32203 271.000
39.34198 270.000
39.36193 276.000
39.38187 242.000
39.40182 263.000
39.42177 245.000
39.44172 226.000
39.46166 201.000
39.48161 219.000
39.50156 239.000
39.52150 191.000
39.54145 232.000
39.56140 196.000
39.58134 198.000
39.60129 214.000
39.62124 192.000
39.64119 180.000
39.66113 216.000
39.68108 168.000
39.70103 202.000
39.72097 201.000
39.74092 187.000
39.76087 196.000
39.78081 203.000
39.80076 216.000
39.82071 185.000
39.84065 189.000
39.86060 185.000
39.88055 212.000
39.90050 174.000
39.92044 200.000
39.94039 198.000
39.96034 186.000
39.98028 200.000
40.00023 208.000
40.02018 206.000
40.04012 212.000
40.06007 171.000
40.08002 166.000
40.09997 172.000
40.11991 183.000
40.13986 200.000
40.15981 183.000
40.17975 170.000
40.19970 183.000
40.21965 179.000
40.23959 204.000
40.25954 163.000
40.27949 152.000
40.29943 185.000
40.31938 191.000
40.33933 177.000
40.35928 193.000
40.37922 187.000
40.39917 187.000
40.41912 160.000
40.43906 189.000
40.45901 188.000
40.47896 167.000
40.49890 189.000
40.51885 176.000
40.53880 148.000
40.55875 197.000
40.57869 187.000
40.59864 189.000
40.61859 189.000
40.63853 186.000
40.65848 168.000
40.67843 137.000
40.69837 215.000
40.71832 205.000
40.73827 182.000
40.75822 189.000
40.77816 200.000
40.79811 195.000
40.81806 187.000
40.83800 157.000
40.85795 183.000
40.87790 181.000
40.89784 185.000
40.91779 163.000
40.93774 189.000
40.95768 207.000
40.97763 172.000
40.99758 164.000
41.01753 199.000
41.03747 200.000
41.05742 181.000
41.07737 174.000
41.09731 200.000
41.11726 187.000
41.13721 190.000
41.15715 184.000
41.17710 189.000
41.19705 199.000
41.21700 188.000
41.23694 173.000
41.25689 183.000
41.27684 217.000
41.29678 181.000
41.31673 179.000
41.33668 165.000
41.35662 188.000
41.37657 201.000
41.39652 192.000
41.41646 180.000
41.43641 195.000
41.45636 200.000
41.47631 171.000
41.49625 171.000
41.51620 195.000
41.53615 166.000
41.55609 178.000
41.57604 204.000
41.59599 188.000
41.61593 159.000
41.63588 197.000
41.65583 163.000
41.67578 173.000
41.69572 204.000
41.71567 178.000
41.73562 177.000
41.75556 174.000
41.77551 164.000
41.79546 182.000
41.81540 181.000
41.83535 164.000
41.85530 156.000
41.87524 155.000
41.89519 154.000
41.91514 160.000
41.93509 166.000
41.95503 168.000
41.97498 161.000
41.99493 175.000
42.01487 185.000
42.03482 187.000
42.05477 157.000
42.07471 163.000
42.09466 168.000
42.11461 188.000
42.13456 167.000
42.15450 197.000
42.17445 176.000
42.19440 189.000
42.21434 184.000
42.23429 183.000
42.25424 148.000
42.27418 172.000
42.29413 181.000
42.31408 165.000
42.33403 166.000
42.35397 171.000
42.37392 167.000
42.39387 184.000
42.41381 173.000
42.43376 186.000
42.45371 180.000
42.47365 202.000
42.49360 198.000
42.51355 201.000
42.53349 205.000
42.55344 180.000
42.57339 194.000
42.59334 197.000
42.61328 177.000
42.63323 207.000
42.65318 204.000
42.67312 200.000
42.69307 216.000
42.71302 203.000
42.73296 214.000
42.75291 242.000
42.77286 240.000
42.79281 293.000
42.81275 339.000
42.83270 369.000
42.85265 436.000
42.87259 375.000
42.89254 380.000
42.91249 365.000
42.93243 390.000
42.95238 379.000
42.97233 398.000
42.99227 388.000
43.01222 410.000
43.03217 431.000
43.05212 479.000
43.07206 635.000
43.09201 676.000
43.11196 732.000
43.13190 688.000
43.15185 661.000
43.17180 597.000
43.19174 583.000
43.21169 552.000
43.23164 519.000
43.25159 448.000
43.27153 379.000
43.29148 338.000
43.31143 307.000
43.33137 275.000
43.35132 266.000
43.37127 261.000
43.39121 246.000
43.41116 219.000
43.43111 187.000
43.45105 214.000
43.47100 210.000
43.49095 192.000
43.51090 196.000
43.53084 166.000
43.55079 190.000
43.57074 182.000
43.59068 176.000
43.61063 200.000
43.63058 215.000
43.65052 183.000
43.67047 174.000
43.69042 184.000
43.71037 172.000
43.73031 157.000
43.75026 178.000
43.77021 200.000
43.79015 165.000
43.81010 203.000
43.83005 162.000
43.84999 201.000
43.86994 186.000
43.88989 180.000
43.90984 186.000
43.92978 161.000
43.94973 162.000
43.96968 179.000
43.98962 195.000
44.00957 182.000
44.02952 159.000
44.04946 163.000
44.06941 186.000
44.08936 171.000
44.10930 173.000
44.12925 184.000
44.14920 193.000
44.16915 182.000
44.18909 195.000
44.20904 174.000
44.22899 158.000
44.24893 181.000
44.26888 196.000
44.28883 172.000
44.30877 166.000
44.32872 173.000
44.34867 206.000
44.36862 187.000
44.38856 184.000
44.40851 186.000
44.42846 185.000
44.44840 195.000
44.46835 170.000
44.48830 165.000
44.50824 158.000
44.52819 182.000
44.54814 198.000
44.56808 159.000
44.58803 185.000
44.60798 187.000
44.62793 170.000
44.64787 183.000
44.66782 164.000
44.68777 175.000
44.70771 176.000
44.72766 177.000
44.74761 173.000
44.76755 155.000
44.78750 161.000
44.80745 143.000
44.82740 189.000
44.84734 182.000
44.86729 195.000
44.88724 170.000
44.90718 171.000
44.92713 175.000
44.94708 184.000
44.96702 136.000
44.98697 159.000
45.00692 181.000
45.02686 157.000
45.04681 184.000
45.06676 157.000
45.08671 182.000
45.10665 166.000
45.12660 148.000
45.14655 186.000
45.16649 156.000
45.18644 178.000
45.20639 177.000
45.22633 194.000
45.24628 150.000
45.26623 160.000
45.28618 158.000
45.30612 167.000
45.32607 210.000
45.34602 155.000
45.36596 165.000
45.38591 168.000
45.40586 177.000
45.42580 161.000
45.44575 157.000
45.46570 192.000
45.48565 170.000
45.50559 202.000
45.52554 169.000
45.54549 165.000
45.56543 172.000
45.58538 173.000
45.60533 202.000
45.62527 183.000
45.64522 177.000
45.66517 160.000
45.68511 189.000
45.70506 172.000
45.72501 167.000
45.74496 192.000
45.76490 149.000
45.78485 164.000
45.80480 158.000
45.82474 150.000
45.84469 179.000
45.86464 175.000
45.88458 168.000
45.90453 197.000
45.92448 190.000
45.94443 169.000
45.96437 161.000
45.98432 162.000
46.00427 183.000
46.02421 202.000
46.04416 163.000
46.06411 179.000
46.08405 180.000
46.10400 169.000
46.12395 178.000
46.14389 205.000
46.16384 202.000
46.18379 207.000
46.20374 187.000
46.22368 196.000
46.24363 218.000
46.26358 206.000
46.28352 179.000
46.30347 191.000
46.32342 200.000
46.34336 217.000
46.36331 186.000
46.38326 176.000
46.40321 181.000
46.42315 204.000
46.44310 180.000
46.46305 181.000
46.48299 159.000
46.50294 208.000
46.52289 195.000
46.54283 160.000
46.56278 191.000
46.58273 205.000
46.60267 196.000
46.62262 188.000
46.64257 172.000
46.66252 178.000
46.68246 176.000
46.70241 188.000
46.72236 176.000
46.74230 196.000
46.76225 176.000
46.78220 192.000
46.80214 197.000
46.82209 170.000
46.84204 191.000
46.86199 197.000
46.88193 168.000
46.90188 201.000
46.92183 192.000
46.94177 163.000
46.96172 172.000
46.98167 183.000
47.00161 153.000
47.02156 181.000
47.04151 158.000
47.06146 171.000
47.08140 176.000
47.10135 161.000
47.12130 184.000
47.14124 169.000
47.16119 207.000
47.18114 181.000
47.20108 185.000
47.22103 170.000
47.24098 174.000
47.26092 163.000
47.28087 194.000
47.30082 189.000
47.32077 165.000
47.34071 183.000
47.36066 168.000
47.38061 170.000
47.40055 161.000
47.42050 192.000
47.44045 202.000
47.46039 184.000
47.48034 173.000
47.50029 174.000
47.52024 194.000
47.54018 174.000
47.56013 170.000
47.58008 192.000
47.60002 160.000
47.61997 178.000
47.63992 175.000
47.65986 161.000
47.67981 179.000
47.69976 205.000
47.71970 192.000
47.73965 187.000
47.75960 193.000
47.77955 205.000
47.79949 214.000
47.81944 167.000
47.83939 212.000
47.85933 233.000
47.87928 194.000
47.89923 183.000
47.91917 216.000
47.93912 195.000
47.95907 207.000
47.97902 208.000
47.99896 212.000
48.01891 228.000
48.03886 236.000
48.05880 235.000
48.07875 257.000
48.09870 282.000
48.11864 259.000
48.13859 273.000
48.15854 301.000
48.17848 321.000
48.19843 390.000
48.21838 376.000
48.23833 475.000
48.25827 512.000
48.27822 600.000
48.29817 807.000
48.31811 962.000
48.33806 1269.000
48.35801 1402.000
48.37795 1456.000
48.39790 1215.000
48.41785 1103.000
48.43780 1035.000
48.45774 1023.000
48.47769 1048.000
48.49764 963.000
48.51758 940.000
48.53753 774.000
48.55748 657.000
48.57742 637.000
48.59737 491.000
48.61732 482.000
48.63726 509.000
48.65721 526.000
48.67716 593.000
48.69711 652.000
48.71705 530.000
48.73700 519.000
48.75695 429.000
48.77689 420.000
48.79684 431.000
48.81679 439.000
48.83673 403.000
48.85668 364.000
48.87663 312.000
48.89658 253.000
48.91652 260.000
48.93647 232.000
48.95642 221.000
48.97636 222.000
48.99631 213.000
49.01626 209.000
49.03620 228.000
49.05615 217.000
49.07610 187.000
49.09605 206.000
49.11599 194.000
49.13594 187.000
49.15589 168.000
49.17583 187.000
49.19578 180.000
49.21573 181.000
49.23567 186.000
49.25562 192.000
49.27557 182.000
49.29551 188.000
49.31546 170.000
49.33541 186.000
49.35536 184.000
49.37530 182.000
49.39525 191.000
49.41520 171.000
49.43514 179.000
49.45509 189.000
49.47504 180.000
49.49498 153.000
49.51493 155.000
49.53488 210.000
49.55483 183.000
49.57477 160.000
49.59472 184.000
49.61467 197.000
49.63461 190.000
49.65456 170.000
49.67451 191.000
49.69445 143.000
49.71440 183.000
49.73435 188.000
49.75429 178.000
49.77424 185.000
49.79419 197.000
49.81414 179.000
49.83408 198.000
49.85403 175.000
49.87398 166.000
49.89392 162.000
49.91387 166.000
49.93382 169.000
49.95376 165.000
49.97371 164.000
49.99366 168.000
50.01361 167.000
50.03355 192.000
50.05350 162.000
50.07345 157.000
50.09339 199.000
50.11334 175.000
50.13329 190.000
50.15323 169.000
50.17318 168.000
50.19313 180.000
50.21307 173.000
50.23302 187.000
50.25297 167.000
50.27292 169.000
50.29286 176.000
50.31281 172.000
50.33276 173.000
50.35270 187.000
50.37265 168.000
50.39260 163.000
50.41254 156.000
50.43249 187.000
50.45244 180.000
50.47239 162.000
50.49233 152.000
50.51228 184.000
50.53223 163.000
50.55217 190.000
50.57212 172.000
50.59207 164.000
50.61201 186.000
50.63196 165.000
50.65191 181.000
50.67186 167.000
50.69180 182.000
50.71175 178.000
50.73170 197.000
50.75164 143.000
50.77159 176.000
50.79154 161.000
50.81148 188.000
50.83143 137.000
50.85138 178.000
50.87132 163.000
50.89127 181.000
50.91122 171.000
50.93117 163.000
50.95111 173.000
50.97106 175.000
50.99101 180.000
51.01095 178.000
51.03090 191.000
51.05085 145.000
51.07079 163.000
51.09074 182.000
51.11069 165.000
51.13064 152.000
51.15058 165.000
51.17053 168.000
51.19048 181.000
51.21042 163.000
51.23037 185.000
51.25032 183.000
51.27026 193.000
51.29021 170.000
51.31016 185.000
51.33010 165.000
51.35005 186.000
51.37000 157.000
51.38995 185.000
51.40989 172.000
51.42984 198.000
51.44979 187.000
51.46973 171.000
51.48968 183.000
51.50963 186.000
51.52957 165.000
51.54952 181.000
51.56947 184.000
51.58942 168.000
51.60936 170.000
51.62931 161.000
51.64926 174.000
51.66920 174.000
51.68915 164.000
51.70910 177.000
51.72904 159.000
51.74899 173.000
51.76894 173.000
51.78888 183.000
51.80883 168.000
51.82878 175.000
51.84873 162.000
51.86867 192.000
51.88862 184.000
51.90857 159.000
51.92851 204.000
51.94846 192.000
51.96841 180.000
51.98835 180.000
52.00830 189.000
52.02825 155.000
52.04820 161.000
52.06814 193.000
52.08809 170.000
52.10804 177.000
52.12798 172.000
52.14793 185.000
52.16788 186.000
52.18782 196.000
52.20777 161.000
52.22772 154.000
52.24767 156.000
52.26761 156.000
52.28756 160.000
52.30751 174.000
52.32745 156.000
52.34740 181.000
52.36735 204.000
52.38729 179.000
52.40724 185.000
52.42719 174.000
52.44713 159.000
52.46708 178.000
52.48703 174.000
52.50698 174.000
52.52692 179.000
52.54687 179.000
52.56682 162.000
52.58676 169.000
52.60671 143.000
52.62666 187.000
52.64660 192.000
52.66655 167.000
52.68650 185.000
52.70645 164.000
52.72639 164.000
52.74634 156.000
52.76629 156.000
52.78623 182.000
52.80618 187.000
52.82613 161.000
52.84607 180.000
52.86602 162.000
52.88597 179.000
52.90591 165.000
52.92586 181.000
52.94581 168.000
52.96576 189.000
52.98570 175.000
53.00565 169.000
53.02560 182.000
53.04554 189.000
53.06549 195.000
53.08544 190.000
53.10538 215.000
53.12533 230.000
53.14528 233.000
53.16523 214.000
53.18517 255.000
53.20512 220.000
53.22507 209.000
53.24501 199.000
53.26496 213.000
53.28491 213.000
53.30485 222.000
53.32480 197.000
53.34475 217.000
53.36469 220.000
53.38464 219.000
53.40459 200.000
53.42454 220.000
53.44448 225.000
53.46443 225.000
53.48438 227.000
53.50432 249.000
53.52427 211.000
53.54422 256.000
53.56416 236.000
53.58411 226.000
53.60406 225.000
53.62401 241.000
53.64395 219.000
53.66390 225.000
53.68385 215.000
53.70379 200.000
53.72374 211.000
53.74369 190.000
53.76363 188.000
53.78358 200.000
53.80353 232.000
53.82348 157.000
53.84342 181.000
53.86337 191.000
53.88332 193.000
53.90326 182.000
53.92321 172.000
53.94316 157.000
53.96310 160.000
53.98305 168.000
54.00300 186.000
54.02294 175.000
54.04289 176.000
54.06284 196.000
54.08279 173.000
54.10273 162.000
54.12268 173.000
54.14263 165.000
54.16257 176.000
54.18252 185.000
54.20247 157.000
54.22241 152.000
54.24236 172.000
54.26231 162.000
54.28226 152.000
54.30220 168.000
54.32215 187.000
54.34210 176.000
54.36204 163.000
54.38199 159.000
54.40194 162.000
54.42188 156.000
54.44183 171.000
54.46178 172.000
54.48172 169.000
54.50167 190.000
54.52162 160.000
54.54157 190.000
54.56151 152.000
54.58146 193.000
54.60141 163.000
54.62135 176.000
54.64130 186.000
54.66125 158.000
54.68119 165.000
54.70114 176.000
54.72109 155.000
54.74104 177.000
54.76098 180.000
54.78093 186.000
54.80088 164.000
54.82082 173.000
54.84077 156.000
54.86072 166.000
54.88066 154.000
54.90061 191.000
54.92056 156.000
54.94050 162.000
54.96045 184.000
54.98040 168.000
55.00035 172.000
55.02029 176.000
55.04024 144.000
55.06019 157.000
55.08013 164.000
55.10008 157.000
55.12003 151.000
55.13997 173.000
55.15992 156.000
55.17987 173.000
55.19982 166.000
55.21976 176.000
55.23971 176.000
55.25966 184.000
55.27960 162.000
55.29955 162.000
55.31950 175.000
55.33944 182.000
55.35939 154.000
55.37934 158.000
55.39929 173.000
55.41923 162.000
55.43918 174.000
55.45913 168.000
55.47907 162.000
55.49902 170.000
55.51897 180.000
55.53891 188.000
55.55886 168.000
55.57881 199.000
55.59875 164.000
55.61870 174.000
55.63865 170.000
55.65860 158.000
55.67854 178.000
55.69849 170.000
55.71844 183.000
55.73838 174.000
55.75833 172.000
55.77828 202.000
55.79822 158.000
55.81817 181.000
55.83812 173.000
55.85807 165.000
55.87801 167.000
55.89796 173.000
55.91791 180.000
55.93785 156.000
55.95780 176.000
55.97775 196.000
55.99769 171.000
56.01764 162.000
56.03759 169.000
56.05753 185.000
56.07748 157.000
56.09743 169.000
56.11738 182.000
56.13732 157.000
56.15727 170.000
56.17722 177.000
56.19716 171.000
56.21711 163.000
56.23706 180.000
56.25700 157.000
56.27695 181.000
56.29690 155.000
56.31685 170.000
56.33679 170.000
56.35674 195.000
56.37669 220.000
56.39663 182.000
56.41658 164.000
56.43653 188.000
56.45647 178.000
56.47642 191.000
56.49637 188.000
56.51631 197.000
56.53626 189.000
56.55621 250.000
56.57616 287.000
56.59610 269.000
56.61605 260.000
56.63600 337.000
56.65594 347.000
56.67589 378.000
56.69584 331.000
56.71578 345.000
56.73573 358.000
56.75568 323.000
56.77563 335.000
56.79557 282.000
56.81552 308.000
56.83547 300.000
56.85541 275.000
56.87536 266.000
56.89531 241.000
56.91525 243.000
56.93520 215.000
56.95515 213.000
56.97510 205.000
56.99504 232.000
57.01499 183.000
57.03494 187.000
57.05488 171.000
57.07483 161.000
57.09478 169.000
57.11472 187.000
57.13467 162.000
57.15462 180.000
57.17456 163.000
57.19451 184.000
57.21446 176.000
57.23441 180.000
57.25435 167.000
57.27430 149.000
57.29425 167.000
57.31419 187.000
57.33414 162.000
57.35409 160.000
57.37403 190.000
57.39398 167.000
57.41393 135.000
57.43388 168.000
57.45382 189.000
57.47377 163.000
57.49372 192.000
57.51366 150.000
57.53361 181.000
57.55356 189.000
57.57350 184.000
57.59345 181.000
57.61340 155.000
57.63334 159.000
57.65329 168.000
57.67324 164.000
57.69319 175.000
57.71313 161.000
57.73308 149.000
57.75303 175.000
57.77297 177.000
57.79292 174.000
57.81287 177.000
57.83281 166.000
57.85276 179.000
57.87271 206.000
57.89266 162.000
57.91260 155.000
57.93255 191.000
57.95250 179.000
57.97244 179.000
57.99239 185.000
58.01234 173.000
58.03228 190.000
58.05223 181.000
58.07218 176.000
58.09212 179.000
58.11207 182.000
58.13202 196.000
58.15197 202.000
58.17191 224.000
58.19186 215.000
58.21181 229.000
58.23175 233.000
58.25170 295.000
58.27165 264.000
58.29159 300.000
58.31154 330.000
58.33149 309.000
58.35144 275.000
58.37138 261.000
58.39133 211.000
58.41128 239.000
58.43122 252.000
58.45117 260.000
58.47112 224.000
58.49106 236.000
58.51101 222.000
58.53096 226.000
58.55090 199.000
58.57085 177.000
58.59080 210.000
58.61075 189.000
58.63069 190.000
58.65064 179.000
58.67059 160.000
58.69053 178.000
58.71048 181.000
58.73043 199.000
58.75037 177.000
58.77032 174.000
58.79027 171.000
58.81022 166.000
58.83016 159.000
58.85011 144.000
58.87006 178.000
58.89000 160.000
58.90995 184.000
58.92990 153.000
58.94984 151.000
58.96979 159.000
58.98974 167.000
59.00969 162.000
59.02963 173.000
59.04958 162.000
59.06953 179.000
59.08947 190.000
59.10942 180.000
59.12937 183.000
59.14931 174.000
59.16926 163.000
59.18921 181.000
59.20915 170.000
59.22910 163.000
59.24905 158.000
59.26900 159.000
59.28894 206.000
59.30889 139.000
59.32884 165.000
59.34878 160.000
59.36873 173.000
59.38868 199.000
59.40862 182.000
59.42857 172.000
59.44852 170.000
59.46847 177.000
59.48841 194.000
59.50836 168.000
59.52831 158.000
59.54825 183.000
59.56820 198.000
59.58815 164.000
59.60809 180.000
59.62804 178.000
59.64799 169.000
59.66793 157.000
59.68788 163.000
59.70783 181.000
59.72778 159.000
59.74772 176.000
59.76767 171.000
59.78762 175.000
59.80756 187.000
59.82751 153.000
59.84746 184.000
59.86740 171.000
59.88735 186.000
59.90730 178.000
59.92725 169.000
59.94719 142.000
59.96714 166.000
59.98709 161.000
60.00703 202.000
60.02698 178.000
60.04693 190.000
60.06687 188.000
60.08682 163.000
60.10677 172.000
60.12671 166.000
60.14666 191.000
60.16661 178.000
60.18656 179.000
60.20650 195.000
60.22645 158.000
60.24640 171.000
60.26634 180.000
60.28629 179.000
60.30624 151.000
60.32618 195.000
60.34613 164.000
60.36608 182.000
60.38603 173.000
60.40597 174.000
60.42592 171.000
60.44587 175.000
60.46581 174.000
60.48576 184.000
60.50571 177.000
60.52565 174.000
60.54560 153.000
60.56555 189.000
60.58550 177.000
60.60544 186.000
60.62539 173.000
60.64534 179.000
60.66528 176.000
60.68523 174.000
60.70518 179.000
60.72512 169.000
60.74507 158.000
60.76502 185.000
60.78496 188.000
60.80491 186.000
60.82486 186.000
60.84481 175.000
60.86475 183.000
60.88470 177.000
60.90465 215.000
60.92459 186.000
60.94454 208.000
60.96449 181.000
60.98443 172.000
61.00438 203.000
61.02433 177.000
61.04428 207.000
61.06422 186.000
61.08417 189.000
61.10412 225.000
61.12406 184.000
61.14401 207.000
61.16396 208.000
61.18390 226.000
61.20385 189.000
61.22380 223.000
61.24374 222.000
61.26369 257.000
61.28364 265.000
61.30359 308.000
61.32353 256.000
61.34348 300.000
61.36343 297.000
61.38337 344.000
61.40332 385.000
61.42327 431.000
61.44321 513.000
61.46316 570.000
61.48311 714.000
61.50306 758.000
61.52300 887.000
61.54295 804.000
61.56290 776.000
61.58284 634.000
61.60279 610.000
61.62274 591.000
61.64268 551.000
61.66263 626.000
61.68258 617.000
61.70252 575.000
61.72247 571.000
61.74242 450.000
61.76237 408.000
61.78231 379.000
61.80226 329.000
61.82221 292.000
61.84215 328.000
61.86210 270.000
61.88205 281.000
61.90199 242.000
61.92194 254.000
61.94189 206.000
61.96184 241.000
61.98178 211.000
62.00173 243.000
62.02168 237.000
62.04162 198.000
62.06157 247.000
62.08152 217.000
62.10146 287.000
62.12141 302.000
62.14136 313.000
62.16131 390.000
62.18125 362.000
62.20120 407.000
62.22115 432.000
62.24109 452.000
62.26104 458.000
62.28099 405.000
62.30093 369.000
62.32088 375.000
62.34083 312.000
62.36077 361.000
62.38072 286.000
62.40067 339.000
62.42062 301.000
62.44056 312.000
62.46051 297.000
62.48046 248.000
62.50040 218.000
62.52035 204.000
62.54030 221.000
62.56024 209.000
62.58019 211.000
62.60014 205.000
62.62009 212.000
62.64003 186.000
62.65998 176.000
62.67993 182.000
62.69987 226.000
62.71982 201.000
62.73977 186.000
62.75971 180.000
62.77966 172.000
62.79961 198.000
62.81955 197.000
62.83950 188.000
62.85945 169.000
62.87940 186.000
62.89934 203.000
62.91929 177.000
62.93924 167.000
62.95918 199.000
62.97913 187.000
62.99908 191.000
63.01902 190.000
63.03897 158.000
63.05892 202.000
63.07887 183.000
63.09881 178.000
63.11876 186.000
63.13871 189.000
63.15865 187.000
63.17860 206.000
63.19855 186.000
63.21849 191.000
63.23844 193.000
63.25839 191.000
63.27833 230.000
63.29828 192.000
63.31823 173.000
63.33818 207.000
63.35812 202.000
63.37807 203.000
63.39802 200.000
63.41796 199.000
63.43791 205.000
63.45786 202.000
63.47780 201.000
63.49775 215.000
63.51770 247.000
63.53765 231.000
63.55759 236.000
63.57754 280.000
63.59749 314.000
63.61743 359.000
63.63738 396.000
63.65733 396.000
63.67727 474.000
63.69722 488.000
63.71717 476.000
63.73712 486.000
63.75706 465.000
63.77701 454.000
63.79696 438.000
63.81690 443.000
63.83685 405.000
63.85680 440.000
63.87674 375.000
63.89669 391.000
63.91664 359.000
63.93658 359.000
63.95653 305.000
63.97648 287.000
63.99643 250.000
64.01637 271.000
64.03632 258.000
64.05627 248.000
64.07621 232.000
64.09616 234.000
64.11611 229.000
64.13605 194.000
64.15600 215.000
64.17595 193.000
64.19590 179.000
64.21584 198.000
64.23579 200.000
64.25574 168.000
64.27568 184.000
64.29563 198.000
64.31558 184.000
64.33552 211.000
64.35547 207.000
64.37542 199.000
64.39536 181.000
64.41531 206.000
64.43526 182.000
64.45521 173.000
64.47515 195.000
64.49510 186.000
64.51505 186.000
64.53499 166.000
64.55494 190.000
64.57489 162.000
64.59483 179.000
64.61478 172.000
64.63473 208.000
64.65468 198.000
64.67462 188.000
64.69457 175.000
64.71452 162.000
64.73446 189.000
64.75441 180.000
64.77436 202.000
64.79430 169.000
64.81425 200.000
64.83420 194.000
64.85414 172.000
64.87409 170.000
64.89404 175.000
64.91399 159.000
64.93393 195.000
64.95388 191.000
64.97383 173.000
64.99377 166.000
65.01372 191.000
65.03367 162.000
65.05361 188.000
65.07356 149.000
65.09351 156.000
65.11346 182.000
65.13340 161.000
65.15335 172.000
65.17330 175.000
65.19324 195.000
65.21319 171.000
65.23314 168.000
65.25308 167.000
65.27303 190.000
65.29298 192.000
65.31293 178.000
65.33287 192.000
65.35282 200.000
65.37277 183.000
65.39271 197.000
65.41266 217.000
65.43261 186.000
65.45255 200.000
65.47250 208.000
65.49245 210.000
65.51239 216.000
65.53234 197.000
65.55229 209.000
65.57224 203.000
65.59218 202.000
65.61213 193.000
65.63208 213.000
65.65202 209.000
65.67197 210.000
65.69192 207.000
65.71186 235.000
65.73181 213.000
65.75176 252.000
65.77171 270.000
65.79165 282.000
65.81160 309.000
65.83155 280.000
65.85149 333.000
65.87144 309.000
65.89139 271.000
65.91133 304.000
65.93128 325.000
65.95123 319.000
65.97117 342.000
65.99112 380.000
66.01107 427.000
66.03102 439.000
66.05096 450.000
66.07091 465.000
66.09086 473.000
66.11080 489.000
66.13075 518.000
66.15070 497.000
66.17064 539.000
66.19059 483.000
66.21054 508.000
66.23049 523.000
66.25043 475.000
66.27038 501.000
66.29033 419.000
66.31027 414.000
66.33022 407.000
66.35017 425.000
66.37011 396.000
66.39006 399.000
66.41001 402.000
66.42995 392.000
66.44990 314.000
66.46985 296.000
66.48980 274.000
66.50974 267.000
66.52969 273.000
66.54964 241.000
66.56958 261.000
66.58953 231.000
66.60948 238.000
66.62942 208.000
66.64937 197.000
66.66932 211.000
66.68927 182.000
66.70921 183.000
66.72916 182.000
66.74911 207.000
66.76905 184.000
66.78900 213.000
66.80895 204.000
66.82889 180.000
66.84884 187.000
66.86879 182.000
66.88874 167.000
66.90868 171.000
66.92863 177.000
66.94858 167.000
66.96852 179.000
66.98847 183.000
67.00842 171.000
67.02836 180.000
67.04831 177.000
67.06826 184.000
67.08820 180.000
67.10815 161.000
67.12810 170.000
67.14805 211.000
67.16799 195.000
67.18794 195.000
67.20789 186.000
67.22783 174.000
67.24778 172.000
67.26773 177.000
67.28767 178.000
67.30762 188.000
67.32757 191.000
67.34752 180.000
67.36746 154.000
67.38741 182.000
67.40736 184.000
67.42730 197.000
67.44725 203.000
67.46720 198.000
67.48714 160.000
67.50709 167.000
67.52704 176.000
67.54698 179.000
67.56693 179.000
67.58688 202.000
67.60683 200.000
67.62677 182.000
67.64672 175.000
67.66667 192.000
67.68661 202.000
67.70656 190.000
67.72651 186.000
67.74645 201.000
67.76640 204.000
67.78635 186.000
67.80630 183.000
67.82624 185.000
67.84619 199.000
67.86614 222.000
67.88608 223.000
67.90603 267.000
67.92598 244.000
67.94592 248.000
67.96587 260.000
67.98582 245.000
68.00576 261.000
68.02571 264.000
68.04566 279.000
68.06561 303.000
68.08555 283.000
68.10550 328.000
68.12545 323.000
68.14539 306.000
68.16534 299.000
68.18529 294.000
68.20523 247.000
68.22518 255.000
68.24513 224.000
68.26508 256.000
68.28502 226.000
68.30497 270.000
68.32492 279.000
68.34486 249.000
68.36481 237.000
68.38476 188.000
68.40470 199.000
68.42465 215.000
68.44460 203.000
68.46455 214.000
68.48449 202.000
68.50444 175.000
68.52439 174.000
68.54433 205.000
68.56428 188.000
68.58423 162.000
68.60417 160.000
68.62412 180.000
68.64407 162.000
68.66401 144.000
68.68396 175.000
68.70391 204.000
68.72386 173.000
68.74380 191.000
68.76375 180.000
68.78370 179.000
68.80364 171.000
68.82359 189.000
68.84354 185.000
68.86348 159.000
68.88343 186.000
68.90338 169.000
68.92333 202.000
68.94327 169.000
68.96322 196.000
68.98317 178.000
69.00311 157.000
69.02306 177.000
69.04301 158.000
69.06295 162.000
69.08290 169.000
69.10285 170.000
69.12279 175.000
69.14274 170.000
69.16269 166.000
69.18264 195.000
69.20258 176.000
69.22253 190.000
69.24248 163.000
69.26242 160.000
69.28237 162.000
69.30232 166.000
69.32226 178.000
69.34221 157.000
69.36216 163.000
69.38211 175.000
69.40205 173.000
69.42200 183.000
69.44195 167.000
69.46189 177.000
69.48184 176.000
69.50179 172.000
69.52173 167.000
69.54168 191.000
69.56163 164.000
69.58157 180.000
69.60152 164.000
69.62147 171.000
69.64142 188.000
69.66136 154.000
69.68131 143.000
69.70126 158.000
69.72120 172.000
69.74115 180.000
69.76110 153.000
69.78104 184.000
69.80099 180.000
69.82094 172.000
69.84089 178.000
69.86083 174.000
69.88078 186.000
69.90073 152.000
69.92067 164.000
69.94062 172.000
69.96057 175.000
69.98051 163.000
70.00046 178.000
70.02041 177.000
70.04035 166.000
70.06030 186.000
70.08025 165.000
70.10020 163.000
70.12014 161.000
70.14009 163.000
70.16004 187.000
70.17998 165.000
70.19993 162.000
70.21988 180.000
70.23982 165.000
70.25977 184.000
70.27972 189.000
70.29967 169.000
70.31961 177.000
70.33956 173.000
70.35951 154.000
70.37945 156.000
70.39940 157.000
70.41935 184.000
70.43929 140.000
70.45924 151.000
70.47919 169.000
70.49914 167.000
70.51908 176.000
70.53903 185.000
70.55898 166.000
70.57892 177.000
70.59887 181.000
70.61882 202.000
70.63876 210.000
70.65871 172.000
70.67866 178.000
70.69860 173.000
70.71855 180.000
70.73850 169.000
70.75845 206.000
70.77839 175.000
70.79834 194.000
70.81829 186.000
70.83823 153.000
70.85818 170.000
70.87813 181.000
70.89807 190.000
70.91802 198.000
70.93797 182.000
70.95792 164.000
70.97786 181.000
70.99781 140.000
71.01776 170.000
71.03770 180.000
71.05765 187.000
71.07760 165.000
71.09754 162.000
71.11749 157.000
71.13744 196.000
71.15738 170.000
71.17733 147.000
71.19728 158.000
71.21723 182.000
71.23717 183.000
71.25712 151.000
71.27707 152.000
71.29701 157.000
71.31696 190.000
71.33691 188.000
71.35685 170.000
71.37680 187.000
71.39675 153.000
71.41670 165.000
71.43664 168.000
71.45659 173.000
71.47654 172.000
71.49648 162.000
71.51643 177.000
71.53638 161.000
71.55632 147.000
71.57627 162.000
71.59622 177.000
71.61616 174.000
71.63611 170.000
71.65606 171.000
71.67601 185.000
71.69595 172.000
71.71590 180.000
71.73585 193.000
71.75579 195.000
71.77574 158.000
71.79569 174.000
71.81563 169.000
71.83558 157.000
71.85553 186.000
71.87548 172.000
71.89542 188.000
71.91537 162.000
71.93532 174.000
71.95526 169.000
71.97521 157.000
71.99516 173.000
72.01510 167.000
72.03505 187.000
72.05500 178.000
72.07495 188.000
72.09489 171.000
72.11484 177.000
72.13479 200.000
72.15473 180.000
72.17468 185.000
72.19463 187.000
72.21457 181.000
72.23452 180.000
72.25447 168.000
72.27441 184.000
72.29436 189.000
72.31431 196.000
72.33426 203.000
72.35420 202.000
72.37415 212.000
72.39410 246.000
72.41404 245.000
72.43399 252.000
72.45394 224.000
72.47388 215.000
72.49383 206.000
72.51378 195.000
72.53373 188.000
72.55367 195.000
72.57362 200.000
72.59357 205.000
72.61351 176.000
72.63346 217.000
72.65341 191.000
72.67335 203.000
72.69330 192.000
72.71325 186.000
72.73319 191.000
72.75314 179.000
72.77309 181.000
72.79304 217.000
72.81298 180.000
72.83293 213.000
72.85288 222.000
72.87282 223.000
72.89277 239.000
72.91272 242.000
72.93266 266.000
72.95261 254.000
72.97256 267.000
72.99251 297.000
73.01245 231.000
73.03240 251.000
73.05235 253.000
73.07229 248.000
73.09224 275.000
73.11219 237.000
73.13213 269.000
73.15208 240.000
73.17203 240.000
73.19197 242.000
73.21192 228.000
73.23187 237.000
73.25182 231.000
73.27176 211.000
73.29171 208.000
73.31166 224.000
73.33160 175.000
73.35155 218.000
73.37150 216.000
73.39144 231.000
73.41139 210.000
73.43134 204.000
73.45129 187.000
73.47123 186.000
73.49118 193.000
73.51113 203.000
73.53107 183.000
73.55102 198.000
73.57097 216.000
73.59091 206.000
73.61086 221.000
73.63081 214.000
73.65076 203.000
73.67070 187.000
73.69065 209.000
73.71060 222.000
73.73054 206.000
73.75049 175.000
73.77044 211.000
73.79038 186.000
73.81033 173.000
73.83028 203.000
73.85022 204.000
73.87017 178.000
73.89012 203.000
73.91007 189.000
73.93001 192.000
73.94996 179.000
73.96991 152.000
73.98985 189.000
74.00980 170.000
74.02975 154.000
74.04969 193.000
74.06964 177.000
74.08959 180.000
74.10954 168.000
74.12948 186.000
74.14943 165.000
74.16938 146.000
74.18932 160.000
74.20927 173.000
74.22922 165.000
74.24916 170.000
74.26911 163.000
74.28906 179.000
74.30900 174.000
74.32895 172.000
74.34890 175.000
74.36885 191.000
74.38879 169.000
74.40874 164.000
74.42869 174.000
74.44863 176.000
74.46858 187.000
74.48853 202.000
74.50847 197.000
74.52842 203.000
74.54837 180.000
74.56832 205.000
74.58826 195.000
74.60821 206.000
74.62816 200.000
74.64810 204.000
74.66805 187.000
74.68800 184.000
74.70794 207.000
74.72789 174.000
74.74784 181.000
74.76778 194.000
74.78773 185.000
74.80768 179.000
74.82763 179.000
74.84757 206.000
74.86752 176.000
74.88747 199.000
74.90741 209.000
74.92736 203.000
74.94731 210.000
74.96725 227.000
74.98720 243.000
75.00715 278.000
75.02710 250.000
75.04704 267.000
75.06699 276.000
75.08694 240.000
75.10688 231.000
75.12683 231.000
75.14678 241.000
75.16672 240.000
75.18667 256.000
75.20662 278.000
75.22657 273.000
75.24651 268.000
75.26646 288.000
75.28641 278.000
75.30635 249.000
75.32630 242.000
75.34625 261.000
75.36619 195.000
75.38614 205.000
75.40609 229.000
75.42603 223.000
75.44598 203.000
75.46593 237.000
75.48588 190.000
75.50582 199.000
75.52577 206.000
75.54572 190.000
75.56566 201.000
75.58561 219.000
75.60556 172.000
75.62550 172.000
75.64545 204.000
75.66540 176.000
75.68535 174.000
75.70529 191.000
75.72524 216.000
75.74519 162.000
75.76513 176.000
75.78508 174.000
75.80503 144.000
75.82497 160.000
75.84492 184.000
75.86487 175.000
75.88481 159.000
75.90476 194.000
75.92471 150.000
75.94466 187.000
75.96460 143.000
75.98455 164.000
76.00450 167.000
76.02444 183.000
76.04439 176.000
76.06434 158.000
76.08428 182.000
76.10423 196.000
76.12418 153.000
76.14413 199.000
76.16407 165.000
76.18402 162.000
76.20397 160.000
76.22391 175.000
76.24386 172.000
76.26381 163.000
76.28375 175.000
76.30370 164.000
76.32365 188.000
76.34359 164.000
76.36354 166.000
76.38349 151.000
76.40344 146.000
76.42338 177.000
76.44333 169.000
76.46328 165.000
76.48322 186.000
76.50317 179.000
76.52312 163.000
76.54306 161.000
76.56301 170.000
76.58296 178.000
76.60291 185.000
76.62285 156.000
76.64280 173.000
76.66275 176.000
76.68269 170.000
76.70264 176.000
76.72259 173.000
76.74253 202.000
76.76248 193.000
76.78243 168.000
76.80238 203.000
76.82232 175.000
76.84227 185.000
76.86222 161.000
76.88216 166.000
76.90211 169.000
76.92206 175.000
76.94200 174.000
76.96195 179.000
76.98190 222.000
77.00184 196.000
77.02179 176.000
77.04174 178.000
77.06169 168.000
77.08163 179.000
77.10158 194.000
77.12153 183.000
77.14147 201.000
77.16142 175.000
77.18137 198.000
77.20131 237.000
77.22126 233.000
77.24121 229.000
77.26116 242.000
77.28110 253.000
77.30105 263.000
77.32100 275.000
77.34094 285.000
77.36089 262.000
77.38084 280.000
77.40078 273.000
77.42073 287.000
77.44068 274.000
77.46062 289.000
77.48057 281.000
77.50052 300.000
77.52047 320.000
77.54041 304.000
77.56036 327.000
77.58031 301.000
77.60025 347.000
77.62020 330.000
77.64015 348.000
77.66009 308.000
77.68004 296.000
77.69999 291.000
77.71994 277.000
77.73988 300.000
77.75983 242.000
77.77978 269.000
77.79972 259.000
77.81967 266.000
77.83962 274.000
77.85956 273.000
77.87951 234.000
77.89946 198.000
77.91940 223.000
77.93935 190.000
77.95930 198.000
77.97925 206.000
77.99919 195.000
78.01914 203.000
78.03909 181.000
78.05903 206.000
78.07898 189.000
78.09893 169.000
78.11887 191.000
78.13882 211.000
78.15877 151.000
78.17872 167.000
78.19866 167.000
78.21861 182.000
78.23856 190.000
78.25850 173.000
78.27845 177.000
78.29840 158.000
78.31834 177.000
78.33829 196.000
78.35824 189.000
78.37819 174.000
78.39813 182.000
78.41808 184.000
78.43803 176.000
78.45797 199.000
78.47792 179.000
78.49787 216.000
78.51781 189.000
78.53776 198.000
78.55771 176.000
78.57765 202.000
78.59760 166.000
78.61755 174.000
78.63750 178.000
78.65744 172.000
78.67739 166.000
78.69734 160.000
78.71728 183.000
78.73723 177.000
78.75718 183.000
78.77712 190.000
78.79707 199.000
78.81702 168.000
78.83697 186.000
78.85691 197.000
78.87686 176.000
78.89681 170.000
78.91675 179.000
78.93670 168.000
78.95665 149.000
78.97659 198.000
78.99654 175.000
79.01649 174.000
79.03643 178.000
79.05638 172.000
79.07633 135.000
79.09628 184.000
79.11622 178.000
79.13617 161.000
79.15612 178.000
79.17606 168.000
79.19601 157.000
79.21596 165.000
79.23590 178.000
79.25585 180.000
79.27580 175.000
79.29575 156.000
79.31569 180.000
79.33564 163.000
79.35559 186.000
79.37553 180.000
79.39548 182.000
79.41543 157.000
79.43537 179.000
79.45532 149.000
79.47527 149.000
79.49521 176.000
79.51516 170.000
79.53511 212.000
79.55506 169.000
79.57500 172.000
79.59495 171.000
79.61490 158.000
79.63484 160.000
79.65479 145.000
79.67474 180.000
79.69468 180.000
79.71463 174.000
79.73458 167.000
79.75453 162.000
79.77447 181.000
79.79442 187.000
79.81437 184.000
79.83431 170.000
79.85426 168.000
79.87421 180.000
79.89415 179.000
79.91410 162.000
79.93405 172.000
79.95399 194.000
79.97394 195.000
79.99389 206.000
80.01384 211.000
80.03378 180.000
80.05373 194.000
80.07368 197.000
80.09362 177.000
80.11357 208.000
80.13352 185.000
80.15346 190.000
80.17341 186.000
80.19336 176.000
80.21331 193.000
80.23325 190.000
80.25320 185.000
80.27315 184.000
80.29309 174.000
80.31304 207.000
80.33299 191.000
80.35293 182.000
80.37288 190.000
80.39283 196.000
80.41278 183.000
80.43272 190.000
80.45267 177.000
80.47262 179.000
80.49256 169.000
80.51251 174.000
80.53246 171.000
80.55240 177.000
80.57235 185.000
80.59230 173.000
80.61224 185.000
80.63219 186.000
80.65214 199.000
80.67209 190.000
80.69203 172.000
80.71198 155.000
80.73193 146.000
80.75187 179.000
80.77182 189.000
80.79177 168.000
80.81171 167.000
80.83166 158.000
80.85161 173.000
80.87156 166.000
80.89150 143.000
80.91145 162.000
80.93140 184.000
80.95134 169.000
80.97129 186.000
80.99124 151.000
81.01118 162.000
81.03113 166.000
81.05108 163.000
81.07102 183.000
81.09097 149.000
81.11092 164.000
81.13087 179.000
81.15081 157.000
81.17076 167.000
81.19071 179.000
81.21065 166.000
81.23060 163.000
81.25055 192.000
81.27049 154.000
81.29044 171.000
81.31039 132.000
81.33034 168.000
81.35028 152.000
81.37023 160.000
81.39018 143.000
81.41012 174.000
81.43007 176.000
81.45002 182.000
81.46996 145.000
81.48991 169.000
81.50986 140.000
81.52980 208.000
81.54975 150.000
81.56970 154.000
81.58965 172.000
81.60959 160.000
81.62954 179.000
81.64949 147.000
81.66943 166.000
81.68938 167.000
81.70933 185.000
81.72927 185.000
81.74922 144.000
81.76917 161.000
81.78912 159.000
81.80906 150.000
81.82901 152.000
81.84896 189.000
81.86890 170.000
81.88885 179.000
81.90880 157.000
81.92874 155.000
81.94869 161.000
81.96864 178.000
81.98859 153.000
82.00853 167.000
82.02848 164.000
82.04843 185.000
82.06837 159.000
82.08832 178.000
82.10827 154.000
82.12821 163.000
82.14816 187.000
82.16811 209.000
82.18805 160.000
82.20800 186.000
82.22795 210.000
82.24790 168.000
82.26784 190.000
82.28779 220.000
82.30774 204.000
82.32768 217.000
82.34763 198.000
82.36758 197.000
82.38752 192.000
82.40747 187.000
82.42742 200.000
82.44737 186.000
82.46731 193.000
82.48726 174.000
82.50721 169.000
82.52715 194.000
82.54710 192.000
82.56705 207.000
82.58699 169.000
82.60694 176.000
82.62689 173.000
82.64683 192.000
82.66678 175.000
82.68673 195.000
82.70668 171.000
82.72662 179.000
82.74657 175.000
82.76652 184.000
82.78646 201.000
82.80641 188.000
82.82636 182.000
82.84630 177.000
82.86625 172.000
82.88620 164.000
82.90615 168.000
82.92609 179.000
82.94604 165.000
82.96599 181.000
82.98593 194.000
83.00588 169.000
83.02583 198.000
83.04577 183.000
83.06572 163.000
83.08567 189.000
83.10561 209.000
83.12556 191.000
83.14551 201.000
83.16546 189.000
83.18540 199.000
83.20535 171.000
83.22530 234.000
83.24524 179.000
83.26519 175.000
83.28514 209.000
83.30508 161.000
83.32503 205.000
83.34498 194.000
83.36493 190.000
83.38487 205.000
83.40482 200.000
83.42477 195.000
83.44471 190.000
83.46466 216.000
83.48461 209.000
83.50455 197.000
83.52450 195.000
83.54445 215.000
83.56440 224.000
83.58434 237.000
83.60429 226.000
83.62424 209.000
83.64418 200.000
83.66413 229.000
83.68408 243.000
83.70402 233.000
83.72397 227.000
83.74392 259.000
83.76386 230.000
83.78381 233.000
83.80376 270.000
83.82371 269.000
83.84365 287.000
83.86360 264.000
83.88355 276.000
83.90349 270.000
83.92344 252.000
83.94339 237.000
83.96333 278.000
83.98328 265.000
84.00323 256.000
84.02318 247.000
84.04312 238.000
84.06307 251.000
84.08302 230.000
84.10296 240.000
84.12291 217.000
84.14286 242.000
84.16280 231.000
84.18275 213.000
84.20270 192.000
84.22264 213.000
84.24259 187.000
84.26254 184.000
84.28249 195.000
84.30243 207.000
84.32238 189.000
84.34233 171.000
84.36227 175.000
84.38222 173.000
84.40217 205.000
84.42211 180.000
84.44206 156.000
84.46201 180.000
84.48196 174.000
84.50190 173.000
84.52185 156.000
84.54180 183.000
84.56174 191.000
84.58169 176.000
84.60164 175.000
84.62158 185.000
84.64153 187.000
84.66148 171.000
84.68142 193.000
84.70137 182.000
84.72132 174.000
84.74127 170.000
84.76121 160.000
84.78116 184.000
84.80111 173.000
84.82105 186.000
84.84100 177.000
84.86095 193.000
84.88089 191.000
84.90084 168.000
84.92079 155.000
84.94074 156.000
84.96068 165.000
84.98063 158.000
85.00058 176.000
85.02052 172.000
85.04047 173.000
85.06042 186.000
85.08036 172.000
85.10031 160.000
85.12026 180.000
85.14021 162.000
85.16015 177.000
85.18010 160.000
85.20005 163.000
85.21999 188.000
85.23994 159.000
85.25989 198.000
85.27983 170.000
85.29978 172.000
85.31973 158.000
85.33967 169.000
85.35962 161.000
85.37957 192.000
85.39952 185.000
85.41946 189.000
85.43941 185.000
85.45936 160.000
85.47930 159.000
85.49925 162.000
85.51920 179.000
85.53914 190.000
85.55909 165.000
85.57904 180.000
85.59899 161.000
85.61893 195.000
85.63888 181.000
85.65883 194.000
85.67877 170.000
85.69872 183.000
85.71867 160.000
85.73861 170.000
85.75856 153.000
85.77851 163.000
85.79845 176.000
85.81840 173.000
85.83835 179.000
85.85830 150.000
85.87824 157.000
85.89819 151.000
85.91814 159.000
85.93808 180.000
85.95803 177.000
85.97798 152.000
85.99792 175.000
86.01787 190.000
86.03782 188.000
86.05777 174.000
86.07771 177.000
86.09766 163.000
86.11761 179.000
86.13755 159.000
86.15750 192.000
86.17745 184.000
86.19739 176.000
86.21734 177.000
86.23729 177.000
86.25723 208.000
86.27718 197.000
86.29713 198.000
86.31708 199.000
86.33702 190.000
86.35697 179.000
86.37692 219.000
86.39686 192.000
86.41681 227.000
86.43676 209.000
86.45670 204.000
86.47665 188.000
86.49660 197.000
86.51655 226.000
86.53649 180.000
86.55644 193.000
86.57639 180.000
86.59633 197.000
86.61628 218.000
86.63623 177.000
86.65617 174.000
86.67612 184.000
86.69607 201.000
86.71602 180.000
86.73596 209.000
86.75591 195.000
86.77586 193.000
86.79580 198.000
86.81575 191.000
86.83570 192.000
86.85564 198.000
86.87559 193.000
86.89554 179.000
86.91548 203.000
86.93543 170.000
86.95538 169.000
86.97533 160.000
86.99527 222.000
87.01522 175.000
87.03517 176.000
87.05511 199.000
87.07506 161.000
87.09501 189.000
87.11495 166.000
87.13490 153.000
87.15485 185.000
87.17480 157.000
87.19474 175.000
87.21469 156.000
87.23464 169.000
87.25458 178.000
87.27453 175.000
87.29448 186.000
87.31442 163.000
87.33437 157.000
87.35432 172.000
87.37426 184.000
87.39421 158.000
87.41416 160.000
87.43411 191.000
87.45405 164.000
87.47400 130.000
87.49395 186.000
87.51389 161.000
87.53384 162.000
87.55379 160.000
87.57373 169.000
87.59368 174.000
87.61363 164.000
87.63358 170.000
87.65352 147.000
87.67347 152.000
87.69342 153.000
87.71336 169.000
87.73331 178.000
87.75326 167.000
87.77320 170.000
87.79315 146.000
87.81310 159.000
87.83304 186.000
87.85299 155.000
87.87294 199.000
87.89289 169.000
87.91283 166.000
87.93278 160.000
87.95273 191.000
87.97267 176.000
87.99262 152.000
88.01257 134.000
88.03251 186.000
88.05246 189.000
88.07241 168.000
88.09236 186.000
88.11230 156.000
88.13225 136.000
88.15220 179.000
88.17214 162.000
88.19209 200.000
88.21204 164.000
88.23198 140.000
88.25193 167.000
88.27188 173.000
88.29183 162.000
88.31177 150.000
88.33172 169.000
88.35167 159.000
88.37161 160.000
88.39156 167.000
88.41151 148.000
88.43145 188.000
88.45140 174.000
88.47135 168.000
88.49129 191.000
88.51124 184.000
88.53119 173.000
88.55114 179.000
88.57108 172.000
88.59103 186.000
88.61098 152.000
88.63092 174.000
88.65087 156.000
88.67082 175.000
88.69076 168.000
88.71071 167.000
88.73066 156.000
88.75061 172.000
88.77055 172.000
88.79050 171.000
88.81045 158.000
88.83039 182.000
88.85034 163.000
88.87029 168.000
88.89023 178.000
88.91018 179.000
88.93013 151.000
88.95007 195.000
88.97002 181.000
88.98997 187.000
89.00992 173.000
89.02986 193.000
89.04981 208.000
89.06976 185.000
89.08970 215.000
89.10965 219.000
89.12960 197.000
89.14954 207.000
89.16949 231.000
89.18944 204.000
89.20939 221.000
89.22933 199.000
89.24928 222.000
89.26923 206.000
89.28917 210.000
89.30912 228.000
89.32907 173.000
89.34901 203.000
89.36896 189.000
89.38891 194.000
89.40885 231.000
89.42880 184.000
89.44875 193.000
89.46870 209.000
89.48864 182.000
89.50859 200.000
89.52854 188.000
89.54848 194.000
89.56843 200.000
89.58838 189.000
89.60832 177.000
89.62827 157.000
89.64822 204.000
89.66817 184.000
89.68811 180.000
89.70806 171.000
89.72801 190.000
89.74795 179.000
89.76790 175.000
89.78785 176.000
89.80779 175.000
89.82774 183.000
89.84769 194.000
89.86764 196.000
89.88758 185.000
89.90753 201.000
89.92748 196.000
89.94742 186.000
89.96737 188.000
89.98732 184.000
90.00726 174.000
