10.00000 215.000
10.01995 219.000
10.03989 202.000
10.05984 211.000
10.07979 180.000
10.09973 207.000
10.11968 187.000
10.13963 211.000
10.15958 224.000
10.17952 185.000
10.19947 192.000
10.21942 201.000
10.23936 181.000
10.25931 180.000
10.27926 205.000
10.29920 185.000
10.31915 215.000
10.33910 200.000
10.35905 198.000
10.37899 165.000
10.39894 184.000
10.41889 195.000
10.43883 208.000
10.45878 188.000
10.47873 181.000
10.49867 176.000
10.51862 193.000
10.53857 190.000
10.55851 180.000
10.57846 188.000
10.59841 200.000
10.61836 170.000
10.63830 172.000
10.65825 195.000
10.67820 180.000
10.69814 163.000
10.71809 212.000
10.73804 221.000
10.75798 193.000
10.77793 194.000
10.79788 177.000
10.81783 181.000
10.83777 209.000
10.85772 211.000
10.87767 192.000
10.89761 222.000
10.91756 195.000
10.93751 194.000
10.95745 167.000
10.97740 179.000
10.99735 199.000
11.01730 216.000
11.03724 211.000
11.05719 193.000
11.07714 196.000
11.09708 208.000
11.11703 154.000
11.13698 180.000
11.15692 179.000
11.17687 203.000
11.19682 185.000
11.21676 188.000
11.23671 175.000
11.25666 175.000
11.27661 178.000
11.29655 197.000
11.31650 198.000
11.33645 186.000
11.35639 160.000
11.37634 197.000
11.39629 186.000
11.41623 185.000
11.43618 156.000
11.45613 208.000
11.47608 183.000
11.49602 205.000
11.51597 195.000
11.53592 183.000
11.55586 202.000
11.57581 199.000
11.59576 210.000
11.61570 199.000
11.63565 213.000
11.65560 198.000
11.67554 193.000
11.69549 197.000
11.71544 206.000
11.73539 225.000
11.75533 188.000
11.77528 221.000
11.79523 175.000
11.81517 213.000
11.83512 204.000
11.85507 198.000
11.87501 176.000
11.89496 195.000
11.91491 178.000
11.93486 185.000
11.95480 180.000
11.97475 196.000
11.99470 179.000
12.01464 189.000
12.03459 186.000
12.05454 201.000
12.07448 202.000
12.09443 213.000
12.11438 199.000
12.13432 192.000
12.15427 209.000
12.17422 208.000
12.19417 201.000
12.21411 180.000
12.23406 217.000
12.25401 185.000
12.27395 196.000
12.29390 198.000
12.31385 179.000
12.33379 207.000
12.35374 182.000
12.37369 204.000
12.39364 192.000
12.41358 186.000
12.43353 196.000
12.45348 204.000
12.47342 191.000
12.49337 189.000
12.51332 180.000
12.53326 194.000
12.55321 199.000
12.57316 203.000
12.59311 193.000
12.61305 193.000
12.63300 209.000
12.65295 158.000
12.67289 207.000
12.69284 187.000
12.71279 201.000
12.73273 197.000
12.75268 171.000
12.77263 190.000
12.79257 222.000
12.81252 220.000
12.83247 175.000
12.85242 184.000
12.87236 218.000
12.89231 209.000
12.91226 204.000
12.93220 184.000
12.95215 203.000
12.97210 207.000
12.99204 182.000
13.01199 187.000
13.03194 197.000
13.05189 216.000
13.07183 204.000
13.09178 186.000
13.11173 207.000
13.13167 181.000
13.15162 220.000
13.17157 201.000
13.19151 177.000
13.21146 152.000
13.23141 213.000
13.25135 191.000
13.27130 192.000
13.29125 195.000
13.31120 192.000
13.33114 175.000
13.35109 172.000
13.37104 207.000
13.39098 173.000
13.41093 199.000
13.43088 196.000
13.45082 207.000
13.47077 200.000
13.49072 212.000
13.51067 193.000
13.53061 190.000
13.55056 203.000
13.57051 176.000
13.59045 176.000
13.61040 215.000
13.63035 197.000
13.65029 193.000
13.67024 178.000
13.69019 183.000
13.71013 200.000
13.73008 200.000
13.75003 191.000
13.76998 205.000
13.78992 183.000
13.80987 204.000
13.82982 214.000
13.84976 205.000
13.86971 206.000
13.88966 182.000
13.90960 193.000
13.92955 192.000
13.94950 180.000
13.96945 231.000
13.98939 192.000
14.00934 218.000
14.02929 183.000
14.04923 205.000
14.06918 207.000
14.08913 201.000
14.10907 223.000
14.12902 190.000
14.14897 201.000
14.16892 183.000
14.18886 187.000
14.20881 203.000
14.22876 172.000
14.24870 193.000
14.26865 212.000
14.28860 209.000
14.30854 216.000
14.32849 212.000
14.34844 212.000
14.36838 203.000
14.38833 183.000
14.40828 208.000
14.42823 191.000
14.44817 209.000
14.46812 198.000
14.48807 191.000
14.50801 190.000
14.52796 154.000
14.54791 191.000
14.56785 193.000
14.58780 195.000
14.60775 191.000
14.62770 225.000
14.64764 197.000
14.66759 210.000
14.68754 200.000
14.70748 189.000
14.72743 196.000
14.74738 175.000
14.76732 209.000
14.78727 207.000
14.80722 224.000
14.82716 232.000
14.84711 210.000
14.86706 217.000
14.88701 199.000
14.90695 211.000
14.92690 206.000
14.94685 228.000
14.96679 211.000
14.98674 210.000
15.00669 205.000
15.02663 231.000
15.04658 215.000
15.06653 193.000
15.08648 220.000
15.10642 236.000
15.12637 204.000
15.14632 248.000
15.16626 233.000
15.18621 239.000
15.20616 255.000
15.22610 272.000
15.24605 239.000
15.26600 255.000
15.28594 260.000
15.30589 272.000
15.32584 260.000
15.34579 262.000
15.36573 264.000
15.38568 285.000
15.40563 258.000
15.42557 264.000
15.44552 284.000
15.46547 285.000
15.48541 274.000
15.50536 261.000
15.52531 337.000
15.54526 323.000
15.56520 339.000
15.58515 337.000
15.60510 382.000
15.62504 393.000
15.64499 428.000
15.66494 461.000
15.68488 555.000
15.70483 637.000
15.72478 772.000
15.74472 1022.000
15.76467 1500.000
15.78462 2098.000
15.80457 3315.000
15.82451 4976.000
15.84446 7096.000
15.86441 7581.000
15.88435 6523.000
15.90430 4689.000
15.92425 2820.000
15.94419 1483.000
15.96414 986.000
15.98409 654.000
16.00404 526.000
16.02398 422.000
16.04393 393.000
16.06388 386.000
16.08382 346.000
16.10377 356.000
16.12372 298.000
16.14366 246.000
16.16361 264.000
16.18356 304.000
16.20351 288.000
16.22345 260.000
16.24340 265.000
16.26335 262.000
16.28329 266.000
16.30324 252.000
16.32319 271.000
16.34313 271.000
16.36308 270.000
16.38303 224.000
16.40297 216.000
16.42292 228.000
16.44287 223.000
16.46282 212.000
16.48276 215.000
16.50271 221.000
16.52266 233.000
16.54260 217.000
16.56255 222.000
16.58250 195.000
16.60244 222.000
16.62239 207.000
16.64234 213.000
16.66229 201.000
16.68223 215.000
16.70218 205.000
16.72213 206.000
16.74207 205.000
16.76202 232.000
16.78197 224.000
16.80191 212.000
16.82186 230.000
16.84181 211.000
16.86175 223.000
16.88170 230.000
16.90165 229.000
16.92160 219.000
16.94154 188.000
16.96149 202.000
16.98144 232.000
17.00138 189.000
17.02133 202.000
17.04128 201.000
17.06122 196.000
17.08117 197.000
17.10112 235.000
17.12107 208.000
17.14101 201.000
17.16096 186.000
17.18091 175.000
17.20085 209.000
17.22080 200.000
17.24075 206.000
17.26069 180.000
17.28064 204.000
17.30059 163.000
17.32053 200.000
17.34048 203.000
17.36043 204.000
17.38038 189.000
17.40032 172.000
17.42027 169.000
17.44022 200.000
17.46016 194.000
17.48011 169.000
17.50006 200.000
17.52000 184.000
17.53995 173.000
17.55990 181.000
17.57985 187.000
17.59979 184.000
17.61974 209.000
17.63969 177.000
17.65963 195.000
17.67958 188.000
17.69953 190.000
17.71947 192.000
17.73942 187.000
17.75937 172.000
17.77932 211.000
17.79926 198.000
17.81921 202.000
17.83916 180.000
17.85910 202.000
17.87905 193.000
17.89900 204.000
17.91894 206.000
17.93889 178.000
17.95884 192.000
17.97878 195.000
17.99873 189.000
18.01868 194.000
18.03863 193.000
18.05857 183.000
18.07852 207.000
18.09847 181.000
18.11841 200.000
18.13836 221.000
18.15831 181.000
18.17825 196.000
18.19820 209.000
18.21815 216.000
18.23810 205.000
18.25804 174.000
18.27799 215.000
18.29794 218.000
18.31788 232.000
18.33783 275.000
18.35778 321.000
18.37772 437.000
18.39767 672.000
18.41762 512.000
18.43756 468.000
18.45751 392.000
18.47746 317.000
18.49741 258.000
18.51735 202.000
18.53730 209.000
18.55725 197.000
18.57719 203.000
18.59714 221.000
18.61709 201.000
18.63703 186.000
18.65698 179.000
18.67693 198.000
18.69688 197.000
18.71682 193.000
18.73677 181.000
18.75672 225.000
18.77666 198.000
18.79661 194.000
18.81656 170.000
18.83650 188.000
18.85645 188.000
18.87640 169.000
18.89634 208.000
18.91629 181.000
18.93624 191.000
18.95619 198.000
18.97613 184.000
18.99608 182.000
19.01603 196.000
19.03597 213.000
19.05592 178.000
19.07587 184.000
19.09581 203.000
19.11576 207.000
19.13571 175.000
19.15566 196.000
19.17560 196.000
19.19555 181.000
19.21550 193.000
19.23544 210.000
19.25539 195.000
19.27534 182.000
19.29528 191.000
19.31523 180.000
19.33518 211.000
19.35513 206.000
19.37507 181.000
19.39502 181.000
19.41497 187.000
19.43491 182.000
19.45486 197.000
19.47481 185.000
19.49475 203.000
19.51470 211.000
19.53465 163.000
19.55459 201.000
19.57454 183.000
19.59449 211.000
19.61444 200.000
19.63438 194.000
19.65433 183.000
19.67428 196.000
19.69422 184.000
19.71417 177.000
19.73412 190.000
19.75406 178.000
19.77401 191.000
19.79396 176.000
19.81391 198.000
19.83385 187.000
19.85380 185.000
19.87375 182.000
19.89369 186.000
19.91364 201.000
19.93359 189.000
19.95353 202.000
19.97348 186.000
19.99343 195.000
20.01337 177.000
20.03332 198.000
20.05327 224.000
20.07322 192.000
20.09316 195.000
20.11311 190.000
20.13306 185.000
20.15300 196.000
20.17295 164.000
20.19290 171.000
20.21284 180.000
20.23279 187.000
20.25274 190.000
20.27269 191.000
20.29263 170.000
20.31258 180.000
20.33253 204.000
20.35247 200.000
20.37242 160.000
20.39237 201.000
20.41231 170.000
20.43226 205.000
20.45221 185.000
20.47215 173.000
20.49210 185.000
20.51205 204.000
20.53200 203.000
20.55194 190.000
20.57189 184.000
20.59184 185.000
20.61178 188.000
20.63173 158.000
20.65168 192.000
20.67162 196.000
20.69157 205.000
20.71152 198.000
20.73147 198.000
20.75141 182.000
20.77136 194.000
20.79131 167.000
20.81125 206.000
20.83120 220.000
20.85115 227.000
20.87109 255.000
20.89104 271.000
20.91099 255.000
20.93094 306.000
20.95088 285.000
20.97083 337.000
20.99078 313.000
21.01072 380.000
21.03067 362.000
21.05062 354.000
21.07056 358.000
21.09051 290.000
21.11046 249.000
21.13040 258.000
21.15035 259.000
21.17030 242.000
21.19025 214.000
21.21019 234.000
21.23014 189.000
21.25009 199.000
21.27003 179.000
21.28998 197.000
21.30993 178.000
21.32987 189.000
21.34982 213.000
21.36977 194.000
21.38972 213.000
21.40966 206.000
21.42961 200.000
21.44956 197.000
21.46950 170.000
21.48945 179.000
21.50940 218.000
21.52934 185.000
21.54929 161.000
21.56924 212.000
21.58918 210.000
21.60913 192.000
21.62908 192.000
21.64903 186.000
21.66897 175.000
21.68892 186.000
21.70887 196.000
21.72881 198.000
21.74876 190.000
21.76871 187.000
21.78865 214.000
21.80860 207.000
21.82855 178.000
21.84850 202.000
21.86844 186.000
21.88839 180.000
21.90834 190.000
21.92828 199.000
21.94823 190.000
21.96818 205.000
21.98812 216.000
22.00807 186.000
22.02802 218.000
22.04796 187.000
22.06791 203.000
22.08786 183.000
22.10781 192.000
22.12775 217.000
22.14770 182.000
22.16765 172.000
22.18759 185.000
22.20754 171.000
22.22749 203.000
22.24743 181.000
22.26738 183.000
22.28733 209.000
22.30728 164.000
22.32722 237.000
22.34717 203.000
22.36712 199.000
22.38706 191.000
22.40701 188.000
22.42696 186.000
22.44690 174.000
22.46685 197.000
22.48680 199.000
22.50675 195.000
22.52669 180.000
22.54664 198.000
22.56659 181.000
22.58653 198.000
22.60648 190.000
22.62643 172.000
22.64637 197.000
22.66632 203.000
22.68627 181.000
22.70621 190.000
22.72616 177.000
22.74611 192.000
22.76606 205.000
22.78600 201.000
22.80595 170.000
22.82590 172.000
22.84584 199.000
22.86579 198.000
22.88574 202.000
22.90568 214.000
22.92563 182.000
22.94558 175.000
22.96553 179.000
22.98547 197.000
23.00542 202.000
23.02537 175.000
23.04531 194.000
23.06526 200.000
23.08521 173.000
23.10515 199.000
23.12510 200.000
23.14505 189.000
23.16499 183.000
23.18494 166.000
23.20489 181.000
23.22484 200.000
23.24478 193.000
23.26473 225.000
23.28468 219.000
23.30462 170.000
23.32457 188.000
23.34452 195.000
23.36446 188.000
23.38441 184.000
23.40436 194.000
23.42431 193.000
23.44425 174.000
23.46420 186.000
23.48415 219.000
23.50409 186.000
23.52404 192.000
23.54399 169.000
23.56393 201.000
23.58388 195.000
23.60383 196.000
23.62377 194.000
23.64372 192.000
23.66367 196.000
23.68362 204.000
23.70356 176.000
23.72351 189.000
23.74346 188.000
23.76340 156.000
23.78335 190.000
23.80330 183.000
23.82324 187.000
23.84319 197.000
23.86314 167.000
23.88309 211.000
23.90303 189.000
23.92298 193.000
23.94293 207.000
23.96287 184.000
23.98282 192.000
24.00277 194.000
24.02271 204.000
24.04266 176.000
24.06261 183.000
24.08256 188.000
24.10250 217.000
24.12245 191.000
24.14240 211.000
24.16234 176.000
24.18229 186.000
24.20224 189.000
24.22218 240.000
24.24213 201.000
24.26208 177.000
24.28202 182.000
24.30197 200.000
24.32192 172.000
24.34187 190.000
24.36181 205.000
24.38176 198.000
24.40171 182.000
24.42165 173.000
24.44160 191.000
24.46155 188.000
24.48149 195.000
24.50144 194.000
24.52139 196.000
24.54134 197.000
24.56128 184.000
24.58123 212.000
24.60118 191.000
24.62112 212.000
24.64107 198.000
24.66102 194.000
24.68096 197.000
24.70091 180.000
24.72086 199.000
24.74080 208.000
24.76075 208.000
24.78070 202.000
24.80065 189.000
24.82059 182.000
24.84054 167.000
24.86049 193.000
24.88043 215.000
24.90038 181.000
24.92033 217.000
24.94027 196.000
24.96022 178.000
24.98017 192.000
25.00012 188.000
25.02006 186.000
25.04001 201.000
25.05996 213.000
25.07990 214.000
25.09985 207.000
25.11980 187.000
25.13974 197.000
25.15969 213.000
25.17964 175.000
25.19958 176.000
25.21953 214.000
25.23948 206.000
25.25943 202.000
25.27937 210.000
25.29932 185.000
25.31927 167.000
25.33921 202.000
25.35916 188.000
25.37911 183.000
25.39905 205.000
25.41900 200.000
25.43895 187.000
25.45890 178.000
25.47884 197.000
25.49879 197.000
25.51874 200.000
25.53868 191.000
25.55863 193.000
25.57858 183.000
25.59852 185.000
25.61847 212.000
25.63842 214.000
25.65837 210.000
25.67831 203.000
25.69826 221.000
25.71821 185.000
25.73815 208.000
25.75810 183.000
25.77805 173.000
25.79799 208.000
25.81794 191.000
25.83789 182.000
25.85783 173.000
25.87778 212.000
25.89773 217.000
25.91768 171.000
25.93762 185.000
25.95757 208.000
25.97752 194.000
25.99746 213.000
26.01741 202.000
26.03736 200.000
26.05730 192.000
26.07725 190.000
26.09720 195.000
26.11715 203.000
26.13709 202.000
26.15704 177.000
26.17699 203.000
26.19693 172.000
26.21688 211.000
26.23683 187.000
26.25677 179.000
26.27672 190.000
26.29667 230.000
26.31661 197.000
26.33656 216.000
26.35651 200.000
26.37646 190.000
26.39640 193.000
26.41635 176.000
26.43630 175.000
26.45624 172.000
26.47619 197.000
26.49614 189.000
26.51608 214.000
26.53603 194.000
26.55598 187.000
26.57593 190.000
26.59587 183.000
26.61582 205.000
26.63577 194.000
26.65571 207.000
26.67566 205.000
26.69561 195.000
26.71555 223.000
26.73550 206.000
26.75545 206.000
26.77539 192.000
26.79534 182.000
26.81529 208.000
26.83524 217.000
26.85518 184.000
26.87513 193.000
26.89508 217.000
26.91502 193.000
26.93497 225.000
26.95492 199.000
26.97486 168.000
26.99481 198.000
27.01476 192.000
27.03471 163.000
27.05465 181.000
27.07460 223.000
27.09455 207.000
27.11449 194.000
27.13444 193.000
27.15439 193.000
27.17433 179.000
27.19428 210.000
27.21423 213.000
27.23417 183.000
27.25412 227.000
27.27407 201.000
27.29402 213.000
27.31396 209.000
27.33391 178.000
27.35386 181.000
27.37380 209.000
27.39375 213.000
27.41370 215.000
27.43364 217.000
27.45359 209.000
27.47354 202.000
27.49349 200.000
27.51343 208.000
27.53338 186.000
27.55333 207.000
27.57327 188.000
27.59322 188.000
27.61317 201.000
27.63311 216.000
27.65306 243.000
27.67301 212.000
27.69296 201.000
27.71290 218.000
27.73285 221.000
27.75280 202.000
27.77274 217.000
27.79269 183.000
27.81264 197.000
27.83258 192.000
27.85253 215.000
27.87248 212.000
27.89242 199.000
27.91237 198.000
27.93232 180.000
27.95227 185.000
27.97221 201.000
27.99216 187.000
28.01211 186.000
28.03205 173.000
28.05200 181.000
28.07195 187.000
28.09189 205.000
28.11184 189.000
28.13179 200.000
28.15174 193.000
28.17168 195.000
28.19163 186.000
28.21158 196.000
28.23152 199.000
28.25147 176.000
28.27142 187.000
28.29136 200.000
28.31131 211.000
28.33126 208.000
28.35120 206.000
28.37115 198.000
28.39110 182.000
28.41105 168.000
28.43099 196.000
28.45094 201.000
28.47089 221.000
28.49083 189.000
28.51078 185.000
28.53073 188.000
28.55067 199.000
28.57062 222.000
28.59057 214.000
28.61052 176.000
28.63046 201.000
28.65041 219.000
28.67036 203.000
28.69030 220.000
28.71025 173.000
28.73020 190.000
28.75014 182.000
28.77009 220.000
28.79004 194.000
28.80998 187.000
28.82993 214.000
28.84988 206.000
28.86983 199.000
28.88977 199.000
28.90972 183.000
28.92967 206.000
28.94961 194.000
28.96956 220.000
28.98951 197.000
29.00945 210.000
29.02940 205.000
29.04935 180.000
29.06930 192.000
29.08924 212.000
29.10919 212.000
29.12914 192.000
29.14908 211.000
29.16903 195.000
29.18898 206.000
29.20892 211.000
29.22887 199.000
29.24882 230.000
29.26877 199.000
29.28871 215.000
29.30866 198.000
29.32861 256.000
29.34855 217.000
29.36850 213.000
29.38845 248.000
29.40839 247.000
29.42834 226.000
29.44829 239.000
29.46823 241.000
29.48818 212.000
29.50813 202.000
29.52808 202.000
29.54802 201.000
29.56797 223.000
29.58792 181.000
29.60786 206.000
29.62781 188.000
29.64776 222.000
29.66770 196.000
29.68765 209.000
29.70760 217.000
29.72755 212.000
29.74749 197.000
29.76744 220.000
29.78739 204.000
29.80733 192.000
29.82728 196.000
29.84723 200.000
29.86717 184.000
29.88712 218.000
29.90707 226.000
29.92701 201.000
29.94696 166.000
29.96691 223.000
29.98686 195.000
30.00680 226.000
30.02675 203.000
30.04670 183.000
30.06664 235.000
30.08659 254.000
30.10654 255.000
30.12648 269.000
30.14643 278.000
30.16638 262.000
30.18633 331.000
30.20627 430.000
30.22622 587.000
30.24617 1029.000
30.26611 1118.000
30.28606 836.000
30.30601 730.000
30.32595 770.000
30.34590 736.000
30.36585 559.000
30.38579 411.000
30.40574 341.000
30.42569 283.000
30.44564 224.000
30.46558 254.000
30.48553 224.000
30.50548 257.000
30.52542 223.000
30.54537 190.000
30.56532 221.000
30.58526 212.000
30.60521 216.000
30.62516 223.000
30.64511 213.000
30.66505 201.000
30.68500 241.000
30.70495 181.000
30.72489 229.000
30.74484 190.000
30.76479 190.000
30.78473 186.000
30.80468 193.000
30.82463 203.000
30.84458 190.000
30.86452 237.000
30.88447 219.000
30.90442 202.000
30.92436 203.000
30.94431 207.000
30.96426 211.000
30.98420 223.000
31.00415 207.000
31.02410 192.000
31.04404 200.000
31.06399 191.000
31.08394 193.000
31.10389 223.000
31.12383 203.000
31.14378 166.000
31.16373 185.000
31.18367 198.000
31.20362 204.000
31.22357 222.000
31.24351 189.000
31.26346 203.000
31.28341 206.000
31.30336 226.000
31.32330 196.000
31.34325 219.000
31.36320 194.000
31.38314 207.000
31.40309 224.000
31.42304 230.000
31.44298 216.000
31.46293 220.000
31.48288 208.000
31.50282 241.000
31.52277 195.000
31.54272 200.000
31.56267 217.000
31.58261 208.000
31.60256 202.000
31.62251 206.000
31.64245 233.000
31.66240 204.000
31.68235 210.000
31.70229 215.000
31.72224 231.000
31.74219 243.000
31.76214 215.000
31.78208 217.000
31.80203 224.000
31.82198 251.000
31.84192 228.000
31.86187 245.000
31.88182 260.000
31.90176 271.000
31.92171 306.000
31.94166 342.000
31.96160 461.000
31.98155 546.000
32.00150 649.000
32.02145 705.000
32.04139 703.000
32.06134 723.000
32.08129 593.000
32.10123 589.000
32.12118 482.000
32.14113 485.000
32.16107 353.000
32.18102 296.000
32.20097 303.000
32.22092 258.000
32.24086 256.000
32.26081 238.000
32.28076 217.000
32.30070 234.000
32.32065 229.000
32.34060 241.000
32.36054 228.000
32.38049 199.000
32.40044 228.000
32.42039 235.000
32.44033 244.000
32.46028 258.000
32.48023 239.000
32.50017 270.000
32.52012 286.000
32.54007 271.000
32.56001 280.000
32.57996 238.000
32.59991 279.000
32.61985 257.000
32.63980 243.000
32.65975 245.000
32.67970 228.000
32.69964 197.000
32.71959 226.000
32.73954 213.000
32.75948 190.000
32.77943 202.000
32.79938 195.000
32.81932 215.000
32.83927 227.000
32.85922 226.000
32.87917 226.000
32.89911 206.000
32.91906 196.000
32.93901 194.000
32.95895 216.000
32.97890 222.000
32.99885 187.000
33.01879 198.000
33.03874 208.000
33.05869 197.000
33.07863 186.000
33.09858 206.000
33.11853 186.000
33.13848 210.000
33.15842 210.000
33.17837 203.000
33.19832 209.000
33.21826 215.000
33.23821 178.000
33.25816 208.000
33.27810 219.000
33.29805 210.000
33.31800 198.000
33.33795 215.000
33.35789 215.000
33.37784 199.000
33.39779 196.000
33.41773 214.000
33.43768 238.000
33.45763 246.000
33.47757 186.000
33.49752 181.000
33.51747 216.000
33.53741 206.000
33.55736 216.000
33.57731 189.000
33.59726 197.000
33.61720 192.000
33.63715 204.000
33.65710 204.000
33.67704 196.000
33.69699 195.000
33.71694 223.000
33.73688 205.000
33.75683 205.000
33.77678 211.000
33.79673 216.000
33.81667 221.000
33.83662 196.000
33.85657 205.000
33.87651 215.000
33.89646 217.000
33.91641 204.000
33.93635 211.000
33.95630 199.000
33.97625 216.000
33.99620 205.000
34.01614 237.000
34.03609 241.000
34.05604 204.000
34.07598 215.000
34.09593 235.000
34.11588 214.000
34.13582 219.000
34.15577 220.000
34.17572 220.000
34.19566 217.000
34.21561 218.000
34.23556 252.000
34.25551 222.000
34.27545 230.000
34.29540 246.000
34.31535 219.000
34.33529 231.000
34.35524 250.000
34.37519 243.000
34.39513 249.000
34.41508 289.000
34.43503 257.000
34.45498 268.000
34.47492 337.000
34.49487 303.000
34.51482 313.000
34.53476 322.000
34.55471 310.000
34.57466 354.000
34.59460 294.000
34.61455 376.000
34.63450 317.000
34.65444 402.000
34.67439 384.000
34.69434 337.000
34.71429 336.000
34.73423 334.000
34.75418 298.000
34.77413 311.000
34.79407 311.000
34.81402 264.000
34.83397 299.000
34.85391 302.000
34.87386 251.000
34.89381 290.000
34.91376 254.000
34.93370 264.000
34.95365 249.000
34.97360 214.000
34.99354 276.000
35.01349 257.000
35.03344 265.000
35.05338 247.000
35.07333 280.000
35.09328 269.000
35.11322 310.000
35.13317 256.000
35.15312 299.000
35.17307 271.000
35.19301 305.000
35.21296 300.000
35.23291 312.000
35.25285 332.000
35.27280 313.000
35.29275 383.000
35.31269 409.000
35.33264 423.000
35.35259 514.000
35.37254 523.000
35.39248 640.000
35.41243 789.000
35.43238 785.000
35.45232 851.000
35.47227 922.000
35.49222 1058.000
35.51216 1125.000
35.53211 1257.000
35.55206 1296.000
35.57201 1494.000
35.59195 1899.000
35.61190 2474.000
35.63185 3298.000
35.65179 3644.000
35.67174 3115.000
35.69169 2407.000
35.71163 2329.000
35.73158 2481.000
35.75153 2205.000
35.77147 1639.000
35.79142 1195.000
35.81137 945.000
35.83132 745.000
35.85126 706.000
35.87121 523.000
35.89116 471.000
35.91110 480.000
35.93105 359.000
35.95100 412.000
35.97094 368.000
35.99089 331.000
36.01084 301.000
36.03079 306.000
36.05073 260.000
36.07068 298.000
36.09063 254.000
36.11057 273.000
36.13052 280.000
36.15047 286.000
36.17041 251.000
36.19036 263.000
36.21031 247.000
36.23025 258.000
36.25020 256.000
36.27015 276.000
36.29010 289.000
36.31004 265.000
36.32999 254.000
36.34994 247.000
36.36988 229.000
36.38983 249.000
36.40978 238.000
36.42972 252.000
36.44967 272.000
36.46962 228.000
36.48957 237.000
36.50951 242.000
36.52946 256.000
36.54941 263.000
36.56935 265.000
36.58930 267.000
36.60925 263.000
36.62919 291.000
36.64914 292.000
36.66909 248.000
36.68903 237.000
36.70898 262.000
36.72893 243.000
36.74888 258.000
36.76882 257.000
36.78877 233.000
36.80872 265.000
36.82866 248.000
36.84861 232.000
36.86856 245.000
36.88850 273.000
36.90845 271.000
36.92840 260.000
36.94835 293.000
36.96829 299.000
36.98824 298.000
37.00819 366.000
37.02813 412.000
37.04808 484.000
37.06803 549.000
37.08797 630.000
37.10792 709.000
37.12787 735.000
37.14781 705.000
37.16776 805.000
37.18771 705.000
37.20766 665.000
37.22760 609.000
37.24755 604.000
37.26750 636.000
37.28744 644.000
37.30739 564.000
37.32734 431.000
37.34728 377.000
37.36723 371.000
37.38718 411.000
37.40713 327.000
37.42707 271.000
37.44702 257.000
37.46697 279.000
37.48691 260.000
37.50686 261.000
37.52681 263.000
37.54675 234.000
37.56670 257.000
37.58665 264.000
37.60660 236.000
37.62654 231.000
37.64649 257.000
37.66644 216.000
37.68638 237.000
37.70633 215.000
37.72628 230.000
37.74622 235.000
37.76617 235.000
37.78612 233.000
37.80606 265.000
37.82601 218.000
37.84596 229.000
37.86591 239.000
37.88585 241.000
37.90580 231.000
37.92575 234.000
37.94569 237.000
37.96564 275.000
37.98559 233.000
38.00553 240.000
38.02548 236.000
38.04543 226.000
38.06538 224.000
38.08532 225.000
38.10527 248.000
38.12522 269.000
38.14516 235.000
38.16511 248.000
38.18506 239.000
38.20500 242.000
38.22495 278.000
38.24490 254.000
38.26484 292.000
38.28479 257.000
38.30474 271.000
38.32469 292.000
38.34463 314.000
38.36458 290.000
38.38453 310.000
38.40447 300.000
38.42442 336.000
38.44437 341.000
38.46431 362.000
38.48426 374.000
38.50421 446.000
38.52416 427.000
38.54410 449.000
38.56405 552.000
38.58400 531.000
38.60394 602.000
38.62389 751.000
38.64384 735.000
38.66378 764.000
38.68373 828.000
38.70368 780.000
38.72362 844.000
38.74357 823.000
38.76352 750.000
38.78347 729.000
38.80341 697.000
38.82336 671.000
38.84331 569.000
38.86325 574.000
38.88320 512.000
38.90315 513.000
38.92309 484.000
38.94304 539.000
38.96299 482.000
38.98294 518.000
39.00288 501.000
39.02283 508.000
39.04278 524.000
39.06272 456.000
39.08267 488.000
39.10262 497.000
39.12256 548.000
39.14251 584.000
39.16246 613.000
39.18241 648.000
39.20235 760.000
39.22230 856.000
39.24225 1011.000
39.26219 1043.000
39.28214 1151.000
39.30209 1143.000
39.32203 1083.000
39.34198 1020.000
39.36193 898.000
39.38187 873.000
39.40182 760.000
39.42177 597.000
39.44172 615.000
39.46166 557.000
39.48161 439.000
39.50156 413.000
39.52150 396.000
39.54145 332.000
39.56140 316.000
39.58134 304.000
39.60129 307.000
39.62124 322.000
39.64119 246.000
39.66113 252.000
39.68108 252.000
39.70103 249.000
39.72097 266.000
39.74092 242.000
39.76087 268.000
39.78081 248.000
39.80076 228.000
39.82071 270.000
39.84065 206.000
39.86060 234.000
39.88055 216.000
39.90050 229.000
39.92044 228.000
39.94039 207.000
39.96034 215.000
39.98028 228.000
40.00023 225.000
40.02018 222.000
40.04012 226.000
40.06007 212.000
40.08002 207.000
40.09997 241.000
40.11991 216.000
40.13986 223.000
40.15981 213.000
40.17975 231.000
40.19970 193.000
40.21965 211.000
40.23959 215.000
40.25954 229.000
40.27949 226.000
40.29943 217.000
40.31938 211.000
40.33933 192.000
40.35928 222.000
40.37922 209.000
40.39917 200.000
40.41912 221.000
40.43906 221.000
40.45901 200.000
40.47896 201.000
40.49890 208.000
40.51885 222.000
40.53880 208.000
40.55875 224.000
40.57869 230.000
40.59864 185.000
40.61859 208.000
40.63853 218.000
40.65848 204.000
40.67843 202.000
40.69837 227.000
40.71832 219.000
40.73827 216.000
40.75822 177.000
40.77816 245.000
40.79811 195.000
40.81806 184.000
40.83800 209.000
40.85795 205.000
40.87790 197.000
40.89784 224.000
40.91779 176.000
40.93774 178.000
40.95768 210.000
40.97763 195.000
40.99758 206.000
41.01753 189.000
41.03747 207.000
41.05742 242.000
41.07737 202.000
41.09731 195.000
41.11726 188.000
41.13721 219.000
41.15715 220.000
41.17710 187.000
41.19705 207.000
41.21700 214.000
41.23694 210.000
41.25689 203.000
41.27684 190.000
41.29678 215.000
41.31673 199.000
41.33668 193.000
41.35662 216.000
41.37657 223.000
41.39652 241.000
41.41646 206.000
41.43641 229.000
41.45636 187.000
41.47631 209.000
41.49625 212.000
41.51620 201.000
41.53615 205.000
41.55609 210.000
41.57604 196.000
41.59599 183.000
41.61593 198.000
41.63588 204.000
41.65583 182.000
41.67578 207.000
41.69572 193.000
41.71567 209.000
41.73562 199.000
41.75556 207.000
41.77551 193.000
41.79546 211.000
41.81540 193.000
41.83535 214.000
41.85530 204.000
41.87524 213.000
41.89519 188.000
41.91514 186.000
41.93509 196.000
41.95503 213.000
41.97498 221.000
41.99493 210.000
42.01487 184.000
42.03482 209.000
42.05477 214.000
42.07471 196.000
42.09466 184.000
42.11461 207.000
42.13456 204.000
42.15450 198.000
42.17445 198.000
42.19440 228.000
42.21434 199.000
42.23429 232.000
42.25424 210.000
42.27418 213.000
42.29413 188.000
42.31408 194.000
42.33403 228.000
42.35397 191.000
42.37392 233.000
42.39387 224.000
42.41381 221.000
42.43376 241.000
42.45371 215.000
42.47365 199.000
42.49360 210.000
42.51355 210.000
42.53349 228.000
42.55344 211.000
42.57339 210.000
42.59334 199.000
42.61328 228.000
42.63323 209.000
42.65318 206.000
42.67312 236.000
42.69307 219.000
42.71302 281.000
42.73296 241.000
42.75291 218.000
42.77286 275.000
42.79281 274.000
42.81275 228.000
42.83270 284.000
42.85265 279.000
42.87259 319.000
42.89254 310.000
42.91249 330.000
42.93243 356.000
42.95238 404.000
42.97233 406.000
42.99227 454.000
43.01222 495.000
43.03217 590.000
43.05212 578.000
43.07206 689.000
43.09201 704.000
43.11196 776.000
43.13190 776.000
43.15185 820.000
43.17180 886.000
43.19174 913.000
43.21169 876.000
43.23164 950.000
43.25159 909.000
43.27153 926.000
43.29148 1008.000
43.31143 1245.000
43.33137 1249.000
43.35132 1107.000
43.37127 1052.000
43.39121 965.000
43.41116 979.000
43.43111 997.000
43.45105 925.000
43.47100 749.000
43.49095 723.000
43.51090 682.000
43.53084 541.000
43.55079 472.000
43.57074 445.000
43.59068 381.000
43.61063 368.000
43.63058 290.000
43.65052 312.000
43.67047 283.000
43.69042 272.000
43.71037 285.000
43.73031 295.000
43.75026 278.000
43.77021 251.000
43.79015 258.000
43.81010 231.000
43.83005 247.000
43.84999 244.000
43.86994 210.000
43.88989 205.000
43.90984 237.000
43.92978 217.000
43.94973 212.000
43.96968 231.000
43.98962 216.000
44.00957 213.000
44.02952 199.000
44.04946 214.000
44.06941 230.000
44.08936 190.000
44.10930 220.000
44.12925 201.000
44.14920 199.000
44.16915 217.000
44.18909 236.000
44.20904 196.000
44.22899 219.000
44.24893 211.000
44.26888 195.000
44.28883 222.000
44.30877 223.000
44.32872 229.000
44.34867 190.000
44.36862 205.000
44.38856 232.000
44.40851 194.000
44.42846 231.000
44.44840 215.000
44.46835 200.000
44.48830 205.000
44.50824 210.000
44.52819 201.000
44.54814 224.000
44.56808 212.000
44.58803 219.000
44.60798 238.000
44.62793 190.000
44.64787 228.000
44.66782 200.000
44.68777 188.000
44.70771 160.000
44.72766 214.000
44.74761 229.000
44.76755 223.000
44.78750 212.000
44.80745 204.000
44.82740 200.000
44.84734 244.000
44.86729 205.000
44.88724 225.000
44.90718 215.000
44.92713 222.000
44.94708 219.000
44.96702 217.000
44.98697 200.000
45.00692 194.000
45.02686 206.000
45.04681 199.000
45.06676 210.000
45.08671 200.000
45.10665 233.000
45.12660 233.000
45.14655 179.000
45.16649 210.000
45.18644 198.000
45.20639 221.000
45.22633 223.000
45.24628 219.000
45.26623 205.000
45.28618 198.000
45.30612 200.000
45.32607 232.000
45.34602 170.000
45.36596 178.000
45.38591 231.000
45.40586 223.000
45.42580 222.000
45.44575 206.000
45.46570 203.000
45.48565 208.000
45.50559 202.000
45.52554 186.000
45.54549 201.000
45.56543 194.000
45.58538 184.000
45.60533 216.000
45.62527 190.000
45.64522 204.000
45.66517 230.000
45.68511 201.000
45.70506 201.000
45.72501 198.000
45.74496 176.000
45.76490 190.000
45.78485 201.000
45.80480 210.000
45.82474 194.000
45.84469 190.000
45.86464 196.000
45.88458 223.000
45.90453 188.000
45.92448 218.000
45.94443 212.000
45.96437 217.000
45.98432 202.000
46.00427 193.000
46.02421 218.000
46.04416 190.000
46.06411 188.000
46.08405 183.000
46.10400 201.000
46.12395 218.000
46.14389 203.000
46.16384 206.000
46.18379 219.000
46.20374 198.000
46.22368 199.000
46.24363 198.000
46.26358 231.000
46.28352 219.000
46.30347 198.000
46.32342 216.000
46.34336 211.000
46.36331 205.000
46.38326 202.000
46.40321 223.000
46.42315 187.000
46.44310 210.000
46.46305 214.000
46.48299 191.000
46.50294 187.000
46.52289 204.000
46.54283 206.000
46.56278 197.000
46.58273 204.000
46.60267 206.000
46.62262 214.000
46.64257 201.000
46.66252 179.000
46.68246 176.000
46.70241 175.000
46.72236 189.000
46.74230 206.000
46.76225 192.000
46.78220 190.000
46.80214 194.000
46.82209 195.000
46.84204 203.000
46.86199 203.000
46.88193 217.000
46.90188 185.000
46.92183 183.000
46.94177 223.000
46.96172 201.000
46.98167 208.000
47.00161 191.000
47.02156 200.000
47.04151 195.000
47.06146 190.000
47.08140 179.000
47.10135 203.000
47.12130 219.000
47.14124 202.000
47.16119 218.000
47.18114 211.000
47.20108 209.000
47.22103 199.000
47.24098 205.000
47.26092 186.000
47.28087 238.000
47.30082 191.000
47.32077 197.000
47.34071 199.000
47.36066 229.000
47.38061 215.000
47.40055 189.000
47.42050 211.000
47.44045 211.000
47.46039 212.000
47.48034 208.000
47.50029 214.000
47.52024 194.000
47.54018 206.000
47.56013 191.000
47.58008 207.000
47.60002 229.000
47.61997 205.000
47.63992 205.000
47.65986 214.000
47.67981 225.000
47.69976 212.000
47.71970 216.000
47.73965 212.000
47.75960 209.000
47.77955 231.000
47.79949 201.000
47.81944 201.000
47.83939 196.000
47.85933 202.000
47.87928 214.000
47.89923 208.000
47.91917 220.000
47.93912 235.000
47.95907 189.000
47.97902 229.000
47.99896 234.000
48.01891 222.000
48.03886 216.000
48.05880 239.000
48.07875 228.000
48.09870 228.000
48.11864 223.000
48.13859 240.000
48.15854 230.000
48.17848 228.000
48.19843 226.000
48.21838 208.000
48.23833 224.000
48.25827 248.000
48.27822 264.000
48.29817 253.000
48.31811 257.000
48.33806 279.000
48.35801 248.000
48.37795 267.000
48.39790 295.000
48.41785 293.000
48.43780 325.000
48.45774 317.000
48.47769 338.000
48.49764 363.000
48.51758 358.000
48.53753 393.000
48.55748 389.000
48.57742 472.000
48.59737 551.000
48.61732 623.000
48.63726 716.000
48.65721 804.000
48.67716 940.000
48.69711 972.000
48.71705 998.000
48.73700 995.000
48.75695 954.000
48.77689 919.000
48.79684 881.000
48.81679 840.000
48.83673 822.000
48.85668 797.000
48.87663 712.000
48.89658 641.000
48.91652 559.000
48.93647 470.000
48.95642 528.000
48.97636 465.000
48.99631 432.000
49.01626 395.000
49.03620 362.000
49.05615 337.000
49.07610 347.000
49.09605 290.000
49.11599 324.000
49.13594 271.000
49.15589 284.000
49.17583 259.000
49.19578 274.000
49.21573 245.000
49.23567 256.000
49.25562 243.000
49.27557 240.000
49.29551 250.000
49.31546 239.000
49.33541 228.000
49.35536 241.000
49.37530 214.000
49.39525 245.000
49.41520 253.000
49.43514 248.000
49.45509 246.000
49.47504 221.000
49.49498 243.000
49.51493 243.000
49.53488 247.000
49.55483 195.000
49.57477 227.000
49.59472 226.000
49.61467 239.000
49.63461 222.000
49.65456 197.000
49.67451 263.000
49.69445 220.000
49.71440 214.000
49.73435 217.000
49.75429 217.000
49.77424 209.000
49.79419 197.000
49.81414 195.000
49.83408 202.000
49.85403 212.000
49.87398 188.000
49.89392 207.000
49.91387 192.000
49.93382 229.000
49.95376 215.000
49.97371 235.000
49.99366 216.000
50.01361 205.000
50.03355 229.000
50.05350 216.000
50.07345 231.000
50.09339 207.000
50.11334 208.000
50.13329 208.000
50.15323 212.000
50.17318 195.000
50.19313 213.000
50.21307 207.000
50.23302 205.000
50.25297 191.000
50.27292 212.000
50.29286 215.000
50.31281 202.000
50.33276 202.000
50.35270 179.000
50.37265 216.000
50.39260 213.000
50.41254 217.000
50.43249 207.000
50.45244 217.000
50.47239 215.000
50.49233 195.000
50.51228 204.000
50.53223 224.000
50.55217 180.000
50.57212 179.000
50.59207 182.000
50.61201 229.000
50.63196 169.000
50.65191 192.000
50.67186 193.000
50.69180 216.000
50.71175 192.000
50.73170 207.000
50.75164 225.000
50.77159 200.000
50.79154 214.000
50.81148 231.000
50.83143 193.000
50.85138 213.000
50.87132 186.000
50.89127 195.000
50.91122 214.000
50.93117 195.000
50.95111 201.000
50.97106 201.000
50.99101 216.000
51.01095 215.000
51.03090 201.000
51.05085 193.000
51.07079 181.000
51.09074 181.000
51.11069 198.000
51.13064 224.000
51.15058 191.000
51.17053 203.000
51.19048 180.000
51.21042 206.000
51.23037 195.000
51.25032 233.000
51.27026 189.000
51.29021 230.000
51.31016 220.000
51.33010 194.000
51.35005 184.000
51.37000 205.000
51.38995 211.000
51.40989 187.000
51.42984 206.000
51.44979 173.000
51.46973 214.000
51.48968 198.000
51.50963 170.000
51.52957 187.000
51.54952 202.000
51.56947 193.000
51.58942 197.000
51.60936 206.000
51.62931 191.000
51.64926 211.000
51.66920 203.000
51.68915 192.000
51.70910 177.000
51.72904 212.000
51.74899 200.000
51.76894 207.000
51.78888 193.000
51.80883 211.000
51.82878 178.000
51.84873 216.000
51.86867 212.000
51.88862 207.000
51.90857 205.000
51.92851 194.000
51.94846 209.000
51.96841 212.000
51.98835 217.000
52.00830 213.000
52.02825 203.000
52.04820 199.000
52.06814 203.000
52.08809 211.000
52.10804 201.000
52.12798 168.000
52.14793 214.000
52.16788 186.000
52.18782 206.000
52.20777 205.000
52.22772 203.000
52.24767 198.000
52.26761 201.000
52.28756 202.000
52.30751 200.000
52.32745 184.000
52.34740 215.000
52.36735 201.000
52.38729 189.000
52.40724 193.000
52.42719 212.000
52.44713 203.000
52.46708 228.000
52.48703 206.000
52.50698 181.000
52.52692 188.000
52.54687 209.000
52.56682 169.000
52.58676 204.000
52.60671 195.000
52.62666 174.000
52.64660 216.000
52.66655 196.000
52.68650 228.000
52.70645 204.000
52.72639 195.000
52.74634 197.000
52.76629 184.000
52.78623 209.000
52.80618 202.000
52.82613 218.000
52.84607 209.000
52.86602 194.000
52.88597 215.000
52.90591 181.000
52.92586 212.000
52.94581 206.000
52.96576 196.000
52.98570 214.000
53.00565 208.000
53.02560 226.000
53.04554 213.000
53.06549 199.000
53.08544 205.000
53.10538 204.000
53.12533 219.000
53.14528 205.000
53.16523 218.000
53.18517 229.000
53.20512 212.000
53.22507 214.000
53.24501 226.000
53.26496 206.000
53.28491 233.000
53.30485 245.000
53.32480 234.000
53.34475 255.000
53.36469 215.000
53.38464 218.000
53.40459 248.000
53.42454 190.000
53.44448 253.000
53.46443 230.000
53.48438 267.000
53.50432 247.000
53.52427 223.000
53.54422 240.000
53.56416 227.000
53.58411 228.000
53.60406 234.000
53.62401 233.000
53.64395 266.000
53.66390 253.000
53.68385 260.000
53.70379 308.000
53.72374 361.000
53.74369 373.000
53.76363 464.000
53.78358 355.000
53.80353 336.000
53.82348 303.000
53.84342 282.000
53.86337 299.000
53.88332 308.000
53.90326 312.000
53.92321 304.000
53.94316 252.000
53.96310 275.000
53.98305 226.000
54.00300 251.000
54.02294 208.000
54.04289 214.000
54.06284 209.000
54.08279 189.000
54.10273 194.000
54.12268 230.000
54.14263 193.000
54.16257 197.000
54.18252 197.000
54.20247 219.000
54.22241 185.000
54.24236 210.000
54.26231 165.000
54.28226 183.000
54.30220 193.000
54.32215 206.000
54.34210 190.000
54.36204 247.000
54.38199 207.000
54.40194 231.000
54.42188 205.000
54.44183 199.000
54.46178 192.000
54.48172 220.000
54.50167 184.000
54.52162 214.000
54.54157 198.000
54.56151 209.000
54.58146 228.000
54.60141 207.000
54.62135 184.000
54.64130 204.000
54.66125 199.000
54.68119 224.000
54.70114 170.000
54.72109 208.000
54.74104 177.000
54.76098 183.000
54.78093 211.000
54.80088 234.000
54.82082 207.000
54.84077 226.000
54.86072 196.000
54.88066 202.000
54.90061 168.000
54.92056 189.000
54.94050 193.000
54.96045 195.000
54.98040 208.000
55.00035 204.000
55.02029 211.000
55.04024 217.000
55.06019 183.000
55.08013 185.000
55.10008 186.000
55.12003 223.000
55.13997 205.000
55.15992 181.000
55.17987 184.000
55.19982 218.000
55.21976 188.000
55.23971 198.000
55.25966 178.000
55.27960 222.000
55.29955 231.000
55.31950 202.000
55.33944 196.000
55.35939 204.000
55.37934 197.000
55.39929 192.000
55.41923 193.000
55.43918 210.000
55.45913 214.000
55.47907 165.000
55.49902 185.000
55.51897 198.000
55.53891 193.000
55.55886 206.000
55.57881 202.000
55.59875 202.000
55.61870 177.000
55.63865 188.000
55.65860 200.000
55.67854 190.000
55.69849 208.000
55.71844 207.000
55.73838 211.000
55.75833 222.000
55.77828 194.000
55.79822 213.000
55.81817 221.000
55.83812 177.000
55.85807 198.000
55.87801 219.000
55.89796 188.000
55.91791 202.000
55.93785 198.000
55.95780 180.000
55.97775 194.000
55.99769 177.000
56.01764 189.000
56.03759 191.000
56.05753 192.000
56.07748 216.000
56.09743 210.000
56.11738 192.000
56.13732 195.000
56.15727 238.000
56.17722 208.000
56.19716 191.000
56.21711 193.000
56.23706 201.000
56.25700 211.000
56.27695 187.000
56.29690 181.000
56.31685 192.000
56.33679 196.000
56.35674 228.000
56.37669 191.000
56.39663 199.000
56.41658 199.000
56.43653 210.000
56.45647 218.000
56.47642 207.000
56.49637 197.000
56.51631 205.000
56.53626 205.000
56.55621 197.000
56.57616 193.000
56.59610 181.000
56.61605 208.000
56.63600 187.000
56.65594 211.000
56.67589 212.000
56.69584 187.000
56.71578 209.000
56.73573 210.000
56.75568 214.000
56.77563 212.000
56.79557 189.000
56.81552 197.000
56.83547 223.000
56.85541 231.000
56.87536 205.000
56.89531 199.000
56.91525 249.000
56.93520 205.000
56.95515 201.000
56.97510 222.000
56.99504 231.000
57.01499 226.000
57.03494 195.000
57.05488 243.000
57.07483 229.000
57.09478 242.000
57.11472 230.000
57.13467 287.000
57.15462 262.000
57.17456 267.000
57.19451 300.000
57.21446 333.000
57.23441 385.000
57.25435 520.000
57.27430 583.000
57.29425 756.000
57.31419 719.000
57.33414 684.000
57.35409 580.000
57.37403 526.000
57.39398 478.000
57.41393 486.000
57.43388 519.000
57.45382 531.000
57.47377 521.000
57.49372 446.000
57.51366 432.000
57.53361 326.000
57.55356 358.000
57.57350 282.000
57.59345 273.000
57.61340 266.000
57.63334 231.000
57.65329 236.000
57.67324 227.000
57.69319 249.000
57.71313 229.000
57.73308 239.000
57.75303 211.000
57.77297 223.000
57.79292 193.000
57.81287 221.000
57.83281 208.000
57.85276 223.000
57.87271 215.000
57.89266 204.000
57.91260 226.000
57.93255 238.000
57.95250 218.000
57.97244 223.000
57.99239 197.000
58.01234 244.000
58.03228 223.000
58.05223 229.000
58.07218 243.000
58.09212 251.000
58.11207 233.000
58.13202 268.000
58.15197 274.000
58.17191 290.000
58.19186 297.000
58.21181 261.000
58.23175 273.000
58.25170 272.000
58.27165 264.000
58.29159 267.000
58.31154 270.000
58.33149 254.000
58.35144 267.000
58.37138 253.000
58.39133 290.000
58.41128 257.000
58.43122 241.000
58.45117 228.000
58.47112 217.000
58.49106 269.000
58.51101 239.000
58.53096 264.000
58.55090 232.000
58.57085 201.000
58.59080 217.000
58.61075 213.000
58.63069 206.000
58.65064 190.000
58.67059 191.000
58.69053 205.000
58.71048 193.000
58.73043 206.000
58.75037 210.000
58.77032 204.000
58.79027 206.000
58.81022 204.000
58.83016 206.000
58.85011 217.000
58.87006 217.000
58.89000 209.000
58.90995 208.000
58.92990 213.000
58.94984 173.000
58.96979 203.000
58.98974 215.000
59.00969 209.000
59.02963 217.000
59.04958 194.000
59.06953 188.000
59.08947 204.000
59.10942 216.000
59.12937 202.000
59.14931 199.000
59.16926 195.000
59.18921 203.000
59.20915 217.000
59.22910 163.000
59.24905 214.000
59.26900 202.000
59.28894 199.000
59.30889 184.000
59.32884 200.000
59.34878 223.000
59.36873 211.000
59.38868 194.000
59.40862 229.000
59.42857 206.000
59.44852 182.000
59.46847 199.000
59.48841 191.000
59.50836 221.000
59.52831 217.000
59.54825 214.000
59.56820 203.000
59.58815 172.000
59.60809 198.000
59.62804 186.000
59.64799 219.000
59.66793 221.000
59.68788 236.000
59.70783 207.000
59.72778 184.000
59.74772 229.000
59.76767 214.000
59.78762 224.000
59.80756 198.000
59.82751 208.000
59.84746 196.000
59.86740 213.000
59.88735 212.000
59.90730 205.000
59.92725 201.000
59.94719 192.000
59.96714 199.000
59.98709 186.000
60.00703 222.000
60.02698 193.000
60.04693 173.000
60.06687 199.000
60.08682 204.000
60.10677 213.000
60.12671 186.000
60.14666 177.000
60.16661 204.000
60.18656 190.000
60.20650 249.000
60.22645 204.000
60.24640 195.000
60.26634 211.000
60.28629 191.000
60.30624 213.000
60.32618 199.000
60.34613 212.000
60.36608 223.000
60.38603 201.000
60.40597 200.000
60.42592 212.000
60.44587 204.000
60.46581 189.000
60.48576 195.000
60.50571 214.000
60.52565 215.000
60.54560 233.000
60.56555 210.000
60.58550 181.000
60.60544 176.000
60.62539 228.000
60.64534 220.000
60.66528 216.000
60.68523 201.000
60.70518 217.000
60.72512 222.000
60.74507 227.000
60.76502 202.000
60.78496 216.000
60.80491 208.000
60.82486 224.000
60.84481 223.000
60.86475 206.000
60.88470 201.000
60.90465 205.000
60.92459 191.000
60.94454 215.000
60.96449 235.000
60.98443 215.000
61.00438 219.000
61.02433 202.000
61.04428 209.000
61.06422 203.000
61.08417 228.000
61.10412 214.000
61.12406 228.000
61.14401 203.000
61.16396 222.000
61.18390 230.000
61.20385 236.000
61.22380 202.000
61.24374 237.000
61.26369 209.000
61.28364 259.000
61.30359 240.000
61.32353 202.000
61.34348 259.000
61.36343 272.000
61.38337 267.000
61.40332 280.000
61.42327 264.000
61.44321 275.000
61.46316 273.000
61.48311 289.000
61.50306 302.000
61.52300 310.000
61.54295 317.000
61.56290 343.000
61.58284 333.000
61.60279 342.000
61.62274 300.000
61.64268 333.000
61.66263 345.000
61.68258 322.000
61.70252 355.000
61.72247 367.000
61.74242 337.000
61.76237 326.000
61.78231 312.000
61.80226 352.000
61.82221 360.000
61.84215 350.000
61.86210 381.000
61.88205 433.000
61.90199 445.000
61.92194 471.000
61.94189 500.000
61.96184 470.000
61.98178 510.000
62.00173 525.000
62.02168 534.000
62.04162 468.000
62.06157 433.000
62.08152 454.000
62.10146 443.000
62.12141 441.000
62.14136 429.000
62.16131 413.000
62.18125 406.000
62.20120 359.000
62.22115 369.000
62.24109 333.000
62.26104 338.000
62.28099 339.000
62.30093 313.000
62.32088 297.000
62.34083 290.000
62.36077 306.000
62.38072 315.000
62.40067 336.000
62.42062 318.000
62.44056 299.000
62.46051 338.000
62.48046 325.000
62.50040 360.000
62.52035 367.000
62.54030 420.000
62.56024 435.000
62.58019 398.000
62.60014 443.000
62.62009 417.000
62.64003 491.000
62.65998 471.000
62.67993 481.000
62.69987 515.000
62.71982 498.000
62.73977 512.000
62.75971 524.000
62.77966 520.000
62.79961 528.000
62.81955 505.000
62.83950 536.000
62.85945 566.000
62.87940 667.000
62.89934 835.000
62.91929 1013.000
62.93924 1110.000
62.95918 1027.000
62.97913 831.000
62.99908 713.000
63.01902 598.000
63.03897 612.000
63.05892 593.000
63.07887 588.000
63.09881 690.000
63.11876 646.000
63.13871 675.000
63.15865 517.000
63.17860 427.000
63.19855 397.000
63.21849 381.000
63.23844 320.000
63.25839 249.000
63.27833 265.000
63.29828 253.000
63.31823 255.000
63.33818 250.000
63.35812 255.000
63.37807 249.000
63.39802 251.000
63.41796 216.000
63.43791 241.000
63.45786 224.000
63.47780 228.000
63.49775 265.000
63.51770 250.000
63.53765 204.000
63.55759 220.000
63.57754 236.000
63.59749 226.000
63.61743 209.000
63.63738 217.000
63.65733 219.000
63.67727 234.000
63.69722 229.000
63.71717 209.000
63.73712 226.000
63.75706 233.000
63.77701 202.000
63.79696 232.000
63.81690 273.000
63.83685 248.000
63.85680 248.000
63.87674 269.000
63.89669 279.000
63.91664 297.000
63.93658 299.000
63.95653 300.000
63.97648 331.000
63.99643 323.000
64.01637 334.000
64.03632 347.000
64.05627 349.000
64.07621 408.000
64.09616 372.000
64.11611 402.000
64.13605 380.000
64.15600 405.000
64.17595 399.000
64.19590 367.000
64.21584 432.000
64.23579 417.000
64.25574 352.000
64.27568 391.000
64.29563 379.000
64.31558 298.000
64.33552 346.000
64.35547 355.000
64.37542 290.000
64.39536 304.000
64.41531 286.000
64.43526 288.000
64.45521 258.000
64.47515 273.000
64.49510 274.000
64.51505 236.000
64.53499 291.000
64.55494 227.000
64.57489 225.000
64.59483 206.000
64.61478 228.000
64.63473 238.000
64.65468 247.000
64.67462 237.000
64.69457 244.000
64.71452 233.000
64.73446 206.000
64.75441 217.000
64.77436 214.000
64.79430 199.000
64.81425 207.000
64.83420 229.000
64.85414 198.000
64.87409 224.000
64.89404 232.000
64.91399 233.000
64.93393 224.000
64.95388 225.000
64.97383 219.000
64.99377 238.000
65.01372 221.000
65.03367 209.000
65.05361 225.000
65.07356 202.000
65.09351 200.000
65.11346 217.000
65.13340 211.000
65.15335 219.000
65.17330 219.000
65.19324 217.000
65.21319 218.000
65.23314 230.000
65.25308 219.000
65.27303 218.000
65.29298 200.000
65.31293 243.000
65.33287 207.000
65.35282 213.000
65.37277 245.000
65.39271 211.000
65.41266 245.000
65.43261 213.000
65.45255 245.000
65.47250 246.000
65.49245 241.000
65.51239 265.000
65.53234 260.000
65.55229 246.000
65.57224 238.000
65.59218 240.000
65.61213 265.000
65.63208 249.000
65.65202 271.000
65.67197 267.000
65.69192 257.000
65.71186 272.000
65.73181 287.000
65.75176 263.000
65.77171 258.000
65.79165 252.000
65.81160 271.000
65.83155 256.000
65.85149 252.000
65.87144 254.000
65.89139 233.000
65.91133 271.000
65.93128 262.000
65.95123 261.000
65.97117 253.000
65.99112 261.000
66.01107 237.000
66.03102 240.000
66.05096 250.000
66.07091 244.000
66.09086 262.000
66.11080 259.000
66.13075 282.000
66.15070 308.000
66.17064 321.000
66.19059 256.000
66.21054 338.000
66.23049 324.000
66.25043 303.000
66.27038 311.000
66.29033 317.000
66.31027 328.000
66.33022 344.000
66.35017 331.000
66.37011 348.000
66.39006 356.000
66.41001 382.000
66.42995 350.000
66.44990 394.000
66.46985 357.000
66.48980 381.000
66.50974 363.000
66.52969 361.000
66.54964 377.000
66.56958 346.000
66.58953 354.000
66.60948 330.000
66.62942 362.000
66.64937 341.000
66.66932 334.000
66.68927 298.000
66.70921 306.000
66.72916 326.000
66.74911 284.000
66.76905 311.000
66.78900 306.000
66.80895 287.000
66.82889 288.000
66.84884 276.000
66.86879 268.000
66.88874 299.000
66.90868 294.000
66.92863 277.000
66.94858 286.000
66.96852 281.000
66.98847 278.000
67.00842 255.000
67.02836 239.000
67.04831 261.000
67.06826 261.000
67.08820 246.000
67.10815 245.000
67.12810 242.000
67.14805 254.000
67.16799 244.000
67.18794 234.000
67.20789 265.000
67.22783 227.000
67.24778 227.000
67.26773 219.000
67.28767 241.000
67.30762 233.000
67.32757 213.000
67.34752 199.000
67.36746 214.000
67.38741 226.000
67.40736 216.000
67.42730 202.000
67.44725 229.000
67.46720 242.000
67.48714 209.000
67.50709 209.000
67.52704 230.000
67.54698 217.000
67.56693 214.000
67.58688 231.000
67.60683 225.000
67.62677 211.000
67.64672 254.000
67.66667 221.000
67.68661 240.000
67.70656 248.000
67.72651 242.000
67.74645 255.000
67.76640 236.000
67.78635 256.000
67.80630 241.000
67.82624 275.000
67.84619 271.000
67.86614 252.000
67.88608 272.000
67.90603 292.000
67.92598 234.000
67.94592 267.000
67.96587 253.000
67.98582 269.000
68.00576 285.000
68.02571 298.000
68.04566 281.000
68.06561 299.000
68.08555 260.000
68.10550 308.000
68.12545 235.000
68.14539 244.000
68.16534 256.000
68.18529 246.000
68.20523 232.000
68.22518 251.000
68.24513 253.000
68.26508 251.000
68.28502 255.000
68.30497 217.000
68.32492 199.000
68.34486 243.000
68.36481 228.000
68.38476 204.000
68.40470 243.000
68.42465 225.000
68.44460 242.000
68.46455 208.000
68.48449 210.000
68.50444 224.000
68.52439 208.000
68.54433 227.000
68.56428 216.000
68.58423 211.000
68.60417 186.000
68.62412 203.000
68.64407 224.000
68.66401 186.000
68.68396 228.000
68.70391 230.000
68.72386 188.000
68.74380 215.000
68.76375 204.000
68.78370 211.000
68.80364 179.000
68.82359 207.000
68.84354 207.000
68.86348 215.000
68.88343 200.000
68.90338 198.000
68.92333 192.000
68.94327 210.000
68.96322 201.000
68.98317 188.000
69.00311 189.000
69.02306 185.000
69.04301 206.000
69.06295 183.000
69.08290 211.000
69.10285 188.000
69.12279 183.000
69.14274 197.000
69.16269 218.000
69.18264 173.000
69.20258 200.000
69.22253 197.000
69.24248 188.000
69.26242 180.000
69.28237 228.000
69.30232 203.000
69.32226 212.000
69.34221 205.000
69.36216 210.000
69.38211 182.000
69.40205 192.000
69.42200 220.000
69.44195 201.000
69.46189 200.000
69.48184 209.000
69.50179 207.000
69.52173 199.000
69.54168 205.000
69.56163 206.000
69.58157 176.000
69.60152 212.000
69.62147 184.000
69.64142 205.000
69.66136 177.000
69.68131 206.000
69.70126 212.000
69.72120 185.000
69.74115 212.000
69.76110 191.000
69.78104 180.000
69.80099 226.000
69.82094 189.000
69.84089 169.000
69.86083 191.000
69.88078 178.000
69.90073 211.000
69.92067 189.000
69.94062 191.000
69.96057 205.000
69.98051 175.000
70.00046 192.000
70.02041 202.000
70.04035 198.000
70.06030 185.000
70.08025 198.000
70.10020 181.000
70.12014 183.000
70.14009 185.000
70.16004 218.000
70.17998 221.000
70.19993 191.000
70.21988 213.000
70.23982 191.000
70.25977 199.000
70.27972 203.000
70.29967 195.000
70.31961 186.000
70.33956 200.000
70.35951 193.000
70.37945 214.000
70.39940 205.000
70.41935 198.000
70.43929 216.000
70.45924 193.000
70.47919 191.000
70.49914 189.000
70.51908 177.000
70.53903 211.000
70.55898 209.000
70.57892 221.000
70.59887 206.000
70.61882 170.000
70.63876 153.000
70.65871 206.000
70.67866 179.000
70.69860 214.000
70.71855 195.000
70.73850 176.000
70.75845 196.000
70.77839 191.000
70.79834 212.000
70.81829 198.000
70.83823 191.000
70.85818 188.000
70.87813 202.000
70.89807 190.000
70.91802 214.000
70.93797 187.000
70.95792 205.000
70.97786 187.000
70.99781 209.000
71.01776 177.000
71.03770 198.000
71.05765 194.000
71.07760 208.000
71.09754 207.000
71.11749 196.000
71.13744 185.000
71.15738 211.000
71.17733 193.000
71.19728 204.000
71.21723 212.000
71.23717 192.000
71.25712 227.000
71.27707 192.000
71.29701 213.000
71.31696 237.000
71.33691 223.000
71.35685 217.000
71.37680 216.000
71.39675 255.000
71.41670 248.000
71.43664 238.000
71.45659 223.000
71.47654 250.000
71.49648 247.000
71.51643 246.000
71.53638 214.000
71.55632 205.000
71.57627 235.000
71.59622 232.000
71.61616 208.000
71.63611 209.000
71.65606 229.000
71.67601 191.000
71.69595 221.000
71.71590 196.000
71.73585 214.000
71.75579 219.000
71.77574 199.000
71.79569 226.000
71.81563 204.000
71.83558 208.000
71.85553 209.000
71.87548 218.000
71.89542 195.000
71.91537 210.000
71.93532 181.000
71.95526 200.000
71.97521 206.000
71.99516 216.000
72.01510 200.000
72.03505 208.000
72.05500 224.000
72.07495 191.000
72.09489 182.000
72.11484 200.000
72.13479 182.000
72.15473 202.000
72.17468 191.000
72.19463 237.000
72.21457 207.000
72.23452 212.000
72.25447 214.000
72.27441 235.000
72.29436 223.000
72.31431 214.000
72.33426 211.000
72.35420 226.000
72.37415 223.000
72.39410 205.000
72.41404 213.000
72.43399 224.000
72.45394 211.000
72.47388 210.000
72.49383 216.000
72.51378 223.000
72.53373 219.000
72.55367 207.000
72.57362 199.000
72.59357 231.000
72.61351 220.000
72.63346 233.000
72.65341 208.000
72.67335 199.000
72.69330 214.000
72.71325 187.000
72.73319 196.000
72.75314 206.000
72.77309 193.000
72.79304 231.000
72.81298 217.000
72.83293 181.000
72.85288 197.000
72.87282 224.000
72.89277 191.000
72.91272 208.000
72.93266 207.000
72.95261 207.000
72.97256 217.000
72.99251 205.000
73.01245 199.000
73.03240 195.000
73.05235 192.000
73.07229 203.000
73.09224 217.000
73.11219 214.000
73.13213 224.000
73.15208 198.000
73.17203 203.000
73.19197 198.000
73.21192 213.000
73.23187 205.000
73.25182 215.000
73.27176 229.000
73.29171 246.000
73.31166 235.000
73.33160 222.000
73.35155 256.000
73.37150 226.000
73.39144 250.000
73.41139 254.000
73.43134 237.000
73.45129 258.000
73.47123 259.000
73.49118 238.000
73.51113 249.000
73.53107 236.000
73.55102 268.000
73.57097 249.000
73.59091 252.000
73.61086 234.000
73.63081 244.000
73.65076 250.000
73.67070 233.000
73.69065 219.000
73.71060 250.000
73.73054 234.000
73.75049 222.000
73.77044 247.000
73.79038 231.000
73.81033 219.000
73.83028 196.000
73.85022 233.000
73.87017 224.000
73.89012 213.000
73.91007 213.000
73.93001 223.000
73.94996 214.000
73.96991 230.000
73.98985 196.000
74.00980 198.000
74.02975 223.000
74.04969 220.000
74.06964 240.000
74.08959 228.000
74.10954 204.000
74.12948 220.000
74.14943 206.000
74.16938 208.000
74.18932 219.000
74.20927 221.000
74.22922 223.000
74.24916 212.000
74.26911 200.000
74.28906 236.000
74.30900 236.000
74.32895 219.000
74.34890 218.000
74.36885 206.000
74.38879 261.000
74.40874 288.000
74.42869 264.000
74.44863 331.000
74.46858 352.000
74.48853 354.000
74.50847 322.000
74.52842 309.000
74.54837 280.000
74.56832 276.000
74.58826 262.000
74.60821 262.000
74.62816 241.000
74.64810 277.000
74.66805 300.000
74.68800 299.000
74.70794 300.000
74.72789 265.000
74.74784 286.000
74.76778 292.000
74.78773 276.000
74.80768 236.000
74.82763 228.000
74.84757 259.000
74.86752 258.000
74.88747 256.000
74.90741 269.000
74.92736 266.000
74.94731 247.000
74.96725 256.000
74.98720 311.000
75.00715 286.000
75.02710 278.000
75.04704 295.000
75.06699 304.000
75.08694 286.000
75.10688 311.000
75.12683 321.000
75.14678 338.000
75.16672 296.000
75.18667 286.000
75.20662 296.000
75.22657 296.000
75.24651 311.000
75.26646 289.000
75.28641 316.000
75.30635 301.000
75.32630 291.000
75.34625 267.000
75.36619 316.000
75.38614 284.000
75.40609 304.000
75.42603 290.000
75.44598 294.000
75.46593 314.000
75.48588 302.000
75.50582 315.000
75.52577 319.000
75.54572 287.000
75.56566 279.000
75.58561 280.000
75.60556 273.000
75.62550 275.000
75.64545 236.000
75.66540 291.000
75.68535 250.000
75.70529 236.000
75.72524 249.000
75.74519 252.000
75.76513 253.000
75.78508 244.000
75.80503 239.000
75.82497 246.000
75.84492 224.000
75.86487 230.000
75.88481 218.000
75.90476 221.000
75.92471 219.000
75.94466 240.000
75.96460 193.000
75.98455 208.000
76.00450 235.000
76.02444 196.000
76.04439 204.000
76.06434 207.000
76.08428 207.000
76.10423 210.000
76.12418 192.000
76.14413 198.000
76.16407 190.000
76.18402 212.000
76.20397 184.000
76.22391 202.000
76.24386 207.000
76.26381 195.000
76.28375 197.000
76.30370 222.000
76.32365 187.000
76.34359 199.000
76.36354 201.000
76.38349 207.000
76.40344 195.000
76.42338 195.000
76.44333 193.000
76.46328 208.000
76.48322 205.000
76.50317 210.000
76.52312 195.000
76.54306 189.000
76.56301 204.000
76.58296 225.000
76.60291 201.000
76.62285 167.000
76.64280 205.000
76.66275 220.000
76.68269 185.000
76.70264 200.000
76.72259 188.000
76.74253 210.000
76.76248 185.000
76.78243 181.000
76.80238 209.000
76.82232 202.000
76.84227 196.000
76.86222 195.000
76.88216 202.000
76.90211 200.000
76.92206 209.000
76.94200 203.000
76.96195 217.000
76.98190 198.000
77.00184 197.000
77.02179 209.000
77.04174 195.000
77.06169 203.000
77.08163 196.000
77.10158 191.000
77.12153 212.000
77.14147 184.000
77.16142 186.000
77.18137 193.000
77.20131 197.000
77.22126 205.000
77.24121 186.000
77.26116 210.000
77.28110 213.000
77.30105 175.000
77.32100 197.000
77.34094 228.000
77.36089 197.000
77.38084 195.000
77.40078 209.000
77.42073 215.000
77.44068 196.000
77.46062 183.000
77.48057 219.000
77.50052 233.000
77.52047 210.000
77.54041 200.000
77.56036 210.000
77.58031 191.000
77.60025 233.000
77.62020 216.000
77.64015 219.000
77.66009 236.000
77.68004 270.000
77.69999 215.000
77.71994 254.000
77.73988 250.000
77.75983 236.000
77.77978 211.000
77.79972 248.000
77.81967 273.000
77.83962 262.000
77.85956 251.000
77.87951 248.000
77.89946 261.000
77.91940 257.000
77.93935 267.000
77.95930 281.000
77.97925 255.000
77.99919 256.000
78.01914 240.000
78.03909 275.000
78.05903 263.000
78.07898 278.000
78.09893 242.000
78.11887 246.000
78.13882 266.000
78.15877 269.000
78.17872 257.000
78.19866 271.000
78.21861 255.000
78.23856 249.000
78.25850 277.000
78.27845 282.000
78.29840 295.000
78.31834 286.000
78.33829 258.000
78.35824 268.000
78.37819 271.000
78.39813 293.000
78.41808 243.000
78.43803 255.000
78.45797 263.000
78.47792 281.000
78.49787 219.000
78.51781 220.000
78.53776 239.000
78.55771 222.000
78.57765 222.000
78.59760 205.000
78.61755 217.000
78.63750 250.000
78.65744 224.000
78.67739 196.000
78.69734 211.000
78.71728 221.000
78.73723 210.000
78.75718 219.000
78.77712 226.000
78.79707 220.000
78.81702 212.000
78.83697 204.000
78.85691 193.000
78.87686 231.000
78.89681 229.000
78.91675 243.000
78.93670 229.000
78.95665 230.000
78.97659 246.000
78.99654 242.000
79.01649 257.000
79.03643 247.000
79.05638 223.000
79.07633 249.000
79.09628 273.000
79.11622 231.000
79.13617 259.000
79.15612 266.000
79.17606 271.000
79.19601 271.000
79.21596 221.000
79.23590 243.000
79.25585 250.000
79.27580 257.000
79.29575 288.000
79.31569 241.000
79.33564 249.000
79.35559 225.000
79.37553 254.000
79.39548 249.000
79.41543 254.000
79.43537 273.000
79.45532 261.000
79.47527 254.000
79.49521 260.000
79.51516 260.000
79.53511 222.000
79.55506 224.000
79.57500 216.000
79.59495 209.000
79.61490 210.000
79.63484 217.000
79.65479 209.000
79.67474 206.000
79.69468 229.000
79.71463 244.000
79.73458 237.000
79.75453 231.000
79.77447 216.000
79.79442 213.000
79.81437 210.000
79.83431 205.000
79.85426 180.000
79.87421 206.000
79.89415 202.000
79.91410 205.000
79.93405 212.000
79.95399 179.000
79.97394 198.000
79.99389 220.000
80.01384 200.000
80.03378 197.000
80.05373 206.000
80.07368 191.000
80.09362 216.000
80.11357 202.000
80.13352 237.000
80.15346 227.000
80.17341 193.000
80.19336 205.000
80.21331 208.000
80.23325 217.000
80.25320 223.000
80.27315 214.000
80.29309 195.000
80.31304 196.000
80.33299 211.000
80.35293 232.000
80.37288 190.000
80.39283 226.000
80.41278 215.000
80.43272 184.000
80.45267 219.000
80.47262 197.000
80.49256 196.000
80.51251 227.000
80.53246 203.000
80.55240 198.000
80.57235 206.000
80.59230 202.000
80.61224 196.000
80.63219 222.000
80.65214 232.000
80.67209 210.000
80.69203 187.000
80.71198 203.000
80.73193 200.000
80.75187 180.000
80.77182 178.000
80.79177 193.000
80.81171 185.000
80.83166 196.000
80.85161 179.000
80.87156 217.000
80.89150 210.000
80.91145 199.000
80.93140 193.000
80.95134 203.000
80.97129 207.000
80.99124 204.000
81.01118 228.000
81.03113 202.000
81.05108 191.000
81.07102 183.000
81.09097 221.000
81.11092 196.000
81.13087 200.000
81.15081 184.000
81.17076 186.000
81.19071 186.000
81.21065 202.000
81.23060 217.000
81.25055 200.000
81.27049 213.000
81.29044 203.000
81.31039 193.000
81.33034 180.000
81.35028 199.000
81.37023 179.000
81.39018 213.000
81.41012 200.000
81.43007 190.000
81.45002 183.000
81.46996 206.000
81.48991 184.000
81.50986 155.000
81.52980 190.000
81.54975 180.000
81.56970 191.000
81.58965 203.000
81.60959 186.000
81.62954 198.000
81.64949 208.000
81.66943 175.000
81.68938 190.000
81.70933 213.000
81.72927 196.000
81.74922 201.000
81.76917 200.000
81.78912 174.000
81.80906 203.000
81.82901 182.000
81.84896 198.000
81.86890 207.000
81.88885 188.000
81.90880 221.000
81.92874 206.000
81.94869 188.000
81.96864 190.000
81.98859 193.000
82.00853 197.000
82.02848 230.000
82.04843 199.000
82.06837 198.000
82.08832 208.000
82.10827 185.000
82.12821 194.000
82.14816 198.000
82.16811 197.000
82.18805 221.000
82.20800 186.000
82.22795 208.000
82.24790 192.000
82.26784 206.000
82.28779 221.000
82.30774 202.000
82.32768 197.000
82.34763 232.000
82.36758 219.000
82.38752 196.000
82.40747 199.000
82.42742 223.000
82.44737 213.000
82.46731 223.000
82.48726 235.000
82.50721 227.000
82.52715 219.000
82.54710 204.000
82.56705 195.000
82.58699 201.000
82.60694 242.000
82.62689 224.000
82.64683 214.000
82.66678 218.000
82.68673 218.000
82.70668 222.000
82.72662 241.000
82.74657 216.000
82.76652 259.000
82.78646 210.000
82.80641 217.000
82.82636 206.000
82.84630 222.000
82.86625 195.000
82.88620 209.000
82.90615 222.000
82.92609 230.000
82.94604 238.000
82.96599 182.000
82.98593 197.000
83.00588 201.000
83.02583 189.000
83.04577 236.000
83.06572 187.000
83.08567 194.000
83.10561 203.000
83.12556 208.000
83.14551 199.000
83.16546 231.000
83.18540 217.000
83.20535 232.000
83.22530 211.000
83.24524 218.000
83.26519 207.000
83.28514 232.000
83.30508 208.000
83.32503 218.000
83.34498 220.000
83.36493 204.000
83.38487 199.000
83.40482 194.000
83.42477 218.000
83.44471 226.000
83.46466 198.000
83.48461 198.000
83.50455 196.000
83.52450 212.000
83.54445 225.000
83.56440 218.000
83.58434 216.000
83.60429 222.000
83.62424 208.000
83.64418 197.000
83.66413 236.000
83.68408 226.000
83.70402 206.000
83.72397 208.000
83.74392 200.000
83.76386 221.000
83.78381 231.000
83.80376 209.000
83.82371 200.000
83.84365 199.000
83.86360 191.000
83.88355 219.000
83.90349 211.000
83.92344 228.000
83.94339 188.000
83.96333 199.000
83.98328 192.000
84.00323 226.000
84.02318 216.000
84.04312 210.000
84.06307 211.000
84.08302 228.000
84.10296 205.000
84.12291 219.000
84.14286 261.000
84.16280 246.000
84.18275 200.000
84.20270 211.000
84.22264 233.000
84.24259 246.000
84.26254 218.000
84.28249 223.000
84.30243 261.000
84.32238 245.000
84.34233 267.000
84.36227 260.000
84.38222 261.000
84.40217 252.000
84.42211 259.000
84.44206 240.000
84.46201 243.000
84.48196 225.000
84.50190 225.000
84.52185 265.000
84.54180 261.000
84.56174 264.000
84.58169 267.000
84.60164 258.000
84.62158 267.000
84.64153 264.000
84.66148 235.000
84.68142 255.000
84.70137 247.000
84.72132 235.000
84.74127 219.000
84.76121 218.000
84.78116 219.000
84.80111 231.000
84.82105 229.000
84.84100 228.000
84.86095 237.000
84.88089 216.000
84.90084 230.000
84.92079 221.000
84.94074 201.000
84.96068 178.000
84.98063 208.000
85.00058 221.000
85.02052 188.000
85.04047 207.000
85.06042 230.000
85.08036 172.000
85.10031 194.000
85.12026 215.000
85.14021 202.000
85.16015 223.000
85.18010 224.000
85.20005 192.000
85.21999 195.000
85.23994 196.000
85.25989 170.000
85.27983 194.000
85.29978 201.000
85.31973 214.000
85.33967 205.000
85.35962 200.000
85.37957 183.000
85.39952 196.000
85.41946 197.000
85.43941 224.000
85.45936 171.000
85.47930 184.000
85.49925 184.000
85.51920 200.000
85.53914 171.000
85.55909 186.000
85.57904 203.000
85.59899 177.000
85.61893 237.000
85.63888 193.000
85.65883 195.000
85.67877 169.000
85.69872 210.000
85.71867 211.000
85.73861 209.000
85.75856 186.000
85.77851 231.000
85.79845 211.000
85.81840 166.000
85.83835 192.000
85.85830 235.000
85.87824 227.000
85.89819 209.000
85.91814 202.000
85.93808 211.000
85.95803 193.000
85.97798 196.000
85.99792 216.000
86.01787 188.000
86.03782 192.000
86.05777 186.000
86.07771 187.000
86.09766 195.000
86.11761 182.000
86.13755 189.000
86.15750 162.000
86.17745 172.000
86.19739 190.000
86.21734 202.000
86.23729 184.000
86.25723 195.000
86.27718 185.000
86.29713 171.000
86.31708 180.000
86.33702 183.000
86.35697 212.000
86.37692 209.000
86.39686 212.000
86.41681 173.000
86.43676 210.000
86.45670 217.000
86.47665 217.000
86.49660 199.000
86.51655 187.000
86.53649 212.000
86.55644 196.000
86.57639 190.000
86.59633 202.000
86.61628 183.000
86.63623 191.000
86.65617 183.000
86.67612 210.000
86.69607 213.000
86.71602 189.000
86.73596 204.000
86.75591 196.000
86.77586 217.000
86.79580 182.000
86.81575 203.000
86.83570 211.000
86.85564 204.000
86.87559 219.000
86.89554 209.000
86.91548 218.000
86.93543 215.000
86.95538 218.000
86.97533 195.000
86.99527 205.000
87.01522 218.000
87.03517 233.000
87.05511 228.000
87.07506 209.000
87.09501 195.000
87.11495 215.000
87.13490 207.000
87.15485 231.000
87.17480 197.000
87.19474 221.000
87.21469 208.000
87.23464 251.000
87.25458 260.000
87.27453 212.000
87.29448 241.000
87.31442 286.000
87.33437 252.000
87.35432 263.000
87.37426 260.000
87.39421 228.000
87.41416 247.000
87.43411 239.000
87.45405 232.000
87.47400 198.000
87.49395 256.000
87.51389 224.000
87.53384 201.000
87.55379 250.000
87.57373 227.000
87.59368 206.000
87.61363 240.000
87.63358 273.000
87.65352 239.000
87.67347 238.000
87.69342 219.000
87.71336 231.000
87.73331 229.000
87.75326 212.000
87.77320 210.000
87.79315 197.000
87.81310 204.000
87.83304 238.000
87.85299 231.000
87.87294 232.000
87.89289 170.000
87.91283 219.000
87.93278 204.000
87.95273 201.000
87.97267 223.000
87.99262 172.000
88.01257 196.000
88.03251 202.000
88.05246 188.000
88.07241 199.000
88.09236 216.000
88.11230 204.000
88.13225 186.000
88.15220 184.000
88.17214 203.000
88.19209 199.000
88.21204 230.000
88.23198 188.000
88.25193 195.000
88.27188 203.000
88.29183 216.000
88.31177 182.000
88.33172 215.000
88.35167 209.000
88.37161 210.000
88.39156 203.000
88.41151 208.000
88.43145 198.000
88.45140 202.000
88.47135 174.000
88.49129 195.000
88.51124 191.000
88.53119 178.000
88.55114 193.000
88.57108 199.000
88.59103 186.000
88.61098 214.000
88.63092 203.000
88.65087 167.000
88.67082 197.000
88.69076 191.000
88.71071 212.000
88.73066 221.000
88.75061 209.000
88.77055 194.000
88.79050 242.000
88.81045 205.000
88.83039 185.000
88.85034 210.000
88.87029 204.000
88.89023 200.000
88.91018 194.000
88.93013 200.000
88.95007 196.000
88.97002 197.000
88.98997 215.000
89.00992 202.000
89.02986 192.000
89.04981 202.000
89.06976 218.000
89.08970 207.000
89.10965 204.000
89.12960 200.000
89.14954 199.000
89.16949 194.000
89.18944 178.000
89.20939 202.000
89.22933 199.000
89.24928 225.000
89.26923 206.000
89.28917 191.000
89.30912 217.000
89.32907 181.000
89.34901 196.000
89.36896 207.000
89.38891 229.000
89.40885 211.000
89.42880 218.000
89.44875 211.000
89.46870 192.000
89.48864 215.000
89.50859 202.000
89.52854 210.000
89.54848 196.000
89.56843 203.000
89.58838 229.000
89.60832 199.000
89.62827 216.000
89.64822 216.000
89.66817 194.000
89.68811 210.000
89.70806 212.000
89.72801 211.000
89.74795 201.000
89.76790 235.000
89.78785 209.000
89.80779 204.000
89.82774 216.000
89.84769 223.000
89.86764 226.000
89.88758 206.000
89.90753 215.000
89.92748 196.000
89.94742 255.000
89.96737 204.000
89.98732 214.000
90.00726 217.000
