10.00000 84.000
10.01995 87.000
10.03989 99.000
10.05984 87.000
10.07979 91.000
10.09973 80.000
10.11968 104.000
10.13963 94.000
10.15958 80.000
10.17952 82.000
10.19947 92.000
10.21942 90.000
10.23936 81.000
10.25931 93.000
10.27926 102.000
10.29920 111.000
10.31915 101.000
10.33910 96.000
10.35905 92.000
10.37899 96.000
10.39894 80.000
10.41889 95.000
10.43883 103.000
10.45878 102.000
10.47873 97.000
10.49867 91.000
10.51862 99.000
10.53857 89.000
10.55851 81.000
10.57846 87.000
10.59841 92.000
10.61836 81.000
10.63830 90.000
10.65825 96.000
10.67820 91.000
10.69814 101.000
10.71809 93.000
10.73804 105.000
10.75798 77.000
10.77793 101.000
10.79788 108.000
10.81783 77.000
10.83777 90.000
10.85772 95.000
10.87767 81.000
10.89761 97.000
10.91756 91.000
10.93751 114.000
10.95745 105.000
10.97740 86.000
10.99735 115.000
11.01730 124.000
11.03724 90.000
11.05719 95.000
11.07714 96.000
11.09708 110.000
11.11703 108.000
11.13698 94.000
11.15692 113.000
11.17687 102.000
11.19682 104.000
11.21676 105.000
11.23671 86.000
11.25666 111.000
11.27661 89.000
11.29655 79.000
11.31650 94.000
11.33645 87.000
11.35639 103.000
11.37634 100.000
11.39629 98.000
11.41623 89.000
11.43618 83.000
11.45613 84.000
11.47608 85.000
11.49602 115.000
11.51597 87.000
11.53592 97.000
11.55586 96.000
11.57581 96.000
11.59576 98.000
11.61570 118.000
11.63565 112.000
11.65560 80.000
11.67554 102.000
11.69549 112.000
11.71544 85.000
11.73539 112.000
11.75533 111.000
11.77528 104.000
11.79523 90.000
11.81517 118.000
11.83512 99.000
11.85507 120.000
11.87501 96.000
11.89496 105.000
11.91491 112.000
11.93486 93.000
11.95480 107.000
11.97475 106.000
11.99470 112.000
12.01464 102.000
12.03459 104.000
12.05454 95.000
12.07448 115.000
12.09443 108.000
12.11438 108.000
12.13432 107.000
12.15427 118.000
12.17422 110.000
12.19417 98.000
12.21411 110.000
12.23406 121.000
12.25401 111.000
12.27395 111.000
12.29390 95.000
12.31385 100.000
12.33379 124.000
12.35374 112.000
12.37369 104.000
12.39364 105.000
12.41358 117.000
12.43353 129.000
12.45348 101.000
12.47342 111.000
12.49337 106.000
12.51332 118.000
12.53326 113.000
12.55321 123.000
12.57316 99.000
12.59311 101.000
12.61305 126.000
12.63300 108.000
12.65295 124.000
12.67289 122.000
12.69284 126.000
12.71279 123.000
12.73273 97.000
12.75268 135.000
12.77263 121.000
12.79257 129.000
12.81252 112.000
12.83247 125.000
12.85242 106.000
12.87236 104.000
12.89231 99.000
12.91226 126.000
12.93220 95.000
12.95215 102.000
12.97210 107.000
12.99204 123.000
13.01199 134.000
13.03194 114.000
13.05189 115.000
13.07183 119.000
13.09178 100.000
13.11173 119.000
13.13167 120.000
13.15162 102.000
13.17157 120.000
13.19151 120.000
13.21146 112.000
13.23141 127.000
13.25135 103.000
13.27130 130.000
13.29125 105.000
13.31120 111.000
13.33114 121.000
13.35109 118.000
13.37104 117.000
13.39098 128.000
13.41093 121.000
13.43088 119.000
13.45082 124.000
13.47077 115.000
13.49072 114.000
13.51067 130.000
13.53061 119.000
13.55056 130.000
13.57051 124.000
13.59045 127.000
13.61040 140.000
13.63035 144.000
13.65029 106.000
13.67024 109.000
13.69019 147.000
13.71013 111.000
13.73008 129.000
13.75003 136.000
13.76998 119.000
13.78992 102.000
13.80987 118.000
13.82982 129.000
13.84976 136.000
13.86971 123.000
13.88966 127.000
13.90960 137.000
13.92955 111.000
13.94950 108.000
13.96945 141.000
13.98939 121.000
14.00934 132.000
14.02929 110.000
14.04923 118.000
14.06918 118.000
14.08913 132.000
14.10907 139.000
14.12902 124.000
14.14897 145.000
14.16892 148.000
14.18886 122.000
14.20881 124.000
14.22876 133.000
14.24870 135.000
14.26865 134.000
14.28860 136.000
14.30854 122.000
14.32849 127.000
14.34844 135.000
14.36838 137.000
14.38833 134.000
14.40828 138.000
14.42823 129.000
14.44817 125.000
14.46812 125.000
14.48807 122.000
14.50801 135.000
14.52796 125.000
14.54791 121.000
14.56785 142.000
14.58780 132.000
14.60775 144.000
14.62770 127.000
14.64764 126.000
14.66759 140.000
14.68754 138.000
14.70748 152.000
14.72743 147.000
14.74738 129.000
14.76732 145.000
14.78727 133.000
14.80722 133.000
14.82716 130.000
14.84711 132.000
14.86706 128.000
14.88701 150.000
14.90695 140.000
14.92690 155.000
14.94685 152.000
14.96679 137.000
14.98674 121.000
15.00669 150.000
15.02663 142.000
15.04658 147.000
15.06653 140.000
15.08648 129.000
15.10642 154.000
15.12637 164.000
15.14632 133.000
15.16626 162.000
15.18621 146.000
15.20616 132.000
15.22610 154.000
15.24605 145.000
15.26600 173.000
15.28594 167.000
15.30589 149.000
15.32584 134.000
15.34579 148.000
15.36573 126.000
15.38568 130.000
15.40563 168.000
15.42557 149.000
15.44552 141.000
15.46547 162.000
15.48541 131.000
15.50536 130.000
15.52531 159.000
15.54526 153.000
15.56520 160.000
15.58515 167.000
15.60510 153.000
15.62504 161.000
15.64499 162.000
15.66494 156.000
15.68488 158.000
15.70483 167.000
15.72478 177.000
15.74472 147.000
15.76467 146.000
15.78462 145.000
15.80457 170.000
15.82451 165.000
15.84446 151.000
15.86441 145.000
15.88435 166.000
15.90430 156.000
15.92425 181.000
15.94419 172.000
15.96414 167.000
15.98409 196.000
16.00404 164.000
16.02398 171.000
16.04393 182.000
16.06388 193.000
16.08382 185.000
16.10377 177.000
16.12372 193.000
16.14366 172.000
16.16361 182.000
16.18356 172.000
16.20351 166.000
16.22345 192.000
16.24340 175.000
16.26335 176.000
16.28329 205.000
16.30324 181.000
16.32319 182.000
16.34313 188.000
16.36308 193.000
16.38303 177.000
16.40297 183.000
16.42292 165.000
16.44287 191.000
16.46282 205.000
16.48276 197.000
16.50271 194.000
16.52266 197.000
16.54260 210.000
16.56255 218.000
16.58250 185.000
16.60244 196.000
16.62239 184.000
16.64234 200.000
16.66229 221.000
16.68223 180.000
16.70218 220.000
16.72213 209.000
16.74207 248.000
16.76202 221.000
16.78197 229.000
16.80191 203.000
16.82186 229.000
16.84181 249.000
16.86175 202.000
16.88170 228.000
16.90165 221.000
16.92160 227.000
16.94154 222.000
16.96149 228.000
16.98144 245.000
17.00138 208.000
17.02133 238.000
17.04128 233.000
17.06122 253.000
17.08117 211.000
17.10112 246.000
17.12107 249.000
17.14101 218.000
17.16096 229.000
17.18091 246.000
17.20085 229.000
17.22080 249.000
17.24075 265.000
17.26069 253.000
17.28064 243.000
17.30059 248.000
17.32053 254.000
17.34048 236.000
17.36043 246.000
17.38038 284.000
17.40032 254.000
17.42027 234.000
17.44022 247.000
17.46016 243.000
17.48011 261.000
17.50006 266.000
17.52000 275.000
17.53995 260.000
17.55990 268.000
17.57985 246.000
17.59979 259.000
17.61974 265.000
17.63969 266.000
17.65963 292.000
17.67958 271.000
17.69953 251.000
17.71947 297.000
17.73942 257.000
17.75937 282.000
17.77932 261.000
17.79926 309.000
17.81921 299.000
17.83916 298.000
17.85910 298.000
17.87905 254.000
17.89900 294.000
17.91894 282.000
17.93889 285.000
17.95884 324.000
17.97878 277.000
17.99873 305.000
18.01868 331.000
18.03863 278.000
18.05857 330.000
18.07852 295.000
18.09847 316.000
18.11841 282.000
18.13836 332.000
18.15831 329.000
18.17825 334.000
18.19820 278.000
18.21815 336.000
18.23810 320.000
18.25804 334.000
18.27799 332.000
18.29794 358.000
18.31788 346.000
18.33783 281.000
18.35778 344.000
18.37772 295.000
18.39767 341.000
18.41762 339.000
18.43756 345.000
18.45751 357.000
18.47746 332.000
18.49741 350.000
18.51735 310.000
18.53730 343.000
18.55725 335.000
18.57719 346.000
18.59714 368.000
18.61709 350.000
18.63703 375.000
18.65698 361.000
18.67693 353.000
18.69688 351.000
18.71682 346.000
18.73677 371.000
18.75672 344.000
18.77666 362.000
18.79661 362.000
18.81656 354.000
18.83650 366.000
18.85645 399.000
18.87640 399.000
18.89634 342.000
18.91629 386.000
18.93624 338.000
18.95619 345.000
18.97613 378.000
18.99608 389.000
19.01603 376.000
19.03597 355.000
19.05592 368.000
19.07587 425.000
19.09581 404.000
19.11576 378.000
19.13571 388.000
19.15566 376.000
19.17560 401.000
19.19555 405.000
19.21550 427.000
19.23544 390.000
19.25539 376.000
19.27534 393.000
19.29528 390.000
19.31523 354.000
19.33518 347.000
19.35513 446.000
19.37507 368.000
19.39502 408.000
19.41497 443.000
19.43491 409.000
19.45486 417.000
19.47481 422.000
19.49475 406.000
19.51470 430.000
19.53465 403.000
19.55459 435.000
19.57454 451.000
19.59449 441.000
19.61444 410.000
19.63438 416.000
19.65433 452.000
19.67428 433.000
19.69422 413.000
19.71417 434.000
19.73412 422.000
19.75406 439.000
19.77401 479.000
19.79396 436.000
19.81391 436.000
19.83385 459.000
19.85380 460.000
19.87375 460.000
19.89369 456.000
19.91364 440.000
19.93359 438.000
19.95353 490.000
19.97348 467.000
19.99343 451.000
20.01337 434.000
20.03332 433.000
20.05327 441.000
20.07322 469.000
20.09316 490.000
20.11311 478.000
20.13306 430.000
20.15300 461.000
20.17295 472.000
20.19290 475.000
20.21284 477.000
20.23279 450.000
20.25274 470.000
20.27269 465.000
20.29263 459.000
20.31258 493.000
20.33253 443.000
20.35247 452.000
20.37242 497.000
20.39237 488.000
20.41231 481.000
20.43226 491.000
20.45221 461.000
20.47215 469.000
20.49210 465.000
20.51205 479.000
20.53200 515.000
20.55194 501.000
20.57189 517.000
20.59184 496.000
20.61178 516.000
20.63173 523.000
20.65168 490.000
20.67162 510.000
20.69157 499.000
20.71152 472.000
20.73147 504.000
20.75141 468.000
20.77136 491.000
20.79131 494.000
20.81125 489.000
20.83120 487.000
20.85115 519.000
20.87109 520.000
20.89104 470.000
20.91099 525.000
20.93094 486.000
20.95088 496.000
20.97083 483.000
20.99078 481.000
21.01072 502.000
21.03067 516.000
21.05062 511.000
21.07056 518.000
21.09051 522.000
21.11046 504.000
21.13040 488.000
21.15035 503.000
21.17030 579.000
21.19025 497.000
21.21019 559.000
21.23014 528.000
21.25009 505.000
21.27003 499.000
21.28998 544.000
21.30993 488.000
21.32987 522.000
21.34982 493.000
21.36977 507.000
21.38972 525.000
21.40966 547.000
21.42961 562.000
21.44956 581.000
21.46950 509.000
21.48945 530.000
21.50940 554.000
21.52934 554.000
21.54929 502.000
21.56924 523.000
21.58918 569.000
21.60913 526.000
21.62908 567.000
21.64903 548.000
21.66897 572.000
21.68892 570.000
21.70887 561.000
21.72881 525.000
21.74876 561.000
21.76871 541.000
21.78865 527.000
21.80860 545.000
21.82855 537.000
21.84850 540.000
21.86844 573.000
21.88839 535.000
21.90834 524.000
21.92828 576.000
21.94823 550.000
21.96818 547.000
21.98812 546.000
22.00807 568.000
22.02802 554.000
22.04796 562.000
22.06791 571.000
22.08786 530.000
22.10781 538.000
22.12775 552.000
22.14770 593.000
22.16765 598.000
22.18759 556.000
22.20754 569.000
22.22749 584.000
22.24743 590.000
22.26738 573.000
22.28733 545.000
22.30728 638.000
22.32722 607.000
22.34717 606.000
22.36712 636.000
22.38706 534.000
22.40701 601.000
22.42696 618.000
22.44690 603.000
22.46685 563.000
22.48680 598.000
22.50675 567.000
22.52669 574.000
22.54664 593.000
22.56659 605.000
22.58653 597.000
22.60648 568.000
22.62643 615.000
22.64637 601.000
22.66632 571.000
22.68627 572.000
22.70621 615.000
22.72616 581.000
22.74611 609.000
22.76606 637.000
22.78600 582.000
22.80595 597.000
22.82590 655.000
22.84584 598.000
22.86579 618.000
22.88574 606.000
22.90568 576.000
22.92563 623.000
22.94558 623.000
22.96553 634.000
22.98547 590.000
23.00542 613.000
23.02537 635.000
23.04531 630.000
23.06526 599.000
23.08521 676.000
23.10515 662.000
23.12510 628.000
23.14505 605.000
23.16499 664.000
23.18494 617.000
23.20489 599.000
23.22484 648.000
23.24478 650.000
23.26473 638.000
23.28468 658.000
23.30462 670.000
23.32457 651.000
23.34452 589.000
23.36446 639.000
23.38441 656.000
23.40436 647.000
23.42431 695.000
23.44425 680.000
23.46420 663.000
23.48415 624.000
23.50409 675.000
23.52404 717.000
23.54399 627.000
23.56393 649.000
23.58388 682.000
23.60383 625.000
23.62377 680.000
23.64372 671.000
23.66367 636.000
23.68362 668.000
23.70356 677.000
23.72351 665.000
23.74346 637.000
23.76340 720.000
23.78335 656.000
23.80330 661.000
23.82324 677.000
23.84319 635.000
23.86314 715.000
23.88309 708.000
23.90303 666.000
23.92298 660.000
23.94293 715.000
23.96287 669.000
23.98282 702.000
24.00277 702.000
24.02271 659.000
24.04266 648.000
24.06261 694.000
24.08256 646.000
24.10250 725.000
24.12245 696.000
24.14240 702.000
24.16234 723.000
24.18229 687.000
24.20224 724.000
24.22218 756.000
24.24213 702.000
24.26208 751.000
24.28202 736.000
24.30197 714.000
24.32192 715.000
24.34187 703.000
24.36181 730.000
24.38176 736.000
24.40171 773.000
24.42165 713.000
24.44160 746.000
24.46155 770.000
24.48149 735.000
24.50144 742.000
24.52139 730.000
24.54134 699.000
24.56128 729.000
24.58123 792.000
24.60118 769.000
24.62112 773.000
24.64107 769.000
24.66102 760.000
24.68096 768.000
24.70091 774.000
24.72086 731.000
24.74080 708.000
24.76075 767.000
24.78070 742.000
24.80065 740.000
24.82059 738.000
24.84054 761.000
24.86049 758.000
24.88043 779.000
24.90038 798.000
24.92033 805.000
24.94027 797.000
24.96022 803.000
24.98017 751.000
25.00012 770.000
25.02006 765.000
25.04001 781.000
25.05996 771.000
25.07990 818.000
25.09985 839.000
25.11980 773.000
25.13974 796.000
25.15969 824.000
25.17964 807.000
25.19958 848.000
25.21953 857.000
25.23948 858.000
25.25943 883.000
25.27937 826.000
25.29932 860.000
25.31927 861.000
25.33921 836.000
25.35916 785.000
25.37911 868.000
25.39905 822.000
25.41900 833.000
25.43895 851.000
25.45890 868.000
25.47884 813.000
25.49879 840.000
25.51874 836.000
25.53868 894.000
25.55863 884.000
25.57858 830.000
25.59852 839.000
25.61847 858.000
25.63842 899.000
25.65837 837.000
25.67831 931.000
25.69826 880.000
25.71821 871.000
25.73815 906.000
25.75810 902.000
25.77805 903.000
25.79799 890.000
25.81794 920.000
25.83789 923.000
25.85783 892.000
25.87778 968.000
25.89773 936.000
25.91768 925.000
25.93762 966.000
25.95757 968.000
25.97752 933.000
25.99746 965.000
26.01741 928.000
26.03736 945.000
26.05730 927.000
26.07725 969.000
26.09720 992.000
26.11715 955.000
26.13709 897.000
26.15704 991.000
26.17699 958.000
26.19693 933.000
26.21688 971.000
26.23683 945.000
26.25677 973.000
26.27672 967.000
26.29667 979.000
26.31661 976.000
26.33656 952.000
26.35651 940.000
26.37646 982.000
26.39640 956.000
26.41635 959.000
26.43630 991.000
26.45624 995.000
26.47619 1054.000
26.49614 1014.000
26.51608 957.000
26.53603 1007.000
26.55598 1075.000
26.57593 1021.000
26.59587 966.000
26.61582 1015.000
26.63577 1019.000
26.65571 1059.000
26.67566 1019.000
26.69561 1049.000
26.71555 1020.000
26.73550 1020.000
26.75545 990.000
26.77539 1030.000
26.79534 1016.000
26.81529 1055.000
26.83524 1046.000
26.85518 1023.000
26.87513 1061.000
26.89508 1032.000
26.91502 1055.000
26.93497 1086.000
26.95492 1051.000
26.97486 1038.000
26.99481 1060.000
27.01476 1111.000
27.03471 1096.000
27.05465 1082.000
27.07460 1072.000
27.09455 1087.000
27.11449 1033.000
27.13444 1083.000
27.15439 1075.000
27.17433 1012.000
27.19428 1056.000
27.21423 1098.000
27.23417 1109.000
27.25412 1048.000
27.27407 1157.000
27.29402 1091.000
27.31396 1113.000
27.33391 1080.000
27.35386 1133.000
27.37380 1088.000
27.39375 1246.000
27.41370 1140.000
27.43364 1051.000
27.45359 1110.000
27.47354 1088.000
27.49349 1133.000
27.51343 1193.000
27.53338 1132.000
27.55333 1119.000
27.57327 1138.000
27.59322 1120.000
27.61317 1133.000
27.63311 1159.000
27.65306 1195.000
27.67301 1163.000
27.69296 1167.000
27.71290 1143.000
27.73285 1126.000
27.75280 1167.000
27.77274 1208.000
27.79269 1206.000
27.81264 1161.000
27.83258 1147.000
27.85253 1159.000
27.87248 1150.000
27.89242 1117.000
27.91237 1131.000
27.93232 1107.000
27.95227 1149.000
27.97221 1194.000
27.99216 1202.000
28.01211 1193.000
28.03205 1223.000
28.05200 1235.000
28.07195 1202.000
28.09189 1193.000
28.11184 1151.000
28.13179 1166.000
28.15174 1208.000
28.17168 1184.000
28.19163 1196.000
28.21158 1193.000
28.23152 1224.000
28.25147 1191.000
28.27142 1210.000
28.29136 1289.000
28.31131 1239.000
28.33126 1208.000
28.35120 1251.000
28.37115 1223.000
28.39110 1223.000
28.41105 1217.000
28.43099 1218.000
28.45094 1265.000
28.47089 1244.000
28.49083 1218.000
28.51078 1225.000
28.53073 1224.000
28.55067 1295.000
28.57062 1265.000
28.59057 1179.000
28.61052 1220.000
28.63046 1253.000
28.65041 1185.000
28.67036 1235.000
28.69030 1252.000
28.71025 1246.000
28.73020 1264.000
28.75014 1214.000
28.77009 1274.000
28.79004 1224.000
28.80998 1238.000
28.82993 1279.000
28.84988 1273.000
28.86983 1283.000
28.88977 1273.000
28.90972 1239.000
28.92967 1245.000
28.94961 1275.000
28.96956 1244.000
28.98951 1256.000
29.00945 1278.000
29.02940 1247.000
29.04935 1318.000
29.06930 1310.000
29.08924 1276.000
29.10919 1269.000
29.12914 1308.000
29.14908 1256.000
29.16903 1208.000
29.18898 1255.000
29.20892 1249.000
29.22887 1346.000
29.24882 1212.000
29.26877 1216.000
29.28871 1253.000
29.30866 1248.000
29.32861 1257.000
29.34855 1259.000
29.36850 1264.000
29.38845 1277.000
29.40839 1298.000
29.42834 1233.000
29.44829 1276.000
29.46823 1305.000
29.48818 1334.000
29.50813 1298.000
29.52808 1292.000
29.54802 1279.000
29.56797 1312.000
29.58792 1245.000
29.60786 1246.000
29.62781 1237.000
29.64776 1307.000
29.66770 1251.000
29.68765 1273.000
29.70760 1305.000
29.72755 1283.000
29.74749 1255.000
29.76744 1239.000
29.78739 1227.000
29.80733 1260.000
29.82728 1270.000
29.84723 1260.000
29.86717 1265.000
29.88712 1252.000
29.90707 1303.000
29.92701 1238.000
29.94696 1274.000
29.96691 1218.000
29.98686 1235.000
30.00680 1247.000
30.02675 1327.000
30.04670 1255.000
30.06664 1226.000
30.08659 1284.000
30.10654 1287.000
30.12648 1242.000
30.14643 1244.000
30.16638 1261.000
30.18633 1277.000
30.20627 1310.000
30.22622 1250.000
30.24617 1198.000
30.26611 1276.000
30.28606 1270.000
30.30601 1285.000
30.32595 1234.000
30.34590 1232.000
30.36585 1186.000
30.38579 1259.000
30.40574 1259.000
30.42569 1234.000
30.44564 1239.000
30.46558 1262.000
30.48553 1265.000
30.50548 1201.000
30.52542 1273.000
30.54537 1218.000
30.56532 1197.000
30.58526 1260.000
30.60521 1151.000
30.62516 1243.000
30.64511 1235.000
30.66505 1304.000
30.68500 1228.000
30.70495 1181.000
30.72489 1211.000
30.74484 1270.000
30.76479 1329.000
30.78473 1286.000
30.80468 1254.000
30.82463 1234.000
30.84458 1264.000
30.86452 1183.000
30.88447 1229.000
30.90442 1210.000
30.92436 1153.000
30.94431 1246.000
30.96426 1162.000
30.98420 1225.000
31.00415 1208.000
31.02410 1253.000
31.04404 1176.000
31.06399 1268.000
31.08394 1279.000
31.10389 1264.000
31.12383 1204.000
31.14378 1161.000
31.16373 1251.000
31.18367 1252.000
31.20362 1215.000
31.22357 1204.000
31.24351 1182.000
31.26346 1199.000
31.28341 1217.000
31.30336 1184.000
31.32330 1154.000
31.34325 1172.000
31.36320 1199.000
31.38314 1161.000
31.40309 1198.000
31.42304 1199.000
31.44298 1215.000
31.46293 1222.000
31.48288 1168.000
31.50282 1169.000
31.52277 1203.000
31.54272 1134.000
31.56267 1197.000
31.58261 1210.000
31.60256 1156.000
31.62251 1181.000
31.64245 1193.000
31.66240 1194.000
31.68235 1170.000
31.70229 1212.000
31.72224 1171.000
31.74219 1192.000
31.76214 1195.000
31.78208 1178.000
31.80203 1188.000
31.82198 1200.000
31.84192 1179.000
31.86187 1178.000
31.88182 1149.000
31.90176 1166.000
31.92171 1179.000
31.94166 1153.000
31.96160 1186.000
31.98155 1162.000
32.00150 1178.000
32.02145 1180.000
32.04139 1157.000
32.06134 1133.000
32.08129 1104.000
32.10123 1201.000
32.12118 1166.000
32.14113 1122.000
32.16107 1144.000
32.18102 1064.000
32.20097 1083.000
32.22092 1099.000
32.24086 1074.000
32.26081 1071.000
32.28076 1100.000
32.30070 1124.000
32.32065 1056.000
32.34060 1065.000
32.36054 1066.000
32.38049 1099.000
32.40044 1043.000
32.42039 1084.000
32.44033 1119.000
32.46028 1128.000
32.48023 1157.000
32.50017 1064.000
32.52012 1110.000
32.54007 1047.000
32.56001 1093.000
32.57996 1071.000
32.59991 1033.000
32.61985 1045.000
32.63980 1102.000
32.65975 1107.000
32.67970 1092.000
32.69964 1067.000
32.71959 1097.000
32.73954 1056.000
32.75948 1056.000
32.77943 1147.000
32.79938 1051.000
32.81932 1067.000
32.83927 998.000
32.85922 1108.000
32.87917 1072.000
32.89911 1010.000
32.91906 1020.000
32.93901 1054.000
32.95895 1095.000
32.97890 1032.000
32.99885 972.000
33.01879 961.000
33.03874 1067.000
33.05869 1023.000
33.07863 1034.000
33.09858 1063.000
33.11853 1072.000
33.13848 997.000
33.15842 1067.000
33.17837 985.000
33.19832 999.000
33.21826 1000.000
33.23821 1017.000
33.25816 1073.000
33.27810 980.000
33.29805 1034.000
33.31800 963.000
33.33795 1058.000
33.35789 978.000
33.37784 1040.000
33.39779 1011.000
33.41773 1016.000
33.43768 1026.000
33.45763 972.000
33.47757 1021.000
33.49752 1011.000
33.51747 1009.000
33.53741 1016.000
33.55736 944.000
33.57731 947.000
33.59726 1042.000
33.61720 1014.000
33.63715 937.000
33.65710 1033.000
33.67704 1026.000
33.69699 937.000
33.71694 1006.000
33.73688 955.000
33.75683 943.000
33.77678 923.000
33.79673 983.000
33.81667 997.000
33.83662 966.000
33.85657 973.000
33.87651 929.000
33.89646 948.000
33.91641 890.000
33.93635 940.000
33.95630 944.000
33.97625 934.000
33.99620 999.000
34.01614 938.000
34.03609 955.000
34.05604 902.000
34.07598 926.000
34.09593 936.000
34.11588 903.000
34.13582 909.000
34.15577 928.000
34.17572 942.000
34.19566 963.000
34.21561 937.000
34.23556 893.000
34.25551 909.000
34.27545 921.000
34.29540 921.000
34.31535 1006.000
34.33529 973.000
34.35524 946.000
34.37519 912.000
34.39513 958.000
34.41508 958.000
34.43503 922.000
34.45498 900.000
34.47492 939.000
34.49487 888.000
34.51482 942.000
34.53476 921.000
34.55471 909.000
34.57466 838.000
34.59460 884.000
34.61455 848.000
34.63450 893.000
34.65444 952.000
34.67439 883.000
34.69434 935.000
34.71429 1002.000
34.73423 949.000
34.75418 899.000
34.77413 936.000
34.79407 996.000
34.81402 1004.000
34.83397 951.000
34.85391 997.000
34.87386 1007.000
34.89381 1009.000
34.91376 1034.000
34.93370 998.000
34.95365 1081.000
34.97360 1064.000
34.99354 1099.000
35.01349 1003.000
35.03344 1039.000
35.05338 1070.000
35.07333 1064.000
35.09328 935.000
35.11322 961.000
35.13317 940.000
35.15312 910.000
35.17307 911.000
35.19301 922.000
35.21296 864.000
35.23291 907.000
35.25285 890.000
35.27280 901.000
35.29275 877.000
35.31269 846.000
35.33264 845.000
35.35259 865.000
35.37254 831.000
35.39248 856.000
35.41243 849.000
35.43238 856.000
35.45232 849.000
35.47227 882.000
35.49222 826.000
35.51216 819.000
35.53211 853.000
35.55206 815.000
35.57201 880.000
35.59195 742.000
35.61190 836.000
35.63185 804.000
35.65179 783.000
35.67174 815.000
35.69169 891.000
35.71163 823.000
35.73158 821.000
35.75153 835.000
35.77147 826.000
35.79142 754.000
35.81137 797.000
35.83132 776.000
35.85126 826.000
35.87121 819.000
35.89116 808.000
35.91110 779.000
35.93105 812.000
35.95100 774.000
35.97094 779.000
35.99089 888.000
36.01084 804.000
36.03079 824.000
36.05073 851.000
36.07068 777.000
36.09063 857.000
36.11057 795.000
36.13052 763.000
36.15047 831.000
36.17041 817.000
36.19036 870.000
36.21031 851.000
36.23025 806.000
36.25020 814.000
36.27015 871.000
36.29010 933.000
36.31004 886.000
36.32999 894.000
36.34994 927.000
36.36988 991.000
36.38983 972.000
36.40978 939.000
36.42972 1000.000
36.44967 1052.000
36.46962 1130.000
36.48957 1171.000
36.50951 1264.000
36.52946 1337.000
36.54941 1295.000
36.56935 1296.000
36.58930 1361.000
36.60925 1421.000
36.62919 1463.000
36.64914 1376.000
36.66909 1266.000
36.68903 1244.000
36.70898 1154.000
36.72893 1051.000
36.74888 950.000
36.76882 933.000
36.78877 896.000
36.80872 896.000
36.82866 876.000
36.84861 800.000
36.86856 775.000
36.88850 790.000
36.90845 796.000
36.92840 777.000
36.94835 783.000
36.96829 789.000
36.98824 764.000
37.00819 749.000
37.02813 742.000
37.04808 749.000
37.06803 828.000
37.08797 696.000
37.10792 729.000
37.12787 822.000
37.14781 775.000
37.16776 752.000
37.18771 782.000
37.20766 791.000
37.22760 755.000
37.24755 759.000
37.26750 799.000
37.28744 750.000
37.30739 794.000
37.32734 758.000
37.34728 691.000
37.36723 775.000
37.38718 753.000
37.40713 744.000
37.42707 760.000
37.44702 762.000
37.46697 758.000
37.48691 827.000
37.50686 711.000
37.52681 782.000
37.54675 781.000
37.56670 725.000
37.58665 797.000
37.60660 801.000
37.62654 774.000
37.64649 794.000
37.66644 749.000
37.68638 812.000
37.70633 748.000
37.72628 808.000
37.74622 840.000
37.76617 823.000
37.78612 821.000
37.80606 799.000
37.82601 818.000
37.84596 818.000
37.86591 817.000
37.88585 842.000
37.90580 836.000
37.92575 884.000
37.94569 879.000
37.96564 866.000
37.98559 901.000
38.00553 877.000
38.02548 970.000
38.04543 886.000
38.06538 968.000
38.08532 918.000
38.10527 936.000
38.12522 1009.000
38.14516 976.000
38.16511 929.000
38.18506 927.000
38.20500 895.000
38.22495 922.000
38.24490 871.000
38.26484 878.000
38.28479 873.000
38.30474 928.000
38.32469 850.000
38.34463 804.000
38.36458 848.000
38.38453 815.000
38.40447 769.000
38.42442 842.000
38.44437 802.000
38.46431 806.000
38.48426 783.000
38.50421 837.000
38.52416 857.000
38.54410 774.000
38.56405 838.000
38.58400 788.000
38.60394 786.000
38.62389 848.000
38.64384 812.000
38.66378 791.000
38.68373 823.000
38.70368 824.000
38.72362 801.000
38.74357 760.000
38.76352 772.000
38.78347 793.000
38.80341 802.000
38.82336 759.000
38.84331 797.000
38.86325 838.000
38.88320 746.000
38.90315 782.000
38.92309 791.000
38.94304 744.000
38.96299 772.000
38.98294 804.000
39.00288 725.000
39.02283 737.000
39.04278 751.000
39.06272 728.000
39.08267 760.000
39.10262 759.000
39.12256 780.000
39.14251 729.000
39.16246 760.000
39.18241 734.000
39.20235 735.000
39.22230 737.000
39.24225 723.000
39.26219 813.000
39.28214 740.000
39.30209 733.000
39.32203 754.000
39.34198 787.000
39.36193 768.000
39.38187 729.000
39.40182 789.000
39.42177 781.000
39.44172 737.000
39.46166 703.000
39.48161 795.000
39.50156 771.000
39.52150 779.000
39.54145 727.000
39.56140 782.000
39.58134 784.000
39.60129 764.000
39.62124 759.000
39.64119 740.000
39.66113 784.000
39.68108 798.000
39.70103 793.000
39.72097 781.000
39.74092 759.000
39.76087 728.000
39.78081 753.000
39.80076 775.000
39.82071 723.000
39.84065 733.000
39.86060 793.000
39.88055 795.000
39.90050 738.000
39.92044 764.000
39.94039 779.000
39.96034 735.000
39.98028 729.000
40.00023 730.000
40.02018 736.000
40.04012 740.000
40.06007 783.000
40.08002 726.000
40.09997 750.000
40.11991 740.000
40.13986 785.000
40.15981 794.000
40.17975 742.000
40.19970 722.000
40.21965 761.000
40.23959 841.000
40.25954 785.000
40.27949 758.000
40.29943 753.000
40.31938 746.000
40.33933 726.000
40.35928 777.000
40.37922 728.000
40.39917 750.000
40.41912 781.000
40.43906 741.000
40.45901 769.000
40.47896 737.000
40.49890 727.000
40.51885 765.000
40.53880 756.000
40.55875 697.000
40.57869 727.000
40.59864 725.000
40.61859 753.000
40.63853 738.000
40.65848 751.000
40.67843 801.000
40.69837 775.000
40.71832 742.000
40.73827 797.000
40.75822 690.000
40.77816 714.000
40.79811 812.000
40.81806 725.000
40.83800 764.000
40.85795 778.000
40.87790 779.000
40.89784 704.000
40.91779 796.000
40.93774 721.000
40.95768 717.000
40.97763 757.000
40.99758 760.000
41.01753 735.000
41.03747 685.000
41.05742 826.000
41.07737 768.000
41.09731 703.000
41.11726 745.000
41.13721 748.000
41.15715 762.000
41.17710 804.000
41.19705 787.000
41.21700 796.000
41.23694 764.000
41.25689 787.000
41.27684 753.000
41.29678 746.000
41.31673 751.000
41.33668 757.000
41.35662 795.000
41.37657 757.000
41.39652 756.000
41.41646 782.000
41.43641 718.000
41.45636 727.000
41.47631 730.000
41.49625 748.000
41.51620 738.000
41.53615 757.000
41.55609 759.000
41.57604 753.000
41.59599 770.000
41.61593 782.000
41.63588 756.000
41.65583 773.000
41.67578 745.000
41.69572 793.000
41.71567 763.000
41.73562 732.000
41.75556 785.000
41.77551 755.000
41.79546 738.000
41.81540 741.000
41.83535 765.000
41.85530 750.000
41.87524 729.000
41.89519 746.000
41.91514 753.000
41.93509 764.000
41.95503 762.000
41.97498 797.000
41.99493 724.000
42.01487 819.000
42.03482 801.000
42.05477 804.000
42.07471 846.000
42.09466 851.000
42.11461 883.000
42.13456 860.000
42.15450 809.000
42.17445 889.000
42.19440 906.000
42.21434 926.000
42.23429 891.000
42.25424 1005.000
42.27418 977.000
42.29413 1066.000
42.31408 1055.000
42.33403 1030.000
42.35397 1060.000
42.37392 1155.000
42.39387 1181.000
42.41381 1172.000
42.43376 1238.000
42.45371 1311.000
42.47365 1265.000
42.49360 1362.000
42.51355 1405.000
42.53349 1428.000
42.55344 1455.000
42.57339 1518.000
42.59334 1553.000
42.61328 1504.000
42.63323 1568.000
42.65318 1493.000
42.67312 1451.000
42.69307 1467.000
42.71302 1338.000
42.73296 1349.000
42.75291 1309.000
42.77286 1258.000
42.79281 1130.000
42.81275 1092.000
42.83270 1085.000
42.85265 1033.000
42.87259 981.000
42.89254 918.000
42.91249 908.000
42.93243 859.000
42.95238 912.000
42.97233 876.000
42.99227 775.000
43.01222 792.000
43.03217 817.000
43.05212 784.000
43.07206 847.000
43.09201 747.000
43.11196 732.000
43.13190 786.000
43.15185 829.000
43.17180 778.000
43.19174 753.000
43.21169 774.000
43.23164 722.000
43.25159 776.000
43.27153 732.000
43.29148 727.000
43.31143 735.000
43.33137 692.000
43.35132 726.000
43.37127 702.000
43.39121 705.000
43.41116 707.000
43.43111 705.000
43.45105 725.000
43.47100 695.000
43.49095 661.000
43.51090 735.000
43.53084 680.000
43.55079 697.000
43.57074 711.000
43.59068 705.000
43.61063 622.000
43.63058 663.000
43.65052 684.000
43.67047 669.000
43.69042 711.000
43.71037 691.000
43.73031 678.000
43.75026 669.000
43.77021 675.000
43.79015 683.000
43.81010 693.000
43.83005 663.000
43.84999 701.000
43.86994 706.000
43.88989 670.000
43.90984 692.000
43.92978 644.000
43.94973 659.000
43.96968 685.000
43.98962 664.000
44.00957 655.000
44.02952 667.000
44.04946 653.000
44.06941 672.000
44.08936 696.000
44.10930 675.000
44.12925 671.000
44.14920 632.000
44.16915 633.000
44.18909 678.000
44.20904 638.000
44.22899 659.000
44.24893 635.000
44.26888 625.000
44.28883 682.000
44.30877 660.000
44.32872 651.000
44.34867 648.000
44.36862 682.000
44.38856 635.000
44.40851 634.000
44.42846 594.000
44.44840 652.000
44.46835 618.000
44.48830 642.000
44.50824 656.000
44.52819 667.000
44.54814 658.000
44.56808 632.000
44.58803 647.000
44.60798 626.000
44.62793 618.000
44.64787 582.000
44.66782 585.000
44.68777 645.000
44.70771 629.000
44.72766 661.000
44.74761 631.000
44.76755 612.000
44.78750 611.000
44.80745 637.000
44.82740 612.000
44.84734 618.000
44.86729 692.000
44.88724 615.000
44.90718 596.000
44.92713 649.000
44.94708 623.000
44.96702 575.000
44.98697 583.000
45.00692 656.000
45.02686 614.000
45.04681 603.000
45.06676 653.000
45.08671 607.000
45.10665 661.000
45.12660 588.000
45.14655 616.000
45.16649 617.000
45.18644 598.000
45.20639 619.000
45.22633 587.000
45.24628 581.000
45.26623 547.000
45.28618 560.000
45.30612 593.000
45.32607 592.000
45.34602 608.000
45.36596 642.000
45.38591 622.000
45.40586 587.000
45.42580 638.000
45.44575 591.000
45.46570 574.000
45.48565 611.000
45.50559 564.000
45.52554 599.000
45.54549 581.000
45.56543 561.000
45.58538 568.000
45.60533 625.000
45.62527 572.000
45.64522 551.000
45.66517 633.000
45.68511 610.000
45.70506 618.000
45.72501 595.000
45.74496 553.000
45.76490 599.000
45.78485 562.000
45.80480 591.000
45.82474 556.000
45.84469 601.000
45.86464 584.000
45.88458 592.000
45.90453 530.000
45.92448 582.000
45.94443 555.000
45.96437 561.000
45.98432 577.000
46.00427 593.000
46.02421 559.000
46.04416 577.000
46.06411 585.000
46.08405 581.000
46.10400 579.000
46.12395 550.000
46.14389 563.000
46.16384 582.000
46.18379 568.000
46.20374 541.000
46.22368 540.000
46.24363 615.000
46.26358 580.000
46.28352 541.000
46.30347 572.000
46.32342 554.000
46.34336 598.000
46.36331 546.000
46.38326 578.000
46.40321 547.000
46.42315 547.000
46.44310 573.000
46.46305 551.000
46.48299 545.000
46.50294 546.000
46.52289 540.000
46.54283 590.000
46.56278 564.000
46.58273 567.000
46.60267 562.000
46.62262 553.000
46.64257 555.000
46.66252 516.000
46.68246 574.000
46.70241 540.000
46.72236 530.000
46.74230 569.000
46.76225 574.000
46.78220 470.000
46.80214 591.000
46.82209 543.000
46.84204 557.000
46.86199 554.000
46.88193 540.000
46.90188 557.000
46.92183 568.000
46.94177 494.000
46.96172 547.000
46.98167 548.000
47.00161 503.000
47.02156 555.000
47.04151 532.000
47.06146 548.000
47.08140 536.000
47.10135 566.000
47.12130 596.000
47.14124 558.000
47.16119 517.000
47.18114 537.000
47.20108 562.000
47.22103 588.000
47.24098 525.000
47.26092 540.000
47.28087 572.000
47.30082 536.000
47.32077 526.000
47.34071 575.000
47.36066 556.000
47.38061 539.000
47.40055 557.000
47.42050 548.000
47.44045 550.000
47.46039 540.000
47.48034 544.000
47.50029 517.000
47.52024 546.000
47.54018 542.000
47.56013 537.000
47.58008 511.000
47.60002 510.000
47.61997 562.000
47.63992 584.000
47.65986 507.000
47.67981 545.000
47.69976 568.000
47.71970 500.000
47.73965 534.000
47.75960 532.000
47.77955 537.000
47.79949 528.000
47.81944 587.000
47.83939 511.000
47.85933 533.000
47.87928 542.000
47.89923 568.000
47.91917 551.000
47.93912 544.000
47.95907 530.000
47.97902 521.000
47.99896 582.000
48.01891 538.000
48.03886 550.000
48.05880 544.000
48.07875 498.000
48.09870 583.000
48.11864 546.000
48.13859 603.000
48.15854 529.000
48.17848 568.000
48.19843 539.000
48.21838 551.000
48.23833 537.000
48.25827 566.000
48.27822 590.000
48.29817 541.000
48.31811 601.000
48.33806 567.000
48.35801 585.000
48.37795 639.000
48.39790 585.000
48.41785 605.000
48.43780 595.000
48.45774 600.000
48.47769 619.000
48.49764 651.000
48.51758 643.000
48.53753 589.000
48.55748 599.000
48.57742 636.000
48.59737 559.000
48.61732 558.000
48.63726 547.000
48.65721 568.000
48.67716 569.000
48.69711 588.000
48.71705 576.000
48.73700 513.000
48.75695 570.000
48.77689 532.000
48.79684 542.000
48.81679 517.000
48.83673 508.000
48.85668 507.000
48.87663 536.000
48.89658 512.000
48.91652 530.000
48.93647 515.000
48.95642 494.000
48.97636 545.000
48.99631 516.000
49.01626 499.000
49.03620 544.000
49.05615 523.000
49.07610 459.000
49.09605 521.000
49.11599 505.000
49.13594 525.000
49.15589 491.000
49.17583 499.000
49.19578 507.000
49.21573 530.000
49.23567 504.000
49.25562 514.000
49.27557 508.000
49.29551 514.000
49.31546 526.000
49.33541 479.000
49.35536 509.000
49.37530 490.000
49.39525 516.000
49.41520 547.000
49.43514 486.000
49.45509 461.000
49.47504 505.000
49.49498 545.000
49.51493 517.000
49.53488 486.000
49.55483 515.000
49.57477 479.000
49.59472 516.000
49.61467 517.000
49.63461 492.000
49.65456 488.000
49.67451 483.000
49.69445 505.000
49.71440 492.000
49.73435 457.000
49.75429 495.000
49.77424 494.000
49.79419 518.000
49.81414 466.000
49.83408 485.000
49.85403 505.000
49.87398 544.000
49.89392 492.000
49.91387 480.000
49.93382 499.000
49.95376 503.000
49.97371 484.000
49.99366 484.000
50.01361 500.000
50.03355 494.000
50.05350 484.000
50.07345 515.000
50.09339 509.000
50.11334 475.000
50.13329 539.000
50.15323 499.000
50.17318 519.000
50.19313 500.000
50.21307 503.000
50.23302 478.000
50.25297 541.000
50.27292 488.000
50.29286 526.000
50.31281 453.000
50.33276 498.000
50.35270 515.000
50.37265 479.000
50.39260 488.000
50.41254 500.000
50.43249 468.000
50.45244 471.000
50.47239 502.000
50.49233 483.000
50.51228 467.000
50.53223 523.000
50.55217 495.000
50.57212 501.000
50.59207 504.000
50.61201 478.000
50.63196 502.000
50.65191 464.000
50.67186 448.000
50.69180 472.000
50.71175 478.000
50.73170 518.000
50.75164 455.000
50.77159 491.000
50.79154 496.000
50.81148 528.000
50.83143 500.000
50.85138 493.000
50.87132 484.000
50.89127 468.000
50.91122 479.000
50.93117 492.000
50.95111 443.000
50.97106 493.000
50.99101 506.000
51.01095 485.000
51.03090 454.000
51.05085 476.000
51.07079 439.000
51.09074 476.000
51.11069 464.000
51.13064 444.000
51.15058 500.000
51.17053 490.000
51.19048 447.000
51.21042 453.000
51.23037 512.000
51.25032 497.000
51.27026 429.000
51.29021 477.000
51.31016 491.000
51.33010 497.000
51.35005 482.000
51.37000 444.000
51.38995 468.000
51.40989 502.000
51.42984 499.000
51.44979 453.000
51.46973 460.000
51.48968 501.000
51.50963 462.000
51.52957 492.000
51.54952 488.000
51.56947 455.000
51.58942 501.000
51.60936 492.000
51.62931 493.000
51.64926 462.000
51.66920 472.000
51.68915 466.000
51.70910 460.000
51.72904 481.000
51.74899 472.000
51.76894 482.000
51.78888 458.000
51.80883 503.000
51.82878 485.000
51.84873 461.000
51.86867 464.000
51.88862 465.000
51.90857 509.000
51.92851 466.000
51.94846 466.000
51.96841 472.000
51.98835 450.000
52.00830 464.000
52.02825 474.000
52.04820 481.000
52.06814 470.000
52.08809 489.000
52.10804 478.000
52.12798 495.000
52.14793 466.000
52.16788 490.000
52.18782 495.000
52.20777 485.000
52.22772 433.000
52.24767 476.000
52.26761 458.000
52.28756 443.000
52.30751 507.000
52.32745 468.000
52.34740 473.000
52.36735 490.000
52.38729 451.000
52.40724 476.000
52.42719 473.000
52.44713 473.000
52.46708 512.000
52.48703 524.000
52.50698 500.000
52.52692 542.000
52.54687 473.000
52.56682 467.000
52.58676 495.000
52.60671 462.000
52.62666 509.000
52.64660 470.000
52.66655 452.000
52.68650 496.000
52.70645 474.000
52.72639 502.000
52.74634 514.000
52.76629 511.000
52.78623 453.000
52.80618 489.000
52.82613 448.000
52.84607 489.000
52.86602 489.000
52.88597 464.000
52.90591 530.000
52.92586 516.000
52.94581 493.000
52.96576 511.000
52.98570 469.000
53.00565 478.000
53.02560 522.000
53.04554 482.000
53.06549 485.000
53.08544 497.000
53.10538 493.000
53.12533 482.000
53.14528 446.000
53.16523 509.000
53.18517 491.000
53.20512 470.000
53.22507 475.000
53.24501 455.000
53.26496 495.000
53.28491 480.000
53.30485 520.000
53.32480 450.000
53.34475 481.000
53.36469 473.000
53.38464 495.000
53.40459 489.000
53.42454 453.000
53.44448 448.000
53.46443 442.000
53.48438 477.000
53.50432 499.000
53.52427 466.000
53.54422 454.000
53.56416 479.000
53.58411 488.000
53.60406 431.000
53.62401 490.000
53.64395 462.000
53.66390 446.000
53.68385 455.000
53.70379 467.000
53.72374 487.000
53.74369 473.000
53.76363 458.000
53.78358 447.000
53.80353 473.000
53.82348 485.000
53.84342 440.000
53.86337 437.000
53.88332 489.000
53.90326 459.000
53.92321 430.000
53.94316 479.000
53.96310 439.000
53.98305 433.000
54.00300 477.000
54.02294 465.000
54.04289 458.000
54.06284 439.000
54.08279 410.000
54.10273 448.000
54.12268 479.000
54.14263 465.000
54.16257 470.000
54.18252 469.000
54.20247 506.000
54.22241 453.000
54.24236 454.000
54.26231 464.000
54.28226 448.000
54.30220 440.000
54.32215 427.000
54.34210 500.000
54.36204 443.000
54.38199 460.000
54.40194 464.000
54.42188 394.000
54.44183 429.000
54.46178 471.000
54.48172 467.000
54.50167 437.000
54.52162 396.000
54.54157 424.000
54.56151 438.000
54.58146 465.000
54.60141 438.000
54.62135 454.000
54.64130 459.000
54.66125 436.000
54.68119 453.000
54.70114 473.000
54.72109 422.000
54.74104 457.000
54.76098 419.000
54.78093 453.000
54.80088 474.000
54.82082 451.000
54.84077 458.000
54.86072 445.000
54.88066 409.000
54.90061 458.000
54.92056 470.000
54.94050 484.000
54.96045 472.000
54.98040 452.000
55.00035 438.000
55.02029 472.000
55.04024 429.000
55.06019 449.000
55.08013 432.000
55.10008 462.000
55.12003 422.000
55.13997 438.000
55.15992 451.000
55.17987 437.000
55.19982 411.000
55.21976 431.000
55.23971 475.000
55.25966 450.000
55.27960 465.000
55.29955 487.000
55.31950 451.000
55.33944 418.000
55.35939 439.000
55.37934 455.000
55.39929 447.000
55.41923 457.000
55.43918 421.000
55.45913 448.000
55.47907 463.000
55.49902 432.000
55.51897 410.000
55.53891 423.000
55.55886 451.000
55.57881 469.000
55.59875 451.000
55.61870 445.000
55.63865 478.000
55.65860 430.000
55.67854 415.000
55.69849 443.000
55.71844 420.000
55.73838 420.000
55.75833 443.000
55.77828 458.000
55.79822 438.000
55.81817 433.000
55.83812 472.000
55.85807 416.000
55.87801 435.000
55.89796 422.000
55.91791 444.000
55.93785 444.000
55.95780 412.000
55.97775 429.000
55.99769 429.000
56.01764 452.000
56.03759 453.000
56.05753 433.000
56.07748 425.000
56.09743 445.000
56.11738 439.000
56.13732 437.000
56.15727 427.000
56.17722 399.000
56.19716 446.000
56.21711 400.000
56.23706 400.000
56.25700 498.000
56.27695 453.000
56.29690 464.000
56.31685 413.000
56.33679 443.000
56.35674 459.000
56.37669 465.000
56.39663 437.000
56.41658 417.000
56.43653 435.000
56.45647 439.000
56.47642 408.000
56.49637 447.000
56.51631 451.000
56.53626 441.000
56.55621 452.000
56.57616 432.000
56.59610 404.000
56.61605 427.000
56.63600 406.000
56.65594 443.000
56.67589 461.000
56.69584 437.000
56.71578 423.000
56.73573 424.000
56.75568 477.000
56.77563 422.000
56.79557 419.000
56.81552 461.000
56.83547 505.000
56.85541 438.000
56.87536 432.000
56.89531 434.000
56.91525 487.000
56.93520 491.000
56.95515 422.000
56.97510 445.000
56.99504 465.000
57.01499 454.000
57.03494 432.000
57.05488 446.000
57.07483 425.000
57.09478 439.000
57.11472 457.000
57.13467 419.000
57.15462 472.000
57.17456 453.000
57.19451 458.000
57.21446 465.000
57.23441 452.000
57.25435 423.000
57.27430 448.000
57.29425 439.000
57.31419 424.000
57.33414 436.000
57.35409 449.000
57.37403 421.000
57.39398 437.000
57.41393 445.000
57.43388 469.000
57.45382 407.000
57.47377 442.000
57.49372 430.000
57.51366 495.000
57.53361 466.000
57.55356 470.000
57.57350 512.000
57.59345 456.000
57.61340 475.000
57.63334 463.000
57.65329 499.000
57.67324 467.000
57.69319 465.000
57.71313 492.000
57.73308 472.000
57.75303 477.000
57.77297 494.000
57.79292 471.000
57.81287 480.000
57.83281 467.000
57.85276 467.000
57.87271 454.000
57.89266 475.000
57.91260 477.000
57.93255 452.000
57.95250 475.000
57.97244 462.000
57.99239 476.000
58.01234 434.000
58.03228 441.000
58.05223 448.000
58.07218 421.000
58.09212 456.000
58.11207 419.000
58.13202 402.000
58.15197 462.000
58.17191 428.000
58.19186 412.000
58.21181 430.000
58.23175 464.000
58.25170 443.000
58.27165 441.000
58.29159 456.000
58.31154 435.000
58.33149 420.000
58.35144 405.000
58.37138 430.000
58.39133 419.000
58.41128 416.000
58.43122 425.000
58.45117 426.000
58.47112 405.000
58.49106 422.000
58.51101 404.000
58.53096 445.000
58.55090 463.000
58.57085 429.000
58.59080 419.000
58.61075 398.000
58.63069 434.000
58.65064 400.000
58.67059 419.000
58.69053 439.000
58.71048 423.000
58.73043 437.000
58.75037 417.000
58.77032 402.000
58.79027 408.000
58.81022 425.000
58.83016 396.000
58.85011 433.000
58.87006 426.000
58.89000 408.000
58.90995 409.000
58.92990 410.000
58.94984 431.000
58.96979 461.000
58.98974 405.000
59.00969 420.000
59.02963 434.000
59.04958 430.000
59.06953 425.000
59.08947 430.000
59.10942 453.000
59.12937 460.000
59.14931 407.000
59.16926 415.000
59.18921 391.000
59.20915 433.000
59.22910 417.000
59.24905 388.000
59.26900 426.000
59.28894 373.000
59.30889 434.000
59.32884 432.000
59.34878 380.000
59.36873 416.000
59.38868 413.000
59.40862 402.000
59.42857 407.000
59.44852 440.000
59.46847 410.000
59.48841 370.000
59.50836 445.000
59.52831 411.000
59.54825 420.000
59.56820 427.000
59.58815 407.000
59.60809 415.000
59.62804 429.000
59.64799 428.000
59.66793 419.000
59.68788 438.000
59.70783 437.000
59.72778 408.000
59.74772 422.000
59.76767 406.000
59.78762 441.000
59.80756 426.000
59.82751 414.000
59.84746 425.000
59.86740 417.000
59.88735 426.000
59.90730 439.000
59.92725 411.000
59.94719 423.000
59.96714 447.000
59.98709 409.000
60.00703 420.000
60.02698 444.000
60.04693 410.000
60.06687 433.000
60.08682 408.000
60.10677 424.000
60.12671 459.000
60.14666 401.000
60.16661 370.000
60.18656 410.000
60.20650 375.000
60.22645 406.000
60.24640 438.000
60.26634 415.000
60.28629 401.000
60.30624 428.000
60.32618 394.000
60.34613 434.000
60.36608 438.000
60.38603 418.000
60.40597 437.000
60.42592 437.000
60.44587 432.000
60.46581 406.000
60.48576 398.000
60.50571 437.000
60.52565 402.000
60.54560 411.000
60.56555 415.000
60.58550 464.000
60.60544 420.000
60.62539 437.000
60.64534 411.000
60.66528 442.000
60.68523 395.000
60.70518 426.000
60.72512 438.000
60.74507 441.000
60.76502 457.000
60.78496 384.000
60.80491 449.000
60.82486 477.000
60.84481 476.000
60.86475 447.000
60.88470 435.000
60.90465 452.000
60.92459 471.000
60.94454 443.000
60.96449 499.000
60.98443 486.000
61.00438 491.000
61.02433 483.000
61.04428 503.000
61.06422 489.000
61.08417 520.000
61.10412 508.000
61.12406 486.000
61.14401 479.000
61.16396 516.000
61.18390 512.000
61.20385 531.000
61.22380 479.000
61.24374 461.000
61.26369 497.000
61.28364 471.000
61.30359 430.000
61.32353 473.000
61.34348 431.000
61.36343 464.000
61.38337 427.000
61.40332 466.000
61.42327 424.000
61.44321 473.000
61.46316 462.000
61.48311 449.000
61.50306 463.000
61.52300 467.000
61.54295 487.000
61.56290 482.000
61.58284 489.000
61.60279 456.000
61.62274 500.000
61.64268 516.000
61.66263 528.000
61.68258 592.000
61.70252 540.000
61.72247 592.000
61.74242 582.000
61.76237 611.000
61.78231 606.000
61.80226 678.000
61.82221 658.000
61.84215 695.000
61.86210 660.000
61.88205 712.000
61.90199 767.000
61.92194 776.000
61.94189 816.000
61.96184 800.000
61.98178 934.000
62.00173 915.000
62.02168 930.000
62.04162 945.000
62.06157 963.000
62.08152 1063.000
62.10146 1019.000
62.12141 1089.000
62.14136 1071.000
62.16131 1089.000
62.18125 1078.000
62.20120 1009.000
62.22115 1012.000
62.24109 948.000
62.26104 900.000
62.28099 838.000
62.30093 828.000
62.32088 817.000
62.34083 792.000
62.36077 759.000
62.38072 680.000
62.40067 699.000
62.42062 591.000
62.44056 635.000
62.46051 564.000
62.48046 565.000
62.50040 542.000
62.52035 516.000
62.54030 532.000
62.56024 496.000
62.58019 487.000
62.60014 494.000
62.62009 446.000
62.64003 453.000
62.65998 470.000
62.67993 428.000
62.69987 434.000
62.71982 458.000
62.73977 435.000
62.75971 464.000
62.77966 458.000
62.79961 404.000
62.81955 461.000
62.83950 434.000
62.85945 429.000
62.87940 450.000
62.89934 399.000
62.91929 394.000
62.93924 450.000
62.95918 419.000
62.97913 420.000
62.99908 425.000
63.01902 396.000
63.03897 376.000
63.05892 438.000
63.07887 420.000
63.09881 414.000
63.11876 419.000
63.13871 393.000
63.15865 404.000
63.17860 451.000
63.19855 447.000
63.21849 431.000
63.23844 399.000
63.25839 433.000
63.27833 447.000
63.29828 436.000
63.31823 402.000
63.33818 385.000
63.35812 412.000
63.37807 429.000
63.39802 413.000
63.41796 424.000
63.43791 450.000
63.45786 422.000
63.47780 386.000
63.49775 385.000
63.51770 408.000
63.53765 413.000
63.55759 376.000
63.57754 425.000
63.59749 432.000
63.61743 421.000
63.63738 462.000
63.65733 423.000
63.67727 386.000
63.69722 387.000
63.71717 428.000
63.73712 409.000
63.75706 381.000
63.77701 444.000
63.79696 464.000
63.81690 454.000
63.83685 411.000
63.85680 413.000
63.87674 439.000
63.89669 446.000
63.91664 395.000
63.93658 403.000
63.95653 401.000
63.97648 419.000
63.99643 397.000
64.01637 420.000
64.03632 425.000
64.05627 426.000
64.07621 420.000
64.09616 434.000
64.11611 398.000
64.13605 350.000
64.15600 406.000
64.17595 463.000
64.19590 382.000
64.21584 412.000
64.23579 408.000
64.25574 412.000
64.27568 402.000
64.29563 431.000
64.31558 395.000
64.33552 379.000
64.35547 421.000
64.37542 359.000
64.39536 424.000
64.41531 433.000
64.43526 425.000
64.45521 413.000
64.47515 449.000
64.49510 429.000
64.51505 410.000
64.53499 401.000
64.55494 415.000
64.57489 429.000
64.59483 423.000
64.61478 407.000
64.63473 385.000
64.65468 445.000
64.67462 439.000
64.69457 402.000
64.71452 461.000
64.73446 427.000
64.75441 419.000
64.77436 420.000
64.79430 430.000
64.81425 384.000
64.83420 447.000
64.85414 421.000
64.87409 450.000
64.89404 453.000
64.91399 431.000
64.93393 443.000
64.95388 409.000
64.97383 475.000
64.99377 440.000
65.01372 449.000
65.03367 489.000
65.05361 477.000
65.07356 467.000
65.09351 429.000
65.11346 488.000
65.13340 442.000
65.15335 436.000
65.17330 462.000
65.19324 451.000
65.21319 502.000
65.23314 485.000
65.25308 466.000
65.27303 467.000
65.29298 472.000
65.31293 407.000
65.33287 418.000
65.35282 441.000
65.37277 448.000
65.39271 429.000
65.41266 464.000
65.43261 435.000
65.45255 458.000
65.47250 412.000
65.49245 421.000
65.51239 449.000
65.53234 424.000
65.55229 415.000
65.57224 420.000
65.59218 436.000
65.61213 408.000
65.63208 463.000
65.65202 486.000
65.67197 431.000
65.69192 480.000
65.71186 435.000
65.73181 468.000
65.75176 439.000
65.77171 432.000
65.79165 422.000
65.81160 436.000
65.83155 471.000
65.85149 481.000
65.87144 427.000
65.89139 459.000
65.91133 472.000
65.93128 456.000
65.95123 465.000
65.97117 456.000
65.99112 488.000
66.01107 553.000
66.03102 488.000
66.05096 448.000
66.07091 444.000
66.09086 435.000
66.11080 473.000
66.13075 436.000
66.15070 432.000
66.17064 462.000
66.19059 403.000
66.21054 420.000
66.23049 475.000
66.25043 397.000
66.27038 456.000
66.29033 469.000
66.31027 463.000
66.33022 405.000
66.35017 431.000
66.37011 442.000
66.39006 433.000
66.41001 455.000
66.42995 399.000
66.44990 408.000
66.46985 414.000
66.48980 415.000
66.50974 404.000
66.52969 401.000
66.54964 419.000
66.56958 427.000
66.58953 402.000
66.60948 431.000
66.62942 431.000
66.64937 419.000
66.66932 363.000
66.68927 411.000
66.70921 401.000
66.72916 375.000
66.74911 411.000
66.76905 421.000
66.78900 425.000
66.80895 439.000
66.82889 384.000
66.84884 441.000
66.86879 455.000
66.88874 438.000
66.90868 395.000
66.92863 446.000
66.94858 400.000
66.96852 454.000
66.98847 443.000
67.00842 428.000
67.02836 479.000
67.04831 430.000
67.06826 450.000
67.08820 437.000
67.10815 442.000
67.12810 463.000
67.14805 473.000
67.16799 448.000
67.18794 451.000
67.20789 453.000
67.22783 421.000
67.24778 421.000
67.26773 473.000
67.28767 458.000
67.30762 493.000
67.32757 478.000
67.34752 467.000
67.36746 430.000
67.38741 508.000
67.40736 466.000
67.42730 511.000
67.44725 459.000
67.46720 436.000
67.48714 487.000
67.50709 523.000
67.52704 490.000
67.54698 482.000
67.56693 435.000
67.58688 456.000
67.60683 426.000
67.62677 456.000
67.64672 408.000
67.66667 455.000
67.68661 513.000
67.70656 412.000
67.72651 492.000
67.74645 443.000
67.76640 398.000
67.78635 458.000
67.80630 414.000
67.82624 389.000
67.84619 427.000
67.86614 426.000
67.88608 378.000
67.90603 437.000
67.92598 400.000
67.94592 420.000
67.96587 398.000
67.98582 397.000
68.00576 396.000
68.02571 432.000
68.04566 419.000
68.06561 402.000
68.08555 396.000
68.10550 418.000
68.12545 405.000
68.14539 413.000
68.16534 412.000
68.18529 358.000
68.20523 364.000
68.22518 401.000
68.24513 347.000
68.26508 399.000
68.28502 402.000
68.30497 420.000
68.32492 400.000
68.34486 412.000
68.36481 422.000
68.38476 391.000
68.40470 388.000
68.42465 407.000
68.44460 405.000
68.46455 366.000
68.48449 368.000
68.50444 395.000
68.52439 395.000
68.54433 396.000
68.56428 383.000
68.58423 409.000
68.60417 419.000
68.62412 433.000
68.64407 384.000
68.66401 389.000
68.68396 404.000
68.70391 394.000
68.72386 385.000
68.74380 413.000
68.76375 415.000
68.78370 397.000
68.80364 390.000
68.82359 375.000
68.84354 412.000
68.86348 415.000
68.88343 402.000
68.90338 395.000
68.92333 367.000
68.94327 432.000
68.96322 362.000
68.98317 383.000
69.00311 383.000
69.02306 411.000
69.04301 425.000
69.06295 414.000
69.08290 420.000
69.10285 398.000
69.12279 390.000
69.14274 419.000
69.16269 349.000
69.18264 394.000
69.20258 408.000
69.22253 417.000
69.24248 363.000
69.26242 412.000
69.28237 371.000
69.30232 385.000
69.32226 400.000
69.34221 410.000
69.36216 377.000
69.38211 400.000
69.40205 375.000
69.42200 391.000
69.44195 416.000
69.46189 381.000
69.48184 406.000
69.50179 401.000
69.52173 398.000
69.54168 401.000
69.56163 398.000
69.58157 404.000
69.60152 381.000
69.62147 380.000
69.64142 372.000
69.66136 404.000
69.68131 409.000
69.70126 381.000
69.72120 380.000
69.74115 388.000
69.76110 409.000
69.78104 396.000
69.80099 408.000
69.82094 367.000
69.84089 362.000
69.86083 415.000
69.88078 394.000
69.90073 404.000
69.92067 412.000
69.94062 407.000
69.96057 396.000
69.98051 370.000
70.00046 404.000
70.02041 406.000
70.04035 410.000
70.06030 450.000
70.08025 372.000
70.10020 385.000
70.12014 384.000
70.14009 396.000
70.16004 401.000
70.17998 373.000
70.19993 393.000
70.21988 386.000
70.23982 410.000
70.25977 383.000
70.27972 423.000
70.29967 367.000
70.31961 376.000
70.33956 404.000
70.35951 360.000
70.37945 357.000
70.39940 412.000
70.41935 417.000
70.43929 377.000
70.45924 397.000
70.47919 390.000
70.49914 373.000
70.51908 411.000
70.53903 413.000
70.55898 352.000
70.57892 404.000
70.59887 418.000
70.61882 410.000
70.63876 369.000
70.65871 428.000
70.67866 427.000
70.69860 416.000
70.71855 359.000
70.73850 385.000
70.75845 408.000
70.77839 371.000
70.79834 379.000
70.81829 413.000
70.83823 421.000
70.85818 378.000
70.87813 355.000
70.89807 414.000
70.91802 374.000
70.93797 388.000
70.95792 359.000
70.97786 383.000
70.99781 412.000
71.01776 383.000
71.03770 427.000
71.05765 395.000
71.07760 364.000
71.09754 348.000
71.11749 373.000
71.13744 352.000
71.15738 397.000
71.17733 371.000
71.19728 430.000
71.21723 417.000
71.23717 394.000
71.25712 395.000
71.27707 413.000
71.29701 379.000
71.31696 351.000
71.33691 399.000
71.35685 363.000
71.37680 396.000
71.39675 414.000
71.41670 401.000
71.43664 375.000
71.45659 387.000
71.47654 368.000
71.49648 354.000
71.51643 422.000
71.53638 422.000
71.55632 424.000
71.57627 418.000
71.59622 437.000
71.61616 429.000
71.63611 438.000
71.65606 395.000
71.67601 396.000
71.69595 420.000
71.71590 385.000
71.73585 421.000
71.75579 400.000
71.77574 421.000
71.79569 412.000
71.81563 402.000
71.83558 439.000
71.85553 434.000
71.87548 402.000
71.89542 422.000
71.91537 413.000
71.93532 402.000
71.95526 436.000
71.97521 426.000
71.99516 403.000
72.01510 403.000
72.03505 436.000
72.05500 432.000
72.07495 409.000
72.09489 421.000
72.11484 441.000
72.13479 455.000
72.15473 433.000
72.17468 395.000
72.19463 402.000
72.21457 443.000
72.23452 426.000
72.25447 372.000
72.27441 454.000
72.29436 391.000
72.31431 409.000
72.33426 399.000
72.35420 447.000
72.37415 405.000
72.39410 370.000
72.41404 370.000
72.43399 400.000
72.45394 393.000
72.47388 387.000
72.49383 362.000
72.51378 405.000
72.53373 391.000
72.55367 377.000
72.57362 391.000
72.59357 368.000
72.61351 371.000
72.63346 408.000
72.65341 371.000
72.67335 406.000
72.69330 380.000
72.71325 379.000
72.73319 364.000
72.75314 424.000
72.77309 380.000
72.79304 421.000
72.81298 386.000
72.83293 416.000
72.85288 391.000
72.87282 382.000
72.89277 424.000
72.91272 395.000
72.93266 362.000
72.95261 412.000
72.97256 386.000
72.99251 359.000
73.01245 405.000
73.03240 392.000
73.05235 419.000
73.07229 399.000
73.09224 363.000
73.11219 408.000
73.13213 392.000
73.15208 366.000
73.17203 370.000
73.19197 434.000
73.21192 369.000
73.23187 382.000
73.25182 380.000
73.27176 403.000
73.29171 404.000
73.31166 430.000
73.33160 382.000
73.35155 394.000
73.37150 398.000
73.39144 426.000
73.41139 411.000
73.43134 401.000
73.45129 378.000
73.47123 422.000
73.49118 387.000
73.51113 400.000
73.53107 402.000
73.55102 422.000
73.57097 364.000
73.59091 395.000
73.61086 454.000
73.63081 398.000
73.65076 415.000
73.67070 380.000
73.69065 411.000
73.71060 393.000
73.73054 391.000
73.75049 430.000
73.77044 411.000
73.79038 429.000
73.81033 411.000
73.83028 404.000
73.85022 435.000
73.87017 435.000
73.89012 402.000
73.91007 405.000
73.93001 413.000
73.94996 436.000
73.96991 404.000
73.98985 404.000
74.00980 460.000
74.02975 456.000
74.04969 407.000
74.06964 479.000
74.08959 429.000
74.10954 469.000
74.12948 467.000
74.14943 435.000
74.16938 488.000
74.18932 492.000
74.20927 483.000
74.22922 543.000
74.24916 538.000
74.26911 508.000
74.28906 536.000
74.30900 568.000
74.32895 549.000
74.34890 523.000
74.36885 568.000
74.38879 575.000
74.40874 599.000
74.42869 608.000
74.44863 657.000
74.46858 564.000
74.48853 613.000
74.50847 630.000
74.52842 626.000
74.54837 645.000
74.56832 632.000
74.58826 635.000
74.60821 655.000
74.62816 652.000
74.64810 667.000
74.66805 642.000
74.68800 664.000
74.70794 684.000
74.72789 593.000
74.74784 640.000
74.76778 584.000
74.78773 619.000
74.80768 615.000
74.82763 629.000
74.84757 557.000
74.86752 619.000
74.88747 592.000
74.90741 519.000
74.92736 555.000
74.94731 509.000
74.96725 503.000
74.98720 490.000
75.00715 483.000
75.02710 469.000
75.04704 459.000
75.06699 453.000
75.08694 438.000
75.10688 443.000
75.12683 461.000
75.14678 427.000
75.16672 432.000
75.18667 430.000
75.20662 408.000
75.22657 424.000
75.24651 404.000
75.26646 404.000
75.28641 438.000
75.30635 443.000
75.32630 406.000
75.34625 400.000
75.36619 389.000
75.38614 446.000
75.40609 390.000
75.42603 391.000
75.44598 442.000
75.46593 407.000
75.48588 401.000
75.50582 405.000
75.52577 400.000
75.54572 418.000
75.56566 391.000
75.58561 392.000
75.60556 411.000
75.62550 417.000
75.64545 398.000
75.66540 413.000
75.68535 349.000
75.70529 419.000
75.72524 428.000
75.74519 378.000
75.76513 396.000
75.78508 389.000
75.80503 395.000
75.82497 371.000
75.84492 363.000
75.86487 399.000
75.88481 416.000
75.90476 377.000
75.92471 390.000
75.94466 407.000
75.96460 389.000
75.98455 401.000
76.00450 369.000
76.02444 359.000
76.04439 400.000
76.06434 398.000
76.08428 414.000
76.10423 400.000
76.12418 395.000
76.14413 389.000
76.16407 398.000
76.18402 413.000
76.20397 392.000
76.22391 398.000
76.24386 384.000
76.26381 351.000
76.28375 394.000
76.30370 385.000
76.32365 368.000
76.34359 356.000
76.36354 414.000
76.38349 387.000
76.40344 379.000
76.42338 393.000
76.44333 415.000
76.46328 402.000
76.48322 379.000
76.50317 399.000
76.52312 387.000
76.54306 365.000
76.56301 410.000
76.58296 376.000
76.60291 417.000
76.62285 387.000
76.64280 393.000
76.66275 383.000
76.68269 355.000
76.70264 380.000
76.72259 381.000
76.74253 375.000
76.76248 391.000
76.78243 397.000
76.80238 406.000
76.82232 375.000
76.84227 365.000
76.86222 408.000
76.88216 416.000
76.90211 398.000
76.92206 377.000
76.94200 409.000
76.96195 412.000
76.98190 399.000
77.00184 394.000
77.02179 387.000
77.04174 369.000
77.06169 394.000
77.08163 395.000
77.10158 391.000
77.12153 412.000
77.14147 384.000
77.16142 357.000
77.18137 415.000
77.20131 406.000
77.22126 394.000
77.24121 421.000
77.26116 393.000
77.28110 395.000
77.30105 401.000
77.32100 366.000
77.34094 391.000
77.36089 405.000
77.38084 385.000
77.40078 389.000
77.42073 386.000
77.44068 397.000
77.46062 396.000
77.48057 377.000
77.50052 389.000
77.52047 410.000
77.54041 373.000
77.56036 370.000
77.58031 397.000
77.60025 394.000
77.62020 386.000
77.64015 370.000
77.66009 412.000
77.68004 385.000
77.69999 376.000
77.71994 357.000
77.73988 394.000
77.75983 386.000
77.77978 391.000
77.79972 367.000
77.81967 396.000
77.83962 378.000
77.85956 361.000
77.87951 392.000
77.89946 392.000
77.91940 361.000
77.93935 397.000
77.95930 386.000
77.97925 399.000
77.99919 379.000
78.01914 401.000
78.03909 408.000
78.05903 400.000
78.07898 387.000
78.09893 397.000
78.11887 406.000
78.13882 434.000
78.15877 409.000
78.17872 402.000
78.19866 434.000
78.21861 457.000
78.23856 452.000
78.25850 470.000
78.27845 465.000
78.29840 447.000
78.31834 475.000
78.33829 531.000
78.35824 508.000
78.37819 508.000
78.39813 519.000
78.41808 503.000
78.43803 545.000
78.45797 559.000
78.47792 573.000
78.49787 543.000
78.51781 580.000
78.53776 628.000
78.55771 615.000
78.57765 670.000
78.59760 666.000
78.61755 626.000
78.63750 611.000
78.65744 589.000
78.67739 611.000
78.69734 552.000
78.71728 512.000
78.73723 549.000
78.75718 527.000
78.77712 614.000
78.79707 558.000
78.81702 546.000
78.83697 491.000
78.85691 511.000
78.87686 510.000
78.89681 444.000
78.91675 442.000
78.93670 417.000
78.95665 428.000
78.97659 450.000
78.99654 428.000
79.01649 417.000
79.03643 415.000
79.05638 401.000
79.07633 434.000
79.09628 386.000
79.11622 389.000
79.13617 419.000
79.15612 386.000
79.17606 368.000
79.19601 375.000
79.21596 405.000
79.23590 373.000
79.25585 401.000
79.27580 388.000
79.29575 370.000
79.31569 387.000
79.33564 403.000
79.35559 388.000
79.37553 373.000
79.39548 381.000
79.41543 370.000
79.43537 422.000
79.45532 393.000
79.47527 367.000
79.49521 379.000
79.51516 413.000
79.53511 374.000
79.55506 368.000
79.57500 408.000
79.59495 419.000
79.61490 392.000
79.63484 396.000
79.65479 405.000
79.67474 409.000
79.69468 393.000
79.71463 411.000
79.73458 425.000
79.75453 404.000
79.77447 420.000
79.79442 387.000
79.81437 389.000
79.83431 437.000
79.85426 384.000
79.87421 397.000
79.89415 390.000
79.91410 399.000
79.93405 411.000
79.95399 387.000
79.97394 387.000
79.99389 384.000
80.01384 392.000
80.03378 399.000
80.05373 406.000
80.07368 398.000
80.09362 406.000
80.11357 419.000
80.13352 387.000
80.15346 364.000
80.17341 388.000
80.19336 392.000
80.21331 395.000
80.23325 379.000
80.25320 385.000
80.27315 370.000
80.29309 400.000
80.31304 392.000
80.33299 413.000
80.35293 350.000
80.37288 401.000
80.39283 389.000
80.41278 388.000
80.43272 396.000
80.45267 406.000
80.47262 403.000
80.49256 396.000
80.51251 378.000
80.53246 388.000
80.55240 372.000
80.57235 349.000
80.59230 379.000
80.61224 372.000
80.63219 373.000
80.65214 372.000
80.67209 367.000
80.69203 394.000
80.71198 367.000
80.73193 402.000
80.75187 388.000
80.77182 386.000
80.79177 375.000
80.81171 365.000
80.83166 358.000
80.85161 428.000
80.87156 427.000
80.89150 407.000
80.91145 376.000
80.93140 422.000
80.95134 364.000
80.97129 371.000
80.99124 413.000
81.01118 360.000
81.03113 401.000
81.05108 375.000
81.07102 336.000
81.09097 379.000
81.11092 406.000
81.13087 360.000
81.15081 368.000
81.17076 388.000
81.19071 392.000
81.21065 404.000
81.23060 383.000
81.25055 355.000
81.27049 398.000
81.29044 431.000
81.31039 383.000
81.33034 375.000
81.35028 381.000
81.37023 434.000
81.39018 401.000
81.41012 403.000
81.43007 412.000
81.45002 413.000
81.46996 376.000
81.48991 364.000
81.50986 379.000
81.52980 391.000
81.54975 377.000
81.56970 412.000
81.58965 376.000
81.60959 389.000
81.62954 370.000
81.64949 379.000
81.66943 342.000
81.68938 406.000
81.70933 377.000
81.72927 407.000
81.74922 395.000
81.76917 352.000
81.78912 387.000
81.80906 378.000
81.82901 392.000
81.84896 383.000
81.86890 378.000
81.88885 409.000
81.90880 379.000
81.92874 379.000
81.94869 394.000
81.96864 391.000
81.98859 385.000
82.00853 380.000
82.02848 396.000
82.04843 425.000
82.06837 406.000
82.08832 375.000
82.10827 432.000
82.12821 391.000
82.14816 406.000
82.16811 396.000
82.18805 415.000
82.20800 441.000
82.22795 399.000
82.24790 405.000
82.26784 376.000
82.28779 413.000
82.30774 440.000
82.32768 429.000
82.34763 412.000
82.36758 447.000
82.38752 430.000
82.40747 407.000
82.42742 383.000
82.44737 401.000
82.46731 408.000
82.48726 414.000
82.50721 418.000
82.52715 386.000
82.54710 406.000
82.56705 406.000
82.58699 431.000
82.60694 396.000
82.62689 396.000
82.64683 397.000
82.66678 402.000
82.68673 407.000
82.70668 380.000
82.72662 409.000
82.74657 400.000
82.76652 397.000
82.78646 397.000
82.80641 417.000
82.82636 399.000
82.84630 323.000
82.86625 391.000
82.88620 384.000
82.90615 403.000
82.92609 377.000
82.94604 420.000
82.96599 399.000
82.98593 395.000
83.00588 395.000
83.02583 389.000
83.04577 392.000
83.06572 423.000
83.08567 395.000
83.10561 403.000
83.12556 385.000
83.14551 402.000
83.16546 367.000
83.18540 414.000
83.20535 384.000
83.22530 428.000
83.24524 415.000
83.26519 412.000
83.28514 382.000
83.30508 421.000
83.32503 384.000
83.34498 414.000
83.36493 383.000
83.38487 393.000
83.40482 417.000
83.42477 403.000
83.44471 394.000
83.46466 387.000
83.48461 391.000
83.50455 391.000
83.52450 369.000
83.54445 396.000
83.56440 403.000
83.58434 370.000
83.60429 403.000
83.62424 358.000
83.64418 391.000
83.66413 401.000
83.68408 392.000
83.70402 384.000
83.72397 364.000
83.74392 429.000
83.76386 380.000
83.78381 374.000
83.80376 446.000
83.82371 384.000
83.84365 403.000
83.86360 409.000
83.88355 372.000
83.90349 365.000
83.92344 386.000
83.94339 361.000
83.96333 402.000
83.98328 362.000
84.00323 402.000
84.02318 390.000
84.04312 395.000
84.06307 367.000
84.08302 408.000
84.10296 388.000
84.12291 394.000
84.14286 344.000
84.16280 364.000
84.18275 357.000
84.20270 392.000
84.22264 381.000
84.24259 373.000
84.26254 401.000
84.28249 379.000
84.30243 437.000
84.32238 357.000
84.34233 381.000
84.36227 404.000
84.38222 368.000
84.40217 383.000
84.42211 380.000
84.44206 391.000
84.46201 380.000
84.48196 355.000
84.50190 401.000
84.52185 361.000
84.54180 407.000
84.56174 394.000
84.58169 391.000
84.60164 385.000
84.62158 358.000
84.64153 389.000
84.66148 364.000
84.68142 410.000
84.70137 366.000
84.72132 383.000
84.74127 370.000
84.76121 391.000
84.78116 375.000
84.80111 386.000
84.82105 372.000
84.84100 410.000
84.86095 346.000
84.88089 384.000
84.90084 416.000
84.92079 369.000
84.94074 374.000
84.96068 401.000
84.98063 378.000
85.00058 402.000
85.02052 406.000
85.04047 390.000
85.06042 411.000
85.08036 356.000
85.10031 375.000
85.12026 389.000
85.14021 371.000
85.16015 394.000
85.18010 362.000
85.20005 373.000
85.21999 388.000
85.23994 364.000
85.25989 369.000
85.27983 391.000
85.29978 377.000
85.31973 374.000
85.33967 358.000
85.35962 375.000
85.37957 396.000
85.39952 391.000
85.41946 373.000
85.43941 409.000
85.45936 390.000
85.47930 371.000
85.49925 379.000
85.51920 415.000
85.53914 396.000
85.55909 389.000
85.57904 391.000
85.59899 375.000
85.61893 353.000
85.63888 390.000
85.65883 400.000
85.67877 389.000
85.69872 362.000
85.71867 385.000
85.73861 384.000
85.75856 367.000
85.77851 354.000
85.79845 366.000
85.81840 367.000
85.83835 386.000
85.85830 375.000
85.87824 400.000
85.89819 345.000
85.91814 427.000
85.93808 385.000
85.95803 362.000
85.97798 348.000
85.99792 398.000
86.01787 368.000
86.03782 362.000
86.05777 393.000
86.07771 383.000
86.09766 423.000
86.11761 412.000
86.13755 406.000
86.15750 354.000
86.17745 385.000
86.19739 381.000
86.21734 381.000
86.23729 398.000
86.25723 392.000
86.27718 390.000
86.29713 397.000
86.31708 373.000
86.33702 382.000
86.35697 376.000
86.37692 367.000
86.39686 401.000
86.41681 431.000
86.43676 393.000
86.45670 366.000
86.47665 387.000
86.49660 397.000
86.51655 372.000
86.53649 369.000
86.55644 406.000
86.57639 379.000
86.59633 388.000
86.61628 408.000
86.63623 387.000
86.65617 378.000
86.67612 384.000
86.69607 349.000
86.71602 398.000
86.73596 375.000
86.75591 380.000
86.77586 428.000
86.79580 386.000
86.81575 411.000
86.83570 362.000
86.85564 360.000
86.87559 385.000
86.89554 391.000
86.91548 385.000
86.93543 378.000
86.95538 414.000
86.97533 386.000
86.99527 403.000
87.01522 354.000
87.03517 376.000
87.05511 389.000
87.07506 360.000
87.09501 423.000
87.11495 390.000
87.13490 366.000
87.15485 368.000
87.17480 394.000
87.19474 374.000
87.21469 371.000
87.23464 375.000
87.25458 355.000
87.27453 341.000
87.29448 386.000
87.31442 409.000
87.33437 355.000
87.35432 359.000
87.37426 373.000
87.39421 394.000
87.41416 355.000
87.43411 408.000
87.45405 407.000
87.47400 388.000
87.49395 410.000
87.51389 391.000
87.53384 391.000
87.55379 384.000
87.57373 374.000
87.59368 380.000
87.61363 392.000
87.63358 382.000
87.65352 408.000
87.67347 400.000
87.69342 389.000
87.71336 410.000
87.73331 356.000
87.75326 387.000
87.77320 402.000
87.79315 377.000
87.81310 415.000
87.83304 401.000
87.85299 356.000
87.87294 412.000
87.89289 409.000
87.91283 378.000
87.93278 412.000
87.95273 379.000
87.97267 396.000
87.99262 376.000
88.01257 366.000
88.03251 370.000
88.05246 362.000
88.07241 350.000
88.09236 381.000
88.11230 383.000
88.13225 345.000
88.15220 421.000
88.17214 390.000
88.19209 348.000
88.21204 427.000
88.23198 365.000
88.25193 425.000
88.27188 418.000
88.29183 391.000
88.31177 371.000
88.33172 401.000
88.35167 370.000
88.37161 408.000
88.39156 362.000
88.41151 376.000
88.43145 393.000
88.45140 393.000
88.47135 382.000
88.49129 384.000
88.51124 347.000
88.53119 344.000
88.55114 414.000
88.57108 372.000
88.59103 374.000
88.61098 370.000
88.63092 407.000
88.65087 397.000
88.67082 387.000
88.69076 406.000
88.71071 374.000
88.73066 437.000
88.75061 393.000
88.77055 399.000
88.79050 362.000
88.81045 390.000
88.83039 370.000
88.85034 366.000
88.87029 389.000
88.89023 421.000
88.91018 414.000
88.93013 396.000
88.95007 385.000
88.97002 421.000
88.98997 388.000
89.00992 402.000
89.02986 423.000
89.04981 433.000
89.06976 408.000
89.08970 434.000
89.10965 422.000
89.12960 407.000
89.14954 398.000
89.16949 413.000
89.18944 405.000
89.20939 433.000
89.22933 372.000
89.24928 374.000
89.26923 382.000
89.28917 391.000
89.30912 385.000
89.32907 373.000
89.34901 450.000
89.36896 411.000
89.38891 396.000
89.40885 383.000
89.42880 402.000
89.44875 379.000
89.46870 396.000
89.48864 383.000
89.50859 407.000
89.52854 418.000
89.54848 385.000
89.56843 371.000
89.58838 372.000
89.60832 354.000
89.62827 368.000
89.64822 400.000
89.66817 381.000
89.68811 365.000
89.70806 404.000
89.72801 360.000
89.74795 376.000
89.76790 384.000
89.78785 377.000
89.80779 378.000
89.82774 358.000
89.84769 382.000
89.86764 411.000
89.88758 383.000
89.90753 399.000
89.92748 373.000
89.94742 367.000
89.96737 379.000
89.98732 389.000
90.00726 380.000
