10.00000 138.000
10.01995 135.000
10.03989 129.000
10.05984 123.000
10.07979 137.000
10.09973 150.000
10.11968 113.000
10.13963 147.000
10.15958 137.000
10.17952 150.000
10.19947 146.000
10.21942 125.000
10.23936 130.000
10.25931 112.000
10.27926 148.000
10.29920 135.000
10.31915 142.000
10.33910 130.000
10.35905 139.000
10.37899 129.000
10.39894 129.000
10.41889 118.000
10.43883 137.000
10.45878 133.000
10.47873 128.000
10.49867 131.000
10.51862 139.000
10.53857 121.000
10.55851 131.000
10.57846 122.000
10.59841 144.000
10.61836 134.000
10.63830 88.000
10.65825 137.000
10.67820 145.000
10.69814 128.000
10.71809 121.000
10.73804 117.000
10.75798 129.000
10.77793 126.000
10.79788 122.000
10.81783 112.000
10.83777 126.000
10.85772 131.000
10.87767 132.000
10.89761 128.000
10.91756 128.000
10.93751 118.000
10.95745 123.000
10.97740 125.000
10.99735 129.000
11.01730 115.000
11.03724 143.000
11.05719 120.000
11.07714 106.000
11.09708 138.000
11.11703 132.000
11.13698 148.000
11.15692 107.000
11.17687 124.000
11.19682 132.000
11.21676 119.000
11.23671 116.000
11.25666 129.000
11.27661 129.000
11.29655 124.000
11.31650 145.000
11.33645 108.000
11.35639 137.000
11.37634 132.000
11.39629 127.000
11.41623 129.000
11.43618 141.000
11.45613 126.000
11.47608 120.000
11.49602 123.000
11.51597 135.000
11.53592 113.000
11.55586 124.000
11.57581 139.000
11.59576 130.000
11.61570 109.000
11.63565 117.000
11.65560 131.000
11.67554 136.000
11.69549 119.000
11.71544 132.000
11.73539 112.000
11.75533 120.000
11.77528 121.000
11.79523 105.000
11.81517 109.000
11.83512 104.000
11.85507 138.000
11.87501 118.000
11.89496 115.000
11.91491 115.000
11.93486 118.000
11.95480 113.000
11.97475 115.000
11.99470 114.000
12.01464 127.000
12.03459 109.000
12.05454 97.000
12.07448 116.000
12.09443 128.000
12.11438 116.000
12.13432 113.000
12.15427 128.000
12.17422 126.000
12.19417 126.000
12.21411 115.000
12.23406 117.000
12.25401 115.000
12.27395 128.000
12.29390 115.000
12.31385 125.000
12.33379 119.000
12.35374 115.000
12.37369 117.000
12.39364 116.000
12.41358 131.000
12.43353 130.000
12.45348 146.000
12.47342 129.000
12.49337 127.000
12.51332 101.000
12.53326 122.000
12.55321 117.000
12.57316 115.000
12.59311 131.000
12.61305 104.000
12.63300 118.000
12.65295 111.000
12.67289 123.000
12.69284 111.000
12.71279 110.000
12.73273 118.000
12.75268 123.000
12.77263 132.000
12.79257 117.000
12.81252 109.000
12.83247 107.000
12.85242 118.000
12.87236 108.000
12.89231 104.000
12.91226 121.000
12.93220 115.000
12.95215 111.000
12.97210 127.000
12.99204 105.000
13.01199 110.000
13.03194 100.000
13.05189 115.000
13.07183 118.000
13.09178 107.000
13.11173 124.000
13.13167 93.000
13.15162 125.000
13.17157 121.000
13.19151 126.000
13.21146 114.000
13.23141 131.000
13.25135 143.000
13.27130 98.000
13.29125 111.000
13.31120 129.000
13.33114 123.000
13.35109 127.000
13.37104 110.000
13.39098 127.000
13.41093 105.000
13.43088 124.000
13.45082 109.000
13.47077 111.000
13.49072 129.000
13.51067 140.000
13.53061 130.000
13.55056 103.000
13.57051 109.000
13.59045 121.000
13.61040 120.000
13.63035 106.000
13.65029 99.000
13.67024 121.000
13.69019 125.000
13.71013 111.000
13.73008 110.000
13.75003 131.000
13.76998 114.000
13.78992 119.000
13.80987 106.000
13.82982 143.000
13.84976 109.000
13.86971 118.000
13.88966 126.000
13.90960 92.000
13.92955 120.000
13.94950 118.000
13.96945 120.000
13.98939 126.000
14.00934 116.000
14.02929 112.000
14.04923 122.000
14.06918 100.000
14.08913 121.000
14.10907 127.000
14.12902 126.000
14.14897 129.000
14.16892 134.000
14.18886 109.000
14.20881 132.000
14.22876 119.000
14.24870 110.000
14.26865 135.000
14.28860 130.000
14.30854 126.000
14.32849 107.000
14.34844 121.000
14.36838 146.000
14.38833 126.000
14.40828 146.000
14.42823 132.000
14.44817 115.000
14.46812 148.000
14.48807 132.000
14.50801 128.000
14.52796 137.000
14.54791 154.000
14.56785 142.000
14.58780 169.000
14.60775 194.000
14.62770 200.000
14.64764 218.000
14.66759 285.000
14.68754 278.000
14.70748 309.000
14.72743 345.000
14.74738 320.000
14.76732 266.000
14.78727 304.000
14.80722 221.000
14.82716 209.000
14.84711 198.000
14.86706 163.000
14.88701 165.000
14.90695 152.000
14.92690 166.000
14.94685 147.000
14.96679 136.000
14.98674 147.000
15.00669 136.000
15.02663 128.000
15.04658 129.000
15.06653 142.000
15.08648 147.000
15.10642 126.000
15.12637 138.000
15.14632 146.000
15.16626 136.000
15.18621 116.000
15.20616 150.000
15.22610 100.000
15.24605 103.000
15.26600 132.000
15.28594 140.000
15.30589 131.000
15.32584 127.000
15.34579 134.000
15.36573 111.000
15.38568 125.000
15.40563 124.000
15.42557 127.000
15.44552 134.000
15.46547 144.000
15.48541 120.000
15.50536 116.000
15.52531 126.000
15.54526 121.000
15.56520 111.000
15.58515 123.000
15.60510 131.000
15.62504 125.000
15.64499 129.000
15.66494 132.000
15.68488 115.000
15.70483 120.000
15.72478 124.000
15.74472 128.000
15.76467 123.000
15.78462 120.000
15.80457 129.000
15.82451 121.000
15.84446 128.000
15.86441 122.000
15.88435 121.000
15.90430 99.000
15.92425 128.000
15.94419 105.000
15.96414 126.000
15.98409 124.000
16.00404 119.000
16.02398 109.000
16.04393 133.000
16.06388 136.000
16.08382 113.000
16.10377 114.000
16.12372 118.000
16.14366 118.000
16.16361 103.000
16.18356 122.000
16.20351 125.000
16.22345 121.000
16.24340 122.000
16.26335 137.000
16.28329 132.000
16.30324 135.000
16.32319 125.000
16.34313 116.000
16.36308 141.000
16.38303 110.000
16.40297 126.000
16.42292 121.000
16.44287 120.000
16.46282 97.000
16.48276 124.000
16.50271 118.000
16.52266 126.000
16.54260 113.000
16.56255 136.000
16.58250 114.000
16.60244 119.000
16.62239 118.000
16.64234 128.000
16.66229 121.000
16.68223 132.000
16.70218 105.000
16.72213 122.000
16.74207 136.000
16.76202 98.000
16.78197 141.000
16.80191 108.000
16.82186 107.000
16.84181 135.000
16.86175 130.000
16.88170 116.000
16.90165 118.000
16.92160 124.000
16.94154 131.000
16.96149 136.000
16.98144 123.000
17.00138 147.000
17.02133 144.000
17.04128 130.000
17.06122 133.000
17.08117 134.000
17.10112 124.000
17.12107 120.000
17.14101 137.000
17.16096 117.000
17.18091 125.000
17.20085 142.000
17.22080 146.000
17.24075 143.000
17.26069 133.000
17.28064 163.000
17.30059 151.000
17.32053 150.000
17.34048 169.000
17.36043 158.000
17.38038 140.000
17.40032 129.000
17.42027 138.000
17.44022 156.000
17.46016 136.000
17.48011 122.000
17.50006 120.000
17.52000 152.000
17.53995 121.000
17.55990 125.000
17.57985 131.000
17.59979 98.000
17.61974 132.000
17.63969 123.000
17.65963 115.000
17.67958 118.000
17.69953 128.000
17.71947 129.000
17.73942 125.000
17.75937 146.000
17.77932 127.000
17.79926 123.000
17.81921 136.000
17.83916 118.000
17.85910 134.000
17.87905 121.000
17.89900 102.000
17.91894 124.000
17.93889 137.000
17.95884 145.000
17.97878 127.000
17.99873 141.000
18.01868 130.000
18.03863 109.000
18.05857 133.000
18.07852 133.000
18.09847 123.000
18.11841 137.000
18.13836 114.000
18.15831 129.000
18.17825 122.000
18.19820 117.000
18.21815 118.000
18.23810 137.000
18.25804 127.000
18.27799 113.000
18.29794 122.000
18.31788 136.000
18.33783 125.000
18.35778 139.000
18.37772 131.000
18.39767 177.000
18.41762 201.000
18.43756 216.000
18.45751 198.000
18.47746 214.000
18.49741 153.000
18.51735 168.000
18.53730 154.000
18.55725 121.000
18.57719 148.000
18.59714 143.000
18.61709 120.000
18.63703 128.000
18.65698 119.000
18.67693 120.000
18.69688 124.000
18.71682 109.000
18.73677 108.000
18.75672 112.000
18.77666 105.000
18.79661 125.000
18.81656 101.000
18.83650 123.000
18.85645 111.000
18.87640 132.000
18.89634 110.000
18.91629 118.000
18.93624 120.000
18.95619 141.000
18.97613 107.000
18.99608 124.000
19.01603 116.000
19.03597 115.000
19.05592 110.000
19.07587 111.000
19.09581 132.000
19.11576 125.000
19.13571 114.000
19.15566 113.000
19.17560 146.000
19.19555 104.000
19.21550 114.000
19.23544 111.000
19.25539 120.000
19.27534 110.000
19.29528 101.000
19.31523 115.000
19.33518 126.000
19.35513 139.000
19.37507 119.000
19.39502 138.000
19.41497 108.000
19.43491 133.000
19.45486 129.000
19.47481 103.000
19.49475 114.000
19.51470 135.000
19.53465 117.000
19.55459 123.000
19.57454 121.000
19.59449 118.000
19.61444 115.000
19.63438 120.000
19.65433 115.000
19.67428 119.000
19.69422 146.000
19.71417 112.000
19.73412 113.000
19.75406 135.000
19.77401 111.000
19.79396 122.000
19.81391 131.000
19.83385 117.000
19.85380 131.000
19.87375 150.000
19.89369 157.000
19.91364 142.000
19.93359 147.000
19.95353 197.000
19.97348 287.000
19.99343 342.000
20.01337 340.000
20.03332 297.000
20.05327 262.000
20.07322 221.000
20.09316 164.000
20.11311 153.000
20.13306 138.000
20.15300 117.000
20.17295 146.000
20.19290 135.000
20.21284 128.000
20.23279 125.000
20.25274 123.000
20.27269 124.000
20.29263 143.000
20.31258 119.000
20.33253 137.000
20.35247 128.000
20.37242 115.000
20.39237 130.000
20.41231 134.000
20.43226 137.000
20.45221 167.000
20.47215 168.000
20.49210 180.000
20.51205 193.000
20.53200 196.000
20.55194 206.000
20.57189 203.000
20.59184 245.000
20.61178 286.000
20.63173 331.000
20.65168 380.000
20.67162 386.000
20.69157 365.000
20.71152 336.000
20.73147 278.000
20.75141 244.000
20.77136 215.000
20.79131 180.000
20.81125 173.000
20.83120 167.000
20.85115 163.000
20.87109 167.000
20.89104 164.000
20.91099 176.000
20.93094 172.000
20.95088 161.000
20.97083 162.000
20.99078 151.000
21.01072 166.000
21.03067 163.000
21.05062 165.000
21.07056 148.000
21.09051 138.000
21.11046 146.000
21.13040 124.000
21.15035 140.000
21.17030 122.000
21.19025 107.000
21.21019 145.000
21.23014 133.000
21.25009 129.000
21.27003 135.000
21.28998 123.000
21.30993 110.000
21.32987 105.000
21.34982 123.000
21.36977 123.000
21.38972 116.000
21.40966 136.000
21.42961 132.000
21.44956 116.000
21.46950 108.000
21.48945 126.000
21.50940 116.000
21.52934 120.000
21.54929 111.000
21.56924 127.000
21.58918 126.000
21.60913 117.000
21.62908 131.000
21.64903 125.000
21.66897 128.000
21.68892 123.000
21.70887 146.000
21.72881 130.000
21.74876 133.000
21.76871 108.000
21.78865 144.000
21.80860 110.000
21.82855 111.000
21.84850 116.000
21.86844 121.000
21.88839 117.000
21.90834 121.000
21.92828 118.000
21.94823 130.000
21.96818 125.000
21.98812 121.000
22.00807 149.000
22.02802 117.000
22.04796 113.000
22.06791 136.000
22.08786 125.000
22.10781 132.000
22.12775 154.000
22.14770 166.000
22.16765 154.000
22.18759 136.000
22.20754 168.000
22.22749 130.000
22.24743 133.000
22.26738 113.000
22.28733 150.000
22.30728 115.000
22.32722 129.000
22.34717 128.000
22.36712 122.000
22.38706 147.000
22.40701 128.000
22.42696 136.000
22.44690 131.000
22.46685 126.000
22.48680 111.000
22.50675 124.000
22.52669 152.000
22.54664 138.000
22.56659 138.000
22.58653 110.000
22.60648 118.000
22.62643 123.000
22.64637 117.000
22.66632 131.000
22.68627 114.000
22.70621 117.000
22.72616 117.000
22.74611 102.000
22.76606 85.000
22.78600 131.000
22.80595 137.000
22.82590 135.000
22.84584 139.000
22.86579 137.000
22.88574 129.000
22.90568 129.000
22.92563 127.000
22.94558 128.000
22.96553 113.000
22.98547 95.000
23.00542 145.000
23.02537 112.000
23.04531 125.000
23.06526 133.000
23.08521 127.000
23.10515 135.000
23.12510 119.000
23.14505 106.000
23.16499 126.000
23.18494 124.000
23.20489 116.000
23.22484 111.000
23.24478 128.000
23.26473 141.000
23.28468 106.000
23.30462 125.000
23.32457 108.000
23.34452 131.000
23.36446 134.000
23.38441 132.000
23.40436 147.000
23.42431 125.000
23.44425 156.000
23.46420 116.000
23.48415 124.000
23.50409 134.000
23.52404 115.000
23.54399 126.000
23.56393 137.000
23.58388 126.000
23.60383 135.000
23.62377 113.000
23.64372 132.000
23.66367 139.000
23.68362 98.000
23.70356 128.000
23.72351 119.000
23.74346 147.000
23.76340 126.000
23.78335 127.000
23.80330 140.000
23.82324 137.000
23.84319 131.000
23.86314 120.000
23.88309 111.000
23.90303 129.000
23.92298 102.000
23.94293 139.000
23.96287 114.000
23.98282 99.000
24.00277 116.000
24.02271 144.000
24.04266 114.000
24.06261 129.000
24.08256 116.000
24.10250 118.000
24.12245 121.000
24.14240 119.000
24.16234 120.000
24.18229 143.000
24.20224 124.000
24.22218 131.000
24.24213 120.000
24.26208 120.000
24.28202 125.000
24.30197 126.000
24.32192 122.000
24.34187 124.000
24.36181 125.000
24.38176 126.000
24.40171 128.000
24.42165 115.000
24.44160 141.000
24.46155 132.000
24.48149 126.000
24.50144 153.000
24.52139 122.000
24.54134 135.000
24.56128 147.000
24.58123 123.000
24.60118 144.000
24.62112 135.000
24.64107 129.000
24.66102 126.000
24.68096 137.000
24.70091 118.000
24.72086 117.000
24.74080 132.000
24.76075 130.000
24.78070 129.000
24.80065 126.000
24.82059 114.000
24.84054 125.000
24.86049 123.000
24.88043 128.000
24.90038 140.000
24.92033 140.000
24.94027 121.000
24.96022 139.000
24.98017 143.000
25.00012 139.000
25.02006 142.000
25.04001 124.000
25.05996 139.000
25.07990 125.000
25.09985 132.000
25.11980 117.000
25.13974 126.000
25.15969 137.000
25.17964 134.000
25.19958 131.000
25.21953 145.000
25.23948 126.000
25.25943 129.000
25.27937 123.000
25.29932 126.000
25.31927 118.000
25.33921 147.000
25.35916 127.000
25.37911 110.000
25.39905 140.000
25.41900 145.000
25.43895 128.000
25.45890 118.000
25.47884 140.000
25.49879 148.000
25.51874 141.000
25.53868 165.000
25.55863 134.000
25.57858 131.000
25.59852 128.000
25.61847 126.000
25.63842 133.000
25.65837 104.000
25.67831 132.000
25.69826 104.000
25.71821 130.000
25.73815 134.000
25.75810 131.000
25.77805 123.000
25.79799 126.000
25.81794 144.000
25.83789 162.000
25.85783 130.000
25.87778 122.000
25.89773 130.000
25.91768 118.000
25.93762 147.000
25.95757 147.000
25.97752 156.000
25.99746 159.000
26.01741 169.000
26.03736 172.000
26.05730 163.000
26.07725 149.000
26.09720 160.000
26.11715 143.000
26.13709 177.000
26.15704 140.000
26.17699 133.000
26.19693 155.000
26.21688 138.000
26.23683 140.000
26.25677 127.000
26.27672 131.000
26.29667 144.000
26.31661 165.000
26.33656 136.000
26.35651 133.000
26.37646 123.000
26.39640 131.000
26.41635 149.000
26.43630 106.000
26.45624 119.000
26.47619 99.000
26.49614 138.000
26.51608 158.000
26.53603 123.000
26.55598 146.000
26.57593 117.000
26.59587 141.000
26.61582 147.000
26.63577 152.000
26.65571 146.000
26.67566 148.000
26.69561 153.000
26.71555 132.000
26.73550 146.000
26.75545 118.000
26.77539 154.000
26.79534 145.000
26.81529 142.000
26.83524 144.000
26.85518 135.000
26.87513 151.000
26.89508 138.000
26.91502 158.000
26.93497 144.000
26.95492 156.000
26.97486 116.000
26.99481 170.000
27.01476 151.000
27.03471 157.000
27.05465 145.000
27.07460 153.000
27.09455 129.000
27.11449 129.000
27.13444 141.000
27.15439 160.000
27.17433 118.000
27.19428 143.000
27.21423 130.000
27.23417 129.000
27.25412 140.000
27.27407 141.000
27.29402 139.000
27.31396 139.000
27.33391 140.000
27.35386 128.000
27.37380 146.000
27.39375 145.000
27.41370 130.000
27.43364 150.000
27.45359 143.000
27.47354 155.000
27.49349 137.000
27.51343 131.000
27.53338 177.000
27.55333 145.000
27.57327 152.000
27.59322 166.000
27.61317 141.000
27.63311 169.000
27.65306 149.000
27.67301 186.000
27.69296 137.000
27.71290 156.000
27.73285 123.000
27.75280 160.000
27.77274 126.000
27.79269 123.000
27.81264 137.000
27.83258 152.000
27.85253 136.000
27.87248 135.000
27.89242 150.000
27.91237 133.000
27.93232 148.000
27.95227 153.000
27.97221 168.000
27.99216 163.000
28.01211 132.000
28.03205 156.000
28.05200 120.000
28.07195 166.000
28.09189 135.000
28.11184 151.000
28.13179 149.000
28.15174 130.000
28.17168 138.000
28.19163 165.000
28.21158 151.000
28.23152 148.000
28.25147 140.000
28.27142 133.000
28.29136 171.000
28.31131 133.000
28.33126 168.000
28.35120 150.000
28.37115 169.000
28.39110 141.000
28.41105 143.000
28.43099 127.000
28.45094 144.000
28.47089 132.000
28.49083 145.000
28.51078 124.000
28.53073 114.000
28.55067 139.000
28.57062 154.000
28.59057 159.000
28.61052 142.000
28.63046 140.000
28.65041 157.000
28.67036 145.000
28.69030 144.000
28.71025 144.000
28.73020 134.000
28.75014 138.000
28.77009 140.000
28.79004 152.000
28.80998 157.000
28.82993 170.000
28.84988 167.000
28.86983 144.000
28.88977 169.000
28.90972 147.000
28.92967 153.000
28.94961 168.000
28.96956 139.000
28.98951 158.000
29.00945 174.000
29.02940 141.000
29.04935 148.000
29.06930 144.000
29.08924 174.000
29.10919 136.000
29.12914 152.000
29.14908 162.000
29.16903 159.000
29.18898 151.000
29.20892 177.000
29.22887 166.000
29.24882 175.000
29.26877 162.000
29.28871 165.000
29.30866 164.000
29.32861 163.000
29.34855 162.000
29.36850 182.000
29.38845 198.000
29.40839 198.000
29.42834 229.000
29.44829 218.000
29.46823 226.000
29.48818 263.000
29.50813 275.000
29.52808 333.000
29.54802 387.000
29.56797 423.000
29.58792 390.000
29.60786 387.000
29.62781 361.000
29.64776 373.000
29.66770 352.000
29.68765 342.000
29.70760 321.000
29.72755 294.000
29.74749 299.000
29.76744 282.000
29.78739 268.000
29.80733 233.000
29.82728 228.000
29.84723 232.000
29.86717 241.000
29.88712 221.000
29.90707 207.000
29.92701 209.000
29.94696 187.000
29.96691 180.000
29.98686 204.000
30.00680 181.000
30.02675 157.000
30.04670 181.000
30.06664 210.000
30.08659 223.000
30.10654 249.000
30.12648 219.000
30.14643 263.000
30.16638 265.000
30.18633 267.000
30.20627 249.000
30.22622 267.000
30.24617 264.000
30.26611 260.000
30.28606 277.000
30.30601 322.000
30.32595 383.000
30.34590 364.000
30.36585 341.000
30.38579 319.000
30.40574 302.000
30.42569 272.000
30.44564 244.000
30.46558 212.000
30.48553 183.000
30.50548 197.000
30.52542 154.000
30.54537 166.000
30.56532 164.000
30.58526 168.000
30.60521 188.000
30.62516 160.000
30.64511 152.000
30.66505 171.000
30.68500 172.000
30.70495 180.000
30.72489 158.000
30.74484 184.000
30.76479 154.000
30.78473 164.000
30.80468 145.000
30.82463 160.000
30.84458 147.000
30.86452 160.000
30.88447 154.000
30.90442 178.000
30.92436 170.000
30.94431 160.000
30.96426 130.000
30.98420 167.000
31.00415 149.000
31.02410 152.000
31.04404 145.000
31.06399 146.000
31.08394 184.000
31.10389 150.000
31.12383 151.000
31.14378 157.000
31.16373 155.000
31.18367 156.000
31.20362 173.000
31.22357 147.000
31.24351 156.000
31.26346 183.000
31.28341 152.000
31.30336 155.000
31.32330 135.000
31.34325 140.000
31.36320 143.000
31.38314 153.000
31.40309 156.000
31.42304 178.000
31.44298 175.000
31.46293 195.000
31.48288 201.000
31.50282 202.000
31.52277 265.000
31.54272 286.000
31.56267 278.000
31.58261 274.000
31.60256 239.000
31.62251 244.000
31.64245 214.000
31.66240 207.000
31.68235 208.000
31.70229 183.000
31.72224 194.000
31.74219 205.000
31.76214 168.000
31.78208 154.000
31.80203 167.000
31.82198 179.000
31.84192 164.000
31.86187 166.000
31.88182 148.000
31.90176 172.000
31.92171 142.000
31.94166 139.000
31.96160 170.000
31.98155 176.000
32.00150 149.000
32.02145 157.000
32.04139 166.000
32.06134 164.000
32.08129 150.000
32.10123 157.000
32.12118 151.000
32.14113 157.000
32.16107 165.000
32.18102 173.000
32.20097 158.000
32.22092 154.000
32.24086 184.000
32.26081 163.000
32.28076 146.000
32.30070 152.000
32.32065 163.000
32.34060 169.000
32.36054 156.000
32.38049 168.000
32.40044 153.000
32.42039 146.000
32.44033 166.000
32.46028 152.000
32.48023 162.000
32.50017 131.000
32.52012 158.000
32.54007 145.000
32.56001 171.000
32.57996 165.000
32.59991 174.000
32.61985 167.000
32.63980 153.000
32.65975 165.000
32.67970 156.000
32.69964 156.000
32.71959 162.000
32.73954 165.000
32.75948 153.000
32.77943 158.000
32.79938 166.000
32.81932 160.000
32.83927 177.000
32.85922 175.000
32.87917 170.000
32.89911 172.000
32.91906 150.000
32.93901 157.000
32.95895 146.000
32.97890 166.000
32.99885 172.000
33.01879 193.000
33.03874 181.000
33.05869 180.000
33.07863 173.000
33.09858 195.000
33.11853 181.000
33.13848 197.000
33.15842 205.000
33.17837 240.000
33.19832 248.000
33.21826 274.000
33.23821 293.000
33.25816 315.000
33.27810 315.000
33.29805 358.000
33.31800 310.000
33.33795 330.000
33.35789 294.000
33.37784 234.000
33.39779 231.000
33.41773 210.000
33.43768 234.000
33.45763 193.000
33.47757 185.000
33.49752 171.000
33.51747 170.000
33.53741 186.000
33.55736 169.000
33.57731 185.000
33.59726 168.000
33.61720 162.000
33.63715 182.000
33.65710 184.000
33.67704 197.000
33.69699 208.000
33.71694 184.000
33.73688 221.000
33.75683 185.000
33.77678 207.000
33.79673 216.000
33.81667 244.000
33.83662 219.000
33.85657 249.000
33.87651 239.000
33.89646 251.000
33.91641 275.000
33.93635 331.000
33.95630 403.000
33.97625 401.000
33.99620 493.000
34.01614 493.000
34.03609 467.000
34.05604 457.000
34.07598 388.000
34.09593 415.000
34.11588 365.000
34.13582 329.000
34.15577 311.000
34.17572 322.000
34.19566 281.000
34.21561 257.000
34.23556 260.000
34.25551 250.000
34.27545 243.000
34.29540 251.000
34.31535 254.000
34.33529 228.000
34.35524 211.000
34.37519 239.000
34.39513 240.000
34.41508 271.000
34.43503 269.000
34.45498 261.000
34.47492 235.000
34.49487 270.000
34.51482 250.000
34.53476 280.000
34.55471 261.000
34.57466 231.000
34.59460 244.000
34.61455 272.000
34.63450 249.000
34.65444 260.000
34.67439 268.000
34.69434 210.000
34.71429 228.000
34.73423 219.000
34.75418 232.000
34.77413 209.000
34.79407 196.000
34.81402 232.000
34.83397 194.000
34.85391 223.000
34.87386 224.000
34.89381 221.000
34.91376 225.000
34.93370 250.000
34.95365 252.000
34.97360 259.000
34.99354 285.000
35.01349 298.000
35.03344 309.000
35.05338 293.000
35.07333 326.000
35.09328 370.000
35.11322 388.000
35.13317 403.000
35.15312 407.000
35.17307 422.000
35.19301 525.000
35.21296 520.000
35.23291 523.000
35.25285 571.000
35.27280 553.000
35.29275 528.000
35.31269 523.000
35.33264 468.000
35.35259 441.000
35.37254 415.000
35.39248 394.000
35.41243 319.000
35.43238 326.000
35.45232 307.000
35.47227 291.000
35.49222 275.000
35.51216 273.000
35.53211 305.000
35.55206 316.000
35.57201 303.000
35.59195 328.000
35.61190 327.000
35.63185 420.000
35.65179 511.000
35.67174 620.000
35.69169 757.000
35.71163 828.000
35.73158 884.000
35.75153 824.000
35.77147 752.000
35.79142 694.000
35.81137 673.000
35.83132 566.000
35.85126 445.000
35.87121 407.000
35.89116 311.000
35.91110 288.000
35.93105 279.000
35.95100 246.000
35.97094 245.000
35.99089 207.000
36.01084 208.000
36.03079 192.000
36.05073 178.000
36.07068 196.000
36.09063 165.000
36.11057 184.000
36.13052 205.000
36.15047 186.000
36.17041 214.000
36.19036 194.000
36.21031 196.000
36.23025 202.000
36.25020 204.000
36.27015 170.000
36.29010 200.000
36.31004 202.000
36.32999 184.000
36.34994 232.000
36.36988 197.000
36.38983 231.000
36.40978 258.000
36.42972 295.000
36.44967 307.000
36.46962 332.000
36.48957 323.000
36.50951 326.000
36.52946 269.000
36.54941 337.000
36.56935 282.000
36.58930 276.000
36.60925 231.000
36.62919 248.000
36.64914 214.000
36.66909 213.000
36.68903 184.000
36.70898 238.000
36.72893 194.000
36.74888 198.000
36.76882 211.000
36.78877 210.000
36.80872 245.000
36.82866 211.000
36.84861 185.000
36.86856 194.000
36.88850 200.000
36.90845 221.000
36.92840 215.000
36.94835 247.000
36.96829 228.000
36.98824 262.000
37.00819 262.000
37.02813 279.000
37.04808 278.000
37.06803 323.000
37.08797 391.000
37.10792 481.000
37.12787 633.000
37.14781 793.000
37.16776 1027.000
37.18771 1162.000
37.20766 1087.000
37.22760 1104.000
37.24755 1122.000
37.26750 1116.000
37.28744 1099.000
37.30739 984.000
37.32734 905.000
37.34728 762.000
37.36723 650.000
37.38718 549.000
37.40713 481.000
37.42707 454.000
37.44702 360.000
37.46697 364.000
37.48691 371.000
37.50686 321.000
37.52681 339.000
37.54675 351.000
37.56670 368.000
37.58665 364.000
37.60660 344.000
37.62654 350.000
37.64649 354.000
37.66644 346.000
37.68638 314.000
37.70633 291.000
37.72628 317.000
37.74622 299.000
37.76617 244.000
37.78612 263.000
37.80606 262.000
37.82601 240.000
37.84596 238.000
37.86591 238.000
37.88585 216.000
37.90580 225.000
37.92575 239.000
37.94569 240.000
37.96564 252.000
37.98559 234.000
38.00553 245.000
38.02548 228.000
38.04543 238.000
38.06538 244.000
38.08532 197.000
38.10527 203.000
38.12522 207.000
38.14516 224.000
38.16511 214.000
38.18506 210.000
38.20500 168.000
38.22495 174.000
38.24490 173.000
38.26484 189.000
38.28479 186.000
38.30474 154.000
38.32469 170.000
38.34463 172.000
38.36458 143.000
38.38453 148.000
38.40447 160.000
38.42442 175.000
38.44437 147.000
38.46431 155.000
38.48426 156.000
38.50421 131.000
38.52416 166.000
38.54410 131.000
38.56405 159.000
38.58400 173.000
38.60394 158.000
38.62389 148.000
38.64384 149.000
38.66378 143.000
38.68373 145.000
38.70368 142.000
38.72362 137.000
38.74357 148.000
38.76352 155.000
38.78347 148.000
38.80341 145.000
38.82336 133.000
38.84331 143.000
38.86325 162.000
38.88320 131.000
38.90315 155.000
38.92309 155.000
38.94304 137.000
38.96299 134.000
38.98294 144.000
39.00288 137.000
39.02283 166.000
39.04278 124.000
39.06272 129.000
39.08267 133.000
39.10262 145.000
39.12256 134.000
39.14251 135.000
39.16246 179.000
39.18241 137.000
39.20235 143.000
39.22230 166.000
39.24225 122.000
39.26219 112.000
39.28214 167.000
39.30209 135.000
39.32203 165.000
39.34198 151.000
39.36193 132.000
39.38187 133.000
39.40182 142.000
39.42177 153.000
39.44172 138.000
39.46166 155.000
39.48161 149.000
39.50156 125.000
39.52150 137.000
39.54145 152.000
39.56140 163.000
39.58134 136.000
39.60129 136.000
39.62124 136.000
39.64119 132.000
39.66113 143.000
39.68108 170.000
39.70103 128.000
39.72097 123.000
39.74092 150.000
39.76087 136.000
39.78081 122.000
39.80076 141.000
39.82071 148.000
39.84065 130.000
39.86060 142.000
39.88055 156.000
39.90050 161.000
39.92044 170.000
39.94039 188.000
39.96034 155.000
39.98028 183.000
40.00023 177.000
40.02018 160.000
40.04012 164.000
40.06007 162.000
40.08002 166.000
40.09997 164.000
40.11991 186.000
40.13986 148.000
40.15981 135.000
40.17975 171.000
40.19970 148.000
40.21965 138.000
40.23959 151.000
40.25954 148.000
40.27949 187.000
40.29943 148.000
40.31938 156.000
40.33933 161.000
40.35928 154.000
40.37922 169.000
40.39917 135.000
40.41912 153.000
40.43906 128.000
40.45901 155.000
40.47896 165.000
40.49890 160.000
40.51885 156.000
40.53880 168.000
40.55875 151.000
40.57869 150.000
40.59864 181.000
40.61859 173.000
40.63853 145.000
40.65848 164.000
40.67843 179.000
40.69837 174.000
40.71832 187.000
40.73827 182.000
40.75822 170.000
40.77816 174.000
40.79811 181.000
40.81806 203.000
40.83800 185.000
40.85795 198.000
40.87790 190.000
40.89784 221.000
40.91779 242.000
40.93774 228.000
40.95768 250.000
40.97763 248.000
40.99758 263.000
41.01753 311.000
41.03747 293.000
41.05742 323.000
41.07737 348.000
41.09731 322.000
41.11726 362.000
41.13721 419.000
41.15715 445.000
41.17710 442.000
41.19705 499.000
41.21700 512.000
41.23694 552.000
41.25689 547.000
41.27684 565.000
41.29678 551.000
41.31673 549.000
41.33668 582.000
41.35662 577.000
41.37657 546.000
41.39652 563.000
41.41646 510.000
41.43641 586.000
41.45636 552.000
41.47631 462.000
41.49625 501.000
41.51620 497.000
41.53615 428.000
41.55609 422.000
41.57604 363.000
41.59599 394.000
41.61593 374.000
41.63588 359.000
41.65583 329.000
41.67578 316.000
41.69572 324.000
41.71567 312.000
41.73562 320.000
41.75556 303.000
41.77551 332.000
41.79546 340.000
41.81540 339.000
41.83535 391.000
41.85530 439.000
41.87524 460.000
41.89519 476.000
41.91514 558.000
41.93509 612.000
41.95503 546.000
41.97498 536.000
41.99493 516.000
42.01487 479.000
42.03482 468.000
42.05477 449.000
42.07471 393.000
42.09466 332.000
42.11461 286.000
42.13456 245.000
42.15450 219.000
42.17445 195.000
42.19440 208.000
42.21434 180.000
42.23429 207.000
42.25424 159.000
42.27418 179.000
42.29413 169.000
42.31408 181.000
42.33403 198.000
42.35397 152.000
42.37392 161.000
42.39387 149.000
42.41381 171.000
42.43376 169.000
42.45371 178.000
42.47365 189.000
42.49360 172.000
42.51355 182.000
42.53349 186.000
42.55344 170.000
42.57339 183.000
42.59334 179.000
42.61328 176.000
42.63323 203.000
42.65318 180.000
42.67312 174.000
42.69307 149.000
42.71302 191.000
42.73296 203.000
42.75291 196.000
42.77286 194.000
42.79281 187.000
42.81275 194.000
42.83270 198.000
42.85265 190.000
42.87259 225.000
42.89254 225.000
42.91249 218.000
42.93243 220.000
42.95238 226.000
42.97233 265.000
42.99227 275.000
43.01222 256.000
43.03217 273.000
43.05212 313.000
43.07206 378.000
43.09201 460.000
43.11196 459.000
43.13190 631.000
43.15185 850.000
43.17180 1180.000
43.19174 1480.000
43.21169 1622.000
43.23164 1550.000
43.25159 1493.000
43.27153 1485.000
43.29148 1460.000
43.31143 1591.000
43.33137 1420.000
43.35132 1158.000
43.37127 1006.000
43.39121 895.000
43.41116 820.000
43.43111 697.000
43.45105 590.000
43.47100 468.000
43.49095 393.000
43.51090 359.000
43.53084 326.000
43.55079 281.000
43.57074 262.000
43.59068 239.000
43.61063 200.000
43.63058 211.000
43.65052 182.000
43.67047 184.000
43.69042 182.000
43.71037 175.000
43.73031 194.000
43.75026 192.000
43.77021 173.000
43.79015 149.000
43.81010 162.000
43.83005 143.000
43.84999 175.000
43.86994 129.000
43.88989 161.000
43.90984 155.000
43.92978 152.000
43.94973 146.000
43.96968 150.000
43.98962 164.000
44.00957 137.000
44.02952 134.000
44.04946 153.000
44.06941 149.000
44.08936 136.000
44.10930 161.000
44.12925 136.000
44.14920 125.000
44.16915 135.000
44.18909 130.000
44.20904 176.000
44.22899 123.000
44.24893 160.000
44.26888 151.000
44.28883 147.000
44.30877 122.000
44.32872 154.000
44.34867 125.000
44.36862 129.000
44.38856 146.000
44.40851 126.000
44.42846 143.000
44.44840 158.000
44.46835 172.000
44.48830 142.000
44.50824 165.000
44.52819 165.000
44.54814 126.000
44.56808 161.000
44.58803 168.000
44.60798 150.000
44.62793 136.000
44.64787 151.000
44.66782 146.000
44.68777 179.000
44.70771 147.000
44.72766 126.000
44.74761 133.000
44.76755 134.000
44.78750 130.000
44.80745 150.000
44.82740 129.000
44.84734 134.000
44.86729 177.000
44.88724 143.000
44.90718 141.000
44.92713 144.000
44.94708 152.000
44.96702 161.000
44.98697 156.000
45.00692 165.000
45.02686 161.000
45.04681 191.000
45.06676 202.000
45.08671 182.000
45.10665 182.000
45.12660 175.000
45.14655 178.000
45.16649 174.000
45.18644 157.000
45.20639 147.000
45.22633 154.000
45.24628 185.000
45.26623 163.000
45.28618 181.000
45.30612 161.000
45.32607 147.000
45.34602 169.000
45.36596 134.000
45.38591 161.000
45.40586 150.000
45.42580 145.000
45.44575 131.000
45.46570 130.000
45.48565 152.000
45.50559 155.000
45.52554 171.000
45.54549 170.000
45.56543 182.000
45.58538 163.000
45.60533 194.000
45.62527 172.000
45.64522 172.000
45.66517 193.000
45.68511 169.000
45.70506 179.000
45.72501 188.000
45.74496 189.000
45.76490 218.000
45.78485 204.000
45.80480 179.000
45.82474 176.000
45.84469 209.000
45.86464 226.000
45.88458 240.000
45.90453 223.000
45.92448 255.000
45.94443 265.000
45.96437 242.000
45.98432 260.000
46.00427 247.000
46.02421 266.000
46.04416 314.000
46.06411 281.000
46.08405 275.000
46.10400 279.000
46.12395 266.000
46.14389 282.000
46.16384 293.000
46.18379 279.000
46.20374 248.000
46.22368 245.000
46.24363 229.000
46.26358 257.000
46.28352 262.000
46.30347 261.000
46.32342 211.000
46.34336 235.000
46.36331 242.000
46.38326 214.000
46.40321 221.000
46.42315 219.000
46.44310 223.000
46.46305 238.000
46.48299 225.000
46.50294 208.000
46.52289 216.000
46.54283 213.000
46.56278 208.000
46.58273 198.000
46.60267 208.000
46.62262 176.000
46.64257 183.000
46.66252 215.000
46.68246 151.000
46.70241 169.000
46.72236 175.000
46.74230 168.000
46.76225 129.000
46.78220 157.000
46.80214 160.000
46.82209 144.000
46.84204 146.000
46.86199 142.000
46.88193 148.000
46.90188 138.000
46.92183 130.000
46.94177 140.000
46.96172 145.000
46.98167 136.000
47.00161 122.000
47.02156 141.000
47.04151 123.000
47.06146 144.000
47.08140 156.000
47.10135 137.000
47.12130 133.000
47.14124 170.000
47.16119 158.000
47.18114 120.000
47.20108 117.000
47.22103 148.000
47.24098 130.000
47.26092 154.000
47.28087 143.000
47.30082 133.000
47.32077 148.000
47.34071 134.000
47.36066 144.000
47.38061 126.000
47.40055 128.000
47.42050 113.000
47.44045 141.000
47.46039 135.000
47.48034 130.000
47.50029 123.000
47.52024 123.000
47.54018 115.000
47.56013 103.000
47.58008 154.000
47.60002 147.000
47.61997 127.000
47.63992 138.000
47.65986 126.000
47.67981 151.000
47.69976 133.000
47.71970 147.000
47.73965 150.000
47.75960 140.000
47.77955 141.000
47.79949 141.000
47.81944 138.000
47.83939 138.000
47.85933 146.000
47.87928 144.000
47.89923 145.000
47.91917 149.000
47.93912 123.000
47.95907 112.000
47.97902 147.000
47.99896 157.000
48.01891 121.000
48.03886 116.000
48.05880 130.000
48.07875 139.000
48.09870 130.000
48.11864 105.000
48.13859 147.000
48.15854 133.000
48.17848 155.000
48.19843 141.000
48.21838 130.000
48.23833 142.000
48.25827 158.000
48.27822 158.000
48.29817 137.000
48.31811 175.000
48.33806 143.000
48.35801 144.000
48.37795 141.000
48.39790 142.000
48.41785 158.000
48.43780 120.000
48.45774 146.000
48.47769 118.000
48.49764 152.000
48.51758 129.000
48.53753 130.000
48.55748 163.000
48.57742 130.000
48.59737 138.000
48.61732 123.000
48.63726 139.000
48.65721 118.000
48.67716 144.000
48.69711 168.000
48.71705 123.000
48.73700 121.000
48.75695 127.000
48.77689 134.000
48.79684 127.000
48.81679 132.000
48.83673 126.000
48.85668 98.000
48.87663 128.000
48.89658 112.000
48.91652 121.000
48.93647 131.000
48.95642 115.000
48.97636 136.000
48.99631 125.000
49.01626 126.000
49.03620 122.000
49.05615 145.000
49.07610 137.000
49.09605 116.000
49.11599 109.000
49.13594 129.000
49.15589 138.000
49.17583 106.000
49.19578 132.000
49.21573 127.000
49.23567 127.000
49.25562 115.000
49.27557 129.000
49.29551 117.000
49.31546 104.000
49.33541 118.000
49.35536 94.000
49.37530 142.000
49.39525 127.000
49.41520 134.000
49.43514 122.000
49.45509 127.000
49.47504 118.000
49.49498 142.000
49.51493 143.000
49.53488 115.000
49.55483 115.000
49.57477 127.000
49.59472 122.000
49.61467 119.000
49.63461 138.000
49.65456 127.000
49.67451 122.000
49.69445 119.000
49.71440 129.000
49.73435 130.000
49.75429 106.000
49.77424 128.000
49.79419 132.000
49.81414 118.000
49.83408 124.000
49.85403 118.000
49.87398 133.000
49.89392 125.000
49.91387 116.000
49.93382 130.000
49.95376 135.000
49.97371 118.000
49.99366 134.000
50.01361 125.000
50.03355 127.000
50.05350 125.000
50.07345 116.000
50.09339 121.000
50.11334 100.000
50.13329 119.000
50.15323 121.000
50.17318 127.000
50.19313 133.000
50.21307 122.000
50.23302 134.000
50.25297 119.000
50.27292 129.000
50.29286 133.000
50.31281 135.000
50.33276 107.000
50.35270 109.000
50.37265 129.000
50.39260 129.000
50.41254 122.000
50.43249 119.000
50.45244 128.000
50.47239 125.000
50.49233 116.000
50.51228 135.000
50.53223 109.000
50.55217 135.000
50.57212 151.000
50.59207 123.000
50.61201 122.000
50.63196 115.000
50.65191 129.000
50.67186 126.000
50.69180 140.000
50.71175 111.000
50.73170 128.000
50.75164 138.000
50.77159 137.000
50.79154 125.000
50.81148 121.000
50.83143 137.000
50.85138 110.000
50.87132 126.000
50.89127 112.000
50.91122 134.000
50.93117 136.000
50.95111 130.000
50.97106 109.000
50.99101 125.000
51.01095 149.000
51.03090 142.000
51.05085 144.000
51.07079 138.000
51.09074 136.000
51.11069 142.000
51.13064 143.000
51.15058 155.000
51.17053 153.000
51.19048 141.000
51.21042 155.000
51.23037 139.000
51.25032 154.000
51.27026 143.000
51.29021 123.000
51.31016 153.000
51.33010 131.000
51.35005 126.000
51.37000 127.000
51.38995 131.000
51.40989 131.000
51.42984 123.000
51.44979 135.000
51.46973 137.000
51.48968 125.000
51.50963 108.000
51.52957 118.000
51.54952 145.000
51.56947 132.000
51.58942 140.000
51.60936 129.000
51.62931 132.000
51.64926 115.000
51.66920 113.000
51.68915 135.000
51.70910 116.000
51.72904 119.000
51.74899 112.000
51.76894 128.000
51.78888 138.000
51.80883 124.000
51.82878 140.000
51.84873 113.000
51.86867 105.000
51.88862 124.000
51.90857 137.000
51.92851 124.000
51.94846 115.000
51.96841 102.000
51.98835 134.000
52.00830 133.000
52.02825 107.000
52.04820 133.000
52.06814 115.000
52.08809 133.000
52.10804 131.000
52.12798 111.000
52.14793 130.000
52.16788 131.000
52.18782 130.000
52.20777 131.000
52.22772 151.000
52.24767 109.000
52.26761 106.000
52.28756 115.000
52.30751 125.000
52.32745 119.000
52.34740 137.000
52.36735 128.000
52.38729 108.000
52.40724 131.000
52.42719 145.000
52.44713 127.000
52.46708 143.000
52.48703 124.000
52.50698 125.000
52.52692 125.000
52.54687 133.000
52.56682 128.000
52.58676 123.000
52.60671 131.000
52.62666 133.000
52.64660 140.000
52.66655 120.000
52.68650 99.000
52.70645 136.000
52.72639 133.000
52.74634 126.000
52.76629 150.000
52.78623 111.000
52.80618 135.000
52.82613 117.000
52.84607 142.000
52.86602 125.000
52.88597 129.000
52.90591 125.000
52.92586 139.000
52.94581 143.000
52.96576 141.000
52.98570 132.000
53.00565 138.000
53.02560 127.000
53.04554 132.000
53.06549 115.000
53.08544 138.000
53.10538 141.000
53.12533 144.000
53.14528 125.000
53.16523 122.000
53.18517 122.000
53.20512 106.000
53.22507 145.000
53.24501 121.000
53.26496 126.000
53.28491 129.000
53.30485 100.000
53.32480 146.000
53.34475 118.000
53.36469 125.000
53.38464 120.000
53.40459 128.000
53.42454 143.000
53.44448 126.000
53.46443 136.000
53.48438 156.000
53.50432 149.000
53.52427 135.000
53.54422 127.000
53.56416 139.000
53.58411 139.000
53.60406 143.000
53.62401 154.000
53.64395 162.000
53.66390 145.000
53.68385 125.000
53.70379 155.000
53.72374 130.000
53.74369 144.000
53.76363 168.000
53.78358 167.000
53.80353 177.000
53.82348 180.000
53.84342 180.000
53.86337 183.000
53.88332 194.000
53.90326 175.000
53.92321 156.000
53.94316 132.000
53.96310 161.000
53.98305 164.000
54.00300 165.000
54.02294 135.000
54.04289 157.000
54.06284 148.000
54.08279 139.000
54.10273 134.000
54.12268 124.000
54.14263 140.000
54.16257 157.000
54.18252 105.000
54.20247 133.000
54.22241 119.000
54.24236 141.000
54.26231 150.000
54.28226 133.000
54.30220 145.000
54.32215 114.000
54.34210 142.000
54.36204 119.000
54.38199 118.000
54.40194 152.000
54.42188 135.000
54.44183 130.000
54.46178 146.000
54.48172 124.000
54.50167 129.000
54.52162 112.000
54.54157 127.000
54.56151 127.000
54.58146 152.000
54.60141 161.000
54.62135 144.000
54.64130 138.000
54.66125 126.000
54.68119 128.000
54.70114 143.000
54.72109 146.000
54.74104 155.000
54.76098 140.000
54.78093 132.000
54.80088 130.000
54.82082 179.000
54.84077 146.000
54.86072 184.000
54.88066 155.000
54.90061 184.000
54.92056 163.000
54.94050 161.000
54.96045 176.000
54.98040 149.000
55.00035 139.000
55.02029 179.000
55.04024 171.000
55.06019 161.000
55.08013 146.000
55.10008 147.000
55.12003 143.000
55.13997 150.000
55.15992 144.000
55.17987 149.000
55.19982 145.000
55.21976 134.000
55.23971 135.000
55.25966 122.000
55.27960 150.000
55.29955 146.000
55.31950 144.000
55.33944 144.000
55.35939 141.000
55.37934 117.000
55.39929 131.000
55.41923 133.000
55.43918 126.000
55.45913 138.000
55.47907 123.000
55.49902 137.000
55.51897 126.000
55.53891 142.000
55.55886 126.000
55.57881 117.000
55.59875 116.000
55.61870 122.000
55.63865 114.000
55.65860 116.000
55.67854 142.000
55.69849 137.000
55.71844 122.000
55.73838 138.000
55.75833 143.000
55.77828 118.000
55.79822 141.000
55.81817 126.000
55.83812 145.000
55.85807 113.000
55.87801 122.000
55.89796 123.000
55.91791 127.000
55.93785 130.000
55.95780 127.000
55.97775 122.000
55.99769 103.000
56.01764 141.000
56.03759 129.000
56.05753 125.000
56.07748 136.000
56.09743 127.000
56.11738 137.000
56.13732 129.000
56.15727 117.000
56.17722 145.000
56.19716 137.000
56.21711 136.000
56.23706 120.000
56.25700 115.000
56.27695 137.000
56.29690 143.000
56.31685 140.000
56.33679 137.000
56.35674 142.000
56.37669 117.000
56.39663 156.000
56.41658 142.000
56.43653 125.000
56.45647 127.000
56.47642 115.000
56.49637 133.000
56.51631 140.000
56.53626 124.000
56.55621 129.000
56.57616 131.000
56.59610 133.000
56.61605 124.000
56.63600 124.000
56.65594 111.000
56.67589 111.000
56.69584 112.000
56.71578 130.000
56.73573 120.000
56.75568 135.000
56.77563 151.000
56.79557 124.000
56.81552 132.000
56.83547 126.000
56.85541 132.000
56.87536 128.000
56.89531 137.000
56.91525 142.000
56.93520 118.000
56.95515 134.000
56.97510 142.000
56.99504 125.000
57.01499 145.000
57.03494 151.000
57.05488 151.000
57.07483 140.000
57.09478 160.000
57.11472 154.000
57.13467 152.000
57.15462 172.000
57.17456 161.000
57.19451 175.000
57.21446 181.000
57.23441 163.000
57.25435 189.000
57.27430 189.000
57.29425 153.000
57.31419 186.000
57.33414 199.000
57.35409 189.000
57.37403 237.000
57.39398 260.000
57.41393 292.000
57.43388 261.000
57.45382 247.000
57.47377 265.000
57.49372 266.000
57.51366 248.000
57.53361 214.000
57.55356 242.000
57.57350 220.000
57.59345 207.000
57.61340 209.000
57.63334 197.000
57.65329 217.000
57.67324 195.000
57.69319 190.000
57.71313 170.000
57.73308 170.000
57.75303 177.000
57.77297 182.000
57.79292 180.000
57.81287 170.000
57.83281 194.000
57.85276 175.000
57.87271 200.000
57.89266 197.000
57.91260 200.000
57.93255 187.000
57.95250 197.000
57.97244 208.000
57.99239 216.000
58.01234 180.000
58.03228 207.000
58.05223 192.000
58.07218 185.000
58.09212 193.000
58.11207 194.000
58.13202 166.000
58.15197 167.000
58.17191 186.000
58.19186 177.000
58.21181 162.000
58.23175 179.000
58.25170 199.000
58.27165 182.000
58.29159 193.000
58.31154 175.000
58.33149 151.000
58.35144 164.000
58.37138 140.000
58.39133 145.000
58.41128 159.000
58.43122 164.000
58.45117 171.000
58.47112 153.000
58.49106 144.000
58.51101 153.000
58.53096 150.000
58.55090 155.000
58.57085 147.000
58.59080 150.000
58.61075 136.000
58.63069 156.000
58.65064 145.000
58.67059 148.000
58.69053 156.000
58.71048 150.000
58.73043 143.000
58.75037 140.000
58.77032 155.000
58.79027 139.000
58.81022 117.000
58.83016 163.000
58.85011 143.000
58.87006 143.000
58.89000 125.000
58.90995 141.000
58.92990 148.000
58.94984 133.000
58.96979 138.000
58.98974 139.000
59.00969 133.000
59.02963 159.000
59.04958 155.000
59.06953 159.000
59.08947 163.000
59.10942 115.000
59.12937 157.000
59.14931 152.000
59.16926 126.000
59.18921 165.000
59.20915 122.000
59.22910 162.000
59.24905 146.000
59.26900 149.000
59.28894 140.000
59.30889 145.000
59.32884 151.000
59.34878 129.000
59.36873 161.000
59.38868 145.000
59.40862 142.000
59.42857 144.000
59.44852 153.000
59.46847 171.000
59.48841 143.000
59.50836 151.000
59.52831 142.000
59.54825 151.000
59.56820 169.000
59.58815 144.000
59.60809 165.000
59.62804 170.000
59.64799 146.000
59.66793 158.000
59.68788 200.000
59.70783 179.000
59.72778 169.000
59.74772 182.000
59.76767 192.000
59.78762 233.000
59.80756 198.000
59.82751 243.000
59.84746 205.000
59.86740 242.000
59.88735 246.000
59.90730 228.000
59.92725 267.000
59.94719 235.000
59.96714 222.000
59.98709 220.000
60.00703 213.000
60.02698 215.000
60.04693 184.000
60.06687 194.000
60.08682 188.000
60.10677 207.000
60.12671 158.000
60.14666 153.000
60.16661 134.000
60.18656 144.000
60.20650 146.000
60.22645 155.000
60.24640 161.000
60.26634 146.000
60.28629 124.000
60.30624 153.000
60.32618 131.000
60.34613 137.000
60.36608 145.000
60.38603 145.000
60.40597 136.000
60.42592 161.000
60.44587 150.000
60.46581 175.000
60.48576 155.000
60.50571 143.000
60.52565 121.000
60.54560 154.000
60.56555 128.000
60.58550 146.000
60.60544 130.000
60.62539 141.000
60.64534 120.000
60.66528 144.000
60.68523 149.000
60.70518 142.000
60.72512 146.000
60.74507 151.000
60.76502 163.000
60.78496 133.000
60.80491 153.000
60.82486 135.000
60.84481 161.000
60.86475 167.000
60.88470 165.000
60.90465 146.000
60.92459 169.000
60.94454 159.000
60.96449 164.000
60.98443 172.000
61.00438 161.000
61.02433 149.000
61.04428 156.000
61.06422 159.000
61.08417 133.000
61.10412 155.000
61.12406 180.000
61.14401 177.000
61.16396 160.000
61.18390 152.000
61.20385 205.000
61.22380 168.000
61.24374 181.000
61.26369 186.000
61.28364 178.000
61.30359 179.000
61.32353 217.000
61.34348 205.000
61.36343 198.000
61.38337 199.000
61.40332 226.000
61.42327 211.000
61.44321 193.000
61.46316 248.000
61.48311 258.000
61.50306 276.000
61.52300 299.000
61.54295 279.000
61.56290 332.000
61.58284 344.000
61.60279 333.000
61.62274 366.000
61.64268 366.000
61.66263 412.000
61.68258 399.000
61.70252 380.000
61.72247 398.000
61.74242 368.000
61.76237 374.000
61.78231 372.000
61.80226 339.000
61.82221 317.000
61.84215 339.000
61.86210 318.000
61.88205 310.000
61.90199 287.000
61.92194 290.000
61.94189 266.000
61.96184 275.000
61.98178 252.000
62.00173 255.000
62.02168 257.000
62.04162 231.000
62.06157 205.000
62.08152 230.000
62.10146 228.000
62.12141 241.000
62.14136 228.000
62.16131 206.000
62.18125 213.000
62.20120 228.000
62.22115 218.000
62.24109 238.000
62.26104 235.000
62.28099 252.000
62.30093 205.000
62.32088 218.000
62.34083 223.000
62.36077 205.000
62.38072 249.000
62.40067 218.000
62.42062 235.000
62.44056 236.000
62.46051 257.000
62.48046 245.000
62.50040 231.000
62.52035 248.000
62.54030 235.000
62.56024 235.000
62.58019 294.000
62.60014 303.000
62.62009 317.000
62.64003 344.000
62.65998 437.000
62.67993 465.000
62.69987 588.000
62.71982 625.000
62.73977 699.000
62.75971 660.000
62.77966 628.000
62.79961 618.000
62.81955 644.000
62.83950 603.000
62.85945 640.000
62.87940 711.000
62.89934 679.000
62.91929 675.000
62.93924 644.000
62.95918 628.000
62.97913 578.000
62.99908 504.000
63.01902 520.000
63.03897 540.000
63.05892 492.000
63.07887 467.000
63.09881 469.000
63.11876 369.000
63.13871 350.000
63.15865 324.000
63.17860 312.000
63.19855 288.000
63.21849 287.000
63.23844 294.000
63.25839 233.000
63.27833 218.000
63.29828 214.000
63.31823 206.000
63.33818 171.000
63.35812 164.000
63.37807 163.000
63.39802 174.000
63.41796 178.000
63.43791 168.000
63.45786 157.000
63.47780 148.000
63.49775 159.000
63.51770 136.000
63.53765 153.000
63.55759 172.000
63.57754 174.000
63.59749 169.000
63.61743 156.000
63.63738 150.000
63.65733 157.000
63.67727 172.000
63.69722 150.000
63.71717 156.000
63.73712 153.000
63.75706 149.000
63.77701 140.000
63.79696 163.000
63.81690 157.000
63.83685 168.000
63.85680 165.000
63.87674 160.000
63.89669 150.000
63.91664 166.000
63.93658 157.000
63.95653 156.000
63.97648 165.000
63.99643 160.000
64.01637 172.000
64.03632 150.000
64.05627 163.000
64.07621 145.000
64.09616 161.000
64.11611 142.000
64.13605 164.000
64.15600 161.000
64.17595 150.000
64.19590 143.000
64.21584 147.000
64.23579 165.000
64.25574 151.000
64.27568 155.000
64.29563 130.000
64.31558 145.000
64.33552 142.000
64.35547 149.000
64.37542 143.000
64.39536 153.000
64.41531 146.000
64.43526 148.000
64.45521 164.000
64.47515 176.000
64.49510 133.000
64.51505 155.000
64.53499 163.000
64.55494 131.000
64.57489 157.000
64.59483 170.000
64.61478 183.000
64.63473 142.000
64.65468 148.000
64.67462 171.000
64.69457 147.000
64.71452 175.000
64.73446 169.000
64.75441 159.000
64.77436 182.000
64.79430 163.000
64.81425 181.000
64.83420 186.000
64.85414 181.000
64.87409 173.000
64.89404 190.000
64.91399 164.000
64.93393 156.000
64.95388 156.000
64.97383 165.000
64.99377 199.000
65.01372 175.000
65.03367 178.000
65.05361 209.000
65.07356 198.000
65.09351 167.000
65.11346 180.000
65.13340 147.000
65.15335 155.000
65.17330 176.000
65.19324 170.000
65.21319 154.000
65.23314 173.000
65.25308 141.000
65.27303 142.000
65.29298 147.000
65.31293 144.000
65.33287 190.000
65.35282 177.000
65.37277 150.000
65.39271 145.000
65.41266 145.000
65.43261 166.000
65.45255 138.000
65.47250 182.000
65.49245 152.000
65.51239 153.000
65.53234 160.000
65.55229 163.000
65.57224 145.000
65.59218 154.000
65.61213 165.000
65.63208 134.000
65.65202 156.000
65.67197 174.000
65.69192 189.000
65.71186 158.000
65.73181 167.000
65.75176 157.000
65.77171 155.000
65.79165 152.000
65.81160 160.000
65.83155 195.000
65.85149 166.000
65.87144 152.000
65.89139 164.000
65.91133 145.000
65.93128 146.000
65.95123 135.000
65.97117 165.000
65.99112 135.000
66.01107 126.000
66.03102 123.000
66.05096 132.000
66.07091 174.000
66.09086 123.000
66.11080 130.000
66.13075 117.000
66.15070 128.000
66.17064 125.000
66.19059 124.000
66.21054 137.000
66.23049 125.000
66.25043 113.000
66.27038 130.000
66.29033 141.000
66.31027 116.000
66.33022 124.000
66.35017 128.000
66.37011 140.000
66.39006 139.000
66.41001 130.000
66.42995 131.000
66.44990 116.000
66.46985 126.000
66.48980 110.000
66.50974 114.000
66.52969 133.000
66.54964 112.000
66.56958 142.000
66.58953 106.000
66.60948 123.000
66.62942 145.000
66.64937 112.000
66.66932 114.000
66.68927 91.000
66.70921 126.000
66.72916 117.000
66.74911 116.000
66.76905 112.000
66.78900 123.000
66.80895 112.000
66.82889 139.000
66.84884 133.000
66.86879 136.000
66.88874 130.000
66.90868 120.000
66.92863 129.000
66.94858 119.000
66.96852 122.000
66.98847 130.000
67.00842 115.000
67.02836 131.000
67.04831 141.000
67.06826 109.000
67.08820 103.000
67.10815 130.000
67.12810 136.000
67.14805 117.000
67.16799 152.000
67.18794 143.000
67.20789 123.000
67.22783 121.000
67.24778 117.000
67.26773 130.000
67.28767 133.000
67.30762 123.000
67.32757 94.000
67.34752 136.000
67.36746 117.000
67.38741 125.000
67.40736 125.000
67.42730 116.000
67.44725 142.000
67.46720 117.000
67.48714 117.000
67.50709 126.000
67.52704 125.000
67.54698 119.000
67.56693 102.000
67.58688 143.000
67.60683 120.000
67.62677 109.000
67.64672 115.000
67.66667 135.000
67.68661 115.000
67.70656 116.000
67.72651 123.000
67.74645 138.000
67.76640 112.000
67.78635 123.000
67.80630 126.000
67.82624 143.000
67.84619 125.000
67.86614 121.000
67.88608 126.000
67.90603 109.000
67.92598 130.000
67.94592 123.000
67.96587 129.000
67.98582 114.000
68.00576 120.000
68.02571 115.000
68.04566 124.000
68.06561 133.000
68.08555 102.000
68.10550 117.000
68.12545 108.000
68.14539 128.000
68.16534 131.000
68.18529 120.000
68.20523 135.000
68.22518 140.000
68.24513 119.000
68.26508 138.000
68.28502 127.000
68.30497 123.000
68.32492 114.000
68.34486 130.000
68.36481 121.000
68.38476 125.000
68.40470 138.000
68.42465 128.000
68.44460 119.000
68.46455 116.000
68.48449 152.000
68.50444 120.000
68.52439 115.000
68.54433 125.000
68.56428 143.000
68.58423 125.000
68.60417 102.000
68.62412 120.000
68.64407 127.000
68.66401 119.000
68.68396 109.000
68.70391 129.000
68.72386 116.000
68.74380 133.000
68.76375 121.000
68.78370 124.000
68.80364 113.000
68.82359 112.000
68.84354 123.000
68.86348 125.000
68.88343 113.000
68.90338 122.000
68.92333 121.000
68.94327 105.000
68.96322 103.000
68.98317 123.000
69.00311 98.000
69.02306 120.000
69.04301 125.000
69.06295 127.000
69.08290 118.000
69.10285 131.000
69.12279 109.000
69.14274 132.000
69.16269 122.000
69.18264 117.000
69.20258 111.000
69.22253 116.000
69.24248 99.000
69.26242 115.000
69.28237 133.000
69.30232 125.000
69.32226 133.000
69.34221 135.000
69.36216 125.000
69.38211 106.000
69.40205 111.000
69.42200 111.000
69.44195 106.000
69.46189 100.000
69.48184 110.000
69.50179 113.000
69.52173 124.000
69.54168 129.000
69.56163 143.000
69.58157 132.000
69.60152 113.000
69.62147 137.000
69.64142 121.000
69.66136 112.000
69.68131 137.000
69.70126 111.000
69.72120 130.000
69.74115 134.000
69.76110 129.000
69.78104 131.000
69.80099 134.000
69.82094 143.000
69.84089 149.000
69.86083 145.000
69.88078 127.000
69.90073 125.000
69.92067 136.000
69.94062 132.000
69.96057 117.000
69.98051 138.000
70.00046 106.000
70.02041 133.000
70.04035 150.000
70.06030 159.000
70.08025 122.000
70.10020 117.000
70.12014 132.000
70.14009 130.000
70.16004 128.000
70.17998 123.000
70.19993 128.000
70.21988 132.000
70.23982 118.000
70.25977 118.000
70.27972 144.000
70.29967 128.000
70.31961 138.000
70.33956 115.000
70.35951 125.000
70.37945 124.000
70.39940 121.000
70.41935 135.000
70.43929 137.000
70.45924 126.000
70.47919 121.000
70.49914 116.000
70.51908 122.000
70.53903 110.000
70.55898 117.000
70.57892 126.000
70.59887 121.000
70.61882 95.000
70.63876 129.000
70.65871 131.000
70.67866 126.000
70.69860 114.000
70.71855 131.000
70.73850 109.000
70.75845 108.000
70.77839 125.000
70.79834 122.000
70.81829 136.000
70.83823 129.000
70.85818 122.000
70.87813 118.000
70.89807 115.000
70.91802 115.000
70.93797 108.000
70.95792 118.000
70.97786 118.000
70.99781 142.000
71.01776 130.000
71.03770 128.000
71.05765 108.000
71.07760 115.000
71.09754 137.000
71.11749 129.000
71.13744 139.000
71.15738 118.000
71.17733 124.000
71.19728 137.000
71.21723 153.000
71.23717 127.000
71.25712 146.000
71.27707 139.000
71.29701 141.000
71.31696 142.000
71.33691 142.000
71.35685 166.000
71.37680 117.000
71.39675 127.000
71.41670 148.000
71.43664 134.000
71.45659 139.000
71.47654 146.000
71.49648 121.000
71.51643 147.000
71.53638 155.000
71.55632 138.000
71.57627 138.000
71.59622 130.000
71.61616 138.000
71.63611 114.000
71.65606 155.000
71.67601 126.000
71.69595 162.000
71.71590 156.000
71.73585 149.000
71.75579 129.000
71.77574 138.000
71.79569 124.000
71.81563 133.000
71.83558 136.000
71.85553 116.000
71.87548 128.000
71.89542 125.000
71.91537 127.000
71.93532 144.000
71.95526 128.000
71.97521 108.000
71.99516 134.000
72.01510 137.000
72.03505 121.000
72.05500 132.000
72.07495 147.000
72.09489 118.000
72.11484 137.000
72.13479 145.000
72.15473 137.000
72.17468 142.000
72.19463 147.000
72.21457 144.000
72.23452 95.000
72.25447 139.000
72.27441 128.000
72.29436 117.000
72.31431 146.000
72.33426 122.000
72.35420 132.000
72.37415 128.000
72.39410 140.000
72.41404 143.000
72.43399 125.000
72.45394 127.000
72.47388 120.000
72.49383 132.000
72.51378 147.000
72.53373 153.000
72.55367 134.000
72.57362 129.000
72.59357 127.000
72.61351 129.000
72.63346 149.000
72.65341 144.000
72.67335 147.000
72.69330 137.000
72.71325 121.000
72.73319 143.000
72.75314 126.000
72.77309 160.000
72.79304 150.000
72.81298 162.000
72.83293 131.000
72.85288 142.000
72.87282 150.000
72.89277 166.000
72.91272 146.000
72.93266 148.000
72.95261 158.000
72.97256 172.000
72.99251 175.000
73.01245 156.000
73.03240 157.000
73.05235 160.000
73.07229 152.000
73.09224 168.000
73.11219 155.000
73.13213 161.000
73.15208 148.000
73.17203 161.000
73.19197 175.000
73.21192 168.000
73.23187 167.000
73.25182 159.000
73.27176 135.000
73.29171 152.000
73.31166 138.000
73.33160 147.000
73.35155 138.000
73.37150 131.000
73.39144 144.000
73.41139 142.000
73.43134 127.000
73.45129 127.000
73.47123 132.000
73.49118 120.000
73.51113 108.000
73.53107 150.000
73.55102 139.000
73.57097 140.000
73.59091 139.000
73.61086 133.000
73.63081 132.000
73.65076 152.000
73.67070 127.000
73.69065 149.000
73.71060 125.000
73.73054 132.000
73.75049 136.000
73.77044 130.000
73.79038 117.000
73.81033 122.000
73.83028 154.000
73.85022 134.000
73.87017 144.000
73.89012 168.000
73.91007 159.000
73.93001 169.000
73.94996 155.000
73.96991 154.000
73.98985 181.000
74.00980 154.000
74.02975 146.000
74.04969 143.000
74.06964 169.000
74.08959 132.000
74.10954 146.000
74.12948 163.000
74.14943 139.000
74.16938 139.000
74.18932 140.000
74.20927 151.000
74.22922 151.000
74.24916 150.000
74.26911 167.000
74.28906 175.000
74.30900 174.000
74.32895 150.000
74.34890 158.000
74.36885 156.000
74.38879 154.000
74.40874 152.000
74.42869 155.000
74.44863 166.000
74.46858 144.000
74.48853 161.000
74.50847 147.000
74.52842 195.000
74.54837 159.000
74.56832 176.000
74.58826 167.000
74.60821 171.000
74.62816 170.000
74.64810 143.000
74.66805 164.000
74.68800 178.000
74.70794 191.000
74.72789 162.000
74.74784 145.000
74.76778 156.000
74.78773 167.000
74.80768 161.000
74.82763 145.000
74.84757 137.000
74.86752 179.000
74.88747 155.000
74.90741 158.000
74.92736 139.000
74.94731 141.000
74.96725 157.000
74.98720 142.000
75.00715 158.000
75.02710 138.000
75.04704 160.000
75.06699 143.000
75.08694 174.000
75.10688 179.000
75.12683 185.000
75.14678 181.000
75.16672 233.000
75.18667 217.000
75.20662 269.000
75.22657 268.000
75.24651 292.000
75.26646 261.000
75.28641 267.000
75.30635 283.000
75.32630 278.000
75.34625 245.000
75.36619 252.000
75.38614 275.000
75.40609 255.000
75.42603 250.000
75.44598 248.000
75.46593 275.000
75.48588 230.000
75.50582 241.000
75.52577 208.000
75.54572 187.000
75.56566 214.000
75.58561 206.000
75.60556 187.000
75.62550 178.000
75.64545 197.000
75.66540 169.000
75.68535 176.000
75.70529 143.000
75.72524 153.000
75.74519 144.000
75.76513 146.000
75.78508 142.000
75.80503 140.000
75.82497 141.000
75.84492 127.000
75.86487 150.000
75.88481 109.000
75.90476 125.000
75.92471 128.000
75.94466 118.000
75.96460 118.000
75.98455 104.000
76.00450 122.000
76.02444 99.000
76.04439 128.000
76.06434 101.000
76.08428 131.000
76.10423 109.000
76.12418 115.000
76.14413 128.000
76.16407 120.000
76.18402 127.000
76.20397 116.000
76.22391 119.000
76.24386 115.000
76.26381 158.000
76.28375 110.000
76.30370 118.000
76.32365 131.000
76.34359 113.000
76.36354 93.000
76.38349 97.000
76.40344 130.000
76.42338 125.000
76.44333 126.000
76.46328 129.000
76.48322 129.000
76.50317 114.000
76.52312 116.000
76.54306 112.000
76.56301 127.000
76.58296 128.000
76.60291 118.000
76.62285 125.000
76.64280 127.000
76.66275 147.000
76.68269 137.000
76.70264 142.000
76.72259 144.000
76.74253 137.000
76.76248 144.000
76.78243 138.000
76.80238 158.000
76.82232 135.000
76.84227 129.000
76.86222 152.000
76.88216 158.000
76.90211 144.000
76.92206 140.000
76.94200 156.000
76.96195 128.000
76.98190 132.000
77.00184 145.000
77.02179 144.000
77.04174 135.000
77.06169 166.000
77.08163 151.000
77.10158 128.000
77.12153 151.000
77.14147 144.000
77.16142 142.000
77.18137 138.000
77.20131 152.000
77.22126 147.000
77.24121 147.000
77.26116 136.000
77.28110 148.000
77.30105 140.000
77.32100 126.000
77.34094 151.000
77.36089 157.000
77.38084 146.000
77.40078 130.000
77.42073 140.000
77.44068 166.000
77.46062 128.000
77.48057 158.000
77.50052 165.000
77.52047 154.000
77.54041 146.000
77.56036 161.000
77.58031 158.000
77.60025 161.000
77.62020 127.000
77.64015 128.000
77.66009 143.000
77.68004 150.000
77.69999 140.000
77.71994 133.000
77.73988 125.000
77.75983 139.000
77.77978 156.000
77.79972 123.000
77.81967 111.000
77.83962 135.000
77.85956 109.000
77.87951 112.000
77.89946 132.000
77.91940 138.000
77.93935 123.000
77.95930 108.000
77.97925 124.000
77.99919 94.000
78.01914 99.000
78.03909 93.000
78.05903 108.000
78.07898 137.000
78.09893 102.000
78.11887 118.000
78.13882 117.000
78.15877 99.000
78.17872 126.000
78.19866 95.000
78.21861 119.000
78.23856 118.000
78.25850 110.000
78.27845 115.000
78.29840 120.000
78.31834 103.000
78.33829 122.000
78.35824 114.000
78.37819 106.000
78.39813 121.000
78.41808 87.000
78.43803 98.000
78.45797 116.000
78.47792 121.000
78.49787 126.000
78.51781 103.000
78.53776 127.000
78.55771 106.000
78.57765 107.000
78.59760 110.000
78.61755 114.000
78.63750 112.000
78.65744 110.000
78.67739 127.000
78.69734 120.000
78.71728 125.000
78.73723 118.000
78.75718 119.000
78.77712 137.000
78.79707 105.000
78.81702 108.000
78.83697 128.000
78.85691 130.000
78.87686 130.000
78.89681 123.000
78.91675 128.000
78.93670 123.000
78.95665 130.000
78.97659 126.000
78.99654 121.000
79.01649 146.000
79.03643 147.000
79.05638 166.000
79.07633 177.000
79.09628 146.000
79.11622 170.000
79.13617 172.000
79.15612 201.000
79.17606 214.000
79.19601 208.000
79.21596 231.000
79.23590 229.000
79.25585 228.000
79.27580 207.000
79.29575 211.000
79.31569 237.000
79.33564 219.000
79.35559 241.000
79.37553 212.000
79.39548 191.000
79.41543 246.000
79.43537 228.000
79.45532 219.000
79.47527 201.000
79.49521 185.000
79.51516 203.000
79.53511 187.000
79.55506 192.000
79.57500 210.000
79.59495 169.000
79.61490 190.000
79.63484 178.000
79.65479 178.000
79.67474 153.000
79.69468 171.000
79.71463 163.000
79.73458 144.000
79.75453 163.000
79.77447 142.000
79.79442 147.000
79.81437 159.000
79.83431 148.000
79.85426 145.000
79.87421 156.000
79.89415 145.000
79.91410 142.000
79.93405 146.000
79.95399 132.000
79.97394 142.000
79.99389 127.000
80.01384 137.000
80.03378 135.000
80.05373 145.000
80.07368 118.000
80.09362 126.000
80.11357 133.000
80.13352 127.000
80.15346 116.000
80.17341 142.000
80.19336 140.000
80.21331 126.000
80.23325 129.000
80.25320 146.000
80.27315 137.000
80.29309 113.000
80.31304 121.000
80.33299 119.000
80.35293 119.000
80.37288 121.000
80.39283 135.000
80.41278 153.000
80.43272 131.000
80.45267 142.000
80.47262 129.000
80.49256 131.000
80.51251 125.000
80.53246 125.000
80.55240 131.000
80.57235 125.000
80.59230 120.000
80.61224 121.000
80.63219 110.000
80.65214 144.000
80.67209 110.000
80.69203 94.000
80.71198 115.000
80.73193 127.000
80.75187 107.000
80.77182 104.000
80.79177 132.000
80.81171 130.000
80.83166 116.000
80.85161 111.000
80.87156 116.000
80.89150 118.000
80.91145 122.000
80.93140 122.000
80.95134 110.000
80.97129 112.000
80.99124 123.000
81.01118 115.000
81.03113 124.000
81.05108 116.000
81.07102 123.000
81.09097 127.000
81.11092 119.000
81.13087 118.000
81.15081 115.000
81.17076 109.000
81.19071 122.000
81.21065 111.000
81.23060 112.000
81.25055 122.000
81.27049 110.000
81.29044 113.000
81.31039 96.000
81.33034 109.000
81.35028 130.000
81.37023 110.000
81.39018 134.000
81.41012 113.000
81.43007 94.000
81.45002 109.000
81.46996 116.000
81.48991 125.000
81.50986 94.000
81.52980 136.000
81.54975 126.000
81.56970 110.000
81.58965 107.000
81.60959 132.000
81.62954 117.000
81.64949 118.000
81.66943 108.000
81.68938 130.000
81.70933 110.000
81.72927 104.000
81.74922 116.000
81.76917 114.000
81.78912 115.000
81.80906 99.000
81.82901 108.000
81.84896 117.000
81.86890 121.000
81.88885 106.000
81.90880 123.000
81.92874 114.000
81.94869 105.000
81.96864 112.000
81.98859 110.000
82.00853 118.000
82.02848 107.000
82.04843 103.000
82.06837 81.000
82.08832 121.000
82.10827 122.000
82.12821 104.000
82.14816 118.000
82.16811 94.000
82.18805 94.000
82.20800 94.000
82.22795 100.000
82.24790 119.000
82.26784 93.000
82.28779 123.000
82.30774 119.000
82.32768 119.000
82.34763 90.000
82.36758 123.000
82.38752 115.000
82.40747 110.000
82.42742 98.000
82.44737 125.000
82.46731 108.000
82.48726 116.000
82.50721 124.000
82.52715 113.000
82.54710 91.000
82.56705 112.000
82.58699 106.000
82.60694 89.000
82.62689 108.000
82.64683 106.000
82.66678 107.000
82.68673 110.000
82.70668 120.000
82.72662 129.000
82.74657 109.000
82.76652 100.000
82.78646 112.000
82.80641 92.000
82.82636 110.000
82.84630 102.000
82.86625 119.000
82.88620 123.000
82.90615 98.000
82.92609 102.000
82.94604 119.000
82.96599 115.000
82.98593 115.000
83.00588 109.000
83.02583 117.000
83.04577 98.000
83.06572 91.000
83.08567 112.000
83.10561 102.000
83.12556 107.000
83.14551 110.000
83.16546 104.000
83.18540 125.000
83.20535 103.000
83.22530 105.000
83.24524 113.000
83.26519 116.000
83.28514 107.000
83.30508 112.000
83.32503 129.000
83.34498 113.000
83.36493 105.000
83.38487 113.000
83.40482 115.000
83.42477 129.000
83.44471 100.000
83.46466 106.000
83.48461 94.000
83.50455 127.000
83.52450 132.000
83.54445 94.000
83.56440 122.000
83.58434 130.000
83.60429 106.000
83.62424 110.000
83.64418 118.000
83.66413 110.000
83.68408 115.000
83.70402 112.000
83.72397 113.000
83.74392 99.000
83.76386 117.000
83.78381 118.000
83.80376 100.000
83.82371 126.000
83.84365 114.000
83.86360 119.000
83.88355 115.000
83.90349 124.000
83.92344 106.000
83.94339 122.000
83.96333 123.000
83.98328 102.000
84.00323 107.000
84.02318 125.000
84.04312 103.000
84.06307 118.000
84.08302 116.000
84.10296 96.000
84.12291 115.000
84.14286 112.000
84.16280 112.000
84.18275 107.000
84.20270 114.000
84.22264 113.000
84.24259 104.000
84.26254 103.000
84.28249 115.000
84.30243 108.000
84.32238 114.000
84.34233 106.000
84.36227 112.000
84.38222 97.000
84.40217 90.000
84.42211 104.000
84.44206 126.000
84.46201 116.000
84.48196 99.000
84.50190 100.000
84.52185 111.000
84.54180 107.000
84.56174 106.000
84.58169 87.000
84.60164 105.000
84.62158 126.000
84.64153 106.000
84.66148 98.000
84.68142 91.000
84.70137 112.000
84.72132 108.000
84.74127 105.000
84.76121 115.000
84.78116 110.000
84.80111 117.000
84.82105 110.000
84.84100 107.000
84.86095 110.000
84.88089 115.000
84.90084 111.000
84.92079 100.000
84.94074 108.000
84.96068 117.000
84.98063 125.000
85.00058 102.000
85.02052 110.000
85.04047 105.000
85.06042 112.000
85.08036 135.000
85.10031 112.000
85.12026 109.000
85.14021 114.000
85.16015 128.000
85.18010 111.000
85.20005 117.000
85.21999 121.000
85.23994 101.000
85.25989 128.000
85.27983 119.000
85.29978 125.000
85.31973 110.000
85.33967 108.000
85.35962 107.000
85.37957 93.000
85.39952 108.000
85.41946 107.000
85.43941 87.000
85.45936 142.000
85.47930 140.000
85.49925 129.000
85.51920 112.000
85.53914 135.000
85.55909 108.000
85.57904 128.000
85.59899 115.000
85.61893 91.000
85.63888 108.000
85.65883 99.000
85.67877 105.000
85.69872 108.000
85.71867 109.000
85.73861 111.000
85.75856 103.000
85.77851 102.000
85.79845 92.000
85.81840 101.000
85.83835 115.000
85.85830 96.000
85.87824 119.000
85.89819 114.000
85.91814 112.000
85.93808 95.000
85.95803 105.000
85.97798 100.000
85.99792 119.000
86.01787 117.000
86.03782 108.000
86.05777 98.000
86.07771 106.000
86.09766 110.000
86.11761 116.000
86.13755 105.000
86.15750 99.000
86.17745 116.000
86.19739 97.000
86.21734 105.000
86.23729 105.000
86.25723 121.000
86.27718 117.000
86.29713 110.000
86.31708 101.000
86.33702 127.000
86.35697 103.000
86.37692 114.000
86.39686 112.000
86.41681 116.000
86.43676 118.000
86.45670 131.000
86.47665 101.000
86.49660 111.000
86.51655 127.000
86.53649 131.000
86.55644 98.000
86.57639 125.000
86.59633 114.000
86.61628 105.000
86.63623 118.000
86.65617 117.000
86.67612 110.000
86.69607 107.000
86.71602 114.000
86.73596 123.000
86.75591 114.000
86.77586 110.000
86.79580 100.000
86.81575 103.000
86.83570 121.000
86.85564 116.000
86.87559 119.000
86.89554 96.000
86.91548 115.000
86.93543 126.000
86.95538 103.000
86.97533 87.000
86.99527 107.000
87.01522 98.000
87.03517 107.000
87.05511 128.000
87.07506 121.000
87.09501 107.000
87.11495 104.000
87.13490 102.000
87.15485 90.000
87.17480 109.000
87.19474 96.000
87.21469 99.000
87.23464 108.000
87.25458 119.000
87.27453 99.000
87.29448 116.000
87.31442 110.000
87.33437 138.000
87.35432 114.000
87.37426 112.000
87.39421 114.000
87.41416 125.000
87.43411 125.000
87.45405 120.000
87.47400 114.000
87.49395 155.000
87.51389 119.000
87.53384 131.000
87.55379 116.000
87.57373 113.000
87.59368 130.000
87.61363 120.000
87.63358 128.000
87.65352 119.000
87.67347 121.000
87.69342 142.000
87.71336 106.000
87.73331 125.000
87.75326 123.000
87.77320 106.000
87.79315 116.000
87.81310 121.000
87.83304 106.000
87.85299 122.000
87.87294 103.000
87.89289 109.000
87.91283 122.000
87.93278 127.000
87.95273 105.000
87.97267 116.000
87.99262 118.000
88.01257 113.000
88.03251 105.000
88.05246 102.000
88.07241 108.000
88.09236 95.000
88.11230 96.000
88.13225 101.000
88.15220 104.000
88.17214 122.000
88.19209 88.000
88.21204 86.000
88.23198 115.000
88.25193 118.000
88.27188 130.000
88.29183 111.000
88.31177 101.000
88.33172 116.000
88.35167 114.000
88.37161 98.000
88.39156 116.000
88.41151 105.000
88.43145 108.000
88.45140 112.000
88.47135 127.000
88.49129 112.000
88.51124 94.000
88.53119 91.000
88.55114 115.000
88.57108 91.000
88.59103 114.000
88.61098 113.000
88.63092 113.000
88.65087 111.000
88.67082 104.000
88.69076 110.000
88.71071 137.000
88.73066 107.000
88.75061 101.000
88.77055 96.000
88.79050 94.000
88.81045 104.000
88.83039 116.000
88.85034 105.000
88.87029 114.000
88.89023 112.000
88.91018 105.000
88.93013 110.000
88.95007 103.000
88.97002 109.000
88.98997 99.000
89.00992 134.000
89.02986 111.000
89.04981 91.000
89.06976 119.000
89.08970 111.000
89.10965 120.000
89.12960 106.000
89.14954 123.000
89.16949 110.000
89.18944 123.000
89.20939 115.000
89.22933 113.000
89.24928 120.000
89.26923 104.000
89.28917 128.000
89.30912 112.000
89.32907 116.000
89.34901 121.000
89.36896 112.000
89.38891 122.000
89.40885 121.000
89.42880 115.000
89.44875 109.000
89.46870 119.000
89.48864 110.000
89.50859 123.000
89.52854 129.000
89.54848 114.000
89.56843 116.000
89.58838 114.000
89.60832 107.000
89.62827 125.000
89.64822 113.000
89.66817 124.000
89.68811 125.000
89.70806 113.000
89.72801 122.000
89.74795 119.000
89.76790 119.000
89.78785 108.000
89.80779 109.000
89.82774 113.000
89.84769 138.000
89.86764 124.000
89.88758 132.000
89.90753 124.000
89.92748 116.000
89.94742 154.000
89.96737 123.000
89.98732 147.000
90.00726 109.000
