10.00000 31.000
10.01995 33.000
10.03989 37.000
10.05984 40.000
10.07979 34.000
10.09973 31.000
10.11968 45.000
10.13963 54.000
10.15958 55.000
10.17952 67.000
10.19947 70.000
10.21942 106.000
10.23936 190.000
10.25931 242.000
10.27926 254.000
10.29920 176.000
10.31915 112.000
10.33910 47.000
10.35905 48.000
10.37899 45.000
10.39894 46.000
10.41889 39.000
10.43883 32.000
10.45878 28.000
10.47873 20.000
10.49867 31.000
10.51862 36.000
10.53857 33.000
10.55851 24.000
10.57846 27.000
10.59841 30.000
10.61836 40.000
10.63830 30.000
10.65825 25.000
10.67820 41.000
10.69814 27.000
10.71809 31.000
10.73804 34.000
10.75798 38.000
10.77793 29.000
10.79788 24.000
10.81783 36.000
10.83777 27.000
10.85772 30.000
10.87767 29.000
10.89761 28.000
10.91756 23.000
10.93751 40.000
10.95745 35.000
10.97740 40.000
10.99735 32.000
11.01730 28.000
11.03724 28.000
11.05719 27.000
11.07714 26.000
11.09708 30.000
11.11703 42.000
11.13698 29.000
11.15692 34.000
11.17687 30.000
11.19682 38.000
11.21676 25.000
11.23671 26.000
11.25666 30.000
11.27661 27.000
11.29655 34.000
11.31650 38.000
11.33645 31.000
11.35639 28.000
11.37634 29.000
11.39629 32.000
11.41623 32.000
11.43618 20.000
11.45613 25.000
11.47608 30.000
11.49602 31.000
11.51597 25.000
11.53592 28.000
11.55586 34.000
11.57581 26.000
11.59576 36.000
11.61570 28.000
11.63565 36.000
11.65560 33.000
11.67554 43.000
11.69549 34.000
11.71544 38.000
11.73539 37.000
11.75533 51.000
11.77528 56.000
11.79523 62.000
11.81517 53.000
11.83512 51.000
11.85507 41.000
11.87501 34.000
11.89496 36.000
11.91491 39.000
11.93486 23.000
11.95480 22.000
11.97475 22.000
11.99470 28.000
12.01464 33.000
12.03459 31.000
12.05454 31.000
12.07448 32.000
12.09443 36.000
12.11438 33.000
12.13432 40.000
12.15427 41.000
12.17422 35.000
12.19417 26.000
12.21411 32.000
12.23406 32.000
12.25401 33.000
12.27395 43.000
12.29390 40.000
12.31385 33.000
12.33379 40.000
12.35374 36.000
12.37369 33.000
12.39364 50.000
12.41358 38.000
12.43353 57.000
12.45348 44.000
12.47342 42.000
12.49337 60.000
12.51332 55.000
12.53326 58.000
12.55321 55.000
12.57316 56.000
12.59311 56.000
12.61305 60.000
12.63300 58.000
12.65295 54.000
12.67289 42.000
12.69284 41.000
12.71279 48.000
12.73273 54.000
12.75268 45.000
12.77263 42.000
12.79257 48.000
12.81252 52.000
12.83247 43.000
12.85242 47.000
12.87236 39.000
12.89231 42.000
12.91226 43.000
12.93220 36.000
12.95215 40.000
12.97210 41.000
12.99204 41.000
13.01199 34.000
13.03194 35.000
13.05189 40.000
13.07183 37.000
13.09178 29.000
13.11173 44.000
13.13167 54.000
13.15162 43.000
13.17157 38.000
13.19151 46.000
13.21146 62.000
13.23141 51.000
13.25135 75.000
13.27130 76.000
13.29125 109.000
13.31120 156.000
13.33114 242.000
13.35109 411.000
13.37104 502.000
13.39098 407.000
13.41093 284.000
13.43088 126.000
13.45082 72.000
13.47077 67.000
13.49072 38.000
13.51067 56.000
13.53061 39.000
13.55056 57.000
13.57051 34.000
13.59045 47.000
13.61040 59.000
13.63035 47.000
13.65029 42.000
13.67024 52.000
13.69019 42.000
13.71013 47.000
13.73008 44.000
13.75003 58.000
13.76998 47.000
13.78992 50.000
13.80987 57.000
13.82982 64.000
13.84976 93.000
13.86971 116.000
13.88966 177.000
13.90960 318.000
13.92955 471.000
13.94950 849.000
13.96945 1241.000
13.98939 967.000
14.00934 687.000
14.02929 294.000
14.04923 127.000
14.06918 80.000
14.08913 64.000
14.10907 57.000
14.12902 40.000
14.14897 55.000
14.16892 40.000
14.18886 56.000
14.20881 52.000
14.22876 38.000
14.24870 30.000
14.26865 43.000
14.28860 36.000
14.30854 30.000
14.32849 33.000
14.34844 30.000
14.36838 38.000
14.38833 28.000
14.40828 36.000
14.42823 40.000
14.44817 27.000
14.46812 35.000
14.48807 31.000
14.50801 27.000
14.52796 43.000
14.54791 27.000
14.56785 37.000
14.58780 34.000
14.60775 32.000
14.62770 26.000
14.64764 55.000
14.66759 28.000
14.68754 33.000
14.70748 28.000
14.72743 51.000
14.74738 41.000
14.76732 45.000
14.78727 32.000
14.80722 20.000
14.82716 43.000
14.84711 43.000
14.86706 32.000
14.88701 36.000
14.90695 35.000
14.92690 56.000
14.94685 40.000
14.96679 52.000
14.98674 48.000
15.00669 36.000
15.02663 56.000
15.04658 32.000
15.06653 28.000
15.08648 32.000
15.10642 35.000
15.12637 39.000
15.14632 49.000
15.16626 31.000
15.18621 44.000
15.20616 58.000
15.22610 49.000
15.24605 39.000
15.26600 38.000
15.28594 46.000
15.30589 54.000
15.32584 54.000
15.34579 52.000
15.36573 49.000
15.38568 56.000
15.40563 56.000
15.42557 73.000
15.44552 54.000
15.46547 84.000
15.48541 95.000
15.50536 126.000
15.52531 137.000
15.54526 188.000
15.56520 227.000
15.58515 311.000
15.60510 374.000
15.62504 438.000
15.64499 497.000
15.66494 522.000
15.68488 558.000
15.70483 429.000
15.72478 298.000
15.74472 278.000
15.76467 193.000
15.78462 199.000
15.80457 165.000
15.82451 138.000
15.84446 159.000
15.86441 171.000
15.88435 142.000
15.90430 143.000
15.92425 137.000
15.94419 138.000
15.96414 144.000
15.98409 200.000
16.00404 144.000
16.02398 120.000
16.04393 116.000
16.06388 85.000
16.08382 63.000
16.10377 75.000
16.12372 70.000
16.14366 66.000
16.16361 63.000
16.18356 73.000
16.20351 63.000
16.22345 57.000
16.24340 84.000
16.26335 94.000
16.28329 86.000
16.30324 110.000
16.32319 113.000
16.34313 117.000
16.36308 127.000
16.38303 151.000
16.40297 203.000
16.42292 214.000
16.44287 251.000
16.46282 353.000
16.48276 419.000
16.50271 571.000
16.52266 788.000
16.54260 1097.000
16.56255 1118.000
16.58250 879.000
16.60244 717.000
16.62239 501.000
16.64234 353.000
16.66229 258.000
16.68223 235.000
16.70218 164.000
16.72213 149.000
16.74207 120.000
16.76202 128.000
16.78197 85.000
16.80191 98.000
16.82186 91.000
16.84181 108.000
16.86175 69.000
16.88170 70.000
16.90165 80.000
16.92160 70.000
16.94154 54.000
16.96149 66.000
16.98144 53.000
17.00138 55.000
17.02133 53.000
17.04128 54.000
17.06122 44.000
17.08117 59.000
17.10112 52.000
17.12107 43.000
17.14101 44.000
17.16096 41.000
17.18091 41.000
17.20085 33.000
17.22080 48.000
17.24075 41.000
17.26069 50.000
17.28064 35.000
17.30059 43.000
17.32053 33.000
17.34048 37.000
17.36043 32.000
17.38038 39.000
17.40032 35.000
17.42027 34.000
17.44022 28.000
17.46016 53.000
17.48011 36.000
17.50006 41.000
17.52000 38.000
17.53995 41.000
17.55990 23.000
17.57985 27.000
17.59979 33.000
17.61974 34.000
17.63969 42.000
17.65963 47.000
17.67958 36.000
17.69953 38.000
17.71947 32.000
17.73942 32.000
17.75937 30.000
17.77932 36.000
17.79926 28.000
17.81921 36.000
17.83916 29.000
17.85910 28.000
17.87905 40.000
17.89900 38.000
17.91894 42.000
17.93889 70.000
17.95884 94.000
17.97878 156.000
17.99873 270.000
18.01868 355.000
18.03863 302.000
18.05857 223.000
18.07852 152.000
18.09847 75.000
18.11841 57.000
18.13836 45.000
18.15831 37.000
18.17825 37.000
18.19820 39.000
18.21815 37.000
18.23810 32.000
18.25804 38.000
18.27799 33.000
18.29794 32.000
18.31788 29.000
18.33783 35.000
18.35778 41.000
18.37772 40.000
18.39767 42.000
18.41762 45.000
18.43756 35.000
18.45751 25.000
18.47746 39.000
18.49741 52.000
18.51735 39.000
18.53730 41.000
18.55725 41.000
18.57719 35.000
18.59714 38.000
18.61709 37.000
18.63703 39.000
18.65698 42.000
18.67693 44.000
18.69688 31.000
18.71682 33.000
18.73677 43.000
18.75672 26.000
18.77666 23.000
18.79661 43.000
18.81656 34.000
18.83650 35.000
18.85645 46.000
18.87640 31.000
18.89634 31.000
18.91629 35.000
18.93624 37.000
18.95619 46.000
18.97613 37.000
18.99608 43.000
19.01603 43.000
19.03597 44.000
19.05592 40.000
19.07587 33.000
19.09581 40.000
19.11576 48.000
19.13571 44.000
19.15566 55.000
19.17560 54.000
19.19555 68.000
19.21550 72.000
19.23544 70.000
19.25539 74.000
19.27534 99.000
19.29528 124.000
19.31523 172.000
19.33518 355.000
19.35513 600.000
19.37507 950.000
19.39502 907.000
19.41497 769.000
19.43491 715.000
19.45486 643.000
19.47481 689.000
19.49475 861.000
19.51470 838.000
19.53465 680.000
19.55459 528.000
19.57454 380.000
19.59449 194.000
19.61444 126.000
19.63438 92.000
19.65433 90.000
19.67428 116.000
19.69422 100.000
19.71417 140.000
19.73412 200.000
19.75406 224.000
19.77401 305.000
19.79396 356.000
19.81391 353.000
19.83385 245.000
19.85380 198.000
19.87375 143.000
19.89369 87.000
19.91364 70.000
19.93359 62.000
19.95353 59.000
19.97348 40.000
19.99343 45.000
20.01337 32.000
20.03332 42.000
20.05327 35.000
20.07322 33.000
20.09316 38.000
20.11311 31.000
20.13306 35.000
20.15300 38.000
20.17295 38.000
20.19290 37.000
20.21284 39.000
20.23279 44.000
20.25274 36.000
20.27269 25.000
20.29263 37.000
20.31258 30.000
20.33253 33.000
20.35247 32.000
20.37242 27.000
20.39237 30.000
20.41231 31.000
20.43226 38.000
20.45221 39.000
20.47215 36.000
20.49210 43.000
20.51205 26.000
20.53200 34.000
20.55194 28.000
20.57189 43.000
20.59184 32.000
20.61178 42.000
20.63173 46.000
20.65168 45.000
20.67162 40.000
20.69157 43.000
20.71152 32.000
20.73147 39.000
20.75141 45.000
20.77136 32.000
20.79131 34.000
20.81125 27.000
20.83120 23.000
20.85115 30.000
20.87109 35.000
20.89104 36.000
20.91099 24.000
20.93094 34.000
20.95088 37.000
20.97083 40.000
20.99078 32.000
21.01072 27.000
21.03067 34.000
21.05062 37.000
21.07056 31.000
21.09051 28.000
21.11046 34.000
21.13040 40.000
21.15035 32.000
21.17030 35.000
21.19025 31.000
21.21019 33.000
21.23014 24.000
21.25009 42.000
21.27003 32.000
21.28998 38.000
21.30993 46.000
21.32987 23.000
21.34982 26.000
21.36977 40.000
21.38972 43.000
21.40966 31.000
21.42961 23.000
21.44956 28.000
21.46950 35.000
21.48945 23.000
21.50940 24.000
21.52934 32.000
21.54929 31.000
21.56924 23.000
21.58918 26.000
21.60913 38.000
21.62908 41.000
21.64903 45.000
21.66897 36.000
21.68892 38.000
21.70887 35.000
21.72881 31.000
21.74876 43.000
21.76871 41.000
21.78865 35.000
21.80860 45.000
21.82855 45.000
21.84850 49.000
21.86844 46.000
21.88839 68.000
21.90834 64.000
21.92828 79.000
21.94823 96.000
21.96818 124.000
21.98812 129.000
22.00807 95.000
22.02802 102.000
22.04796 78.000
22.06791 67.000
22.08786 50.000
22.10781 73.000
22.12775 65.000
22.14770 67.000
22.16765 65.000
22.18759 74.000
22.20754 59.000
22.22749 78.000
22.24743 78.000
22.26738 83.000
22.28733 87.000
22.30728 121.000
22.32722 146.000
22.34717 216.000
22.36712 285.000
22.38706 308.000
22.40701 241.000
22.42696 232.000
22.44690 204.000
22.46685 124.000
22.48680 104.000
22.50675 83.000
22.52669 79.000
22.54664 61.000
22.56659 60.000
22.58653 58.000
22.60648 59.000
22.62643 52.000
22.64637 55.000
22.66632 42.000
22.68627 31.000
22.70621 51.000
22.72616 49.000
22.74611 36.000
22.76606 37.000
22.78600 38.000
22.80595 31.000
22.82590 38.000
22.84584 29.000
22.86579 31.000
22.88574 42.000
22.90568 42.000
22.92563 47.000
22.94558 48.000
22.96553 28.000
22.98547 33.000
23.00542 33.000
23.02537 34.000
23.04531 39.000
23.06526 39.000
23.08521 35.000
23.10515 31.000
23.12510 32.000
23.14505 43.000
23.16499 30.000
23.18494 25.000
23.20489 32.000
23.22484 46.000
23.24478 26.000
23.26473 34.000
23.28468 38.000
23.30462 35.000
23.32457 35.000
23.34452 32.000
23.36446 29.000
23.38441 24.000
23.40436 21.000
23.42431 34.000
23.44425 42.000
23.46420 40.000
23.48415 29.000
23.50409 32.000
23.52404 42.000
23.54399 37.000
23.56393 32.000
23.58388 33.000
23.60383 30.000
23.62377 39.000
23.64372 44.000
23.66367 38.000
23.68362 43.000
23.70356 41.000
23.72351 55.000
23.74346 41.000
23.76340 35.000
23.78335 46.000
23.80330 40.000
23.82324 42.000
23.84319 30.000
23.86314 38.000
23.88309 41.000
23.90303 28.000
23.92298 36.000
23.94293 42.000
23.96287 27.000
23.98282 36.000
24.00277 23.000
24.02271 25.000
24.04266 35.000
24.06261 40.000
24.08256 34.000
24.10250 18.000
24.12245 32.000
24.14240 40.000
24.16234 43.000
24.18229 33.000
24.20224 41.000
24.22218 35.000
24.24213 28.000
24.26208 32.000
24.28202 29.000
24.30197 41.000
24.32192 31.000
24.34187 33.000
24.36181 31.000
24.38176 35.000
24.40171 25.000
24.42165 34.000
24.44160 36.000
24.46155 32.000
24.48149 28.000
24.50144 41.000
24.52139 24.000
24.54134 35.000
24.56128 35.000
24.58123 38.000
24.60118 37.000
24.62112 41.000
24.64107 36.000
24.66102 32.000
24.68096 34.000
24.70091 42.000
24.72086 30.000
24.74080 40.000
24.76075 33.000
24.78070 27.000
24.80065 27.000
24.82059 32.000
24.84054 36.000
24.86049 33.000
24.88043 40.000
24.90038 37.000
24.92033 46.000
24.94027 47.000
24.96022 42.000
24.98017 41.000
25.00012 50.000
25.02006 34.000
25.04001 56.000
25.05996 37.000
25.07990 52.000
25.09985 40.000
25.11980 27.000
25.13974 35.000
25.15969 36.000
25.17964 35.000
25.19958 45.000
25.21953 42.000
25.23948 44.000
25.25943 39.000
25.27937 32.000
25.29932 33.000
25.31927 43.000
25.33921 45.000
25.35916 61.000
25.37911 56.000
25.39905 50.000
25.41900 50.000
25.43895 60.000
25.45890 81.000
25.47884 99.000
25.49879 104.000
25.51874 74.000
25.53868 85.000
25.55863 74.000
25.57858 63.000
25.59852 48.000
25.61847 40.000
25.63842 54.000
25.65837 44.000
25.67831 36.000
25.69826 44.000
25.71821 33.000
25.73815 52.000
25.75810 42.000
25.77805 39.000
25.79799 49.000
25.81794 47.000
25.83789 40.000
25.85783 31.000
25.87778 44.000
25.89773 36.000
25.91768 42.000
25.93762 37.000
25.95757 35.000
25.97752 51.000
25.99746 27.000
26.01741 43.000
26.03736 43.000
26.05730 48.000
26.07725 44.000
26.09720 44.000
26.11715 38.000
26.13709 45.000
26.15704 33.000
26.17699 29.000
26.19693 42.000
26.21688 43.000
26.23683 39.000
26.25677 40.000
26.27672 47.000
26.29667 45.000
26.31661 35.000
26.33656 35.000
26.35651 48.000
26.37646 41.000
26.39640 45.000
26.41635 34.000
26.43630 31.000
26.45624 49.000
26.47619 41.000
26.49614 42.000
26.51608 51.000
26.53603 39.000
26.55598 39.000
26.57593 41.000
26.59587 47.000
26.61582 35.000
26.63577 53.000
26.65571 43.000
26.67566 43.000
26.69561 46.000
26.71555 47.000
26.73550 27.000
26.75545 37.000
26.77539 59.000
26.79534 53.000
26.81529 54.000
26.83524 62.000
26.85518 79.000
26.87513 118.000
26.89508 163.000
26.91502 255.000
26.93497 213.000
26.95492 177.000
26.97486 153.000
26.99481 154.000
27.01476 111.000
27.03471 85.000
27.05465 73.000
27.07460 65.000
27.09455 62.000
27.11449 48.000
27.13444 53.000
27.15439 55.000
27.17433 64.000
27.19428 44.000
27.21423 56.000
27.23417 51.000
27.25412 38.000
27.27407 46.000
27.29402 45.000
27.31396 48.000
27.33391 49.000
27.35386 45.000
27.37380 40.000
27.39375 46.000
27.41370 49.000
27.43364 46.000
27.45359 55.000
27.47354 41.000
27.49349 43.000
27.51343 38.000
27.53338 56.000
27.55333 48.000
27.57327 46.000
27.59322 47.000
27.61317 39.000
27.63311 49.000
27.65306 49.000
27.67301 56.000
27.69296 49.000
27.71290 41.000
27.73285 52.000
27.75280 52.000
27.77274 40.000
27.79269 48.000
27.81264 43.000
27.83258 41.000
27.85253 48.000
27.87248 44.000
27.89242 47.000
27.91237 45.000
27.93232 57.000
27.95227 40.000
27.97221 57.000
27.99216 53.000
28.01211 65.000
28.03205 42.000
28.05200 45.000
28.07195 69.000
28.09189 50.000
28.11184 87.000
28.13179 92.000
28.15174 163.000
28.17168 129.000
28.19163 113.000
28.21158 95.000
28.23152 108.000
28.25147 74.000
28.27142 72.000
28.29136 49.000
28.31131 51.000
28.33126 54.000
28.35120 60.000
28.37115 54.000
28.39110 54.000
28.41105 69.000
28.43099 48.000
28.45094 40.000
28.47089 61.000
28.49083 61.000
28.51078 57.000
28.53073 52.000
28.55067 53.000
28.57062 59.000
28.59057 53.000
28.61052 58.000
28.63046 67.000
28.65041 73.000
28.67036 70.000
28.69030 90.000
28.71025 67.000
28.73020 73.000
28.75014 71.000
28.77009 87.000
28.79004 88.000
28.80998 92.000
28.82993 101.000
28.84988 140.000
28.86983 197.000
28.88977 273.000
28.90972 387.000
28.92967 324.000
28.94961 265.000
28.96956 243.000
28.98951 239.000
29.00945 194.000
29.02940 118.000
29.04935 82.000
29.06930 77.000
29.08924 64.000
29.10919 66.000
29.12914 66.000
29.14908 50.000
29.16903 52.000
29.18898 59.000
29.20892 51.000
29.22887 48.000
29.24882 53.000
29.26877 51.000
29.28871 50.000
29.30866 46.000
29.32861 49.000
29.34855 54.000
29.36850 46.000
29.38845 46.000
29.40839 58.000
29.42834 48.000
29.44829 62.000
29.46823 45.000
29.48818 40.000
29.50813 55.000
29.52808 60.000
29.54802 63.000
29.56797 68.000
29.58792 56.000
29.60786 62.000
29.62781 69.000
29.64776 70.000
29.66770 69.000
29.68765 60.000
29.70760 51.000
29.72755 49.000
29.74749 52.000
29.76744 58.000
29.78739 46.000
29.80733 53.000
29.82728 56.000
29.84723 40.000
29.86717 44.000
29.88712 48.000
29.90707 64.000
29.92701 62.000
29.94696 56.000
29.96691 52.000
29.98686 48.000
30.00680 71.000
30.02675 59.000
30.04670 57.000
30.06664 63.000
30.08659 43.000
30.10654 52.000
30.12648 45.000
30.14643 60.000
30.16638 53.000
30.18633 57.000
30.20627 50.000
30.22622 59.000
30.24617 52.000
30.26611 69.000
30.28606 57.000
30.30601 63.000
30.32595 66.000
30.34590 53.000
30.36585 43.000
30.38579 53.000
30.40574 56.000
30.42569 38.000
30.44564 47.000
30.46558 57.000
30.48553 62.000
30.50548 60.000
30.52542 55.000
30.54537 64.000
30.56532 57.000
30.58526 64.000
30.60521 53.000
30.62516 44.000
30.64511 54.000
30.66505 61.000
30.68500 53.000
30.70495 45.000
30.72489 45.000
30.74484 59.000
30.76479 63.000
30.78473 67.000
30.80468 58.000
30.82463 55.000
30.84458 59.000
30.86452 56.000
30.88447 65.000
30.90442 72.000
30.92436 63.000
30.94431 91.000
30.96426 96.000
30.98420 131.000
31.00415 209.000
31.02410 217.000
31.04404 167.000
31.06399 139.000
31.08394 149.000
31.10389 132.000
31.12383 131.000
31.14378 104.000
31.16373 89.000
31.18367 113.000
31.20362 87.000
31.22357 64.000
31.24351 72.000
31.26346 82.000
31.28341 73.000
31.30336 72.000
31.32330 54.000
31.34325 64.000
31.36320 45.000
31.38314 53.000
31.40309 69.000
31.42304 59.000
31.44298 51.000
31.46293 65.000
31.48288 56.000
31.50282 61.000
31.52277 68.000
31.54272 71.000
31.56267 72.000
31.58261 86.000
31.60256 81.000
31.62251 82.000
31.64245 72.000
31.66240 88.000
31.68235 79.000
31.70229 61.000
31.72224 71.000
31.74219 65.000
31.76214 67.000
31.78208 54.000
31.80203 62.000
31.82198 58.000
31.84192 66.000
31.86187 64.000
31.88182 62.000
31.90176 49.000
31.92171 66.000
31.94166 73.000
31.96160 83.000
31.98155 66.000
32.00150 70.000
32.02145 76.000
32.04139 69.000
32.06134 61.000
32.08129 66.000
32.10123 53.000
32.12118 60.000
32.14113 75.000
32.16107 67.000
32.18102 80.000
32.20097 79.000
32.22092 90.000
32.24086 112.000
32.26081 121.000
32.28076 155.000
32.30070 231.000
32.32065 304.000
32.34060 428.000
32.36054 613.000
32.38049 642.000
32.40044 641.000
32.42039 542.000
32.44033 532.000
32.46028 502.000
32.48023 463.000
32.50017 291.000
32.52012 263.000
32.54007 204.000
32.56001 170.000
32.57996 127.000
32.59991 99.000
32.61985 98.000
32.63980 80.000
32.65975 80.000
32.67970 62.000
32.69964 64.000
32.71959 60.000
32.73954 63.000
32.75948 55.000
32.77943 47.000
32.79938 52.000
32.81932 64.000
32.83927 54.000
32.85922 51.000
32.87917 62.000
32.89911 62.000
32.91906 61.000
32.93901 62.000
32.95895 48.000
32.97890 52.000
32.99885 59.000
33.01879 47.000
33.03874 40.000
33.05869 60.000
33.07863 58.000
33.09858 43.000
33.11853 40.000
33.13848 51.000
33.15842 47.000
33.17837 41.000
33.19832 52.000
33.21826 57.000
33.23821 50.000
33.25816 73.000
33.27810 60.000
33.29805 71.000
33.31800 58.000
33.33795 74.000
33.35789 80.000
33.37784 57.000
33.39779 63.000
33.41773 71.000
33.43768 61.000
33.45763 73.000
33.47757 71.000
33.49752 72.000
33.51747 80.000
33.53741 74.000
33.55736 68.000
33.57731 79.000
33.59726 63.000
33.61720 83.000
33.63715 77.000
33.65710 82.000
33.67704 113.000
33.69699 120.000
33.71694 128.000
33.73688 147.000
33.75683 222.000
33.77678 304.000
33.79673 512.000
33.81667 861.000
33.83662 899.000
33.85657 714.000
33.87651 561.000
33.89646 623.000
33.91641 664.000
33.93635 607.000
33.95630 454.000
33.97625 410.000
33.99620 459.000
34.01614 619.000
34.03609 855.000
34.05604 1092.000
34.07598 956.000
34.09593 641.000
34.11588 524.000
34.13582 572.000
34.15577 502.000
34.17572 336.000
34.19566 198.000
34.21561 126.000
34.23556 94.000
34.25551 91.000
34.27545 81.000
34.29540 47.000
34.31535 67.000
34.33529 73.000
34.35524 63.000
34.37519 55.000
34.39513 56.000
34.41508 49.000
34.43503 50.000
34.45498 59.000
34.47492 57.000
34.49487 59.000
34.51482 59.000
34.53476 60.000
34.55471 62.000
34.57466 59.000
34.59460 57.000
34.61455 52.000
34.63450 55.000
34.65444 61.000
34.67439 43.000
34.69434 51.000
34.71429 53.000
34.73423 53.000
34.75418 56.000
34.77413 59.000
34.79407 46.000
34.81402 49.000
34.83397 51.000
34.85391 48.000
34.87386 40.000
34.89381 52.000
34.91376 44.000
34.93370 44.000
34.95365 57.000
34.97360 33.000
34.99354 34.000
35.01349 42.000
35.03344 49.000
35.05338 53.000
35.07333 45.000
35.09328 35.000
35.11322 59.000
35.13317 38.000
35.15312 51.000
35.17307 59.000
35.19301 45.000
35.21296 51.000
35.23291 59.000
35.25285 45.000
35.27280 60.000
35.29275 49.000
35.31269 53.000
35.33264 55.000
35.35259 56.000
35.37254 65.000
35.39248 43.000
35.41243 61.000
35.43238 52.000
35.45232 63.000
35.47227 50.000
35.49222 57.000
35.51216 59.000
35.53211 59.000
35.55206 71.000
35.57201 64.000
35.59195 66.000
35.61190 48.000
35.63185 60.000
35.65179 67.000
35.67174 65.000
35.69169 82.000
35.71163 68.000
35.73158 93.000
35.75153 102.000
35.77147 80.000
35.79142 104.000
35.81137 108.000
35.83132 136.000
35.85126 163.000
35.87121 213.000
35.89116 214.000
35.91110 283.000
35.93105 289.000
35.95100 287.000
35.97094 207.000
35.99089 290.000
36.01084 329.000
36.03079 318.000
36.05073 486.000
36.07068 669.000
36.09063 833.000
36.11057 785.000
36.13052 636.000
36.15047 515.000
36.17041 499.000
36.19036 520.000
36.21031 431.000
36.23025 316.000
36.25020 207.000
36.27015 176.000
36.29010 164.000
36.31004 134.000
36.32999 135.000
36.34994 126.000
36.36988 116.000
36.38983 86.000
36.40978 100.000
36.42972 108.000
36.44967 137.000
36.46962 128.000
36.48957 174.000
36.50951 187.000
36.52946 149.000
36.54941 103.000
36.56935 89.000
36.58930 114.000
36.60925 120.000
36.62919 83.000
36.64914 76.000
36.66909 59.000
36.68903 60.000
36.70898 52.000
36.72893 49.000
36.74888 48.000
36.76882 65.000
36.78877 55.000
36.80872 43.000
36.82866 48.000
36.84861 50.000
36.86856 59.000
36.88850 55.000
36.90845 69.000
36.92840 60.000
36.94835 69.000
36.96829 70.000
36.98824 63.000
37.00819 60.000
37.02813 52.000
37.04808 57.000
37.06803 53.000
37.08797 63.000
37.10792 50.000
37.12787 55.000
37.14781 72.000
37.16776 70.000
37.18771 91.000
37.20766 76.000
37.22760 94.000
37.24755 113.000
37.26750 135.000
37.28744 200.000
37.30739 243.000
37.32734 363.000
37.34728 672.000
37.36723 857.000
37.38718 711.000
37.40713 593.000
37.42707 535.000
37.44702 593.000
37.46697 610.000
37.48691 458.000
37.50686 380.000
37.52681 331.000
37.54675 293.000
37.56670 266.000
37.58665 308.000
37.60660 282.000
37.62654 244.000
37.64649 164.000
37.66644 163.000
37.68638 150.000
37.70633 173.000
37.72628 145.000
37.74622 113.000
37.76617 110.000
37.78612 85.000
37.80606 77.000
37.82601 62.000
37.84596 72.000
37.86591 73.000
37.88585 80.000
37.90580 65.000
37.92575 74.000
37.94569 64.000
37.96564 68.000
37.98559 81.000
38.00553 120.000
38.02548 127.000
38.04543 145.000
38.06538 184.000
38.08532 170.000
38.10527 174.000
38.12522 141.000
38.14516 160.000
38.16511 143.000
38.18506 118.000
38.20500 112.000
38.22495 88.000
38.24490 81.000
38.26484 74.000
38.28479 59.000
38.30474 54.000
38.32469 57.000
38.34463 42.000
38.36458 55.000
38.38453 59.000
38.40447 50.000
38.42442 38.000
38.44437 40.000
38.46431 57.000
38.48426 65.000
38.50421 42.000
38.52416 60.000
38.54410 61.000
38.56405 64.000
38.58400 63.000
38.60394 85.000
38.62389 85.000
38.64384 157.000
38.66378 211.000
38.68373 220.000
38.70368 151.000
38.72362 141.000
38.74357 138.000
38.76352 156.000
38.78347 153.000
38.80341 116.000
38.82336 101.000
38.84331 118.000
38.86325 96.000
38.88320 96.000
38.90315 75.000
38.92309 85.000
38.94304 91.000
38.96299 72.000
38.98294 75.000
39.00288 63.000
39.02283 74.000
39.04278 78.000
39.06272 77.000
39.08267 108.000
39.10262 91.000
39.12256 88.000
39.14251 87.000
39.16246 85.000
39.18241 84.000
39.20235 92.000
39.22230 67.000
39.24225 76.000
39.26219 47.000
39.28214 70.000
39.30209 71.000
39.32203 71.000
39.34198 70.000
39.36193 86.000
39.38187 82.000
39.40182 74.000
39.42177 60.000
39.44172 69.000
39.46166 58.000
39.48161 66.000
39.50156 55.000
39.52150 49.000
39.54145 66.000
39.56140 59.000
39.58134 56.000
39.60129 48.000
39.62124 56.000
39.64119 49.000
39.66113 65.000
39.68108 46.000
39.70103 56.000
39.72097 58.000
39.74092 53.000
39.76087 68.000
39.78081 70.000
39.80076 56.000
39.82071 42.000
39.84065 46.000
39.86060 53.000
39.88055 67.000
39.90050 53.000
39.92044 57.000
39.94039 51.000
39.96034 54.000
39.98028 44.000
40.00023 52.000
40.02018 46.000
40.04012 49.000
40.06007 46.000
40.08002 59.000
40.09997 49.000
40.11991 45.000
40.13986 49.000
40.15981 38.000
40.17975 39.000
40.19970 41.000
40.21965 50.000
40.23959 71.000
40.25954 77.000
40.27949 81.000
40.29943 64.000
40.31938 79.000
40.33933 66.000
40.35928 78.000
40.37922 51.000
40.39917 53.000
40.41912 56.000
40.43906 51.000
40.45901 52.000
40.47896 50.000
40.49890 45.000
40.51885 36.000
40.53880 20.000
40.55875 36.000
40.57869 44.000
40.59864 38.000
40.61859 39.000
40.63853 36.000
40.65848 44.000
40.67843 50.000
40.69837 40.000
40.71832 52.000
40.73827 41.000
40.75822 30.000
40.77816 42.000
40.79811 43.000
40.81806 59.000
40.83800 69.000
40.85795 79.000
40.87790 102.000
40.89784 80.000
40.91779 84.000
40.93774 85.000
40.95768 76.000
40.97763 76.000
40.99758 84.000
41.01753 77.000
41.03747 82.000
41.05742 86.000
41.07737 78.000
41.09731 54.000
41.11726 69.000
41.13721 50.000
41.15715 69.000
41.17710 60.000
41.19705 55.000
41.21700 37.000
41.23694 34.000
41.25689 37.000
41.27684 37.000
41.29678 32.000
41.31673 39.000
41.33668 29.000
41.35662 36.000
41.37657 39.000
41.39652 38.000
41.41646 35.000
41.43641 43.000
41.45636 33.000
41.47631 44.000
41.49625 33.000
41.51620 49.000
41.53615 42.000
41.55609 44.000
41.57604 47.000
41.59599 49.000
41.61593 44.000
41.63588 34.000
41.65583 32.000
41.67578 36.000
41.69572 54.000
41.71567 41.000
41.73562 43.000
41.75556 40.000
41.77551 44.000
41.79546 40.000
41.81540 36.000
41.83535 48.000
41.85530 45.000
41.87524 54.000
41.89519 52.000
41.91514 57.000
41.93509 70.000
41.95503 102.000
41.97498 139.000
41.99493 167.000
42.01487 160.000
42.03482 139.000
42.05477 117.000
42.07471 98.000
42.09466 103.000
42.11461 136.000
42.13456 95.000
42.15450 97.000
42.17445 71.000
42.19440 57.000
42.21434 61.000
42.23429 55.000
42.25424 56.000
42.27418 38.000
42.29413 45.000
42.31408 44.000
42.33403 50.000
42.35397 50.000
42.37392 51.000
42.39387 53.000
42.41381 40.000
42.43376 51.000
42.45371 54.000
42.47365 54.000
42.49360 51.000
42.51355 43.000
42.53349 35.000
42.55344 52.000
42.57339 48.000
42.59334 57.000
42.61328 47.000
42.63323 46.000
42.65318 59.000
42.67312 40.000
42.69307 45.000
42.71302 49.000
42.73296 41.000
42.75291 61.000
42.77286 66.000
42.79281 79.000
42.81275 89.000
42.83270 66.000
42.85265 65.000
42.87259 71.000
42.89254 54.000
42.91249 61.000
42.93243 63.000
42.95238 59.000
42.97233 64.000
42.99227 48.000
43.01222 43.000
43.03217 38.000
43.05212 52.000
43.07206 46.000
43.09201 57.000
43.11196 53.000
43.13190 56.000
43.15185 60.000
43.17180 47.000
43.19174 59.000
43.21169 76.000
43.23164 64.000
43.25159 68.000
43.27153 83.000
43.29148 95.000
43.31143 86.000
43.33137 82.000
43.35132 71.000
43.37127 89.000
43.39121 78.000
43.41116 82.000
43.43111 53.000
43.45105 50.000
43.47100 67.000
43.49095 54.000
43.51090 46.000
43.53084 59.000
43.55079 52.000
43.57074 59.000
43.59068 44.000
43.61063 49.000
43.63058 45.000
43.65052 53.000
43.67047 48.000
43.69042 58.000
43.71037 58.000
43.73031 53.000
43.75026 48.000
43.77021 82.000
43.79015 95.000
43.81010 88.000
43.83005 139.000
43.84999 133.000
43.86994 174.000
43.88989 215.000
43.90984 227.000
43.92978 203.000
43.94973 177.000
43.96968 120.000
43.98962 133.000
44.00957 137.000
44.02952 135.000
44.04946 102.000
44.06941 93.000
44.08936 69.000
44.10930 58.000
44.12925 61.000
44.14920 49.000
44.16915 59.000
44.18909 57.000
44.20904 62.000
44.22899 50.000
44.24893 76.000
44.26888 66.000
44.28883 86.000
44.30877 107.000
44.32872 70.000
44.34867 106.000
44.36862 130.000
44.38856 148.000
44.40851 162.000
44.42846 191.000
44.44840 222.000
44.46835 179.000
44.48830 152.000
44.50824 154.000
44.52819 147.000
44.54814 110.000
44.56808 110.000
44.58803 115.000
44.60798 107.000
44.62793 77.000
44.64787 79.000
44.66782 65.000
44.68777 76.000
44.70771 78.000
44.72766 48.000
44.74761 54.000
44.76755 65.000
44.78750 66.000
44.80745 66.000
44.82740 65.000
44.84734 48.000
44.86729 59.000
44.88724 48.000
44.90718 63.000
44.92713 69.000
44.94708 69.000
44.96702 82.000
44.98697 70.000
45.00692 83.000
45.02686 61.000
45.04681 70.000
45.06676 65.000
45.08671 64.000
45.10665 59.000
45.12660 55.000
45.14655 72.000
45.16649 80.000
45.18644 59.000
45.20639 58.000
45.22633 56.000
45.24628 49.000
45.26623 43.000
45.28618 48.000
45.30612 72.000
45.32607 49.000
45.34602 52.000
45.36596 57.000
45.38591 49.000
45.40586 61.000
45.42580 62.000
45.44575 58.000
45.46570 68.000
45.48565 59.000
45.50559 72.000
45.52554 119.000
45.54549 142.000
45.56543 194.000
45.58538 232.000
45.60533 223.000
45.62527 174.000
45.64522 149.000
45.66517 137.000
45.68511 130.000
45.70506 168.000
45.72501 133.000
45.74496 133.000
45.76490 102.000
45.78485 88.000
45.80480 68.000
45.82474 68.000
45.84469 64.000
45.86464 52.000
45.88458 44.000
45.90453 52.000
45.92448 56.000
45.94443 50.000
45.96437 66.000
45.98432 44.000
46.00427 44.000
46.02421 48.000
46.04416 41.000
46.06411 51.000
46.08405 40.000
46.10400 47.000
46.12395 32.000
46.14389 33.000
46.16384 50.000
46.18379 38.000
46.20374 28.000
46.22368 32.000
46.24363 31.000
46.26358 27.000
46.28352 51.000
46.30347 42.000
46.32342 35.000
46.34336 31.000
46.36331 25.000
46.38326 42.000
46.40321 39.000
46.42315 35.000
46.44310 38.000
46.46305 32.000
46.48299 34.000
46.50294 36.000
46.52289 29.000
46.54283 37.000
46.56278 31.000
46.58273 43.000
46.60267 32.000
46.62262 37.000
46.64257 43.000
46.66252 51.000
46.68246 42.000
46.70241 45.000
46.72236 56.000
46.74230 42.000
46.76225 42.000
46.78220 39.000
46.80214 49.000
46.82209 39.000
46.84204 38.000
46.86199 40.000
46.88193 41.000
46.90188 36.000
46.92183 51.000
46.94177 37.000
46.96172 40.000
46.98167 45.000
47.00161 44.000
47.02156 44.000
47.04151 40.000
47.06146 45.000
47.08140 30.000
47.10135 34.000
47.12130 44.000
47.14124 58.000
47.16119 41.000
47.18114 44.000
47.20108 45.000
47.22103 45.000
47.24098 42.000
47.26092 40.000
47.28087 47.000
47.30082 45.000
47.32077 44.000
47.34071 37.000
47.36066 35.000
47.38061 38.000
47.40055 44.000
47.42050 42.000
47.44045 32.000
47.46039 29.000
47.48034 42.000
47.50029 32.000
47.52024 41.000
47.54018 36.000
47.56013 35.000
47.58008 29.000
47.60002 32.000
47.61997 30.000
47.63992 31.000
47.65986 33.000
47.67981 26.000
47.69976 27.000
47.71970 36.000
47.73965 30.000
47.75960 37.000
47.77955 42.000
47.79949 35.000
47.81944 26.000
47.83939 27.000
47.85933 27.000
47.87928 37.000
47.89923 33.000
47.91917 46.000
47.93912 31.000
47.95907 34.000
47.97902 39.000
47.99896 35.000
48.01891 46.000
48.03886 45.000
48.05880 40.000
48.07875 48.000
48.09870 56.000
48.11864 36.000
48.13859 36.000
48.15854 48.000
48.17848 37.000
48.19843 46.000
48.21838 47.000
48.23833 54.000
48.25827 48.000
48.27822 54.000
48.29817 40.000
48.31811 47.000
48.33806 44.000
48.35801 54.000
48.37795 43.000
48.39790 42.000
48.41785 51.000
48.43780 47.000
48.45774 36.000
48.47769 47.000
48.49764 40.000
48.51758 47.000
48.53753 68.000
48.55748 55.000
48.57742 60.000
48.59737 70.000
48.61732 63.000
48.63726 83.000
48.65721 56.000
48.67716 67.000
48.69711 70.000
48.71705 61.000
48.73700 78.000
48.75695 83.000
48.77689 70.000
48.79684 106.000
48.81679 86.000
48.83673 98.000
48.85668 124.000
48.87663 120.000
48.89658 143.000
48.91652 192.000
48.93647 222.000
48.95642 185.000
48.97636 187.000
48.99631 150.000
49.01626 156.000
49.03620 143.000
49.05615 166.000
49.07610 173.000
49.09605 141.000
49.11599 145.000
49.13594 117.000
49.15589 133.000
49.17583 108.000
49.19578 105.000
49.21573 95.000
49.23567 82.000
49.25562 80.000
49.27557 75.000
49.29551 83.000
49.31546 69.000
49.33541 62.000
49.35536 65.000
49.37530 70.000
49.39525 54.000
49.41520 53.000
49.43514 54.000
49.45509 50.000
49.47504 56.000
49.49498 43.000
49.51493 38.000
49.53488 49.000
49.55483 53.000
49.57477 37.000
49.59472 30.000
49.61467 35.000
49.63461 31.000
49.65456 37.000
49.67451 24.000
49.69445 39.000
49.71440 41.000
49.73435 43.000
49.75429 38.000
49.77424 38.000
49.79419 34.000
49.81414 42.000
49.83408 48.000
49.85403 40.000
49.87398 59.000
49.89392 72.000
49.91387 74.000
49.93382 63.000
49.95376 76.000
49.97371 55.000
49.99366 63.000
50.01361 52.000
50.03355 52.000
50.05350 39.000
50.07345 53.000
50.09339 40.000
50.11334 35.000
50.13329 38.000
50.15323 31.000
50.17318 26.000
50.19313 25.000
50.21307 43.000
50.23302 54.000
50.25297 61.000
50.27292 44.000
50.29286 42.000
50.31281 52.000
50.33276 40.000
50.35270 46.000
50.37265 49.000
50.39260 46.000
50.41254 33.000
50.43249 43.000
50.45244 37.000
50.47239 38.000
50.49233 36.000
50.51228 50.000
50.53223 46.000
50.55217 35.000
50.57212 45.000
50.59207 44.000
50.61201 42.000
50.63196 51.000
50.65191 37.000
50.67186 55.000
50.69180 71.000
50.71175 62.000
50.73170 89.000
50.75164 93.000
50.77159 149.000
50.79154 140.000
50.81148 162.000
50.83143 189.000
50.85138 159.000
50.87132 147.000
50.89127 147.000
50.91122 147.000
50.93117 128.000
50.95111 135.000
50.97106 109.000
50.99101 94.000
51.01095 101.000
51.03090 85.000
51.05085 71.000
51.07079 46.000
51.09074 71.000
51.11069 68.000
51.13064 58.000
51.15058 71.000
51.17053 61.000
51.19048 64.000
51.21042 77.000
51.23037 85.000
51.25032 79.000
51.27026 116.000
51.29021 136.000
51.31016 174.000
51.33010 229.000
51.35005 252.000
51.37000 212.000
51.38995 193.000
51.40989 173.000
51.42984 197.000
51.44979 223.000
51.46973 233.000
51.48968 246.000
51.50963 257.000
51.52957 232.000
51.54952 282.000
51.56947 256.000
51.58942 258.000
51.60936 204.000
51.62931 176.000
51.64926 150.000
51.66920 146.000
51.68915 158.000
51.70910 149.000
51.72904 136.000
51.74899 92.000
51.76894 72.000
51.78888 67.000
51.80883 58.000
51.82878 48.000
51.84873 50.000
51.86867 47.000
51.88862 42.000
51.90857 54.000
51.92851 43.000
51.94846 40.000
51.96841 27.000
51.98835 53.000
52.00830 43.000
52.02825 38.000
52.04820 44.000
52.06814 55.000
52.08809 72.000
52.10804 77.000
52.12798 74.000
52.14793 65.000
52.16788 52.000
52.18782 59.000
52.20777 66.000
52.22772 45.000
52.24767 45.000
52.26761 55.000
52.28756 44.000
52.30751 50.000
52.32745 57.000
52.34740 47.000
52.36735 44.000
52.38729 48.000
52.40724 33.000
52.42719 41.000
52.44713 45.000
52.46708 51.000
52.48703 35.000
52.50698 45.000
52.52692 36.000
52.54687 51.000
52.56682 54.000
52.58676 49.000
52.60671 56.000
52.62666 69.000
52.64660 71.000
52.66655 38.000
52.68650 58.000
52.70645 59.000
52.72639 68.000
52.74634 70.000
52.76629 63.000
52.78623 49.000
52.80618 48.000
52.82613 55.000
52.84607 58.000
52.86602 45.000
52.88597 53.000
52.90591 52.000
52.92586 52.000
52.94581 38.000
52.96576 49.000
52.98570 45.000
53.00565 44.000
53.02560 33.000
53.04554 37.000
53.06549 48.000
53.08544 36.000
53.10538 52.000
53.12533 45.000
53.14528 48.000
53.16523 58.000
53.18517 69.000
53.20512 80.000
53.22507 85.000
53.24501 84.000
53.26496 72.000
53.28491 70.000
53.30485 51.000
53.32480 46.000
53.34475 60.000
53.36469 57.000
53.38464 79.000
53.40459 62.000
53.42454 52.000
53.44448 47.000
53.46443 49.000
53.48438 50.000
53.50432 52.000
53.52427 46.000
53.54422 57.000
53.56416 49.000
53.58411 57.000
53.60406 42.000
53.62401 60.000
53.64395 65.000
53.66390 71.000
53.68385 60.000
53.70379 45.000
53.72374 35.000
53.74369 49.000
53.76363 44.000
53.78358 58.000
53.80353 55.000
53.82348 68.000
53.84342 81.000
53.86337 77.000
53.88332 106.000
53.90326 98.000
53.92321 100.000
53.94316 97.000
53.96310 69.000
53.98305 85.000
54.00300 81.000
54.02294 78.000
54.04289 76.000
54.06284 63.000
54.08279 79.000
54.10273 56.000
54.12268 42.000
54.14263 46.000
54.16257 58.000
54.18252 41.000
54.20247 51.000
54.22241 59.000
54.24236 50.000
54.26231 36.000
54.28226 39.000
54.30220 34.000
54.32215 43.000
54.34210 32.000
54.36204 38.000
54.38199 43.000
54.40194 25.000
54.42188 40.000
54.44183 35.000
54.46178 36.000
54.48172 27.000
54.50167 33.000
54.52162 30.000
54.54157 39.000
54.56151 35.000
54.58146 27.000
54.60141 29.000
54.62135 43.000
54.64130 43.000
54.66125 31.000
54.68119 42.000
54.70114 34.000
54.72109 19.000
54.74104 31.000
54.76098 37.000
54.78093 31.000
54.80088 20.000
54.82082 29.000
54.84077 36.000
54.86072 39.000
54.88066 21.000
54.90061 34.000
54.92056 23.000
54.94050 31.000
54.96045 32.000
54.98040 33.000
55.00035 19.000
55.02029 40.000
55.04024 26.000
55.06019 25.000
55.08013 17.000
55.10008 33.000
55.12003 26.000
55.13997 26.000
55.15992 31.000
55.17987 26.000
55.19982 36.000
55.21976 27.000
55.23971 27.000
55.25966 28.000
55.27960 34.000
55.29955 45.000
55.31950 23.000
55.33944 29.000
55.35939 38.000
55.37934 30.000
55.39929 39.000
55.41923 23.000
55.43918 41.000
55.45913 40.000
55.47907 42.000
55.49902 40.000
55.51897 36.000
55.53891 38.000
55.55886 39.000
55.57881 40.000
55.59875 54.000
55.61870 36.000
55.63865 37.000
55.65860 33.000
55.67854 23.000
55.69849 29.000
55.71844 37.000
55.73838 38.000
55.75833 43.000
55.77828 38.000
55.79822 35.000
55.81817 38.000
55.83812 30.000
55.85807 45.000
55.87801 28.000
55.89796 30.000
55.91791 36.000
55.93785 31.000
55.95780 44.000
55.97775 55.000
55.99769 43.000
56.01764 54.000
56.03759 83.000
56.05753 79.000
56.07748 74.000
56.09743 71.000
56.11738 45.000
56.13732 48.000
56.15727 61.000
56.17722 52.000
56.19716 55.000
56.21711 56.000
56.23706 61.000
56.25700 37.000
56.27695 41.000
56.29690 29.000
56.31685 30.000
56.33679 40.000
56.35674 33.000
56.37669 22.000
56.39663 40.000
56.41658 22.000
56.43653 35.000
56.45647 29.000
56.47642 37.000
56.49637 31.000
56.51631 29.000
56.53626 30.000
56.55621 32.000
56.57616 37.000
56.59610 36.000
56.61605 41.000
56.63600 28.000
56.65594 37.000
56.67589 41.000
56.69584 36.000
56.71578 31.000
56.73573 24.000
56.75568 32.000
56.77563 36.000
56.79557 35.000
56.81552 25.000
56.83547 28.000
56.85541 43.000
56.87536 28.000
56.89531 25.000
56.91525 33.000
56.93520 36.000
56.95515 38.000
56.97510 32.000
56.99504 42.000
57.01499 37.000
57.03494 36.000
57.05488 37.000
57.07483 29.000
57.09478 29.000
57.11472 26.000
57.13467 27.000
57.15462 31.000
57.17456 25.000
57.19451 41.000
57.21446 30.000
57.23441 37.000
57.25435 46.000
57.27430 33.000
57.29425 39.000
57.31419 43.000
57.33414 45.000
57.35409 50.000
57.37403 39.000
57.39398 65.000
57.41393 60.000
57.43388 45.000
57.45382 54.000
57.47377 44.000
57.49372 45.000
57.51366 56.000
57.53361 57.000
57.55356 49.000
57.57350 51.000
57.59345 54.000
57.61340 38.000
57.63334 44.000
57.65329 37.000
57.67324 53.000
57.69319 26.000
57.71313 30.000
57.73308 34.000
57.75303 33.000
57.77297 36.000
57.79292 42.000
57.81287 40.000
57.83281 41.000
57.85276 31.000
57.87271 33.000
57.89266 37.000
57.91260 39.000
57.93255 41.000
57.95250 40.000
57.97244 41.000
57.99239 44.000
58.01234 39.000
58.03228 31.000
58.05223 31.000
58.07218 32.000
58.09212 40.000
58.11207 41.000
58.13202 48.000
58.15197 28.000
58.17191 34.000
58.19186 45.000
58.21181 51.000
58.23175 41.000
58.25170 54.000
58.27165 46.000
58.29159 46.000
58.31154 49.000
58.33149 43.000
58.35144 49.000
58.37138 65.000
58.39133 56.000
58.41128 57.000
58.43122 80.000
58.45117 105.000
58.47112 98.000
58.49106 154.000
58.51101 155.000
58.53096 190.000
58.55090 187.000
58.57085 171.000
58.59080 127.000
58.61075 122.000
58.63069 140.000
58.65064 109.000
58.67059 118.000
58.69053 125.000
58.71048 117.000
58.73043 111.000
58.75037 93.000
58.77032 82.000
58.79027 67.000
58.81022 67.000
58.83016 83.000
58.85011 64.000
58.87006 55.000
58.89000 72.000
58.90995 54.000
58.92990 58.000
58.94984 47.000
58.96979 39.000
58.98974 61.000
59.00969 52.000
59.02963 47.000
59.04958 54.000
59.06953 54.000
59.08947 44.000
59.10942 45.000
59.12937 49.000
59.14931 52.000
59.16926 51.000
59.18921 54.000
59.20915 43.000
59.22910 49.000
59.24905 37.000
59.26900 46.000
59.28894 52.000
59.30889 51.000
59.32884 37.000
59.34878 46.000
59.36873 63.000
59.38868 87.000
59.40862 73.000
59.42857 65.000
59.44852 73.000
59.46847 64.000
59.48841 62.000
59.50836 67.000
59.52831 80.000
59.54825 72.000
59.56820 70.000
59.58815 72.000
59.60809 77.000
59.62804 79.000
59.64799 68.000
59.66793 72.000
59.68788 86.000
59.70783 67.000
59.72778 65.000
59.74772 77.000
59.76767 76.000
59.78762 88.000
59.80756 114.000
59.82751 147.000
59.84746 142.000
59.86740 218.000
59.88735 241.000
59.90730 281.000
59.92725 305.000
59.94719 270.000
59.96714 246.000
59.98709 226.000
60.00703 215.000
60.02698 167.000
60.04693 194.000
60.06687 201.000
60.08682 174.000
60.10677 178.000
60.12671 137.000
60.14666 117.000
60.16661 90.000
60.18656 92.000
60.20650 88.000
60.22645 82.000
60.24640 61.000
60.26634 46.000
60.28629 60.000
60.30624 67.000
60.32618 50.000
60.34613 45.000
60.36608 50.000
60.38603 41.000
60.40597 46.000
60.42592 51.000
60.44587 43.000
60.46581 37.000
60.48576 48.000
60.50571 50.000
60.52565 48.000
60.54560 43.000
60.56555 44.000
60.58550 46.000
60.60544 63.000
60.62539 75.000
60.64534 78.000
60.66528 95.000
60.68523 101.000
60.70518 93.000
60.72512 79.000
60.74507 74.000
60.76502 67.000
60.78496 72.000
60.80491 72.000
60.82486 81.000
60.84481 85.000
60.86475 84.000
60.88470 54.000
60.90465 65.000
60.92459 58.000
60.94454 68.000
60.96449 51.000
60.98443 65.000
61.00438 49.000
61.02433 56.000
61.04428 57.000
61.06422 65.000
61.08417 79.000
61.10412 48.000
61.12406 82.000
61.14401 80.000
61.16396 91.000
61.18390 107.000
61.20385 70.000
61.22380 90.000
61.24374 108.000
61.26369 92.000
61.28364 70.000
61.30359 78.000
61.32353 74.000
61.34348 76.000
61.36343 71.000
61.38337 93.000
61.40332 62.000
61.42327 73.000
61.44321 68.000
61.46316 74.000
61.48311 54.000
61.50306 67.000
61.52300 65.000
61.54295 60.000
61.56290 63.000
61.58284 51.000
61.60279 47.000
61.62274 55.000
61.64268 57.000
61.66263 60.000
61.68258 51.000
61.70252 55.000
61.72247 43.000
61.74242 41.000
61.76237 49.000
61.78231 41.000
61.80226 49.000
61.82221 38.000
61.84215 44.000
61.86210 40.000
61.88205 44.000
61.90199 43.000
61.92194 29.000
61.94189 55.000
61.96184 44.000
61.98178 46.000
62.00173 51.000
62.02168 50.000
62.04162 54.000
62.06157 42.000
62.08152 74.000
62.10146 63.000
62.12141 60.000
62.14136 73.000
62.16131 70.000
62.18125 81.000
62.20120 104.000
62.22115 123.000
62.24109 114.000
62.26104 153.000
62.28099 131.000
62.30093 113.000
62.32088 107.000
62.34083 101.000
62.36077 89.000
62.38072 98.000
62.40067 93.000
62.42062 105.000
62.44056 83.000
62.46051 76.000
62.48046 93.000
62.50040 87.000
62.52035 73.000
62.54030 52.000
62.56024 64.000
62.58019 62.000
62.60014 56.000
62.62009 53.000
62.64003 49.000
62.65998 54.000
62.67993 52.000
62.69987 57.000
62.71982 57.000
62.73977 68.000
62.75971 54.000
62.77966 61.000
62.79961 85.000
62.81955 113.000
62.83950 130.000
62.85945 136.000
62.87940 131.000
62.89934 143.000
62.91929 108.000
62.93924 108.000
62.95918 122.000
62.97913 133.000
62.99908 142.000
63.01902 144.000
63.03897 185.000
63.05892 173.000
63.07887 235.000
63.09881 228.000
63.11876 218.000
63.13871 207.000
63.15865 179.000
63.17860 155.000
63.19855 136.000
63.21849 133.000
63.23844 137.000
63.25839 162.000
63.27833 155.000
63.29828 128.000
63.31823 111.000
63.33818 95.000
63.35812 81.000
63.37807 84.000
63.39802 62.000
63.41796 58.000
63.43791 63.000
63.45786 55.000
63.47780 50.000
63.49775 46.000
63.51770 49.000
63.53765 39.000
63.55759 39.000
63.57754 34.000
63.59749 41.000
63.61743 41.000
63.63738 43.000
63.65733 45.000
63.67727 39.000
63.69722 37.000
63.71717 42.000
63.73712 26.000
63.75706 44.000
63.77701 35.000
63.79696 28.000
63.81690 49.000
63.83685 37.000
63.85680 46.000
63.87674 43.000
63.89669 36.000
63.91664 66.000
63.93658 53.000
63.95653 44.000
63.97648 55.000
63.99643 47.000
64.01637 57.000
64.03632 68.000
64.05627 83.000
64.07621 79.000
64.09616 113.000
64.11611 127.000
64.13605 146.000
64.15600 155.000
64.17595 174.000
64.19590 141.000
64.21584 130.000
64.23579 109.000
64.25574 108.000
64.27568 98.000
64.29563 97.000
64.31558 125.000
64.33552 133.000
64.35547 113.000
64.37542 98.000
64.39536 96.000
64.41531 84.000
64.43526 108.000
64.45521 80.000
64.47515 77.000
64.49510 96.000
64.51505 95.000
64.53499 65.000
64.55494 92.000
64.57489 90.000
64.59483 109.000
64.61478 130.000
64.63473 157.000
64.65468 195.000
64.67462 172.000
64.69457 149.000
64.71452 124.000
64.73446 94.000
64.75441 77.000
64.77436 94.000
64.79430 81.000
64.81425 98.000
64.83420 101.000
64.85414 96.000
64.87409 89.000
64.89404 76.000
64.91399 56.000
64.93393 56.000
64.95388 54.000
64.97383 47.000
64.99377 52.000
65.01372 38.000
65.03367 44.000
65.05361 49.000
65.07356 30.000
65.09351 43.000
65.11346 27.000
65.13340 33.000
65.15335 25.000
65.17330 41.000
65.19324 48.000
65.21319 33.000
65.23314 38.000
65.25308 44.000
65.27303 54.000
65.29298 61.000
65.31293 52.000
65.33287 67.000
65.35282 51.000
65.37277 72.000
65.39271 48.000
65.41266 50.000
65.43261 44.000
65.45255 51.000
65.47250 45.000
65.49245 50.000
65.51239 42.000
65.53234 50.000
65.55229 51.000
65.57224 60.000
65.59218 56.000
65.61213 29.000
65.63208 51.000
65.65202 35.000
65.67197 45.000
65.69192 47.000
65.71186 48.000
65.73181 43.000
65.75176 46.000
65.77171 48.000
65.79165 45.000
65.81160 34.000
65.83155 45.000
65.85149 39.000
65.87144 41.000
65.89139 56.000
65.91133 40.000
65.93128 53.000
65.95123 54.000
65.97117 69.000
65.99112 69.000
66.01107 109.000
66.03102 129.000
66.05096 143.000
66.07091 176.000
66.09086 157.000
66.11080 146.000
66.13075 95.000
66.15070 89.000
66.17064 77.000
66.19059 69.000
66.21054 54.000
66.23049 101.000
66.25043 108.000
66.27038 112.000
66.29033 71.000
66.31027 60.000
66.33022 63.000
66.35017 46.000
66.37011 46.000
66.39006 40.000
66.41001 43.000
66.42995 44.000
66.44990 48.000
66.46985 42.000
66.48980 31.000
66.50974 43.000
66.52969 29.000
66.54964 38.000
66.56958 38.000
66.58953 31.000
66.60948 37.000
66.62942 40.000
66.64937 34.000
66.66932 33.000
66.68927 35.000
66.70921 40.000
66.72916 42.000
66.74911 38.000
66.76905 46.000
66.78900 42.000
66.80895 42.000
66.82889 36.000
66.84884 47.000
66.86879 46.000
66.88874 26.000
66.90868 44.000
66.92863 39.000
66.94858 46.000
66.96852 51.000
66.98847 56.000
67.00842 41.000
67.02836 49.000
67.04831 40.000
67.06826 46.000
67.08820 44.000
67.10815 46.000
67.12810 43.000
67.14805 35.000
67.16799 42.000
67.18794 43.000
67.20789 36.000
67.22783 36.000
67.24778 42.000
67.26773 38.000
67.28767 37.000
67.30762 30.000
67.32757 38.000
67.34752 40.000
67.36746 45.000
67.38741 39.000
67.40736 47.000
67.42730 33.000
67.44725 31.000
67.46720 25.000
67.48714 34.000
67.50709 32.000
67.52704 32.000
67.54698 32.000
67.56693 38.000
67.58688 42.000
67.60683 37.000
67.62677 42.000
67.64672 48.000
67.66667 34.000
67.68661 41.000
67.70656 43.000
67.72651 34.000
67.74645 48.000
67.76640 50.000
67.78635 49.000
67.80630 56.000
67.82624 50.000
67.84619 41.000
67.86614 45.000
67.88608 28.000
67.90603 49.000
67.92598 48.000
67.94592 43.000
67.96587 43.000
67.98582 40.000
68.00576 37.000
68.02571 37.000
68.04566 41.000
68.06561 31.000
68.08555 34.000
68.10550 27.000
68.12545 35.000
68.14539 30.000
68.16534 25.000
68.18529 33.000
68.20523 27.000
68.22518 24.000
68.24513 21.000
68.26508 33.000
68.28502 28.000
68.30497 25.000
68.32492 29.000
68.34486 34.000
68.36481 27.000
68.38476 25.000
68.40470 31.000
68.42465 29.000
68.44460 30.000
68.46455 32.000
68.48449 23.000
68.50444 29.000
68.52439 32.000
68.54433 44.000
68.56428 34.000
68.58423 40.000
68.60417 40.000
68.62412 45.000
68.64407 52.000
68.66401 44.000
68.68396 39.000
68.70391 25.000
68.72386 36.000
68.74380 22.000
68.76375 39.000
68.78370 38.000
68.80364 45.000
68.82359 54.000
68.84354 50.000
68.86348 57.000
68.88343 58.000
68.90338 45.000
68.92333 43.000
68.94327 37.000
68.96322 36.000
68.98317 44.000
69.00311 33.000
69.02306 40.000
69.04301 43.000
69.06295 36.000
69.08290 39.000
69.10285 29.000
69.12279 35.000
69.14274 28.000
69.16269 31.000
69.18264 35.000
69.20258 40.000
69.22253 31.000
69.24248 38.000
69.26242 30.000
69.28237 27.000
69.30232 31.000
69.32226 36.000
69.34221 19.000
69.36216 24.000
69.38211 32.000
69.40205 27.000
69.42200 29.000
69.44195 36.000
69.46189 28.000
69.48184 39.000
69.50179 44.000
69.52173 46.000
69.54168 39.000
69.56163 56.000
69.58157 59.000
69.60152 68.000
69.62147 67.000
69.64142 56.000
69.66136 69.000
69.68131 69.000
69.70126 77.000
69.72120 92.000
69.74115 109.000
69.76110 105.000
69.78104 94.000
69.80099 82.000
69.82094 66.000
69.84089 77.000
69.86083 53.000
69.88078 54.000
69.90073 53.000
69.92067 60.000
69.94062 55.000
69.96057 55.000
69.98051 60.000
70.00046 63.000
70.02041 49.000
70.04035 54.000
70.06030 48.000
70.08025 47.000
70.10020 41.000
70.12014 40.000
70.14009 36.000
70.16004 36.000
70.17998 36.000
70.19993 37.000
70.21988 30.000
70.23982 26.000
70.25977 37.000
70.27972 37.000
70.29967 24.000
70.31961 34.000
70.33956 31.000
70.35951 27.000
70.37945 26.000
70.39940 26.000
70.41935 21.000
70.43929 39.000
70.45924 32.000
70.47919 39.000
70.49914 31.000
70.51908 19.000
70.53903 25.000
70.55898 35.000
70.57892 32.000
70.59887 28.000
70.61882 32.000
70.63876 36.000
70.65871 41.000
70.67866 45.000
70.69860 29.000
70.71855 38.000
70.73850 45.000
70.75845 34.000
70.77839 29.000
70.79834 34.000
70.81829 44.000
70.83823 44.000
70.85818 33.000
70.87813 31.000
70.89807 33.000
70.91802 35.000
70.93797 34.000
70.95792 25.000
70.97786 35.000
70.99781 24.000
71.01776 18.000
71.03770 32.000
71.05765 21.000
71.07760 27.000
71.09754 30.000
71.11749 38.000
71.13744 29.000
71.15738 46.000
71.17733 35.000
71.19728 26.000
71.21723 31.000
71.23717 36.000
71.25712 34.000
71.27707 34.000
71.29701 26.000
71.31696 31.000
71.33691 26.000
71.35685 34.000
71.37680 37.000
71.39675 33.000
71.41670 29.000
71.43664 31.000
71.45659 35.000
71.47654 39.000
71.49648 36.000
71.51643 34.000
71.53638 28.000
71.55632 23.000
71.57627 29.000
71.59622 27.000
71.61616 24.000
71.63611 28.000
71.65606 37.000
71.67601 35.000
71.69595 42.000
71.71590 31.000
71.73585 40.000
71.75579 36.000
71.77574 34.000
71.79569 39.000
71.81563 30.000
71.83558 26.000
71.85553 49.000
71.87548 34.000
71.89542 34.000
71.91537 36.000
71.93532 33.000
71.95526 25.000
71.97521 35.000
71.99516 30.000
72.01510 26.000
72.03505 37.000
72.05500 30.000
72.07495 33.000
72.09489 41.000
72.11484 29.000
72.13479 34.000
72.15473 26.000
72.17468 39.000
72.19463 31.000
72.21457 34.000
72.23452 34.000
72.25447 36.000
72.27441 39.000
72.29436 41.000
72.31431 44.000
72.33426 48.000
72.35420 46.000
72.37415 48.000
72.39410 42.000
72.41404 49.000
72.43399 29.000
72.45394 35.000
72.47388 37.000
72.49383 28.000
72.51378 44.000
72.53373 36.000
72.55367 33.000
72.57362 27.000
72.59357 31.000
72.61351 48.000
72.63346 34.000
72.65341 34.000
72.67335 39.000
72.69330 37.000
72.71325 22.000
72.73319 33.000
72.75314 25.000
72.77309 25.000
72.79304 31.000
72.81298 23.000
72.83293 19.000
72.85288 23.000
72.87282 31.000
72.89277 19.000
72.91272 24.000
72.93266 31.000
72.95261 19.000
72.97256 23.000
72.99251 25.000
73.01245 19.000
73.03240 40.000
73.05235 23.000
73.07229 30.000
73.09224 21.000
73.11219 22.000
73.13213 25.000
73.15208 22.000
73.17203 23.000
73.19197 22.000
73.21192 29.000
73.23187 33.000
73.25182 22.000
73.27176 35.000
73.29171 23.000
73.31166 23.000
73.33160 22.000
73.35155 32.000
73.37150 34.000
73.39144 30.000
73.41139 33.000
73.43134 31.000
73.45129 34.000
73.47123 26.000
73.49118 34.000
73.51113 34.000
73.53107 34.000
73.55102 31.000
73.57097 35.000
73.59091 36.000
73.61086 45.000
73.63081 28.000
73.65076 36.000
73.67070 41.000
73.69065 39.000
73.71060 39.000
73.73054 42.000
73.75049 45.000
73.77044 38.000
73.79038 26.000
73.81033 40.000
73.83028 42.000
73.85022 55.000
73.87017 37.000
73.89012 38.000
73.91007 33.000
73.93001 45.000
73.94996 50.000
73.96991 43.000
73.98985 41.000
74.00980 38.000
74.02975 56.000
74.04969 40.000
74.06964 60.000
74.08959 45.000
74.10954 56.000
74.12948 62.000
74.14943 83.000
74.16938 100.000
74.18932 80.000
74.20927 64.000
74.22922 60.000
74.24916 54.000
74.26911 54.000
74.28906 38.000
74.30900 40.000
74.32895 56.000
74.34890 46.000
74.36885 53.000
74.38879 46.000
74.40874 40.000
74.42869 47.000
74.44863 41.000
74.46858 38.000
74.48853 34.000
74.50847 25.000
74.52842 38.000
74.54837 22.000
74.56832 20.000
74.58826 29.000
74.60821 40.000
74.62816 32.000
74.64810 26.000
74.66805 20.000
74.68800 31.000
74.70794 31.000
74.72789 20.000
74.74784 18.000
74.76778 20.000
74.78773 24.000
74.80768 18.000
74.82763 24.000
74.84757 22.000
74.86752 32.000
74.88747 31.000
74.90741 42.000
74.92736 46.000
74.94731 35.000
74.96725 33.000
74.98720 33.000
75.00715 31.000
75.02710 19.000
75.04704 25.000
75.06699 21.000
75.08694 29.000
75.10688 29.000
75.12683 24.000
75.14678 20.000
75.16672 37.000
75.18667 22.000
75.20662 31.000
75.22657 19.000
75.24651 25.000
75.26646 37.000
75.28641 27.000
75.30635 29.000
75.32630 21.000
75.34625 26.000
75.36619 24.000
75.38614 22.000
75.40609 21.000
75.42603 25.000
75.44598 33.000
75.46593 26.000
75.48588 22.000
75.50582 26.000
75.52577 31.000
75.54572 26.000
75.56566 30.000
75.58561 34.000
75.60556 33.000
75.62550 28.000
75.64545 15.000
75.66540 23.000
75.68535 27.000
75.70529 32.000
75.72524 19.000
75.74519 26.000
75.76513 32.000
75.78508 34.000
75.80503 18.000
75.82497 29.000
75.84492 17.000
75.86487 23.000
75.88481 16.000
75.90476 24.000
75.92471 20.000
75.94466 31.000
75.96460 32.000
75.98455 36.000
76.00450 37.000
76.02444 32.000
76.04439 22.000
76.06434 33.000
76.08428 41.000
76.10423 36.000
76.12418 30.000
76.14413 28.000
76.16407 42.000
76.18402 41.000
76.20397 30.000
76.22391 46.000
76.24386 34.000
76.26381 46.000
76.28375 63.000
76.30370 82.000
76.32365 90.000
76.34359 84.000
76.36354 85.000
76.38349 96.000
76.40344 98.000
76.42338 87.000
76.44333 97.000
76.46328 103.000
76.48322 100.000
76.50317 117.000
76.52312 82.000
76.54306 109.000
76.56301 87.000
76.58296 91.000
76.60291 87.000
76.62285 79.000
76.64280 79.000
76.66275 89.000
76.68269 66.000
76.70264 73.000
76.72259 69.000
76.74253 60.000
76.76248 59.000
76.78243 51.000
76.80238 46.000
76.82232 40.000
76.84227 54.000
76.86222 55.000
76.88216 44.000
76.90211 46.000
76.92206 42.000
76.94200 43.000
76.96195 33.000
76.98190 33.000
77.00184 28.000
77.02179 45.000
77.04174 33.000
77.06169 34.000
77.08163 45.000
77.10158 38.000
77.12153 33.000
77.14147 36.000
77.16142 40.000
77.18137 40.000
77.20131 38.000
77.22126 33.000
77.24121 37.000
77.26116 27.000
77.28110 32.000
77.30105 41.000
77.32100 30.000
77.34094 43.000
77.36089 30.000
77.38084 39.000
77.40078 33.000
77.42073 35.000
77.44068 38.000
77.46062 23.000
77.48057 50.000
77.50052 45.000
77.52047 49.000
77.54041 62.000
77.56036 40.000
77.58031 60.000
77.60025 54.000
77.62020 58.000
77.64015 57.000
77.66009 40.000
77.68004 54.000
77.69999 32.000
77.71994 37.000
77.73988 44.000
77.75983 30.000
77.77978 59.000
77.79972 50.000
77.81967 52.000
77.83962 37.000
77.85956 34.000
77.87951 51.000
77.89946 33.000
77.91940 38.000
77.93935 29.000
77.95930 33.000
77.97925 27.000
77.99919 38.000
78.01914 42.000
78.03909 53.000
78.05903 49.000
78.07898 32.000
78.09893 53.000
78.11887 38.000
78.13882 33.000
78.15877 28.000
78.17872 41.000
78.19866 28.000
78.21861 47.000
78.23856 30.000
78.25850 30.000
78.27845 49.000
78.29840 35.000
78.31834 28.000
78.33829 36.000
78.35824 38.000
78.37819 33.000
78.39813 38.000
78.41808 31.000
78.43803 37.000
78.45797 37.000
78.47792 28.000
78.49787 27.000
78.51781 17.000
78.53776 35.000
78.55771 26.000
78.57765 35.000
78.59760 13.000
78.61755 21.000
78.63750 19.000
78.65744 28.000
78.67739 31.000
78.69734 24.000
78.71728 35.000
78.73723 28.000
78.75718 23.000
78.77712 32.000
78.79707 32.000
78.81702 31.000
78.83697 33.000
78.85691 30.000
78.87686 27.000
78.89681 25.000
78.91675 25.000
78.93670 27.000
78.95665 34.000
78.97659 32.000
78.99654 25.000
79.01649 25.000
79.03643 30.000
79.05638 34.000
79.07633 22.000
79.09628 29.000
79.11622 21.000
79.13617 37.000
79.15612 22.000
79.17606 30.000
79.19601 33.000
79.21596 34.000
79.23590 40.000
79.25585 41.000
79.27580 33.000
79.29575 29.000
79.31569 37.000
79.33564 38.000
79.35559 34.000
79.37553 30.000
79.39548 25.000
79.41543 29.000
79.43537 28.000
79.45532 34.000
79.47527 40.000
79.49521 24.000
79.51516 30.000
79.53511 31.000
79.55506 35.000
79.57500 33.000
79.59495 20.000
79.61490 27.000
79.63484 26.000
79.65479 37.000
79.67474 29.000
79.69468 40.000
79.71463 31.000
79.73458 27.000
79.75453 28.000
79.77447 29.000
79.79442 24.000
79.81437 35.000
79.83431 30.000
79.85426 22.000
79.87421 25.000
79.89415 35.000
79.91410 34.000
79.93405 30.000
79.95399 34.000
79.97394 34.000
79.99389 32.000
80.01384 34.000
80.03378 21.000
80.05373 33.000
80.07368 23.000
80.09362 38.000
80.11357 34.000
80.13352 26.000
80.15346 38.000
80.17341 33.000
80.19336 40.000
80.21331 30.000
80.23325 49.000
80.25320 55.000
80.27315 43.000
80.29309 47.000
80.31304 39.000
80.33299 41.000
80.35293 36.000
80.37288 44.000
80.39283 45.000
80.41278 41.000
80.43272 35.000
80.45267 40.000
80.47262 58.000
80.49256 33.000
80.51251 39.000
80.53246 35.000
80.55240 45.000
80.57235 44.000
80.59230 44.000
80.61224 42.000
80.63219 36.000
80.65214 58.000
80.67209 53.000
80.69203 42.000
80.71198 39.000
80.73193 50.000
80.75187 48.000
80.77182 42.000
80.79177 37.000
80.81171 47.000
80.83166 45.000
80.85161 38.000
80.87156 45.000
80.89150 28.000
80.91145 40.000
80.93140 30.000
80.95134 26.000
80.97129 38.000
80.99124 31.000
81.01118 31.000
81.03113 30.000
81.05108 38.000
81.07102 46.000
81.09097 25.000
81.11092 14.000
81.13087 28.000
81.15081 33.000
81.17076 30.000
81.19071 31.000
81.21065 32.000
81.23060 44.000
81.25055 23.000
81.27049 24.000
81.29044 22.000
81.31039 24.000
81.33034 31.000
81.35028 30.000
81.37023 33.000
81.39018 24.000
81.41012 41.000
81.43007 23.000
81.45002 33.000
81.46996 31.000
81.48991 39.000
81.50986 31.000
81.52980 27.000
81.54975 18.000
81.56970 41.000
81.58965 27.000
81.60959 35.000
81.62954 35.000
81.64949 43.000
81.66943 28.000
81.68938 32.000
81.70933 34.000
81.72927 33.000
81.74922 27.000
81.76917 19.000
81.78912 30.000
81.80906 27.000
81.82901 19.000
81.84896 24.000
81.86890 16.000
81.88885 22.000
81.90880 28.000
81.92874 22.000
81.94869 21.000
81.96864 31.000
81.98859 26.000
82.00853 21.000
82.02848 24.000
82.04843 20.000
82.06837 24.000
82.08832 24.000
82.10827 26.000
82.12821 12.000
82.14816 20.000
82.16811 17.000
82.18805 29.000
82.20800 19.000
82.22795 26.000
82.24790 30.000
82.26784 21.000
82.28779 26.000
82.30774 29.000
82.32768 27.000
82.34763 44.000
82.36758 25.000
82.38752 24.000
82.40747 28.000
82.42742 20.000
82.44737 29.000
82.46731 26.000
82.48726 20.000
82.50721 21.000
82.52715 25.000
82.54710 26.000
82.56705 25.000
82.58699 30.000
82.60694 26.000
82.62689 20.000
82.64683 27.000
82.66678 32.000
82.68673 33.000
82.70668 20.000
82.72662 21.000
82.74657 22.000
82.76652 27.000
82.78646 13.000
82.80641 31.000
82.82636 31.000
82.84630 26.000
82.86625 33.000
82.88620 28.000
82.90615 34.000
82.92609 50.000
82.94604 38.000
82.96599 35.000
82.98593 40.000
83.00588 30.000
83.02583 44.000
83.04577 40.000
83.06572 41.000
83.08567 25.000
83.10561 29.000
83.12556 39.000
83.14551 36.000
83.16546 31.000
83.18540 34.000
83.20535 25.000
83.22530 30.000
83.24524 29.000
83.26519 30.000
83.28514 36.000
83.30508 43.000
83.32503 36.000
83.34498 31.000
83.36493 24.000
83.38487 24.000
83.40482 19.000
83.42477 24.000
83.44471 30.000
83.46466 34.000
83.48461 30.000
83.50455 19.000
83.52450 26.000
83.54445 29.000
83.56440 25.000
83.58434 25.000
83.60429 33.000
83.62424 21.000
83.64418 32.000
83.66413 32.000
83.68408 34.000
83.70402 25.000
83.72397 23.000
83.74392 27.000
83.76386 27.000
83.78381 29.000
83.80376 25.000
83.82371 21.000
83.84365 38.000
83.86360 27.000
83.88355 36.000
83.90349 40.000
83.92344 28.000
83.94339 43.000
83.96333 37.000
83.98328 26.000
84.00323 38.000
84.02318 36.000
84.04312 35.000
84.06307 35.000
84.08302 35.000
84.10296 30.000
84.12291 25.000
84.14286 24.000
84.16280 27.000
84.18275 28.000
84.20270 26.000
84.22264 31.000
84.24259 29.000
84.26254 31.000
84.28249 47.000
84.30243 35.000
84.32238 18.000
84.34233 19.000
84.36227 25.000
84.38222 24.000
84.40217 22.000
84.42211 19.000
84.44206 17.000
84.46201 18.000
84.48196 17.000
84.50190 22.000
84.52185 13.000
84.54180 27.000
84.56174 31.000
84.58169 35.000
84.60164 22.000
84.62158 23.000
84.64153 27.000
84.66148 19.000
84.68142 24.000
84.70137 27.000
84.72132 26.000
84.74127 31.000
84.76121 25.000
84.78116 34.000
84.80111 37.000
84.82105 53.000
84.84100 39.000
84.86095 33.000
84.88089 35.000
84.90084 32.000
84.92079 38.000
84.94074 34.000
84.96068 40.000
84.98063 28.000
85.00058 39.000
85.02052 19.000
85.04047 28.000
85.06042 36.000
85.08036 25.000
85.10031 38.000
85.12026 24.000
85.14021 24.000
85.16015 32.000
85.18010 35.000
85.20005 31.000
85.21999 26.000
85.23994 21.000
85.25989 27.000
85.27983 24.000
85.29978 27.000
85.31973 23.000
85.33967 24.000
85.35962 23.000
85.37957 31.000
85.39952 18.000
85.41946 28.000
85.43941 28.000
85.45936 22.000
85.47930 25.000
85.49925 19.000
85.51920 29.000
85.53914 25.000
85.55909 28.000
85.57904 22.000
85.59899 23.000
85.61893 31.000
85.63888 21.000
85.65883 26.000
85.67877 21.000
85.69872 36.000
85.71867 36.000
85.73861 27.000
85.75856 31.000
85.77851 30.000
85.79845 40.000
85.81840 24.000
85.83835 32.000
85.85830 32.000
85.87824 36.000
85.89819 36.000
85.91814 30.000
85.93808 33.000
85.95803 28.000
85.97798 26.000
85.99792 25.000
86.01787 32.000
86.03782 30.000
86.05777 32.000
86.07771 30.000
86.09766 24.000
86.11761 21.000
86.13755 23.000
86.15750 30.000
86.17745 31.000
86.19739 27.000
86.21734 32.000
86.23729 26.000
86.25723 26.000
86.27718 26.000
86.29713 18.000
86.31708 33.000
86.33702 25.000
86.35697 19.000
86.37692 26.000
86.39686 29.000
86.41681 36.000
86.43676 33.000
86.45670 41.000
86.47665 29.000
86.49660 46.000
86.51655 39.000
86.53649 56.000
86.55644 57.000
86.57639 57.000
86.59633 52.000
86.61628 58.000
86.63623 45.000
86.65617 54.000
86.67612 41.000
86.69607 37.000
86.71602 32.000
86.73596 44.000
86.75591 42.000
86.77586 43.000
86.79580 28.000
86.81575 30.000
86.83570 41.000
86.85564 29.000
86.87559 32.000
86.89554 41.000
86.91548 28.000
86.93543 40.000
86.95538 26.000
86.97533 36.000
86.99527 35.000
87.01522 36.000
87.03517 27.000
87.05511 34.000
87.07506 24.000
87.09501 30.000
87.11495 22.000
87.13490 24.000
87.15485 16.000
87.17480 29.000
87.19474 19.000
87.21469 22.000
87.23464 26.000
87.25458 27.000
87.27453 25.000
87.29448 29.000
87.31442 30.000
87.33437 26.000
87.35432 27.000
87.37426 15.000
87.39421 21.000
87.41416 27.000
87.43411 16.000
87.45405 21.000
87.47400 18.000
87.49395 26.000
87.51389 20.000
87.53384 20.000
87.55379 18.000
87.57373 23.000
87.59368 16.000
87.61363 24.000
87.63358 18.000
87.65352 20.000
87.67347 21.000
87.69342 28.000
87.71336 26.000
87.73331 22.000
87.75326 20.000
87.77320 25.000
87.79315 26.000
87.81310 24.000
87.83304 19.000
87.85299 25.000
87.87294 29.000
87.89289 20.000
87.91283 27.000
87.93278 26.000
87.95273 27.000
87.97267 16.000
87.99262 23.000
88.01257 31.000
88.03251 27.000
88.05246 23.000
88.07241 22.000
88.09236 22.000
88.11230 26.000
88.13225 25.000
88.15220 21.000
88.17214 21.000
88.19209 21.000
88.21204 27.000
88.23198 20.000
88.25193 26.000
88.27188 23.000
88.29183 21.000
88.31177 19.000
88.33172 21.000
88.35167 19.000
88.37161 23.000
88.39156 17.000
88.41151 34.000
88.43145 15.000
88.45140 21.000
88.47135 17.000
88.49129 28.000
88.51124 28.000
88.53119 18.000
88.55114 25.000
88.57108 22.000
88.59103 18.000
88.61098 16.000
88.63092 23.000
88.65087 19.000
88.67082 19.000
88.69076 33.000
88.71071 20.000
88.73066 21.000
88.75061 17.000
88.77055 26.000
88.79050 23.000
88.81045 20.000
88.83039 12.000
88.85034 24.000
88.87029 17.000
88.89023 22.000
88.91018 18.000
88.93013 28.000
88.95007 33.000
88.97002 31.000
88.98997 25.000
89.00992 24.000
89.02986 18.000
89.04981 32.000
89.06976 35.000
89.08970 29.000
89.10965 21.000
89.12960 33.000
89.14954 27.000
89.16949 25.000
89.18944 21.000
89.20939 27.000
89.22933 30.000
89.24928 28.000
89.26923 28.000
89.28917 27.000
89.30912 35.000
89.32907 45.000
89.34901 34.000
89.36896 38.000
89.38891 46.000
89.40885 47.000
89.42880 40.000
89.44875 43.000
89.46870 48.000
89.48864 49.000
89.50859 38.000
89.52854 26.000
89.54848 25.000
89.56843 32.000
89.58838 41.000
89.60832 32.000
89.62827 27.000
89.64822 32.000
89.66817 48.000
89.68811 49.000
89.70806 31.000
89.72801 57.000
89.74795 48.000
89.76790 50.000
89.78785 40.000
89.80779 42.000
89.82774 43.000
89.84769 25.000
89.86764 34.000
89.88758 27.000
89.90753 35.000
89.92748 37.000
89.94742 31.000
89.96737 26.000
89.98732 20.000
90.00726 21.000
