10.00000 234.000
10.01995 233.000
10.03989 232.000
10.05984 245.000
10.07979 262.000
10.09973 225.000
10.11968 267.000
10.13963 242.000
10.15958 230.000
10.17952 259.000
10.19947 239.000
10.21942 269.000
10.23936 237.000
10.25931 240.000
10.27926 242.000
10.29920 271.000
10.31915 246.000
10.33910 227.000
10.35905 258.000
10.37899 262.000
10.39894 222.000
10.41889 242.000
10.43883 239.000
10.45878 259.000
10.47873 269.000
10.49867 236.000
10.51862 250.000
10.53857 250.000
10.55851 260.000
10.57846 206.000
10.59841 252.000
10.61836 250.000
10.63830 231.000
10.65825 242.000
10.67820 234.000
10.69814 229.000
10.71809 247.000
10.73804 238.000
10.75798 251.000
10.77793 233.000
10.79788 240.000
10.81783 249.000
10.83777 243.000
10.85772 274.000
10.87767 227.000
10.89761 262.000
10.91756 282.000
10.93751 234.000
10.95745 251.000
10.97740 240.000
10.99735 255.000
11.01730 253.000
11.03724 255.000
11.05719 253.000
11.07714 263.000
11.09708 259.000
11.11703 250.000
11.13698 241.000
11.15692 232.000
11.17687 255.000
11.19682 266.000
11.21676 236.000
11.23671 238.000
11.25666 291.000
11.27661 240.000
11.29655 259.000
11.31650 227.000
11.33645 241.000
11.35639 218.000
11.37634 241.000
11.39629 226.000
11.41623 283.000
11.43618 260.000
11.45613 233.000
11.47608 240.000
11.49602 255.000
11.51597 237.000
11.53592 248.000
11.55586 201.000
11.57581 237.000
11.59576 227.000
11.61570 259.000
11.63565 232.000
11.65560 226.000
11.67554 224.000
11.69549 242.000
11.71544 238.000
11.73539 245.000
11.75533 242.000
11.77528 250.000
11.79523 254.000
11.81517 225.000
11.83512 229.000
11.85507 241.000
11.87501 267.000
11.89496 266.000
11.91491 277.000
11.93486 241.000
11.95480 247.000
11.97475 263.000
11.99470 291.000
12.01464 243.000
12.03459 239.000
12.05454 266.000
12.07448 262.000
12.09443 234.000
12.11438 243.000
12.13432 272.000
12.15427 251.000
12.17422 264.000
12.19417 263.000
12.21411 224.000
12.23406 254.000
12.25401 242.000
12.27395 259.000
12.29390 245.000
12.31385 228.000
12.33379 250.000
12.35374 264.000
12.37369 253.000
12.39364 235.000
12.41358 212.000
12.43353 237.000
12.45348 266.000
12.47342 237.000
12.49337 269.000
12.51332 253.000
12.53326 224.000
12.55321 252.000
12.57316 240.000
12.59311 234.000
12.61305 278.000
12.63300 233.000
12.65295 231.000
12.67289 235.000
12.69284 258.000
12.71279 245.000
12.73273 240.000
12.75268 269.000
12.77263 236.000
12.79257 225.000
12.81252 246.000
12.83247 257.000
12.85242 218.000
12.87236 240.000
12.89231 236.000
12.91226 239.000
12.93220 261.000
12.95215 238.000
12.97210 250.000
12.99204 246.000
13.01199 238.000
13.03194 217.000
13.05189 230.000
13.07183 245.000
13.09178 232.000
13.11173 258.000
13.13167 259.000
13.15162 228.000
13.17157 219.000
13.19151 255.000
13.21146 250.000
13.23141 225.000
13.25135 221.000
13.27130 240.000
13.29125 245.000
13.31120 253.000
13.33114 241.000
13.35109 240.000
13.37104 237.000
13.39098 242.000
13.41093 233.000
13.43088 258.000
13.45082 246.000
13.47077 254.000
13.49072 223.000
13.51067 243.000
13.53061 245.000
13.55056 233.000
13.57051 248.000
13.59045 237.000
13.61040 205.000
13.63035 215.000
13.65029 226.000
13.67024 244.000
13.69019 224.000
13.71013 240.000
13.73008 246.000
13.75003 263.000
13.76998 244.000
13.78992 220.000
13.80987 253.000
13.82982 255.000
13.84976 227.000
13.86971 257.000
13.88966 230.000
13.90960 224.000
13.92955 263.000
13.94950 230.000
13.96945 248.000
13.98939 229.000
14.00934 224.000
14.02929 226.000
14.04923 222.000
14.06918 252.000
14.08913 232.000
14.10907 249.000
14.12902 247.000
14.14897 222.000
14.16892 264.000
14.18886 225.000
14.20881 244.000
14.22876 231.000
14.24870 235.000
14.26865 213.000
14.28860 240.000
14.30854 225.000
14.32849 249.000
14.34844 223.000
14.36838 238.000
14.38833 240.000
14.40828 204.000
14.42823 231.000
14.44817 255.000
14.46812 265.000
14.48807 257.000
14.50801 227.000
14.52796 231.000
14.54791 233.000
14.56785 229.000
14.58780 219.000
14.60775 247.000
14.62770 242.000
14.64764 247.000
14.66759 247.000
14.68754 207.000
14.70748 223.000
14.72743 237.000
14.74738 219.000
14.76732 232.000
14.78727 259.000
14.80722 219.000
14.82716 211.000
14.84711 222.000
14.86706 238.000
14.88701 203.000
14.90695 245.000
14.92690 264.000
14.94685 237.000
14.96679 228.000
14.98674 207.000
15.00669 242.000
15.02663 256.000
15.04658 224.000
15.06653 238.000
15.08648 255.000
15.10642 264.000
15.12637 230.000
15.14632 232.000
15.16626 252.000
15.18621 220.000
15.20616 213.000
15.22610 261.000
15.24605 245.000
15.26600 212.000
15.28594 235.000
15.30589 222.000
15.32584 250.000
15.34579 230.000
15.36573 254.000
15.38568 229.000
15.40563 264.000
15.42557 224.000
15.44552 247.000
15.46547 237.000
15.48541 237.000
15.50536 209.000
15.52531 265.000
15.54526 243.000
15.56520 220.000
15.58515 227.000
15.60510 233.000
15.62504 269.000
15.64499 275.000
15.66494 232.000
15.68488 240.000
15.70483 242.000
15.72478 270.000
15.74472 245.000
15.76467 228.000
15.78462 239.000
15.80457 245.000
15.82451 240.000
15.84446 228.000
15.86441 227.000
15.88435 208.000
15.90430 264.000
15.92425 265.000
15.94419 253.000
15.96414 242.000
15.98409 260.000
16.00404 257.000
16.02398 244.000
16.04393 223.000
16.06388 254.000
16.08382 252.000
16.10377 212.000
16.12372 240.000
16.14366 260.000
16.16361 222.000
16.18356 225.000
16.20351 267.000
16.22345 233.000
16.24340 251.000
16.26335 241.000
16.28329 233.000
16.30324 235.000
16.32319 226.000
16.34313 281.000
16.36308 253.000
16.38303 259.000
16.40297 244.000
16.42292 244.000
16.44287 252.000
16.46282 241.000
16.48276 250.000
16.50271 246.000
16.52266 243.000
16.54260 239.000
16.56255 262.000
16.58250 233.000
16.60244 267.000
16.62239 222.000
16.64234 245.000
16.66229 230.000
16.68223 255.000
16.70218 225.000
16.72213 224.000
16.74207 243.000
16.76202 230.000
16.78197 273.000
16.80191 252.000
16.82186 254.000
16.84181 299.000
16.86175 234.000
16.88170 255.000
16.90165 249.000
16.92160 256.000
16.94154 232.000
16.96149 253.000
16.98144 244.000
17.00138 239.000
17.02133 240.000
17.04128 265.000
17.06122 248.000
17.08117 267.000
17.10112 271.000
17.12107 247.000
17.14101 246.000
17.16096 258.000
17.18091 238.000
17.20085 234.000
17.22080 243.000
17.24075 257.000
17.26069 226.000
17.28064 252.000
17.30059 233.000
17.32053 247.000
17.34048 259.000
17.36043 232.000
17.38038 201.000
17.40032 268.000
17.42027 228.000
17.44022 248.000
17.46016 250.000
17.48011 246.000
17.50006 224.000
17.52000 241.000
17.53995 247.000
17.55990 239.000
17.57985 231.000
17.59979 234.000
17.61974 223.000
17.63969 247.000
17.65963 256.000
17.67958 221.000
17.69953 244.000
17.71947 252.000
17.73942 227.000
17.75937 238.000
17.77932 247.000
17.79926 260.000
17.81921 206.000
17.83916 238.000
17.85910 259.000
17.87905 251.000
17.89900 227.000
17.91894 213.000
17.93889 250.000
17.95884 246.000
17.97878 221.000
17.99873 221.000
18.01868 244.000
18.03863 247.000
18.05857 225.000
18.07852 226.000
18.09847 225.000
18.11841 263.000
18.13836 235.000
18.15831 221.000
18.17825 246.000
18.19820 227.000
18.21815 252.000
18.23810 202.000
18.25804 253.000
18.27799 235.000
18.29794 209.000
18.31788 246.000
18.33783 218.000
18.35778 238.000
18.37772 234.000
18.39767 227.000
18.41762 226.000
18.43756 251.000
18.45751 220.000
18.47746 232.000
18.49741 228.000
18.51735 246.000
18.53730 238.000
18.55725 210.000
18.57719 252.000
18.59714 227.000
18.61709 267.000
18.63703 233.000
18.65698 224.000
18.67693 218.000
18.69688 251.000
18.71682 222.000
18.73677 246.000
18.75672 252.000
18.77666 229.000
18.79661 235.000
18.81656 228.000
18.83650 249.000
18.85645 248.000
18.87640 243.000
18.89634 235.000
18.91629 216.000
18.93624 248.000
18.95619 228.000
18.97613 220.000
18.99608 226.000
19.01603 223.000
19.03597 244.000
19.05592 242.000
19.07587 269.000
19.09581 245.000
19.11576 251.000
19.13571 243.000
19.15566 225.000
19.17560 229.000
19.19555 247.000
19.21550 218.000
19.23544 253.000
19.25539 236.000
19.27534 236.000
19.29528 249.000
19.31523 237.000
19.33518 272.000
19.35513 226.000
19.37507 248.000
19.39502 241.000
19.41497 249.000
19.43491 235.000
19.45486 242.000
19.47481 283.000
19.49475 255.000
19.51470 246.000
19.53465 232.000
19.55459 241.000
19.57454 223.000
19.59449 262.000
19.61444 241.000
19.63438 256.000
19.65433 253.000
19.67428 255.000
19.69422 228.000
19.71417 287.000
19.73412 277.000
19.75406 275.000
19.77401 251.000
19.79396 272.000
19.81391 270.000
19.83385 281.000
19.85380 339.000
19.87375 349.000
19.89369 468.000
19.91364 626.000
19.93359 919.000
19.95353 1098.000
19.97348 980.000
19.99343 775.000
20.01337 786.000
20.03332 657.000
20.05327 654.000
20.07322 586.000
20.09316 523.000
20.11311 485.000
20.13306 425.000
20.15300 382.000
20.17295 395.000
20.19290 303.000
20.21284 308.000
20.23279 356.000
20.25274 333.000
20.27269 296.000
20.29263 269.000
20.31258 294.000
20.33253 316.000
20.35247 300.000
20.37242 303.000
20.39237 292.000
20.41231 339.000
20.43226 325.000
20.45221 378.000
20.47215 441.000
20.49210 462.000
20.51205 507.000
20.53200 650.000
20.55194 726.000
20.57189 1016.000
20.59184 1371.000
20.61178 1702.000
20.63173 1961.000
20.65168 1771.000
20.67162 1556.000
20.69157 1390.000
20.71152 1008.000
20.73147 776.000
20.75141 636.000
20.77136 544.000
20.79131 481.000
20.81125 452.000
20.83120 382.000
20.85115 357.000
20.87109 377.000
20.89104 364.000
20.91099 400.000
20.93094 349.000
20.95088 348.000
20.97083 328.000
20.99078 306.000
21.01072 286.000
21.03067 302.000
21.05062 311.000
21.07056 264.000
21.09051 277.000
21.11046 279.000
21.13040 237.000
21.15035 257.000
21.17030 239.000
21.19025 258.000
21.21019 255.000
21.23014 217.000
21.25009 244.000
21.27003 257.000
21.28998 250.000
21.30993 251.000
21.32987 248.000
21.34982 261.000
21.36977 222.000
21.38972 264.000
21.40966 229.000
21.42961 242.000
21.44956 220.000
21.46950 270.000
21.48945 242.000
21.50940 236.000
21.52934 252.000
21.54929 251.000
21.56924 197.000
21.58918 252.000
21.60913 257.000
21.62908 249.000
21.64903 236.000
21.66897 245.000
21.68892 248.000
21.70887 238.000
21.72881 248.000
21.74876 250.000
21.76871 262.000
21.78865 223.000
21.80860 264.000
21.82855 248.000
21.84850 242.000
21.86844 264.000
21.88839 231.000
21.90834 259.000
21.92828 229.000
21.94823 279.000
21.96818 274.000
21.98812 233.000
22.00807 220.000
22.02802 242.000
22.04796 215.000
22.06791 240.000
22.08786 232.000
22.10781 233.000
22.12775 226.000
22.14770 223.000
22.16765 259.000
22.18759 239.000
22.20754 257.000
22.22749 244.000
22.24743 243.000
22.26738 247.000
22.28733 257.000
22.30728 273.000
22.32722 234.000
22.34717 241.000
22.36712 242.000
22.38706 231.000
22.40701 219.000
22.42696 235.000
22.44690 222.000
22.46685 243.000
22.48680 265.000
22.50675 253.000
22.52669 234.000
22.54664 246.000
22.56659 227.000
22.58653 240.000
22.60648 226.000
22.62643 226.000
22.64637 266.000
22.66632 264.000
22.68627 246.000
22.70621 231.000
22.72616 219.000
22.74611 259.000
22.76606 215.000
22.78600 292.000
22.80595 235.000
22.82590 213.000
22.84584 243.000
22.86579 215.000
22.88574 241.000
22.90568 239.000
22.92563 229.000
22.94558 200.000
22.96553 228.000
22.98547 263.000
23.00542 224.000
23.02537 233.000
23.04531 228.000
23.06526 223.000
23.08521 272.000
23.10515 261.000
23.12510 222.000
23.14505 267.000
23.16499 229.000
23.18494 253.000
23.20489 222.000
23.22484 238.000
23.24478 242.000
23.26473 241.000
23.28468 241.000
23.30462 238.000
23.32457 249.000
23.34452 239.000
23.36446 213.000
23.38441 256.000
23.40436 256.000
23.42431 212.000
23.44425 259.000
23.46420 242.000
23.48415 238.000
23.50409 257.000
23.52404 227.000
23.54399 273.000
23.56393 247.000
23.58388 271.000
23.60383 232.000
23.62377 219.000
23.64372 229.000
23.66367 258.000
23.68362 229.000
23.70356 246.000
23.72351 245.000
23.74346 247.000
23.76340 206.000
23.78335 259.000
23.80330 237.000
23.82324 271.000
23.84319 245.000
23.86314 244.000
23.88309 238.000
23.90303 249.000
23.92298 234.000
23.94293 263.000
23.96287 229.000
23.98282 235.000
24.00277 239.000
24.02271 240.000
24.04266 247.000
24.06261 229.000
24.08256 247.000
24.10250 263.000
24.12245 245.000
24.14240 248.000
24.16234 256.000
24.18229 261.000
24.20224 249.000
24.22218 242.000
24.24213 243.000
24.26208 251.000
24.28202 243.000
24.30197 260.000
24.32192 242.000
24.34187 224.000
24.36181 275.000
24.38176 233.000
24.40171 247.000
24.42165 245.000
24.44160 259.000
24.46155 299.000
24.48149 242.000
24.50144 248.000
24.52139 243.000
24.54134 258.000
24.56128 257.000
24.58123 228.000
24.60118 266.000
24.62112 263.000
24.64107 281.000
24.66102 270.000
24.68096 278.000
24.70091 237.000
24.72086 252.000
24.74080 255.000
24.76075 271.000
24.78070 253.000
24.80065 261.000
24.82059 277.000
24.84054 247.000
24.86049 244.000
24.88043 245.000
24.90038 289.000
24.92033 245.000
24.94027 265.000
24.96022 270.000
24.98017 257.000
25.00012 287.000
25.02006 263.000
25.04001 248.000
25.05996 277.000
25.07990 269.000
25.09985 255.000
25.11980 255.000
25.13974 234.000
25.15969 245.000
25.17964 226.000
25.19958 255.000
25.21953 261.000
25.23948 251.000
25.25943 237.000
25.27937 227.000
25.29932 263.000
25.31927 231.000
25.33921 260.000
25.35916 237.000
25.37911 252.000
25.39905 249.000
25.41900 225.000
25.43895 256.000
25.45890 257.000
25.47884 246.000
25.49879 251.000
25.51874 236.000
25.53868 253.000
25.55863 256.000
25.57858 214.000
25.59852 265.000
25.61847 226.000
25.63842 235.000
25.65837 233.000
25.67831 252.000
25.69826 259.000
25.71821 238.000
25.73815 254.000
25.75810 251.000
25.77805 254.000
25.79799 247.000
25.81794 261.000
25.83789 233.000
25.85783 272.000
25.87778 299.000
25.89773 275.000
25.91768 312.000
25.93762 358.000
25.95757 365.000
25.97752 358.000
25.99746 323.000
26.01741 326.000
26.03736 390.000
26.05730 347.000
26.07725 300.000
26.09720 312.000
26.11715 297.000
26.13709 295.000
26.15704 289.000
26.17699 267.000
26.19693 252.000
26.21688 294.000
26.23683 265.000
26.25677 264.000
26.27672 284.000
26.29667 251.000
26.31661 237.000
26.33656 240.000
26.35651 295.000
26.37646 265.000
26.39640 263.000
26.41635 282.000
26.43630 250.000
26.45624 264.000
26.47619 231.000
26.49614 228.000
26.51608 266.000
26.53603 276.000
26.55598 258.000
26.57593 259.000
26.59587 267.000
26.61582 287.000
26.63577 248.000
26.65571 243.000
26.67566 247.000
26.69561 263.000
26.71555 257.000
26.73550 280.000
26.75545 240.000
26.77539 253.000
26.79534 275.000
26.81529 276.000
26.83524 244.000
26.85518 282.000
26.87513 256.000
26.89508 249.000
26.91502 251.000
26.93497 248.000
26.95492 233.000
26.97486 266.000
26.99481 259.000
27.01476 268.000
27.03471 254.000
27.05465 234.000
27.07460 271.000
27.09455 224.000
27.11449 260.000
27.13444 290.000
27.15439 257.000
27.17433 259.000
27.19428 247.000
27.21423 251.000
27.23417 255.000
27.25412 248.000
27.27407 267.000
27.29402 244.000
27.31396 266.000
27.33391 253.000
27.35386 252.000
27.37380 227.000
27.39375 289.000
27.41370 248.000
27.43364 252.000
27.45359 227.000
27.47354 236.000
27.49349 268.000
27.51343 267.000
27.53338 273.000
27.55333 278.000
27.57327 260.000
27.59322 274.000
27.61317 257.000
27.63311 234.000
27.65306 252.000
27.67301 235.000
27.69296 268.000
27.71290 265.000
27.73285 269.000
27.75280 234.000
27.77274 267.000
27.79269 235.000
27.81264 258.000
27.83258 269.000
27.85253 272.000
27.87248 282.000
27.89242 271.000
27.91237 269.000
27.93232 248.000
27.95227 264.000
27.97221 265.000
27.99216 273.000
28.01211 250.000
28.03205 256.000
28.05200 242.000
28.07195 235.000
28.09189 265.000
28.11184 257.000
28.13179 247.000
28.15174 250.000
28.17168 266.000
28.19163 274.000
28.21158 269.000
28.23152 250.000
28.25147 283.000
28.27142 259.000
28.29136 251.000
28.31131 243.000
28.33126 243.000
28.35120 281.000
28.37115 300.000
28.39110 258.000
28.41105 270.000
28.43099 270.000
28.45094 275.000
28.47089 249.000
28.49083 271.000
28.51078 264.000
28.53073 270.000
28.55067 263.000
28.57062 259.000
28.59057 258.000
28.61052 255.000
28.63046 260.000
28.65041 297.000
28.67036 272.000
28.69030 261.000
28.71025 238.000
28.73020 256.000
28.75014 246.000
28.77009 272.000
28.79004 271.000
28.80998 273.000
28.82993 245.000
28.84988 236.000
28.86983 270.000
28.88977 289.000
28.90972 281.000
28.92967 283.000
28.94961 263.000
28.96956 247.000
28.98951 275.000
29.00945 252.000
29.02940 254.000
29.04935 262.000
29.06930 276.000
29.08924 257.000
29.10919 274.000
29.12914 276.000
29.14908 264.000
29.16903 279.000
29.18898 254.000
29.20892 309.000
29.22887 318.000
29.24882 255.000
29.26877 316.000
29.28871 304.000
29.30866 325.000
29.32861 331.000
29.34855 361.000
29.36850 364.000
29.38845 396.000
29.40839 419.000
29.42834 466.000
29.44829 566.000
29.46823 723.000
29.48818 991.000
29.50813 1156.000
29.52808 1134.000
29.54802 1024.000
29.56797 920.000
29.58792 903.000
29.60786 762.000
29.62781 591.000
29.64776 471.000
29.66770 399.000
29.68765 353.000
29.70760 308.000
29.72755 320.000
29.74749 301.000
29.76744 270.000
29.78739 272.000
29.80733 303.000
29.82728 267.000
29.84723 268.000
29.86717 280.000
29.88712 275.000
29.90707 278.000
29.92701 293.000
29.94696 277.000
29.96691 274.000
29.98686 273.000
30.00680 272.000
30.02675 298.000
30.04670 303.000
30.06664 303.000
30.08659 259.000
30.10654 284.000
30.12648 280.000
30.14643 282.000
30.16638 310.000
30.18633 287.000
30.20627 292.000
30.22622 270.000
30.24617 280.000
30.26611 273.000
30.28606 303.000
30.30601 275.000
30.32595 270.000
30.34590 299.000
30.36585 283.000
30.38579 286.000
30.40574 278.000
30.42569 283.000
30.44564 259.000
30.46558 250.000
30.48553 281.000
30.50548 278.000
30.52542 289.000
30.54537 276.000
30.56532 267.000
30.58526 264.000
30.60521 275.000
30.62516 238.000
30.64511 279.000
30.66505 276.000
30.68500 302.000
30.70495 289.000
30.72489 271.000
30.74484 274.000
30.76479 265.000
30.78473 251.000
30.80468 264.000
30.82463 308.000
30.84458 292.000
30.86452 277.000
30.88447 283.000
30.90442 274.000
30.92436 284.000
30.94431 281.000
30.96426 292.000
30.98420 294.000
31.00415 256.000
31.02410 270.000
31.04404 293.000
31.06399 264.000
31.08394 245.000
31.10389 280.000
31.12383 289.000
31.14378 266.000
31.16373 259.000
31.18367 261.000
31.20362 280.000
31.22357 306.000
31.24351 300.000
31.26346 282.000
31.28341 288.000
31.30336 270.000
31.32330 285.000
31.34325 295.000
31.36320 301.000
31.38314 309.000
31.40309 317.000
31.42304 379.000
31.44298 436.000
31.46293 540.000
31.48288 732.000
31.50282 665.000
31.52277 550.000
31.54272 578.000
31.56267 562.000
31.58261 520.000
31.60256 485.000
31.62251 406.000
31.64245 379.000
31.66240 356.000
31.68235 305.000
31.70229 329.000
31.72224 297.000
31.74219 334.000
31.76214 353.000
31.78208 402.000
31.80203 417.000
31.82198 472.000
31.84192 422.000
31.86187 412.000
31.88182 415.000
31.90176 385.000
31.92171 407.000
31.94166 394.000
31.96160 332.000
31.98155 350.000
32.00150 346.000
32.02145 331.000
32.04139 288.000
32.06134 301.000
32.08129 275.000
32.10123 321.000
32.12118 298.000
32.14113 283.000
32.16107 306.000
32.18102 320.000
32.20097 294.000
32.22092 291.000
32.24086 287.000
32.26081 297.000
32.28076 291.000
32.30070 306.000
32.32065 279.000
32.34060 302.000
32.36054 325.000
32.38049 335.000
32.40044 353.000
32.42039 344.000
32.44033 408.000
32.46028 441.000
32.48023 593.000
32.50017 592.000
32.52012 582.000
32.54007 543.000
32.56001 503.000
32.57996 466.000
32.59991 437.000
32.61985 374.000
32.63980 349.000
32.65975 308.000
32.67970 309.000
32.69964 294.000
32.71959 302.000
32.73954 285.000
32.75948 283.000
32.77943 266.000
32.79938 270.000
32.81932 306.000
32.83927 294.000
32.85922 272.000
32.87917 284.000
32.89911 286.000
32.91906 311.000
32.93901 303.000
32.95895 298.000
32.97890 329.000
32.99885 353.000
33.01879 313.000
33.03874 304.000
33.05869 304.000
33.07863 312.000
33.09858 322.000
33.11853 343.000
33.13848 394.000
33.15842 466.000
33.17837 630.000
33.19832 776.000
33.21826 1048.000
33.23821 1117.000
33.25816 905.000
33.27810 812.000
33.29805 877.000
33.31800 938.000
33.33795 856.000
33.35789 771.000
33.37784 684.000
33.39779 605.000
33.41773 619.000
33.43768 585.000
33.45763 551.000
33.47757 520.000
33.49752 477.000
33.51747 451.000
33.53741 412.000
33.55736 389.000
33.57731 404.000
33.59726 371.000
33.61720 386.000
33.63715 347.000
33.65710 367.000
33.67704 387.000
33.69699 382.000
33.71694 391.000
33.73688 378.000
33.75683 389.000
33.77678 418.000
33.79673 403.000
33.81667 438.000
33.83662 485.000
33.85657 510.000
33.87651 613.000
33.89646 776.000
33.91641 984.000
33.93635 1387.000
33.95630 1793.000
33.97625 1935.000
33.99620 1785.000
34.01614 1639.000
34.03609 1773.000
34.05604 1779.000
34.07598 1560.000
34.09593 1302.000
34.11588 1070.000
34.13582 1004.000
34.15577 889.000
34.17572 812.000
34.19566 744.000
34.21561 653.000
34.23556 561.000
34.25551 575.000
34.27545 530.000
34.29540 453.000
34.31535 494.000
34.33529 441.000
34.35524 434.000
34.37519 390.000
34.39513 388.000
34.41508 387.000
34.43503 373.000
34.45498 422.000
34.47492 408.000
34.49487 402.000
34.51482 395.000
34.53476 370.000
34.55471 375.000
34.57466 346.000
34.59460 367.000
34.61455 374.000
34.63450 354.000
34.65444 344.000
34.67439 324.000
34.69434 309.000
34.71429 319.000
34.73423 311.000
34.75418 342.000
34.77413 301.000
34.79407 303.000
34.81402 338.000
34.83397 349.000
34.85391 328.000
34.87386 351.000
34.89381 299.000
34.91376 341.000
34.93370 336.000
34.95365 321.000
34.97360 320.000
34.99354 319.000
35.01349 318.000
35.03344 308.000
35.05338 363.000
35.07333 364.000
35.09328 333.000
35.11322 375.000
35.13317 353.000
35.15312 395.000
35.17307 350.000
35.19301 389.000
35.21296 408.000
35.23291 423.000
35.25285 436.000
35.27280 462.000
35.29275 478.000
35.31269 532.000
35.33264 536.000
35.35259 692.000
35.37254 853.000
35.39248 1073.000
35.41243 1438.000
35.43238 1746.000
35.45232 1820.000
35.47227 1838.000
35.49222 2493.000
35.51216 3151.000
35.53211 2939.000
35.55206 2362.000
35.57201 1827.000
35.59195 1847.000
35.61190 1817.000
35.63185 1458.000
35.65179 1099.000
35.67174 913.000
35.69169 799.000
35.71163 761.000
35.73158 707.000
35.75153 670.000
35.77147 571.000
35.79142 564.000
35.81137 575.000
35.83132 510.000
35.85126 439.000
35.87121 435.000
35.89116 397.000
35.91110 360.000
35.93105 358.000
35.95100 395.000
35.97094 357.000
35.99089 382.000
36.01084 368.000
36.03079 376.000
36.05073 375.000
36.07068 388.000
36.09063 379.000
36.11057 374.000
36.13052 360.000
36.15047 309.000
36.17041 365.000
36.19036 336.000
36.21031 342.000
36.23025 320.000
36.25020 327.000
36.27015 305.000
36.29010 314.000
36.31004 307.000
36.32999 279.000
36.34994 281.000
36.36988 286.000
36.38983 325.000
36.40978 284.000
36.42972 320.000
36.44967 296.000
36.46962 300.000
36.48957 289.000
36.50951 238.000
36.52946 299.000
36.54941 280.000
36.56935 284.000
36.58930 292.000
36.60925 290.000
36.62919 301.000
36.64914 276.000
36.66909 266.000
36.68903 277.000
36.70898 289.000
36.72893 289.000
36.74888 262.000
36.76882 292.000
36.78877 253.000
36.80872 256.000
36.82866 250.000
36.84861 306.000
36.86856 276.000
36.88850 290.000
36.90845 285.000
36.92840 305.000
36.94835 282.000
36.96829 262.000
36.98824 286.000
37.00819 274.000
37.02813 283.000
37.04808 312.000
37.06803 320.000
37.08797 302.000
37.10792 311.000
37.12787 306.000
37.14781 284.000
37.16776 318.000
37.18771 298.000
37.20766 296.000
37.22760 302.000
37.24755 311.000
37.26750 290.000
37.28744 292.000
37.30739 273.000
37.32734 262.000
37.34728 274.000
37.36723 271.000
37.38718 274.000
37.40713 263.000
37.42707 262.000
37.44702 246.000
37.46697 250.000
37.48691 307.000
37.50686 282.000
37.52681 280.000
37.54675 309.000
37.56670 278.000
37.58665 258.000
37.60660 289.000
37.62654 289.000
37.64649 267.000
37.66644 295.000
37.68638 293.000
37.70633 272.000
37.72628 283.000
37.74622 273.000
37.76617 287.000
37.78612 260.000
37.80606 299.000
37.82601 297.000
37.84596 292.000
37.86591 312.000
37.88585 284.000
37.90580 298.000
37.92575 363.000
37.94569 343.000
37.96564 360.000
37.98559 353.000
38.00553 326.000
38.02548 390.000
38.04543 324.000
38.06538 354.000
38.08532 319.000
38.10527 337.000
38.12522 335.000
38.14516 293.000
38.16511 334.000
38.18506 340.000
38.20500 337.000
38.22495 355.000
38.24490 340.000
38.26484 311.000
38.28479 334.000
38.30474 358.000
38.32469 348.000
38.34463 349.000
38.36458 338.000
38.38453 415.000
38.40447 404.000
38.42442 376.000
38.44437 422.000
38.46431 443.000
38.48426 457.000
38.50421 515.000
38.52416 507.000
38.54410 573.000
38.56405 638.000
38.58400 701.000
38.60394 777.000
38.62389 960.000
38.64384 1185.000
38.66378 1514.000
38.68373 2153.000
38.70368 2602.000
38.72362 2840.000
38.74357 2475.000
38.76352 2027.000
38.78347 1809.000
38.80341 1924.000
38.82336 1932.000
38.84331 1608.000
38.86325 1399.000
38.88320 1256.000
38.90315 1201.000
38.92309 1069.000
38.94304 858.000
38.96299 747.000
38.98294 733.000
39.00288 738.000
39.02283 644.000
39.04278 613.000
39.06272 501.000
39.08267 423.000
39.10262 426.000
39.12256 380.000
39.14251 412.000
39.16246 333.000
39.18241 376.000
39.20235 382.000
39.22230 289.000
39.24225 310.000
39.26219 330.000
39.28214 337.000
39.30209 296.000
39.32203 322.000
39.34198 323.000
39.36193 304.000
39.38187 274.000
39.40182 276.000
39.42177 284.000
39.44172 278.000
39.46166 285.000
39.48161 320.000
39.50156 278.000
39.52150 283.000
39.54145 259.000
39.56140 287.000
39.58134 262.000
39.60129 257.000
39.62124 298.000
39.64119 265.000
39.66113 303.000
39.68108 259.000
39.70103 266.000
39.72097 263.000
39.74092 258.000
39.76087 256.000
39.78081 337.000
39.80076 270.000
39.82071 292.000
39.84065 306.000
39.86060 287.000
39.88055 282.000
39.90050 228.000
39.92044 281.000
39.94039 288.000
39.96034 312.000
39.98028 264.000
40.00023 299.000
40.02018 275.000
40.04012 275.000
40.06007 301.000
40.08002 247.000
40.09997 273.000
40.11991 272.000
40.13986 268.000
40.15981 296.000
40.17975 275.000
40.19970 267.000
40.21965 254.000
40.23959 244.000
40.25954 272.000
40.27949 279.000
40.29943 260.000
40.31938 282.000
40.33933 278.000
40.35928 252.000
40.37922 245.000
40.39917 277.000
40.41912 258.000
40.43906 260.000
40.45901 277.000
40.47896 251.000
40.49890 260.000
40.51885 277.000
40.53880 273.000
40.55875 269.000
40.57869 271.000
40.59864 281.000
40.61859 283.000
40.63853 247.000
40.65848 258.000
40.67843 282.000
40.69837 259.000
40.71832 273.000
40.73827 271.000
40.75822 251.000
40.77816 258.000
40.79811 258.000
40.81806 264.000
40.83800 270.000
40.85795 262.000
40.87790 270.000
40.89784 253.000
40.91779 269.000
40.93774 271.000
40.95768 282.000
40.97763 274.000
40.99758 286.000
41.01753 291.000
41.03747 297.000
41.05742 259.000
41.07737 283.000
41.09731 280.000
41.11726 281.000
41.13721 297.000
41.15715 284.000
41.17710 262.000
41.19705 235.000
41.21700 269.000
41.23694 280.000
41.25689 253.000
41.27684 284.000
41.29678 268.000
41.31673 272.000
41.33668 275.000
41.35662 313.000
41.37657 283.000
41.39652 306.000
41.41646 341.000
41.43641 302.000
41.45636 303.000
41.47631 300.000
41.49625 288.000
41.51620 303.000
41.53615 258.000
41.55609 273.000
41.57604 312.000
41.59599 265.000
41.61593 259.000
41.63588 257.000
41.65583 247.000
41.67578 267.000
41.69572 239.000
41.71567 255.000
41.73562 255.000
41.75556 262.000
41.77551 243.000
41.79546 245.000
41.81540 284.000
41.83535 261.000
41.85530 264.000
41.87524 234.000
41.89519 272.000
41.91514 269.000
41.93509 243.000
41.95503 264.000
41.97498 276.000
41.99493 243.000
42.01487 262.000
42.03482 279.000
42.05477 275.000
42.07471 293.000
42.09466 314.000
42.11461 272.000
42.13456 273.000
42.15450 274.000
42.17445 272.000
42.19440 271.000
42.21434 260.000
42.23429 265.000
42.25424 273.000
42.27418 269.000
42.29413 264.000
42.31408 292.000
42.33403 255.000
42.35397 278.000
42.37392 235.000
42.39387 263.000
42.41381 226.000
42.43376 293.000
42.45371 242.000
42.47365 258.000
42.49360 268.000
42.51355 241.000
42.53349 256.000
42.55344 242.000
42.57339 284.000
42.59334 283.000
42.61328 235.000
42.63323 261.000
42.65318 294.000
42.67312 249.000
42.69307 268.000
42.71302 245.000
42.73296 237.000
42.75291 283.000
42.77286 247.000
42.79281 274.000
42.81275 259.000
42.83270 259.000
42.85265 263.000
42.87259 241.000
42.89254 260.000
42.91249 289.000
42.93243 233.000
42.95238 254.000
42.97233 243.000
42.99227 230.000
43.01222 278.000
43.03217 253.000
43.05212 238.000
43.07206 248.000
43.09201 253.000
43.11196 287.000
43.13190 275.000
43.15185 275.000
43.17180 246.000
43.19174 259.000
43.21169 256.000
43.23164 258.000
43.25159 254.000
43.27153 228.000
43.29148 266.000
43.31143 273.000
43.33137 265.000
43.35132 254.000
43.37127 266.000
43.39121 265.000
43.41116 237.000
43.43111 254.000
43.45105 255.000
43.47100 244.000
43.49095 255.000
43.51090 247.000
43.53084 227.000
43.55079 259.000
43.57074 232.000
43.59068 236.000
43.61063 224.000
43.63058 262.000
43.65052 238.000
43.67047 235.000
43.69042 290.000
43.71037 290.000
43.73031 268.000
43.75026 252.000
43.77021 257.000
43.79015 269.000
43.81010 251.000
43.83005 265.000
43.84999 238.000
43.86994 237.000
43.88989 260.000
43.90984 294.000
43.92978 269.000
43.94973 242.000
43.96968 264.000
43.98962 247.000
44.00957 247.000
44.02952 274.000
44.04946 275.000
44.06941 262.000
44.08936 231.000
44.10930 284.000
44.12925 251.000
44.14920 249.000
44.16915 258.000
44.18909 260.000
44.20904 262.000
44.22899 270.000
44.24893 234.000
44.26888 273.000
44.28883 280.000
44.30877 289.000
44.32872 254.000
44.34867 280.000
44.36862 273.000
44.38856 271.000
44.40851 291.000
44.42846 297.000
44.44840 263.000
44.46835 321.000
44.48830 311.000
44.50824 318.000
44.52819 311.000
44.54814 326.000
44.56808 299.000
44.58803 278.000
44.60798 292.000
44.62793 295.000
44.64787 286.000
44.66782 261.000
44.68777 274.000
44.70771 261.000
44.72766 269.000
44.74761 277.000
44.76755 266.000
44.78750 253.000
44.80745 234.000
44.82740 220.000
44.84734 288.000
44.86729 259.000
44.88724 265.000
44.90718 278.000
44.92713 275.000
44.94708 290.000
44.96702 280.000
44.98697 355.000
45.00692 429.000
45.02686 452.000
45.04681 466.000
45.06676 433.000
45.08671 376.000
45.10665 357.000
45.12660 385.000
45.14655 416.000
45.16649 434.000
45.18644 350.000
45.20639 312.000
45.22633 326.000
45.24628 322.000
45.26623 328.000
45.28618 301.000
45.30612 279.000
45.32607 319.000
45.34602 325.000
45.36596 280.000
45.38591 271.000
45.40586 253.000
45.42580 274.000
45.44575 289.000
45.46570 244.000
45.48565 260.000
45.50559 225.000
45.52554 257.000
45.54549 248.000
45.56543 275.000
45.58538 257.000
45.60533 232.000
45.62527 260.000
45.64522 260.000
45.66517 224.000
45.68511 236.000
45.70506 219.000
45.72501 250.000
45.74496 260.000
45.76490 261.000
45.78485 254.000
45.80480 257.000
45.82474 277.000
45.84469 247.000
45.86464 231.000
45.88458 250.000
45.90453 218.000
45.92448 238.000
45.94443 259.000
45.96437 250.000
45.98432 238.000
46.00427 278.000
46.02421 253.000
46.04416 270.000
46.06411 256.000
46.08405 272.000
46.10400 303.000
46.12395 278.000
46.14389 246.000
46.16384 276.000
46.18379 290.000
46.20374 289.000
46.22368 310.000
46.24363 302.000
46.26358 324.000
46.28352 304.000
46.30347 277.000
46.32342 321.000
46.34336 293.000
46.36331 344.000
46.38326 310.000
46.40321 345.000
46.42315 367.000
46.44310 369.000
46.46305 316.000
46.48299 322.000
46.50294 317.000
46.52289 335.000
46.54283 348.000
46.56278 318.000
46.58273 336.000
46.60267 331.000
46.62262 295.000
46.64257 286.000
46.66252 277.000
46.68246 263.000
46.70241 282.000
46.72236 304.000
46.74230 331.000
46.76225 302.000
46.78220 311.000
46.80214 311.000
46.82209 270.000
46.84204 282.000
46.86199 281.000
46.88193 279.000
46.90188 315.000
46.92183 276.000
46.94177 290.000
46.96172 294.000
46.98167 272.000
47.00161 250.000
47.02156 275.000
47.04151 287.000
47.06146 264.000
47.08140 305.000
47.10135 285.000
47.12130 245.000
47.14124 260.000
47.16119 267.000
47.18114 262.000
47.20108 269.000
47.22103 267.000
47.24098 233.000
47.26092 288.000
47.28087 254.000
47.30082 247.000
47.32077 274.000
47.34071 278.000
47.36066 272.000
47.38061 271.000
47.40055 235.000
47.42050 247.000
47.44045 225.000
47.46039 259.000
47.48034 259.000
47.50029 249.000
47.52024 245.000
47.54018 275.000
47.56013 263.000
47.58008 257.000
47.60002 243.000
47.61997 256.000
47.63992 262.000
47.65986 242.000
47.67981 287.000
47.69976 241.000
47.71970 265.000
47.73965 259.000
47.75960 256.000
47.77955 271.000
47.79949 255.000
47.81944 295.000
47.83939 243.000
47.85933 246.000
47.87928 237.000
47.89923 276.000
47.91917 272.000
47.93912 263.000
47.95907 272.000
47.97902 248.000
47.99896 269.000
48.01891 260.000
48.03886 233.000
48.05880 273.000
48.07875 288.000
48.09870 264.000
48.11864 291.000
48.13859 294.000
48.15854 288.000
48.17848 239.000
48.19843 281.000
48.21838 303.000
48.23833 280.000
48.25827 296.000
48.27822 293.000
48.29817 266.000
48.31811 276.000
48.33806 306.000
48.35801 302.000
48.37795 288.000
48.39790 305.000
48.41785 291.000
48.43780 315.000
48.45774 332.000
48.47769 308.000
48.49764 313.000
48.51758 347.000
48.53753 342.000
48.55748 354.000
48.57742 410.000
48.59737 439.000
48.61732 534.000
48.63726 629.000
48.65721 769.000
48.67716 911.000
48.69711 877.000
48.71705 707.000
48.73700 658.000
48.75695 592.000
48.77689 617.000
48.79684 584.000
48.81679 626.000
48.83673 546.000
48.85668 493.000
48.87663 485.000
48.89658 380.000
48.91652 338.000
48.93647 361.000
48.95642 336.000
48.97636 345.000
48.99631 340.000
49.01626 328.000
49.03620 321.000
49.05615 248.000
49.07610 296.000
49.09605 292.000
49.11599 277.000
49.13594 290.000
49.15589 277.000
49.17583 304.000
49.19578 269.000
49.21573 297.000
49.23567 249.000
49.25562 280.000
49.27557 278.000
49.29551 269.000
49.31546 272.000
49.33541 260.000
49.35536 257.000
49.37530 284.000
49.39525 283.000
49.41520 277.000
49.43514 281.000
49.45509 282.000
49.47504 273.000
49.49498 273.000
49.51493 289.000
49.53488 233.000
49.55483 258.000
49.57477 276.000
49.59472 245.000
49.61467 263.000
49.63461 246.000
49.65456 268.000
49.67451 262.000
49.69445 276.000
49.71440 258.000
49.73435 313.000
49.75429 240.000
49.77424 281.000
49.79419 276.000
49.81414 276.000
49.83408 259.000
49.85403 270.000
49.87398 273.000
49.89392 264.000
49.91387 315.000
49.93382 272.000
49.95376 293.000
49.97371 309.000
49.99366 302.000
50.01361 275.000
50.03355 265.000
50.05350 269.000
50.07345 255.000
50.09339 280.000
50.11334 279.000
50.13329 281.000
50.15323 282.000
50.17318 292.000
50.19313 254.000
50.21307 278.000
50.23302 273.000
50.25297 283.000
50.27292 272.000
50.29286 241.000
50.31281 247.000
50.33276 267.000
50.35270 243.000
50.37265 269.000
50.39260 277.000
50.41254 245.000
50.43249 268.000
50.45244 272.000
50.47239 254.000
50.49233 228.000
50.51228 251.000
50.53223 258.000
50.55217 248.000
50.57212 280.000
50.59207 280.000
50.61201 252.000
50.63196 250.000
50.65191 274.000
50.67186 303.000
50.69180 280.000
50.71175 278.000
50.73170 291.000
50.75164 273.000
50.77159 289.000
50.79154 288.000
50.81148 301.000
50.83143 291.000
50.85138 288.000
50.87132 323.000
50.89127 309.000
50.91122 315.000
50.93117 337.000
50.95111 325.000
50.97106 368.000
50.99101 379.000
51.01095 378.000
51.03090 390.000
51.05085 364.000
51.07079 429.000
51.09074 420.000
51.11069 470.000
51.13064 468.000
51.15058 368.000
51.17053 334.000
51.19048 348.000
51.21042 350.000
51.23037 338.000
51.25032 357.000
51.27026 325.000
51.29021 339.000
51.31016 277.000
51.33010 305.000
51.35005 268.000
51.37000 288.000
51.38995 279.000
51.40989 322.000
51.42984 262.000
51.44979 272.000
51.46973 268.000
51.48968 295.000
51.50963 272.000
51.52957 248.000
51.54952 279.000
51.56947 277.000
51.58942 249.000
51.60936 247.000
51.62931 243.000
51.64926 240.000
51.66920 249.000
51.68915 255.000
51.70910 258.000
51.72904 287.000
51.74899 241.000
51.76894 244.000
51.78888 265.000
51.80883 249.000
51.82878 277.000
51.84873 230.000
51.86867 232.000
51.88862 270.000
51.90857 253.000
51.92851 247.000
51.94846 279.000
51.96841 265.000
51.98835 269.000
52.00830 251.000
52.02825 261.000
52.04820 294.000
52.06814 261.000
52.08809 274.000
52.10804 284.000
52.12798 264.000
52.14793 291.000
52.16788 243.000
52.18782 271.000
52.20777 279.000
52.22772 253.000
52.24767 259.000
52.26761 249.000
52.28756 272.000
52.30751 229.000
52.32745 265.000
52.34740 260.000
52.36735 266.000
52.38729 283.000
52.40724 293.000
52.42719 293.000
52.44713 289.000
52.46708 283.000
52.48703 288.000
52.50698 278.000
52.52692 288.000
52.54687 275.000
52.56682 275.000
52.58676 278.000
52.60671 280.000
52.62666 277.000
52.64660 300.000
52.66655 305.000
52.68650 265.000
52.70645 257.000
52.72639 311.000
52.74634 272.000
52.76629 284.000
52.78623 300.000
52.80618 276.000
52.82613 318.000
52.84607 280.000
52.86602 278.000
52.88597 273.000
52.90591 293.000
52.92586 293.000
52.94581 277.000
52.96576 300.000
52.98570 333.000
53.00565 271.000
53.02560 298.000
53.04554 263.000
53.06549 275.000
53.08544 273.000
53.10538 283.000
53.12533 283.000
53.14528 300.000
53.16523 268.000
53.18517 262.000
53.20512 272.000
53.22507 285.000
53.24501 336.000
53.26496 321.000
53.28491 302.000
53.30485 299.000
53.32480 323.000
53.34475 306.000
53.36469 338.000
53.38464 368.000
53.40459 352.000
53.42454 396.000
53.44448 459.000
53.46443 477.000
53.48438 447.000
53.50432 451.000
53.52427 461.000
53.54422 410.000
53.56416 396.000
53.58411 413.000
53.60406 429.000
53.62401 410.000
53.64395 370.000
53.66390 373.000
53.68385 363.000
53.70379 321.000
53.72374 319.000
53.74369 312.000
53.76363 305.000
53.78358 300.000
53.80353 290.000
53.82348 291.000
53.84342 312.000
53.86337 304.000
53.88332 287.000
53.90326 297.000
53.92321 282.000
53.94316 309.000
53.96310 266.000
53.98305 277.000
54.00300 279.000
54.02294 276.000
54.04289 257.000
54.06284 287.000
54.08279 237.000
54.10273 279.000
54.12268 246.000
54.14263 264.000
54.16257 261.000
54.18252 250.000
54.20247 240.000
54.22241 268.000
54.24236 272.000
54.26231 271.000
54.28226 245.000
54.30220 289.000
54.32215 257.000
54.34210 251.000
54.36204 257.000
54.38199 251.000
54.40194 244.000
54.42188 262.000
54.44183 271.000
54.46178 249.000
54.48172 257.000
54.50167 239.000
54.52162 240.000
54.54157 267.000
54.56151 285.000
54.58146 270.000
54.60141 223.000
54.62135 285.000
54.64130 298.000
54.66125 272.000
54.68119 245.000
54.70114 271.000
54.72109 318.000
54.74104 266.000
54.76098 292.000
54.78093 308.000
54.80088 321.000
54.82082 346.000
54.84077 457.000
54.86072 504.000
54.88066 484.000
54.90061 434.000
54.92056 409.000
54.94050 369.000
54.96045 388.000
54.98040 426.000
55.00035 437.000
55.02029 421.000
55.04024 388.000
55.06019 371.000
55.08013 355.000
55.10008 327.000
55.12003 317.000
55.13997 299.000
55.15992 288.000
55.17987 282.000
55.19982 293.000
55.21976 287.000
55.23971 302.000
55.25966 318.000
55.27960 348.000
55.29955 335.000
55.31950 326.000
55.33944 307.000
55.35939 335.000
55.37934 306.000
55.39929 302.000
55.41923 305.000
55.43918 321.000
55.45913 324.000
55.47907 319.000
55.49902 309.000
55.51897 337.000
55.53891 287.000
55.55886 295.000
55.57881 259.000
55.59875 262.000
55.61870 289.000
55.63865 282.000
55.65860 270.000
55.67854 283.000
55.69849 279.000
55.71844 260.000
55.73838 268.000
55.75833 287.000
55.77828 267.000
55.79822 254.000
55.81817 247.000
55.83812 252.000
55.85807 268.000
55.87801 287.000
55.89796 282.000
55.91791 259.000
55.93785 249.000
55.95780 273.000
55.97775 291.000
55.99769 250.000
56.01764 251.000
56.03759 252.000
56.05753 287.000
56.07748 250.000
56.09743 260.000
56.11738 264.000
56.13732 256.000
56.15727 230.000
56.17722 253.000
56.19716 253.000
56.21711 256.000
56.23706 270.000
56.25700 265.000
56.27695 262.000
56.29690 246.000
56.31685 273.000
56.33679 274.000
56.35674 281.000
56.37669 267.000
56.39663 272.000
56.41658 216.000
56.43653 267.000
56.45647 269.000
56.47642 267.000
56.49637 230.000
56.51631 256.000
56.53626 230.000
56.55621 271.000
56.57616 290.000
56.59610 269.000
56.61605 237.000
56.63600 268.000
56.65594 267.000
56.67589 267.000
56.69584 265.000
56.71578 269.000
56.73573 263.000
56.75568 283.000
56.77563 280.000
56.79557 293.000
56.81552 284.000
56.83547 249.000
56.85541 265.000
56.87536 271.000
56.89531 251.000
56.91525 249.000
56.93520 239.000
56.95515 265.000
56.97510 239.000
56.99504 241.000
57.01499 250.000
57.03494 253.000
57.05488 248.000
57.07483 260.000
57.09478 282.000
57.11472 241.000
57.13467 227.000
57.15462 258.000
57.17456 290.000
57.19451 295.000
57.21446 256.000
57.23441 259.000
57.25435 293.000
57.27430 284.000
57.29425 250.000
57.31419 254.000
57.33414 261.000
57.35409 262.000
57.37403 265.000
57.39398 281.000
57.41393 257.000
57.43388 294.000
57.45382 237.000
57.47377 263.000
57.49372 251.000
57.51366 256.000
57.53361 306.000
57.55356 223.000
57.57350 281.000
57.59345 261.000
57.61340 247.000
57.63334 310.000
57.65329 258.000
57.67324 245.000
57.69319 258.000
57.71313 290.000
57.73308 278.000
57.75303 286.000
57.77297 271.000
57.79292 279.000
57.81287 244.000
57.83281 279.000
57.85276 266.000
57.87271 286.000
57.89266 266.000
57.91260 283.000
57.93255 303.000
57.95250 284.000
57.97244 330.000
57.99239 270.000
58.01234 295.000
58.03228 276.000
58.05223 311.000
58.07218 245.000
58.09212 290.000
58.11207 323.000
58.13202 309.000
58.15197 311.000
58.17191 348.000
58.19186 333.000
58.21181 324.000
58.23175 374.000
58.25170 450.000
58.27165 461.000
58.29159 518.000
58.31154 490.000
58.33149 430.000
58.35144 432.000
58.37138 425.000
58.39133 414.000
58.41128 386.000
58.43122 400.000
58.45117 394.000
58.47112 391.000
58.49106 344.000
58.51101 326.000
58.53096 315.000
58.55090 310.000
58.57085 306.000
58.59080 289.000
58.61075 266.000
58.63069 264.000
58.65064 272.000
58.67059 313.000
58.69053 275.000
58.71048 280.000
58.73043 267.000
58.75037 244.000
58.77032 269.000
58.79027 253.000
58.81022 261.000
58.83016 274.000
58.85011 259.000
58.87006 282.000
58.89000 235.000
58.90995 282.000
58.92990 264.000
58.94984 258.000
58.96979 263.000
58.98974 247.000
59.00969 286.000
59.02963 241.000
59.04958 252.000
59.06953 273.000
59.08947 249.000
59.10942 292.000
59.12937 275.000
59.14931 249.000
59.16926 293.000
59.18921 259.000
59.20915 276.000
59.22910 253.000
59.24905 266.000
59.26900 282.000
59.28894 240.000
59.30889 236.000
59.32884 255.000
59.34878 287.000
59.36873 245.000
59.38868 278.000
59.40862 251.000
59.42857 258.000
59.44852 285.000
59.46847 247.000
59.48841 266.000
59.50836 266.000
59.52831 263.000
59.54825 265.000
59.56820 265.000
59.58815 252.000
59.60809 265.000
59.62804 277.000
59.64799 289.000
59.66793 279.000
59.68788 281.000
59.70783 283.000
59.72778 288.000
59.74772 327.000
59.76767 316.000
59.78762 336.000
59.80756 365.000
59.82751 429.000
59.84746 482.000
59.86740 555.000
59.88735 537.000
59.90730 451.000
59.92725 378.000
59.94719 409.000
59.96714 381.000
59.98709 464.000
60.00703 428.000
60.02698 488.000
60.04693 453.000
60.06687 488.000
60.08682 396.000
60.10677 383.000
60.12671 362.000
60.14666 374.000
60.16661 338.000
60.18656 350.000
60.20650 330.000
60.22645 353.000
60.24640 357.000
60.26634 364.000
60.28629 313.000
60.30624 323.000
60.32618 303.000
60.34613 313.000
60.36608 286.000
60.38603 277.000
60.40597 300.000
60.42592 287.000
60.44587 268.000
60.46581 286.000
60.48576 300.000
60.50571 262.000
60.52565 258.000
60.54560 264.000
60.56555 272.000
60.58550 270.000
60.60544 311.000
60.62539 264.000
60.64534 254.000
60.66528 292.000
60.68523 300.000
60.70518 322.000
60.72512 260.000
60.74507 319.000
60.76502 299.000
60.78496 304.000
60.80491 296.000
60.82486 283.000
60.84481 317.000
60.86475 327.000
60.88470 315.000
60.90465 354.000
60.92459 352.000
60.94454 336.000
60.96449 358.000
60.98443 419.000
61.00438 412.000
61.02433 428.000
61.04428 374.000
61.06422 361.000
61.08417 377.000
61.10412 416.000
61.12406 339.000
61.14401 379.000
61.16396 436.000
61.18390 408.000
61.20385 415.000
61.22380 428.000
61.24374 423.000
61.26369 447.000
61.28364 442.000
61.30359 453.000
61.32353 444.000
61.34348 465.000
61.36343 440.000
61.38337 463.000
61.40332 487.000
61.42327 500.000
61.44321 535.000
61.46316 614.000
61.48311 669.000
61.50306 782.000
61.52300 828.000
61.54295 700.000
61.56290 625.000
61.58284 590.000
61.60279 503.000
61.62274 445.000
61.64268 522.000
61.66263 547.000
61.68258 583.000
61.70252 540.000
61.72247 514.000
61.74242 425.000
61.76237 397.000
61.78231 349.000
61.80226 350.000
61.82221 388.000
61.84215 347.000
61.86210 314.000
61.88205 296.000
61.90199 308.000
61.92194 291.000
61.94189 294.000
61.96184 301.000
61.98178 325.000
62.00173 291.000
62.02168 305.000
62.04162 279.000
62.06157 286.000
62.08152 274.000
62.10146 296.000
62.12141 328.000
62.14136 264.000
62.16131 289.000
62.18125 313.000
62.20120 313.000
62.22115 312.000
62.24109 338.000
62.26104 336.000
62.28099 369.000
62.30093 414.000
62.32088 355.000
62.34083 363.000
62.36077 416.000
62.38072 353.000
62.40067 374.000
62.42062 338.000
62.44056 331.000
62.46051 336.000
62.48046 345.000
62.50040 327.000
62.52035 340.000
62.54030 331.000
62.56024 335.000
62.58019 328.000
62.60014 282.000
62.62009 286.000
62.64003 302.000
62.65998 269.000
62.67993 281.000
62.69987 241.000
62.71982 282.000
62.73977 286.000
62.75971 285.000
62.77966 261.000
62.79961 281.000
62.81955 268.000
62.83950 270.000
62.85945 254.000
62.87940 277.000
62.89934 260.000
62.91929 287.000
62.93924 274.000
62.95918 287.000
62.97913 272.000
62.99908 263.000
63.01902 275.000
63.03897 264.000
63.05892 272.000
63.07887 275.000
63.09881 275.000
63.11876 294.000
63.13871 249.000
63.15865 270.000
63.17860 259.000
63.19855 270.000
63.21849 256.000
63.23844 266.000
63.25839 275.000
63.27833 258.000
63.29828 258.000
63.31823 244.000
63.33818 292.000
63.35812 261.000
63.37807 249.000
63.39802 296.000
63.41796 246.000
63.43791 231.000
63.45786 250.000
63.47780 255.000
63.49775 257.000
63.51770 232.000
63.53765 260.000
63.55759 253.000
63.57754 244.000
63.59749 262.000
63.61743 295.000
63.63738 284.000
63.65733 283.000
63.67727 278.000
63.69722 263.000
63.71717 268.000
63.73712 248.000
63.75706 262.000
63.77701 267.000
63.79696 277.000
63.81690 296.000
63.83685 285.000
63.85680 317.000
63.87674 324.000
63.89669 340.000
63.91664 369.000
63.93658 340.000
63.95653 337.000
63.97648 308.000
63.99643 330.000
64.01637 323.000
64.03632 329.000
64.05627 294.000
64.07621 284.000
64.09616 321.000
64.11611 309.000
64.13605 307.000
64.15600 323.000
64.17595 313.000
64.19590 292.000
64.21584 258.000
64.23579 262.000
64.25574 275.000
64.27568 284.000
64.29563 228.000
64.31558 241.000
64.33552 264.000
64.35547 268.000
64.37542 264.000
64.39536 263.000
64.41531 288.000
64.43526 230.000
64.45521 234.000
64.47515 271.000
64.49510 274.000
64.51505 262.000
64.53499 278.000
64.55494 279.000
64.57489 282.000
64.59483 245.000
64.61478 267.000
64.63473 273.000
64.65468 273.000
64.67462 245.000
64.69457 277.000
64.71452 256.000
64.73446 268.000
64.75441 257.000
64.77436 252.000
64.79430 246.000
64.81425 258.000
64.83420 259.000
64.85414 245.000
64.87409 303.000
64.89404 273.000
64.91399 266.000
64.93393 270.000
64.95388 267.000
64.97383 282.000
64.99377 265.000
65.01372 282.000
65.03367 308.000
65.05361 281.000
65.07356 259.000
65.09351 293.000
65.11346 301.000
65.13340 312.000
65.15335 314.000
65.17330 271.000
65.19324 307.000
65.21319 326.000
65.23314 319.000
65.25308 315.000
65.27303 320.000
65.29298 308.000
65.31293 327.000
65.33287 311.000
65.35282 355.000
65.37277 293.000
65.39271 333.000
65.41266 302.000
65.43261 312.000
65.45255 325.000
65.47250 321.000
65.49245 330.000
65.51239 342.000
65.53234 335.000
65.55229 332.000
65.57224 354.000
65.59218 359.000
65.61213 374.000
65.63208 419.000
65.65202 447.000
65.67197 486.000
65.69192 485.000
65.71186 466.000
65.73181 493.000
65.75176 491.000
65.77171 539.000
65.79165 583.000
65.81160 586.000
65.83155 565.000
65.85149 517.000
65.87144 547.000
65.89139 514.000
65.91133 481.000
65.93128 488.000
65.95123 503.000
65.97117 502.000
65.99112 502.000
66.01107 459.000
66.03102 428.000
66.05096 408.000
66.07091 459.000
66.09086 455.000
66.11080 450.000
66.13075 559.000
66.15070 630.000
66.17064 620.000
66.19059 658.000
66.21054 632.000
66.23049 577.000
66.25043 518.000
66.27038 512.000
66.29033 407.000
66.31027 471.000
66.33022 477.000
66.35017 468.000
66.37011 482.000
66.39006 458.000
66.41001 452.000
66.42995 440.000
66.44990 415.000
66.46985 349.000
66.48980 335.000
66.50974 327.000
66.52969 338.000
66.54964 296.000
66.56958 338.000
66.58953 290.000
66.60948 298.000
66.62942 287.000
66.64937 301.000
66.66932 262.000
66.68927 301.000
66.70921 277.000
66.72916 273.000
66.74911 294.000
66.76905 249.000
66.78900 273.000
66.80895 280.000
66.82889 304.000
66.84884 272.000
66.86879 305.000
66.88874 263.000
66.90868 276.000
66.92863 269.000
66.94858 274.000
66.96852 248.000
66.98847 267.000
67.00842 270.000
67.02836 264.000
67.04831 255.000
67.06826 302.000
67.08820 241.000
67.10815 236.000
67.12810 273.000
67.14805 271.000
67.16799 309.000
67.18794 276.000
67.20789 274.000
67.22783 288.000
67.24778 284.000
67.26773 307.000
67.28767 294.000
67.30762 254.000
67.32757 278.000
67.34752 290.000
67.36746 275.000
67.38741 287.000
67.40736 277.000
67.42730 294.000
67.44725 300.000
67.46720 272.000
67.48714 308.000
67.50709 307.000
67.52704 278.000
67.54698 338.000
67.56693 316.000
67.58688 288.000
67.60683 305.000
67.62677 303.000
67.64672 287.000
67.66667 290.000
67.68661 329.000
67.70656 305.000
67.72651 308.000
67.74645 317.000
67.76640 329.000
67.78635 345.000
67.80630 385.000
67.82624 397.000
67.84619 366.000
67.86614 425.000
67.88608 386.000
67.90603 448.000
67.92598 454.000
67.94592 435.000
67.96587 526.000
67.98582 471.000
68.00576 472.000
68.02571 499.000
68.04566 557.000
68.06561 574.000
68.08555 639.000
68.10550 677.000
68.12545 651.000
68.14539 588.000
68.16534 500.000
68.18529 484.000
68.20523 436.000
68.22518 433.000
68.24513 476.000
68.26508 473.000
68.28502 493.000
68.30497 500.000
68.32492 417.000
68.34486 398.000
68.36481 325.000
68.38476 323.000
68.40470 315.000
68.42465 312.000
68.44460 359.000
68.46455 316.000
68.48449 302.000
68.50444 302.000
68.52439 279.000
68.54433 265.000
68.56428 261.000
68.58423 265.000
68.60417 301.000
68.62412 297.000
68.64407 282.000
68.66401 260.000
68.68396 320.000
68.70391 265.000
68.72386 271.000
68.74380 242.000
68.76375 253.000
68.78370 273.000
68.80364 269.000
68.82359 257.000
68.84354 267.000
68.86348 271.000
68.88343 254.000
68.90338 284.000
68.92333 238.000
68.94327 289.000
68.96322 264.000
68.98317 278.000
69.00311 273.000
69.02306 250.000
69.04301 281.000
69.06295 268.000
69.08290 263.000
69.10285 274.000
69.12279 282.000
69.14274 242.000
69.16269 244.000
69.18264 246.000
69.20258 266.000
69.22253 245.000
69.24248 302.000
69.26242 232.000
69.28237 267.000
69.30232 271.000
69.32226 272.000
69.34221 240.000
69.36216 255.000
69.38211 249.000
69.40205 260.000
69.42200 270.000
69.44195 267.000
69.46189 250.000
69.48184 243.000
69.50179 283.000
69.52173 240.000
69.54168 276.000
69.56163 251.000
69.58157 255.000
69.60152 264.000
69.62147 239.000
69.64142 245.000
69.66136 271.000
69.68131 257.000
69.70126 245.000
69.72120 284.000
69.74115 281.000
69.76110 265.000
69.78104 271.000
69.80099 239.000
69.82094 237.000
69.84089 276.000
69.86083 270.000
69.88078 287.000
69.90073 252.000
69.92067 279.000
69.94062 263.000
69.96057 265.000
69.98051 260.000
70.00046 291.000
70.02041 258.000
70.04035 232.000
70.06030 286.000
70.08025 241.000
70.10020 264.000
70.12014 222.000
70.14009 247.000
70.16004 261.000
70.17998 244.000
70.19993 241.000
70.21988 250.000
70.23982 257.000
70.25977 284.000
70.27972 248.000
70.29967 272.000
70.31961 260.000
70.33956 244.000
70.35951 230.000
70.37945 277.000
70.39940 249.000
70.41935 262.000
70.43929 296.000
70.45924 254.000
70.47919 262.000
70.49914 235.000
70.51908 247.000
70.53903 246.000
70.55898 265.000
70.57892 257.000
70.59887 268.000
70.61882 255.000
70.63876 266.000
70.65871 259.000
70.67866 253.000
70.69860 265.000
70.71855 250.000
70.73850 260.000
70.75845 252.000
70.77839 254.000
70.79834 243.000
70.81829 262.000
70.83823 266.000
70.85818 225.000
70.87813 249.000
70.89807 242.000
70.91802 243.000
70.93797 234.000
70.95792 271.000
70.97786 267.000
70.99781 282.000
71.01776 236.000
71.03770 265.000
71.05765 253.000
71.07760 251.000
71.09754 239.000
71.11749 289.000
71.13744 255.000
71.15738 242.000
71.17733 254.000
71.19728 254.000
71.21723 243.000
71.23717 259.000
71.25712 252.000
71.27707 251.000
71.29701 246.000
71.31696 288.000
71.33691 226.000
71.35685 273.000
71.37680 254.000
71.39675 295.000
71.41670 265.000
71.43664 264.000
71.45659 265.000
71.47654 303.000
71.49648 326.000
71.51643 248.000
71.53638 324.000
71.55632 286.000
71.57627 305.000
71.59622 288.000
71.61616 272.000
71.63611 291.000
71.65606 280.000
71.67601 267.000
71.69595 314.000
71.71590 287.000
71.73585 270.000
71.75579 280.000
71.77574 297.000
71.79569 287.000
71.81563 266.000
71.83558 288.000
71.85553 265.000
71.87548 274.000
71.89542 273.000
71.91537 250.000
71.93532 261.000
71.95526 258.000
71.97521 294.000
71.99516 291.000
72.01510 255.000
72.03505 262.000
72.05500 272.000
72.07495 256.000
72.09489 273.000
72.11484 253.000
72.13479 248.000
72.15473 283.000
72.17468 280.000
72.19463 259.000
72.21457 279.000
72.23452 289.000
72.25447 298.000
72.27441 307.000
72.29436 314.000
72.31431 312.000
72.33426 322.000
72.35420 351.000
72.37415 408.000
72.39410 358.000
72.41404 382.000
72.43399 356.000
72.45394 332.000
72.47388 308.000
72.49383 299.000
72.51378 316.000
72.53373 329.000
72.55367 347.000
72.57362 304.000
72.59357 322.000
72.61351 343.000
72.63346 320.000
72.65341 312.000
72.67335 293.000
72.69330 282.000
72.71325 302.000
72.73319 269.000
72.75314 271.000
72.77309 267.000
72.79304 297.000
72.81298 253.000
72.83293 267.000
72.85288 269.000
72.87282 229.000
72.89277 247.000
72.91272 253.000
72.93266 272.000
72.95261 237.000
72.97256 281.000
72.99251 284.000
73.01245 280.000
73.03240 272.000
73.05235 271.000
73.07229 262.000
73.09224 249.000
73.11219 293.000
73.13213 251.000
73.15208 235.000
73.17203 250.000
73.19197 268.000
73.21192 252.000
73.23187 276.000
73.25182 249.000
73.27176 234.000
73.29171 257.000
73.31166 258.000
73.33160 250.000
73.35155 258.000
73.37150 255.000
73.39144 256.000
73.41139 281.000
73.43134 256.000
73.45129 247.000
73.47123 256.000
73.49118 253.000
73.51113 233.000
73.53107 257.000
73.55102 254.000
73.57097 241.000
73.59091 260.000
73.61086 259.000
73.63081 246.000
73.65076 264.000
73.67070 277.000
73.69065 245.000
73.71060 283.000
73.73054 248.000
73.75049 221.000
73.77044 219.000
73.79038 259.000
73.81033 249.000
73.83028 280.000
73.85022 220.000
73.87017 283.000
73.89012 260.000
73.91007 270.000
73.93001 272.000
73.94996 251.000
73.96991 267.000
73.98985 271.000
74.00980 256.000
74.02975 280.000
74.04969 268.000
74.06964 254.000
74.08959 277.000
74.10954 281.000
74.12948 226.000
74.14943 265.000
74.16938 244.000
74.18932 239.000
74.20927 252.000
74.22922 288.000
74.24916 252.000
74.26911 248.000
74.28906 242.000
74.30900 264.000
74.32895 212.000
74.34890 257.000
74.36885 272.000
74.38879 259.000
74.40874 274.000
74.42869 244.000
74.44863 276.000
74.46858 253.000
74.48853 243.000
74.50847 274.000
74.52842 264.000
74.54837 249.000
74.56832 248.000
74.58826 242.000
74.60821 253.000
74.62816 254.000
74.64810 256.000
74.66805 290.000
74.68800 284.000
74.70794 239.000
74.72789 262.000
74.74784 262.000
74.76778 262.000
74.78773 251.000
74.80768 287.000
74.82763 282.000
74.84757 303.000
74.86752 284.000
74.88747 282.000
74.90741 302.000
74.92736 321.000
74.94731 316.000
74.96725 321.000
74.98720 342.000
75.00715 408.000
75.02710 386.000
75.04704 326.000
75.06699 330.000
75.08694 329.000
75.10688 340.000
75.12683 310.000
75.14678 357.000
75.16672 299.000
75.18667 368.000
75.20662 399.000
75.22657 422.000
75.24651 388.000
75.26646 398.000
75.28641 353.000
75.30635 313.000
75.32630 278.000
75.34625 298.000
75.36619 338.000
75.38614 304.000
75.40609 332.000
75.42603 342.000
75.44598 341.000
75.46593 314.000
75.48588 309.000
75.50582 320.000
75.52577 308.000
75.54572 292.000
75.56566 307.000
75.58561 292.000
75.60556 273.000
75.62550 232.000
75.64545 240.000
75.66540 243.000
75.68535 275.000
75.70529 254.000
75.72524 254.000
75.74519 248.000
75.76513 260.000
75.78508 243.000
75.80503 236.000
75.82497 253.000
75.84492 254.000
75.86487 246.000
75.88481 276.000
75.90476 252.000
75.92471 246.000
75.94466 238.000
75.96460 226.000
75.98455 238.000
76.00450 251.000
76.02444 239.000
76.04439 258.000
76.06434 251.000
76.08428 240.000
76.10423 249.000
76.12418 250.000
76.14413 246.000
76.16407 240.000
76.18402 255.000
76.20397 255.000
76.22391 271.000
76.24386 264.000
76.26381 268.000
76.28375 266.000
76.30370 259.000
76.32365 211.000
76.34359 242.000
76.36354 232.000
76.38349 260.000
76.40344 238.000
76.42338 241.000
76.44333 232.000
76.46328 249.000
76.48322 255.000
76.50317 239.000
76.52312 260.000
76.54306 255.000
76.56301 262.000
76.58296 291.000
76.60291 256.000
76.62285 238.000
76.64280 261.000
76.66275 227.000
76.68269 250.000
76.70264 223.000
76.72259 272.000
76.74253 260.000
76.76248 226.000
76.78243 240.000
76.80238 221.000
76.82232 228.000
76.84227 245.000
76.86222 242.000
76.88216 262.000
76.90211 257.000
76.92206 266.000
76.94200 258.000
76.96195 243.000
76.98190 246.000
77.00184 242.000
77.02179 236.000
77.04174 270.000
77.06169 223.000
77.08163 244.000
77.10158 258.000
77.12153 242.000
77.14147 264.000
77.16142 227.000
77.18137 261.000
77.20131 244.000
77.22126 256.000
77.24121 237.000
77.26116 236.000
77.28110 248.000
77.30105 265.000
77.32100 258.000
77.34094 251.000
77.36089 257.000
77.38084 237.000
77.40078 235.000
77.42073 238.000
77.44068 252.000
77.46062 244.000
77.48057 265.000
77.50052 256.000
77.52047 256.000
77.54041 226.000
77.56036 254.000
77.58031 226.000
77.60025 276.000
77.62020 259.000
77.64015 250.000
77.66009 239.000
77.68004 256.000
77.69999 252.000
77.71994 236.000
77.73988 246.000
77.75983 230.000
77.77978 237.000
77.79972 254.000
77.81967 264.000
77.83962 260.000
77.85956 248.000
77.87951 224.000
77.89946 250.000
77.91940 270.000
77.93935 249.000
77.95930 249.000
77.97925 221.000
77.99919 251.000
78.01914 245.000
78.03909 242.000
78.05903 273.000
78.07898 237.000
78.09893 244.000
78.11887 269.000
78.13882 263.000
78.15877 226.000
78.17872 253.000
78.19866 254.000
78.21861 218.000
78.23856 282.000
78.25850 253.000
78.27845 246.000
78.29840 259.000
78.31834 237.000
78.33829 281.000
78.35824 247.000
78.37819 244.000
78.39813 276.000
78.41808 248.000
78.43803 263.000
78.45797 257.000
78.47792 260.000
78.49787 235.000
78.51781 246.000
78.53776 260.000
78.55771 262.000
78.57765 245.000
78.59760 275.000
78.61755 290.000
78.63750 254.000
78.65744 255.000
78.67739 280.000
78.69734 239.000
78.71728 257.000
78.73723 237.000
78.75718 242.000
78.77712 256.000
78.79707 230.000
78.81702 281.000
78.83697 245.000
78.85691 272.000
78.87686 240.000
78.89681 267.000
78.91675 250.000
78.93670 282.000
78.95665 257.000
78.97659 247.000
78.99654 255.000
79.01649 269.000
79.03643 230.000
79.05638 238.000
79.07633 284.000
79.09628 235.000
79.11622 225.000
79.13617 233.000
79.15612 229.000
79.17606 247.000
79.19601 242.000
79.21596 213.000
79.23590 245.000
79.25585 262.000
79.27580 245.000
79.29575 248.000
79.31569 250.000
79.33564 217.000
79.35559 244.000
79.37553 243.000
79.39548 257.000
79.41543 244.000
79.43537 261.000
79.45532 259.000
79.47527 247.000
79.49521 261.000
79.51516 227.000
79.53511 228.000
79.55506 273.000
79.57500 277.000
79.59495 234.000
79.61490 250.000
79.63484 243.000
79.65479 258.000
79.67474 258.000
79.69468 260.000
79.71463 251.000
79.73458 241.000
79.75453 241.000
79.77447 247.000
79.79442 256.000
79.81437 291.000
79.83431 223.000
79.85426 264.000
79.87421 247.000
79.89415 259.000
79.91410 231.000
79.93405 253.000
79.95399 276.000
79.97394 249.000
79.99389 260.000
80.01384 255.000
80.03378 247.000
80.05373 257.000
80.07368 261.000
80.09362 296.000
80.11357 295.000
80.13352 290.000
80.15346 320.000
80.17341 274.000
80.19336 290.000
80.21331 265.000
80.23325 241.000
80.25320 287.000
80.27315 257.000
80.29309 238.000
80.31304 268.000
80.33299 259.000
80.35293 295.000
80.37288 257.000
80.39283 244.000
80.41278 260.000
80.43272 262.000
80.45267 249.000
80.47262 233.000
80.49256 221.000
80.51251 227.000
80.53246 280.000
80.55240 259.000
80.57235 256.000
80.59230 247.000
80.61224 261.000
80.63219 248.000
80.65214 226.000
80.67209 232.000
80.69203 248.000
80.71198 243.000
80.73193 266.000
80.75187 223.000
80.77182 255.000
80.79177 256.000
80.81171 227.000
80.83166 233.000
80.85161 254.000
80.87156 254.000
80.89150 238.000
80.91145 250.000
80.93140 216.000
80.95134 267.000
80.97129 234.000
80.99124 257.000
81.01118 257.000
81.03113 229.000
81.05108 226.000
81.07102 260.000
81.09097 240.000
81.11092 264.000
81.13087 264.000
81.15081 251.000
81.17076 257.000
81.19071 252.000
81.21065 238.000
81.23060 277.000
81.25055 241.000
81.27049 245.000
81.29044 247.000
81.31039 234.000
81.33034 243.000
81.35028 248.000
81.37023 243.000
81.39018 253.000
81.41012 267.000
81.43007 238.000
81.45002 256.000
81.46996 257.000
81.48991 256.000
81.50986 247.000
81.52980 222.000
81.54975 243.000
81.56970 250.000
81.58965 283.000
81.60959 248.000
81.62954 243.000
81.64949 255.000
81.66943 269.000
81.68938 274.000
81.70933 249.000
81.72927 287.000
81.74922 246.000
81.76917 257.000
81.78912 247.000
81.80906 231.000
81.82901 257.000
81.84896 268.000
81.86890 255.000
81.88885 242.000
81.90880 253.000
81.92874 255.000
81.94869 233.000
81.96864 243.000
81.98859 273.000
82.00853 253.000
82.02848 261.000
82.04843 251.000
82.06837 245.000
82.08832 248.000
82.10827 264.000
82.12821 293.000
82.14816 269.000
82.16811 282.000
82.18805 283.000
82.20800 295.000
82.22795 271.000
82.24790 302.000
82.26784 320.000
82.28779 309.000
82.30774 349.000
82.32768 330.000
82.34763 291.000
82.36758 349.000
82.38752 282.000
82.40747 306.000
82.42742 320.000
82.44737 275.000
82.46731 289.000
82.48726 287.000
82.50721 292.000
82.52715 296.000
82.54710 282.000
82.56705 299.000
82.58699 278.000
82.60694 301.000
82.62689 279.000
82.64683 262.000
82.66678 258.000
82.68673 276.000
82.70668 261.000
82.72662 290.000
82.74657 286.000
82.76652 301.000
82.78646 269.000
82.80641 288.000
82.82636 277.000
82.84630 269.000
82.86625 275.000
82.88620 260.000
82.90615 280.000
82.92609 250.000
82.94604 296.000
82.96599 298.000
82.98593 246.000
83.00588 288.000
83.02583 286.000
83.04577 290.000
83.06572 292.000
83.08567 328.000
83.10561 297.000
83.12556 304.000
83.14551 300.000
83.16546 302.000
83.18540 309.000
83.20535 270.000
83.22530 261.000
83.24524 286.000
83.26519 300.000
83.28514 305.000
83.30508 309.000
83.32503 324.000
83.34498 289.000
83.36493 303.000
83.38487 284.000
83.40482 295.000
83.42477 293.000
83.44471 298.000
83.46466 305.000
83.48461 356.000
83.50455 326.000
83.52450 330.000
83.54445 323.000
83.56440 335.000
83.58434 339.000
83.60429 324.000
83.62424 321.000
83.64418 287.000
83.66413 296.000
83.68408 267.000
83.70402 316.000
83.72397 318.000
83.74392 297.000
83.76386 324.000
83.78381 308.000
83.80376 306.000
83.82371 329.000
83.84365 296.000
83.86360 294.000
83.88355 326.000
83.90349 286.000
83.92344 286.000
83.94339 280.000
83.96333 295.000
83.98328 313.000
84.00323 258.000
84.02318 263.000
84.04312 255.000
84.06307 247.000
84.08302 289.000
84.10296 298.000
84.12291 248.000
84.14286 246.000
84.16280 239.000
84.18275 263.000
84.20270 244.000
84.22264 261.000
84.24259 265.000
84.26254 268.000
84.28249 237.000
84.30243 274.000
84.32238 286.000
84.34233 268.000
84.36227 258.000
84.38222 240.000
84.40217 254.000
84.42211 268.000
84.44206 270.000
84.46201 249.000
84.48196 237.000
84.50190 264.000
84.52185 270.000
84.54180 241.000
84.56174 293.000
84.58169 247.000
84.60164 263.000
84.62158 247.000
84.64153 257.000
84.66148 260.000
84.68142 240.000
84.70137 261.000
84.72132 267.000
84.74127 251.000
84.76121 252.000
84.78116 260.000
84.80111 253.000
84.82105 268.000
84.84100 259.000
84.86095 238.000
84.88089 285.000
84.90084 268.000
84.92079 282.000
84.94074 246.000
84.96068 272.000
84.98063 256.000
85.00058 265.000
85.02052 269.000
85.04047 289.000
85.06042 301.000
85.08036 283.000
85.10031 283.000
85.12026 301.000
85.14021 298.000
85.16015 289.000
85.18010 267.000
85.20005 309.000
85.21999 270.000
85.23994 234.000
85.25989 307.000
85.27983 238.000
85.29978 282.000
85.31973 255.000
85.33967 251.000
85.35962 247.000
85.37957 289.000
85.39952 256.000
85.41946 307.000
85.43941 242.000
85.45936 234.000
85.47930 256.000
85.49925 254.000
85.51920 250.000
85.53914 264.000
85.55909 257.000
85.57904 246.000
85.59899 277.000
85.61893 247.000
85.63888 266.000
85.65883 267.000
85.67877 253.000
85.69872 265.000
85.71867 265.000
85.73861 234.000
85.75856 238.000
85.77851 260.000
85.79845 241.000
85.81840 252.000
85.83835 239.000
85.85830 253.000
85.87824 246.000
85.89819 234.000
85.91814 224.000
85.93808 269.000
85.95803 228.000
85.97798 241.000
85.99792 269.000
86.01787 268.000
86.03782 236.000
86.05777 257.000
86.07771 258.000
86.09766 216.000
86.11761 241.000
86.13755 253.000
86.15750 249.000
86.17745 239.000
86.19739 250.000
86.21734 245.000
86.23729 234.000
86.25723 257.000
86.27718 239.000
86.29713 215.000
86.31708 239.000
86.33702 244.000
86.35697 290.000
86.37692 283.000
86.39686 273.000
86.41681 256.000
86.43676 256.000
86.45670 321.000
86.47665 251.000
86.49660 271.000
86.51655 272.000
86.53649 240.000
86.55644 270.000
86.57639 264.000
86.59633 272.000
86.61628 260.000
86.63623 259.000
86.65617 257.000
86.67612 260.000
86.69607 275.000
86.71602 266.000
86.73596 248.000
86.75591 256.000
86.77586 274.000
86.79580 258.000
86.81575 296.000
86.83570 287.000
86.85564 281.000
86.87559 250.000
86.89554 264.000
86.91548 237.000
86.93543 254.000
86.95538 254.000
86.97533 254.000
86.99527 271.000
87.01522 269.000
87.03517 249.000
87.05511 273.000
87.07506 240.000
87.09501 246.000
87.11495 245.000
87.13490 259.000
87.15485 225.000
87.17480 252.000
87.19474 262.000
87.21469 240.000
87.23464 240.000
87.25458 207.000
87.27453 236.000
87.29448 258.000
87.31442 249.000
87.33437 243.000
87.35432 263.000
87.37426 241.000
87.39421 282.000
87.41416 226.000
87.43411 260.000
87.45405 257.000
87.47400 274.000
87.49395 260.000
87.51389 257.000
87.53384 281.000
87.55379 254.000
87.57373 269.000
87.59368 248.000
87.61363 299.000
87.63358 255.000
87.65352 296.000
87.67347 251.000
87.69342 258.000
87.71336 276.000
87.73331 253.000
87.75326 256.000
87.77320 255.000
87.79315 254.000
87.81310 270.000
87.83304 252.000
87.85299 245.000
87.87294 259.000
87.89289 266.000
87.91283 276.000
87.93278 251.000
87.95273 227.000
87.97267 248.000
87.99262 287.000
88.01257 245.000
88.03251 243.000
88.05246 257.000
88.07241 255.000
88.09236 234.000
88.11230 263.000
88.13225 249.000
88.15220 246.000
88.17214 259.000
88.19209 246.000
88.21204 239.000
88.23198 273.000
88.25193 252.000
88.27188 269.000
88.29183 274.000
88.31177 246.000
88.33172 241.000
88.35167 244.000
88.37161 264.000
88.39156 261.000
88.41151 259.000
88.43145 238.000
88.45140 285.000
88.47135 245.000
88.49129 261.000
88.51124 276.000
88.53119 250.000
88.55114 257.000
88.57108 280.000
88.59103 242.000
88.61098 242.000
88.63092 253.000
88.65087 243.000
88.67082 264.000
88.69076 243.000
88.71071 262.000
88.73066 244.000
88.75061 264.000
88.77055 243.000
88.79050 248.000
88.81045 246.000
88.83039 206.000
88.85034 260.000
88.87029 263.000
88.89023 253.000
88.91018 234.000
88.93013 230.000
88.95007 270.000
88.97002 268.000
88.98997 265.000
89.00992 243.000
89.02986 224.000
89.04981 231.000
89.06976 289.000
89.08970 224.000
89.10965 261.000
89.12960 259.000
89.14954 247.000
89.16949 255.000
89.18944 233.000
89.20939 288.000
89.22933 261.000
89.24928 257.000
89.26923 280.000
89.28917 245.000
89.30912 262.000
89.32907 263.000
89.34901 251.000
89.36896 243.000
89.38891 238.000
89.40885 263.000
89.42880 240.000
89.44875 252.000
89.46870 259.000
89.48864 269.000
89.50859 251.000
89.52854 280.000
89.54848 294.000
89.56843 255.000
89.58838 288.000
89.60832 278.000
89.62827 283.000
89.64822 246.000
89.66817 262.000
89.68811 307.000
89.70806 282.000
89.72801 292.000
89.74795 315.000
89.76790 318.000
89.78785 316.000
89.80779 326.000
89.82774 318.000
89.84769 307.000
89.86764 301.000
89.88758 320.000
89.90753 295.000
89.92748 276.000
89.94742 268.000
89.96737 320.000
89.98732 286.000
90.00726 331.000
