10.00000 237.000
10.01995 209.000
10.03989 241.000
10.05984 230.000
10.07979 244.000
10.09973 222.000
10.11968 235.000
10.13963 228.000
10.15958 270.000
10.17952 250.000
10.19947 243.000
10.21942 254.000
10.23936 260.000
10.25931 233.000
10.27926 273.000
10.29920 244.000
10.31915 222.000
10.33910 244.000
10.35905 229.000
10.37899 205.000
10.39894 240.000
10.41889 265.000
10.43883 217.000
10.45878 245.000
10.47873 209.000
10.49867 238.000
10.51862 217.000
10.53857 238.000
10.55851 211.000
10.57846 231.000
10.59841 240.000
10.61836 220.000
10.63830 252.000
10.65825 260.000
10.67820 266.000
10.69814 251.000
10.71809 244.000
10.73804 265.000
10.75798 228.000
10.77793 234.000
10.79788 257.000
10.81783 258.000
10.83777 235.000
10.85772 257.000
10.87767 257.000
10.89761 244.000
10.91756 244.000
10.93751 222.000
10.95745 242.000
10.97740 264.000
10.99735 257.000
11.01730 239.000
11.03724 233.000
11.05719 237.000
11.07714 230.000
11.09708 256.000
11.11703 245.000
11.13698 260.000
11.15692 236.000
11.17687 230.000
11.19682 251.000
11.21676 244.000
11.23671 240.000
11.25666 251.000
11.27661 248.000
11.29655 238.000
11.31650 228.000
11.33645 251.000
11.35639 234.000
11.37634 234.000
11.39629 231.000
11.41623 230.000
11.43618 265.000
11.45613 220.000
11.47608 261.000
11.49602 218.000
11.51597 246.000
11.53592 232.000
11.55586 267.000
11.57581 249.000
11.59576 226.000
11.61570 267.000
11.63565 222.000
11.65560 243.000
11.67554 258.000
11.69549 258.000
11.71544 230.000
11.73539 245.000
11.75533 262.000
11.77528 244.000
11.79523 269.000
11.81517 268.000
11.83512 272.000
11.85507 239.000
11.87501 267.000
11.89496 261.000
11.91491 255.000
11.93486 257.000
11.95480 260.000
11.97475 261.000
11.99470 279.000
12.01464 250.000
12.03459 249.000
12.05454 260.000
12.07448 263.000
12.09443 260.000
12.11438 238.000
12.13432 233.000
12.15427 251.000
12.17422 261.000
12.19417 267.000
12.21411 262.000
12.23406 289.000
12.25401 259.000
12.27395 265.000
12.29390 281.000
12.31385 237.000
12.33379 267.000
12.35374 302.000
12.37369 251.000
12.39364 242.000
12.41358 262.000
12.43353 252.000
12.45348 264.000
12.47342 261.000
12.49337 259.000
12.51332 243.000
12.53326 238.000
12.55321 272.000
12.57316 258.000
12.59311 242.000
12.61305 263.000
12.63300 261.000
12.65295 232.000
12.67289 288.000
12.69284 227.000
12.71279 308.000
12.73273 259.000
12.75268 249.000
12.77263 263.000
12.79257 282.000
12.81252 268.000
12.83247 246.000
12.85242 274.000
12.87236 263.000
12.89231 271.000
12.91226 275.000
12.93220 288.000
12.95215 272.000
12.97210 266.000
12.99204 284.000
13.01199 257.000
13.03194 265.000
13.05189 278.000
13.07183 301.000
13.09178 257.000
13.11173 249.000
13.13167 260.000
13.15162 272.000
13.17157 275.000
13.19151 265.000
13.21146 281.000
13.23141 289.000
13.25135 268.000
13.27130 253.000
13.29125 264.000
13.31120 268.000
13.33114 286.000
13.35109 285.000
13.37104 278.000
13.39098 263.000
13.41093 247.000
13.43088 266.000
13.45082 278.000
13.47077 274.000
13.49072 282.000
13.51067 265.000
13.53061 268.000
13.55056 274.000
13.57051 256.000
13.59045 234.000
13.61040 295.000
13.63035 307.000
13.65029 268.000
13.67024 271.000
13.69019 306.000
13.71013 277.000
13.73008 291.000
13.75003 287.000
13.76998 301.000
13.78992 293.000
13.80987 255.000
13.82982 296.000
13.84976 275.000
13.86971 274.000
13.88966 271.000
13.90960 290.000
13.92955 293.000
13.94950 290.000
13.96945 248.000
13.98939 322.000
14.00934 294.000
14.02929 275.000
14.04923 282.000
14.06918 257.000
14.08913 270.000
14.10907 267.000
14.12902 256.000
14.14897 247.000
14.16892 264.000
14.18886 278.000
14.20881 259.000
14.22876 297.000
14.24870 319.000
14.26865 263.000
14.28860 268.000
14.30854 274.000
14.32849 272.000
14.34844 273.000
14.36838 286.000
14.38833 275.000
14.40828 276.000
14.42823 278.000
14.44817 252.000
14.46812 325.000
14.48807 301.000
14.50801 261.000
14.52796 282.000
14.54791 278.000
14.56785 273.000
14.58780 289.000
14.60775 287.000
14.62770 273.000
14.64764 295.000
14.66759 281.000
14.68754 308.000
14.70748 303.000
14.72743 285.000
14.74738 300.000
14.76732 285.000
14.78727 308.000
14.80722 290.000
14.82716 322.000
14.84711 314.000
14.86706 320.000
14.88701 287.000
14.90695 287.000
14.92690 314.000
14.94685 298.000
14.96679 320.000
14.98674 320.000
15.00669 329.000
15.02663 302.000
15.04658 299.000
15.06653 303.000
15.08648 327.000
15.10642 339.000
15.12637 324.000
15.14632 295.000
15.16626 302.000
15.18621 323.000
15.20616 357.000
15.22610 325.000
15.24605 367.000
15.26600 347.000
15.28594 362.000
15.30589 362.000
15.32584 379.000
15.34579 366.000
15.36573 359.000
15.38568 367.000
15.40563 403.000
15.42557 411.000
15.44552 428.000
15.46547 454.000
15.48541 465.000
15.50536 524.000
15.52531 544.000
15.54526 685.000
15.56520 800.000
15.58515 987.000
15.60510 1226.000
15.62504 1414.000
15.64499 1790.000
15.66494 2134.000
15.68488 2539.000
15.70483 3139.000
15.72478 3708.000
15.74472 4274.000
15.76467 4745.000
15.78462 4591.000
15.80457 4227.000
15.82451 3404.000
15.84446 2350.000
15.86441 1474.000
15.88435 1036.000
15.90430 664.000
15.92425 568.000
15.94419 499.000
15.96414 408.000
15.98409 433.000
16.00404 365.000
16.02398 350.000
16.04393 371.000
16.06388 399.000
16.08382 377.000
16.10377 391.000
16.12372 343.000
16.14366 374.000
16.16361 322.000
16.18356 337.000
16.20351 317.000
16.22345 333.000
16.24340 322.000
16.26335 294.000
16.28329 326.000
16.30324 317.000
16.32319 310.000
16.34313 302.000
16.36308 309.000
16.38303 350.000
16.40297 350.000
16.42292 313.000
16.44287 300.000
16.46282 315.000
16.48276 346.000
16.50271 322.000
16.52266 296.000
16.54260 272.000
16.56255 292.000
16.58250 331.000
16.60244 321.000
16.62239 306.000
16.64234 296.000
16.66229 270.000
16.68223 269.000
16.70218 309.000
16.72213 280.000
16.74207 307.000
16.76202 301.000
16.78197 286.000
16.80191 339.000
16.82186 300.000
16.84181 290.000
16.86175 271.000
16.88170 296.000
16.90165 293.000
16.92160 327.000
16.94154 273.000
16.96149 307.000
16.98144 291.000
17.00138 272.000
17.02133 296.000
17.04128 317.000
17.06122 297.000
17.08117 295.000
17.10112 290.000
17.12107 287.000
17.14101 296.000
17.16096 296.000
17.18091 308.000
17.20085 264.000
17.22080 337.000
17.24075 277.000
17.26069 299.000
17.28064 317.000
17.30059 260.000
17.32053 328.000
17.34048 321.000
17.36043 262.000
17.38038 295.000
17.40032 310.000
17.42027 317.000
17.44022 298.000
17.46016 336.000
17.48011 279.000
17.50006 297.000
17.52000 261.000
17.53995 319.000
17.55990 269.000
17.57985 316.000
17.59979 304.000
17.61974 305.000
17.63969 306.000
17.65963 304.000
17.67958 303.000
17.69953 292.000
17.71947 308.000
17.73942 320.000
17.75937 281.000
17.77932 306.000
17.79926 309.000
17.81921 287.000
17.83916 320.000
17.85910 307.000
17.87905 308.000
17.89900 298.000
17.91894 319.000
17.93889 273.000
17.95884 303.000
17.97878 321.000
17.99873 273.000
18.01868 337.000
18.03863 328.000
18.05857 290.000
18.07852 272.000
18.09847 298.000
18.11841 322.000
18.13836 299.000
18.15831 316.000
18.17825 325.000
18.19820 304.000
18.21815 292.000
18.23810 346.000
18.25804 344.000
18.27799 341.000
18.29794 345.000
18.31788 294.000
18.33783 373.000
18.35778 320.000
18.37772 325.000
18.39767 335.000
18.41762 338.000
18.43756 341.000
18.45751 293.000
18.47746 313.000
18.49741 310.000
18.51735 308.000
18.53730 283.000
18.55725 281.000
18.57719 286.000
18.59714 286.000
18.61709 285.000
18.63703 305.000
18.65698 305.000
18.67693 310.000
18.69688 304.000
18.71682 303.000
18.73677 289.000
18.75672 324.000
18.77666 299.000
18.79661 329.000
18.81656 328.000
18.83650 314.000
18.85645 311.000
18.87640 293.000
18.89634 338.000
18.91629 323.000
18.93624 286.000
18.95619 292.000
18.97613 321.000
18.99608 299.000
19.01603 320.000
19.03597 283.000
19.05592 318.000
19.07587 301.000
19.09581 323.000
19.11576 317.000
19.13571 311.000
19.15566 332.000
19.17560 287.000
19.19555 319.000
19.21550 286.000
19.23544 309.000
19.25539 282.000
19.27534 309.000
19.29528 300.000
19.31523 319.000
19.33518 292.000
19.35513 317.000
19.37507 303.000
19.39502 310.000
19.41497 304.000
19.43491 312.000
19.45486 321.000
19.47481 291.000
19.49475 304.000
19.51470 302.000
19.53465 311.000
19.55459 306.000
19.57454 327.000
19.59449 321.000
19.61444 316.000
19.63438 299.000
19.65433 319.000
19.67428 312.000
19.69422 311.000
19.71417 289.000
19.73412 344.000
19.75406 281.000
19.77401 323.000
19.79396 290.000
19.81391 323.000
19.83385 296.000
19.85380 302.000
19.87375 325.000
19.89369 300.000
19.91364 327.000
19.93359 315.000
19.95353 308.000
19.97348 299.000
19.99343 295.000
20.01337 311.000
20.03332 340.000
20.05327 329.000
20.07322 302.000
20.09316 305.000
20.11311 338.000
20.13306 320.000
20.15300 314.000
20.17295 312.000
20.19290 309.000
20.21284 318.000
20.23279 320.000
20.25274 329.000
20.27269 313.000
20.29263 304.000
20.31258 310.000
20.33253 290.000
20.35247 295.000
20.37242 312.000
20.39237 285.000
20.41231 318.000
20.43226 312.000
20.45221 271.000
20.47215 329.000
20.49210 316.000
20.51205 337.000
20.53200 316.000
20.55194 337.000
20.57189 310.000
20.59184 341.000
20.61178 279.000
20.63173 337.000
20.65168 346.000
20.67162 313.000
20.69157 335.000
20.71152 270.000
20.73147 315.000
20.75141 331.000
20.77136 312.000
20.79131 310.000
20.81125 338.000
20.83120 338.000
20.85115 321.000
20.87109 331.000
20.89104 358.000
20.91099 354.000
20.93094 339.000
20.95088 405.000
20.97083 401.000
20.99078 408.000
21.01072 424.000
21.03067 453.000
21.05062 493.000
21.07056 466.000
21.09051 431.000
21.11046 477.000
21.13040 411.000
21.15035 353.000
21.17030 357.000
21.19025 323.000
21.21019 333.000
21.23014 344.000
21.25009 322.000
21.27003 305.000
21.28998 305.000
21.30993 327.000
21.32987 322.000
21.34982 328.000
21.36977 316.000
21.38972 322.000
21.40966 331.000
21.42961 297.000
21.44956 331.000
21.46950 310.000
21.48945 315.000
21.50940 303.000
21.52934 345.000
21.54929 291.000
21.56924 339.000
21.58918 338.000
21.60913 317.000
21.62908 297.000
21.64903 329.000
21.66897 308.000
21.68892 296.000
21.70887 305.000
21.72881 315.000
21.74876 344.000
21.76871 310.000
21.78865 288.000
21.80860 322.000
21.82855 329.000
21.84850 328.000
21.86844 295.000
21.88839 321.000
21.90834 321.000
21.92828 340.000
21.94823 322.000
21.96818 334.000
21.98812 319.000
22.00807 311.000
22.02802 327.000
22.04796 293.000
22.06791 307.000
22.08786 302.000
22.10781 289.000
22.12775 302.000
22.14770 310.000
22.16765 325.000
22.18759 288.000
22.20754 297.000
22.22749 352.000
22.24743 293.000
22.26738 332.000
22.28733 321.000
22.30728 364.000
22.32722 317.000
22.34717 295.000
22.36712 335.000
22.38706 314.000
22.40701 303.000
22.42696 314.000
22.44690 322.000
22.46685 326.000
22.48680 350.000
22.50675 331.000
22.52669 332.000
22.54664 328.000
22.56659 349.000
22.58653 299.000
22.60648 347.000
22.62643 331.000
22.64637 321.000
22.66632 326.000
22.68627 303.000
22.70621 297.000
22.72616 319.000
22.74611 322.000
22.76606 316.000
22.78600 309.000
22.80595 324.000
22.82590 312.000
22.84584 324.000
22.86579 275.000
22.88574 330.000
22.90568 320.000
22.92563 347.000
22.94558 321.000
22.96553 315.000
22.98547 335.000
23.00542 360.000
23.02537 374.000
23.04531 345.000
23.06526 381.000
23.08521 347.000
23.10515 288.000
23.12510 316.000
23.14505 324.000
23.16499 282.000
23.18494 326.000
23.20489 331.000
23.22484 298.000
23.24478 342.000
23.26473 341.000
23.28468 338.000
23.30462 333.000
23.32457 335.000
23.34452 325.000
23.36446 338.000
23.38441 314.000
23.40436 326.000
23.42431 343.000
23.44425 296.000
23.46420 335.000
23.48415 288.000
23.50409 309.000
23.52404 316.000
23.54399 305.000
23.56393 354.000
23.58388 340.000
23.60383 326.000
23.62377 322.000
23.64372 327.000
23.66367 333.000
23.68362 299.000
23.70356 370.000
23.72351 325.000
23.74346 302.000
23.76340 313.000
23.78335 350.000
23.80330 325.000
23.82324 316.000
23.84319 318.000
23.86314 293.000
23.88309 350.000
23.90303 338.000
23.92298 305.000
23.94293 323.000
23.96287 323.000
23.98282 318.000
24.00277 294.000
24.02271 326.000
24.04266 315.000
24.06261 330.000
24.08256 307.000
24.10250 292.000
24.12245 345.000
24.14240 314.000
24.16234 330.000
24.18229 352.000
24.20224 332.000
24.22218 323.000
24.24213 328.000
24.26208 324.000
24.28202 331.000
24.30197 305.000
24.32192 378.000
24.34187 345.000
24.36181 338.000
24.38176 331.000
24.40171 304.000
24.42165 361.000
24.44160 329.000
24.46155 349.000
24.48149 329.000
24.50144 303.000
24.52139 325.000
24.54134 341.000
24.56128 304.000
24.58123 352.000
24.60118 331.000
24.62112 332.000
24.64107 340.000
24.66102 350.000
24.68096 322.000
24.70091 326.000
24.72086 325.000
24.74080 328.000
24.76075 351.000
24.78070 322.000
24.80065 312.000
24.82059 348.000
24.84054 336.000
24.86049 312.000
24.88043 338.000
24.90038 345.000
24.92033 317.000
24.94027 347.000
24.96022 310.000
24.98017 348.000
25.00012 351.000
25.02006 350.000
25.04001 358.000
25.05996 339.000
25.07990 331.000
25.09985 324.000
25.11980 325.000
25.13974 325.000
25.15969 384.000
25.17964 338.000
25.19958 331.000
25.21953 307.000
25.23948 308.000
25.25943 358.000
25.27937 350.000
25.29932 366.000
25.31927 317.000
25.33921 345.000
25.35916 356.000
25.37911 366.000
25.39905 308.000
25.41900 314.000
25.43895 350.000
25.45890 344.000
25.47884 352.000
25.49879 349.000
25.51874 365.000
25.53868 355.000
25.55863 338.000
25.57858 344.000
25.59852 337.000
25.61847 336.000
25.63842 352.000
25.65837 353.000
25.67831 339.000
25.69826 364.000
25.71821 324.000
25.73815 347.000
25.75810 319.000
25.77805 361.000
25.79799 335.000
25.81794 325.000
25.83789 368.000
25.85783 335.000
25.87778 354.000
25.89773 332.000
25.91768 346.000
25.93762 366.000
25.95757 355.000
25.97752 338.000
25.99746 351.000
26.01741 342.000
26.03736 382.000
26.05730 357.000
26.07725 302.000
26.09720 340.000
26.11715 388.000
26.13709 355.000
26.15704 370.000
26.17699 357.000
26.19693 372.000
26.21688 367.000
26.23683 332.000
26.25677 358.000
26.27672 363.000
26.29667 361.000
26.31661 337.000
26.33656 362.000
26.35651 390.000
26.37646 350.000
26.39640 372.000
26.41635 337.000
26.43630 379.000
26.45624 322.000
26.47619 364.000
26.49614 388.000
26.51608 361.000
26.53603 372.000
26.55598 356.000
26.57593 371.000
26.59587 377.000
26.61582 361.000
26.63577 367.000
26.65571 380.000
26.67566 330.000
26.69561 365.000
26.71555 342.000
26.73550 393.000
26.75545 344.000
26.77539 368.000
26.79534 382.000
26.81529 334.000
26.83524 352.000
26.85518 348.000
26.87513 365.000
26.89508 342.000
26.91502 368.000
26.93497 385.000
26.95492 367.000
26.97486 393.000
26.99481 424.000
27.01476 360.000
27.03471 347.000
27.05465 368.000
27.07460 400.000
27.09455 348.000
27.11449 385.000
27.13444 412.000
27.15439 415.000
27.17433 357.000
27.19428 350.000
27.21423 389.000
27.23417 383.000
27.25412 362.000
27.27407 359.000
27.29402 387.000
27.31396 354.000
27.33391 380.000
27.35386 397.000
27.37380 366.000
27.39375 345.000
27.41370 355.000
27.43364 386.000
27.45359 339.000
27.47354 371.000
27.49349 359.000
27.51343 378.000
27.53338 385.000
27.55333 388.000
27.57327 356.000
27.59322 375.000
27.61317 338.000
27.63311 377.000
27.65306 361.000
27.67301 381.000
27.69296 410.000
27.71290 367.000
27.73285 371.000
27.75280 387.000
27.77274 382.000
27.79269 365.000
27.81264 409.000
27.83258 381.000
27.85253 399.000
27.87248 352.000
27.89242 372.000
27.91237 403.000
27.93232 378.000
27.95227 388.000
27.97221 377.000
27.99216 380.000
28.01211 379.000
28.03205 375.000
28.05200 371.000
28.07195 352.000
28.09189 383.000
28.11184 358.000
28.13179 370.000
28.15174 387.000
28.17168 364.000
28.19163 387.000
28.21158 385.000
28.23152 351.000
28.25147 426.000
28.27142 382.000
28.29136 390.000
28.31131 366.000
28.33126 376.000
28.35120 393.000
28.37115 360.000
28.39110 404.000
28.41105 353.000
28.43099 379.000
28.45094 388.000
28.47089 388.000
28.49083 367.000
28.51078 405.000
28.53073 370.000
28.55067 375.000
28.57062 391.000
28.59057 356.000
28.61052 367.000
28.63046 372.000
28.65041 366.000
28.67036 410.000
28.69030 390.000
28.71025 373.000
28.73020 377.000
28.75014 411.000
28.77009 409.000
28.79004 360.000
28.80998 374.000
28.82993 383.000
28.84988 350.000
28.86983 344.000
28.88977 357.000
28.90972 408.000
28.92967 414.000
28.94961 363.000
28.96956 364.000
28.98951 371.000
29.00945 352.000
29.02940 363.000
29.04935 349.000
29.06930 426.000
29.08924 339.000
29.10919 404.000
29.12914 392.000
29.14908 385.000
29.16903 400.000
29.18898 365.000
29.20892 408.000
29.22887 383.000
29.24882 380.000
29.26877 391.000
29.28871 388.000
29.30866 391.000
29.32861 415.000
29.34855 389.000
29.36850 395.000
29.38845 425.000
29.40839 394.000
29.42834 397.000
29.44829 390.000
29.46823 433.000
29.48818 402.000
29.50813 388.000
29.52808 379.000
29.54802 396.000
29.56797 395.000
29.58792 411.000
29.60786 389.000
29.62781 391.000
29.64776 358.000
29.66770 374.000
29.68765 401.000
29.70760 389.000
29.72755 381.000
29.74749 348.000
29.76744 385.000
29.78739 413.000
29.80733 386.000
29.82728 379.000
29.84723 395.000
29.86717 387.000
29.88712 383.000
29.90707 344.000
29.92701 384.000
29.94696 403.000
29.96691 401.000
29.98686 390.000
30.00680 406.000
30.02675 368.000
30.04670 385.000
30.06664 418.000
30.08659 419.000
30.10654 399.000
30.12648 397.000
30.14643 391.000
30.16638 415.000
30.18633 391.000
30.20627 396.000
30.22622 434.000
30.24617 443.000
30.26611 456.000
30.28606 499.000
30.30601 460.000
30.32595 469.000
30.34590 489.000
30.36585 432.000
30.38579 437.000
30.40574 408.000
30.42569 452.000
30.44564 438.000
30.46558 385.000
30.48553 424.000
30.50548 400.000
30.52542 372.000
30.54537 387.000
30.56532 382.000
30.58526 368.000
30.60521 440.000
30.62516 370.000
30.64511 371.000
30.66505 387.000
30.68500 393.000
30.70495 398.000
30.72489 399.000
30.74484 407.000
30.76479 418.000
30.78473 410.000
30.80468 418.000
30.82463 403.000
30.84458 398.000
30.86452 399.000
30.88447 372.000
30.90442 400.000
30.92436 408.000
30.94431 395.000
30.96426 352.000
30.98420 402.000
31.00415 410.000
31.02410 373.000
31.04404 390.000
31.06399 376.000
31.08394 379.000
31.10389 399.000
31.12383 377.000
31.14378 422.000
31.16373 382.000
31.18367 414.000
31.20362 435.000
31.22357 421.000
31.24351 402.000
31.26346 426.000
31.28341 431.000
31.30336 456.000
31.32330 467.000
31.34325 472.000
31.36320 472.000
31.38314 466.000
31.40309 453.000
31.42304 466.000
31.44298 421.000
31.46293 464.000
31.48288 457.000
31.50282 428.000
31.52277 453.000
31.54272 405.000
31.56267 410.000
31.58261 412.000
31.60256 428.000
31.62251 409.000
31.64245 432.000
31.66240 416.000
31.68235 447.000
31.70229 429.000
31.72224 430.000
31.74219 490.000
31.76214 510.000
31.78208 526.000
31.80203 558.000
31.82198 604.000
31.84192 665.000
31.86187 660.000
31.88182 718.000
31.90176 851.000
31.92171 825.000
31.94166 875.000
31.96160 783.000
31.98155 809.000
32.00150 727.000
32.02145 646.000
32.04139 569.000
32.06134 534.000
32.08129 500.000
32.10123 488.000
32.12118 480.000
32.14113 482.000
32.16107 401.000
32.18102 415.000
32.20097 405.000
32.22092 406.000
32.24086 428.000
32.26081 432.000
32.28076 409.000
32.30070 432.000
32.32065 459.000
32.34060 433.000
32.36054 455.000
32.38049 487.000
32.40044 478.000
32.42039 484.000
32.44033 484.000
32.46028 488.000
32.48023 468.000
32.50017 461.000
32.52012 467.000
32.54007 396.000
32.56001 385.000
32.57996 396.000
32.59991 404.000
32.61985 453.000
32.63980 413.000
32.65975 409.000
32.67970 392.000
32.69964 417.000
32.71959 354.000
32.73954 403.000
32.75948 388.000
32.77943 406.000
32.79938 385.000
32.81932 400.000
32.83927 428.000
32.85922 390.000
32.87917 372.000
32.89911 387.000
32.91906 375.000
32.93901 380.000
32.95895 372.000
32.97890 371.000
32.99885 374.000
33.01879 335.000
33.03874 393.000
33.05869 426.000
33.07863 388.000
33.09858 401.000
33.11853 395.000
33.13848 368.000
33.15842 398.000
33.17837 369.000
33.19832 342.000
33.21826 362.000
33.23821 411.000
33.25816 357.000
33.27810 363.000
33.29805 404.000
33.31800 405.000
33.33795 389.000
33.35789 408.000
33.37784 376.000
33.39779 384.000
33.41773 351.000
33.43768 356.000
33.45763 359.000
33.47757 364.000
33.49752 401.000
33.51747 383.000
33.53741 408.000
33.55736 378.000
33.57731 350.000
33.59726 360.000
33.61720 355.000
33.63715 407.000
33.65710 383.000
33.67704 391.000
33.69699 412.000
33.71694 416.000
33.73688 359.000
33.75683 362.000
33.77678 363.000
33.79673 403.000
33.81667 414.000
33.83662 363.000
33.85657 366.000
33.87651 382.000
33.89646 391.000
33.91641 375.000
33.93635 403.000
33.95630 348.000
33.97625 427.000
33.99620 401.000
34.01614 360.000
34.03609 358.000
34.05604 379.000
34.07598 427.000
34.09593 401.000
34.11588 396.000
34.13582 333.000
34.15577 412.000
34.17572 388.000
34.19566 405.000
34.21561 382.000
34.23556 382.000
34.25551 377.000
34.27545 366.000
34.29540 427.000
34.31535 361.000
34.33529 382.000
34.35524 411.000
34.37519 405.000
34.39513 385.000
34.41508 407.000
34.43503 369.000
34.45498 384.000
34.47492 382.000
34.49487 410.000
34.51482 350.000
34.53476 414.000
34.55471 422.000
34.57466 433.000
34.59460 409.000
34.61455 460.000
34.63450 426.000
34.65444 460.000
34.67439 450.000
34.69434 508.000
34.71429 574.000
34.73423 493.000
34.75418 501.000
34.77413 526.000
34.79407 519.000
34.81402 513.000
34.83397 517.000
34.85391 517.000
34.87386 457.000
34.89381 442.000
34.91376 435.000
34.93370 427.000
34.95365 430.000
34.97360 441.000
34.99354 443.000
35.01349 413.000
35.03344 477.000
35.05338 484.000
35.07333 455.000
35.09328 490.000
35.11322 463.000
35.13317 475.000
35.15312 524.000
35.17307 520.000
35.19301 562.000
35.21296 540.000
35.23291 609.000
35.25285 695.000
35.27280 706.000
35.29275 753.000
35.31269 773.000
35.33264 905.000
35.35259 1048.000
35.37254 1175.000
35.39248 1193.000
35.41243 1194.000
35.43238 1290.000
35.45232 1411.000
35.47227 1374.000
35.49222 1314.000
35.51216 1182.000
35.53211 1152.000
35.55206 1064.000
35.57201 1030.000
35.59195 897.000
35.61190 809.000
35.63185 846.000
35.65179 778.000
35.67174 789.000
35.69169 800.000
35.71163 783.000
35.73158 846.000
35.75153 839.000
35.77147 898.000
35.79142 1004.000
35.81137 1030.000
35.83132 1081.000
35.85126 1073.000
35.87121 1021.000
35.89116 953.000
35.91110 919.000
35.93105 812.000
35.95100 711.000
35.97094 688.000
35.99089 647.000
36.01084 584.000
36.03079 545.000
36.05073 501.000
36.07068 449.000
36.09063 446.000
36.11057 460.000
36.13052 473.000
36.15047 476.000
36.17041 471.000
36.19036 484.000
36.21031 506.000
36.23025 464.000
36.25020 488.000
36.27015 518.000
36.29010 525.000
36.31004 511.000
36.32999 517.000
36.34994 518.000
36.36988 466.000
36.38983 476.000
36.40978 445.000
36.42972 500.000
36.44967 465.000
36.46962 465.000
36.48957 456.000
36.50951 475.000
36.52946 483.000
36.54941 445.000
36.56935 448.000
36.58930 437.000
36.60925 473.000
36.62919 441.000
36.64914 476.000
36.66909 445.000
36.68903 479.000
36.70898 476.000
36.72893 510.000
36.74888 482.000
36.76882 496.000
36.78877 495.000
36.80872 523.000
36.82866 569.000
36.84861 594.000
36.86856 601.000
36.88850 634.000
36.90845 723.000
36.92840 726.000
36.94835 823.000
36.96829 1013.000
36.98824 1136.000
37.00819 1380.000
37.02813 1478.000
37.04808 1565.000
37.06803 1583.000
37.08797 1439.000
37.10792 1372.000
37.12787 1194.000
37.14781 1120.000
37.16776 1002.000
37.18771 827.000
37.20766 803.000
37.22760 683.000
37.24755 614.000
37.26750 534.000
37.28744 499.000
37.30739 500.000
37.32734 462.000
37.34728 466.000
37.36723 424.000
37.38718 397.000
37.40713 425.000
37.42707 421.000
37.44702 437.000
37.46697 485.000
37.48691 397.000
37.50686 375.000
37.52681 419.000
37.54675 390.000
37.56670 388.000
37.58665 411.000
37.60660 431.000
37.62654 425.000
37.64649 412.000
37.66644 398.000
37.68638 393.000
37.70633 403.000
37.72628 358.000
37.74622 428.000
37.76617 408.000
37.78612 431.000
37.80606 383.000
37.82601 411.000
37.84596 382.000
37.86591 404.000
37.88585 401.000
37.90580 418.000
37.92575 421.000
37.94569 418.000
37.96564 440.000
37.98559 438.000
38.00553 436.000
38.02548 428.000
38.04543 407.000
38.06538 397.000
38.08532 462.000
38.10527 433.000
38.12522 450.000
38.14516 450.000
38.16511 474.000
38.18506 438.000
38.20500 450.000
38.22495 442.000
38.24490 482.000
38.26484 465.000
38.28479 462.000
38.30474 470.000
38.32469 517.000
38.34463 527.000
38.36458 543.000
38.38453 605.000
38.40447 615.000
38.42442 608.000
38.44437 689.000
38.46431 747.000
38.48426 775.000
38.50421 854.000
38.52416 953.000
38.54410 1021.000
38.56405 1052.000
38.58400 1139.000
38.60394 1210.000
38.62389 1155.000
38.64384 1175.000
38.66378 1118.000
38.68373 1038.000
38.70368 1048.000
38.72362 972.000
38.74357 928.000
38.76352 805.000
38.78347 817.000
38.80341 740.000
38.82336 743.000
38.84331 721.000
38.86325 697.000
38.88320 696.000
38.90315 733.000
38.92309 673.000
38.94304 702.000
38.96299 635.000
38.98294 620.000
39.00288 662.000
39.02283 595.000
39.04278 583.000
39.06272 518.000
39.08267 538.000
39.10262 555.000
39.12256 526.000
39.14251 564.000
39.16246 536.000
39.18241 587.000
39.20235 563.000
39.22230 579.000
39.24225 651.000
39.26219 677.000
39.28214 724.000
39.30209 839.000
39.32203 1001.000
39.34198 1136.000
39.36193 1212.000
39.38187 1356.000
39.40182 1424.000
39.42177 1493.000
39.44172 1338.000
39.46166 1309.000
39.48161 1189.000
39.50156 1084.000
39.52150 966.000
39.54145 871.000
39.56140 761.000
39.58134 649.000
39.60129 608.000
39.62124 499.000
39.64119 492.000
39.66113 445.000
39.68108 446.000
39.70103 424.000
39.72097 411.000
39.74092 410.000
39.76087 371.000
39.78081 435.000
39.80076 399.000
39.82071 397.000
39.84065 373.000
39.86060 412.000
39.88055 352.000
39.90050 371.000
39.92044 400.000
39.94039 348.000
39.96034 389.000
39.98028 367.000
40.00023 381.000
40.02018 394.000
40.04012 370.000
40.06007 379.000
40.08002 369.000
40.09997 373.000
40.11991 360.000
40.13986 350.000
40.15981 360.000
40.17975 353.000
40.19970 344.000
40.21965 364.000
40.23959 367.000
40.25954 358.000
40.27949 343.000
40.29943 341.000
40.31938 374.000
40.33933 355.000
40.35928 341.000
40.37922 358.000
40.39917 351.000
40.41912 333.000
40.43906 373.000
40.45901 361.000
40.47896 357.000
40.49890 332.000
40.51885 326.000
40.53880 365.000
40.55875 392.000
40.57869 354.000
40.59864 400.000
40.61859 395.000
40.63853 382.000
40.65848 396.000
40.67843 382.000
40.69837 392.000
40.71832 378.000
40.73827 405.000
40.75822 376.000
40.77816 390.000
40.79811 415.000
40.81806 341.000
40.83800 387.000
40.85795 356.000
40.87790 372.000
40.89784 348.000
40.91779 368.000
40.93774 368.000
40.95768 383.000
40.97763 370.000
40.99758 319.000
41.01753 358.000
41.03747 348.000
41.05742 340.000
41.07737 325.000
41.09731 345.000
41.11726 348.000
41.13721 353.000
41.15715 363.000
41.17710 387.000
41.19705 377.000
41.21700 401.000
41.23694 361.000
41.25689 330.000
41.27684 349.000
41.29678 354.000
41.31673 344.000
41.33668 361.000
41.35662 352.000
41.37657 393.000
41.39652 348.000
41.41646 343.000
41.43641 332.000
41.45636 336.000
41.47631 387.000
41.49625 372.000
41.51620 352.000
41.53615 362.000
41.55609 372.000
41.57604 392.000
41.59599 359.000
41.61593 366.000
41.63588 383.000
41.65583 338.000
41.67578 353.000
41.69572 358.000
41.71567 399.000
41.73562 354.000
41.75556 361.000
41.77551 340.000
41.79546 347.000
41.81540 346.000
41.83535 322.000
41.85530 319.000
41.87524 342.000
41.89519 321.000
41.91514 353.000
41.93509 358.000
41.95503 338.000
41.97498 339.000
41.99493 360.000
42.01487 338.000
42.03482 315.000
42.05477 388.000
42.07471 331.000
42.09466 350.000
42.11461 337.000
42.13456 345.000
42.15450 364.000
42.17445 368.000
42.19440 341.000
42.21434 359.000
42.23429 366.000
42.25424 359.000
42.27418 341.000
42.29413 366.000
42.31408 338.000
42.33403 351.000
42.35397 362.000
42.37392 367.000
42.39387 383.000
42.41381 362.000
42.43376 415.000
42.45371 394.000
42.47365 372.000
42.49360 374.000
42.51355 433.000
42.53349 393.000
42.55344 361.000
42.57339 395.000
42.59334 412.000
42.61328 459.000
42.63323 439.000
42.65318 460.000
42.67312 408.000
42.69307 460.000
42.71302 483.000
42.73296 477.000
42.75291 491.000
42.77286 522.000
42.79281 602.000
42.81275 615.000
42.83270 660.000
42.85265 696.000
42.87259 710.000
42.89254 808.000
42.91249 897.000
42.93243 954.000
42.95238 1103.000
42.97233 1183.000
42.99227 1265.000
43.01222 1380.000
43.03217 1449.000
43.05212 1521.000
43.07206 1518.000
43.09201 1641.000
43.11196 1585.000
43.13190 1548.000
43.15185 1495.000
43.17180 1349.000
43.19174 1269.000
43.21169 1144.000
43.23164 1061.000
43.25159 1029.000
43.27153 870.000
43.29148 876.000
43.31143 764.000
43.33137 694.000
43.35132 743.000
43.37127 683.000
43.39121 654.000
43.41116 699.000
43.43111 720.000
43.45105 754.000
43.47100 846.000
43.49095 839.000
43.51090 838.000
43.53084 846.000
43.55079 751.000
43.57074 785.000
43.59068 685.000
43.61063 692.000
43.63058 592.000
43.65052 584.000
43.67047 563.000
43.69042 481.000
43.71037 436.000
43.73031 436.000
43.75026 409.000
43.77021 371.000
43.79015 389.000
43.81010 389.000
43.83005 402.000
43.84999 412.000
43.86994 374.000
43.88989 355.000
43.90984 383.000
43.92978 361.000
43.94973 382.000
43.96968 362.000
43.98962 353.000
44.00957 373.000
44.02952 359.000
44.04946 356.000
44.06941 400.000
44.08936 338.000
44.10930 346.000
44.12925 361.000
44.14920 352.000
44.16915 350.000
44.18909 327.000
44.20904 316.000
44.22899 375.000
44.24893 335.000
44.26888 337.000
44.28883 341.000
44.30877 353.000
44.32872 361.000
44.34867 356.000
44.36862 375.000
44.38856 339.000
44.40851 349.000
44.42846 384.000
44.44840 376.000
44.46835 286.000
44.48830 356.000
44.50824 323.000
44.52819 365.000
44.54814 344.000
44.56808 302.000
44.58803 369.000
44.60798 371.000
44.62793 352.000
44.64787 338.000
44.66782 341.000
44.68777 365.000
44.70771 362.000
44.72766 375.000
44.74761 362.000
44.76755 381.000
44.78750 354.000
44.80745 369.000
44.82740 337.000
44.84734 351.000
44.86729 390.000
44.88724 379.000
44.90718 378.000
44.92713 370.000
44.94708 356.000
44.96702 320.000
44.98697 362.000
45.00692 377.000
45.02686 360.000
45.04681 377.000
45.06676 373.000
45.08671 372.000
45.10665 348.000
45.12660 385.000
45.14655 381.000
45.16649 393.000
45.18644 359.000
45.20639 376.000
45.22633 372.000
45.24628 383.000
45.26623 352.000
45.28618 327.000
45.30612 325.000
45.32607 357.000
45.34602 365.000
45.36596 377.000
45.38591 346.000
45.40586 332.000
45.42580 358.000
45.44575 345.000
45.46570 333.000
45.48565 314.000
45.50559 330.000
45.52554 345.000
45.54549 336.000
45.56543 378.000
45.58538 364.000
45.60533 311.000
45.62527 344.000
45.64522 341.000
45.66517 294.000
45.68511 307.000
45.70506 317.000
45.72501 348.000
45.74496 329.000
45.76490 374.000
45.78485 330.000
45.80480 319.000
45.82474 343.000
45.84469 369.000
45.86464 338.000
45.88458 354.000
45.90453 330.000
45.92448 339.000
45.94443 321.000
45.96437 344.000
45.98432 356.000
46.00427 332.000
46.02421 333.000
46.04416 336.000
46.06411 333.000
46.08405 336.000
46.10400 336.000
46.12395 313.000
46.14389 338.000
46.16384 309.000
46.18379 333.000
46.20374 342.000
46.22368 326.000
46.24363 354.000
46.26358 380.000
46.28352 335.000
46.30347 318.000
46.32342 333.000
46.34336 351.000
46.36331 345.000
46.38326 305.000
46.40321 374.000
46.42315 345.000
46.44310 355.000
46.46305 397.000
46.48299 324.000
46.50294 330.000
46.52289 348.000
46.54283 292.000
46.56278 343.000
46.58273 322.000
46.60267 346.000
46.62262 333.000
46.64257 309.000
46.66252 321.000
46.68246 302.000
46.70241 333.000
46.72236 299.000
46.74230 354.000
46.76225 365.000
46.78220 347.000
46.80214 346.000
46.82209 301.000
46.84204 301.000
46.86199 362.000
46.88193 311.000
46.90188 344.000
46.92183 308.000
46.94177 296.000
46.96172 330.000
46.98167 313.000
47.00161 329.000
47.02156 337.000
47.04151 320.000
47.06146 317.000
47.08140 349.000
47.10135 339.000
47.12130 348.000
47.14124 301.000
47.16119 329.000
47.18114 299.000
47.20108 332.000
47.22103 333.000
47.24098 347.000
47.26092 351.000
47.28087 353.000
47.30082 357.000
47.32077 293.000
47.34071 321.000
47.36066 340.000
47.38061 337.000
47.40055 328.000
47.42050 311.000
47.44045 337.000
47.46039 307.000
47.48034 331.000
47.50029 348.000
47.52024 305.000
47.54018 339.000
47.56013 343.000
47.58008 336.000
47.60002 350.000
47.61997 354.000
47.63992 309.000
47.65986 336.000
47.67981 359.000
47.69976 316.000
47.71970 357.000
47.73965 342.000
47.75960 345.000
47.77955 365.000
47.79949 351.000
47.81944 347.000
47.83939 338.000
47.85933 347.000
47.87928 337.000
47.89923 361.000
47.91917 359.000
47.93912 341.000
47.95907 386.000
47.97902 340.000
47.99896 320.000
48.01891 347.000
48.03886 346.000
48.05880 352.000
48.07875 339.000
48.09870 358.000
48.11864 390.000
48.13859 366.000
48.15854 388.000
48.17848 382.000
48.19843 355.000
48.21838 335.000
48.23833 352.000
48.25827 361.000
48.27822 371.000
48.29817 394.000
48.31811 398.000
48.33806 374.000
48.35801 423.000
48.37795 406.000
48.39790 407.000
48.41785 414.000
48.43780 439.000
48.45774 428.000
48.47769 440.000
48.49764 483.000
48.51758 511.000
48.53753 478.000
48.55748 567.000
48.57742 531.000
48.59737 608.000
48.61732 696.000
48.63726 693.000
48.65721 815.000
48.67716 851.000
48.69711 916.000
48.71705 1109.000
48.73700 1303.000
48.75695 1342.000
48.77689 1435.000
48.79684 1457.000
48.81679 1404.000
48.83673 1353.000
48.85668 1227.000
48.87663 1106.000
48.89658 1072.000
48.91652 1066.000
48.93647 929.000
48.95642 833.000
48.97636 774.000
48.99631 653.000
49.01626 559.000
49.03620 558.000
49.05615 506.000
49.07610 491.000
49.09605 458.000
49.11599 421.000
49.13594 433.000
49.15589 400.000
49.17583 376.000
49.19578 401.000
49.21573 364.000
49.23567 382.000
49.25562 355.000
49.27557 372.000
49.29551 376.000
49.31546 381.000
49.33541 331.000
49.35536 387.000
49.37530 338.000
49.39525 349.000
49.41520 333.000
49.43514 366.000
49.45509 342.000
49.47504 362.000
49.49498 362.000
49.51493 323.000
49.53488 344.000
49.55483 351.000
49.57477 332.000
49.59472 334.000
49.61467 339.000
49.63461 371.000
49.65456 334.000
49.67451 335.000
49.69445 328.000
49.71440 318.000
49.73435 362.000
49.75429 332.000
49.77424 341.000
49.79419 317.000
49.81414 364.000
49.83408 328.000
49.85403 326.000
49.87398 323.000
49.89392 352.000
49.91387 353.000
49.93382 339.000
49.95376 316.000
49.97371 352.000
49.99366 341.000
50.01361 326.000
50.03355 334.000
50.05350 321.000
50.07345 339.000
50.09339 325.000
50.11334 369.000
50.13329 347.000
50.15323 365.000
50.17318 304.000
50.19313 302.000
50.21307 313.000
50.23302 321.000
50.25297 321.000
50.27292 350.000
50.29286 345.000
50.31281 291.000
50.33276 340.000
50.35270 334.000
50.37265 324.000
50.39260 303.000
50.41254 326.000
50.43249 284.000
50.45244 323.000
50.47239 336.000
50.49233 316.000
50.51228 333.000
50.53223 347.000
50.55217 286.000
50.57212 312.000
50.59207 323.000
50.61201 314.000
50.63196 364.000
50.65191 307.000
50.67186 306.000
50.69180 339.000
50.71175 315.000
50.73170 308.000
50.75164 341.000
50.77159 303.000
50.79154 328.000
50.81148 297.000
50.83143 316.000
50.85138 305.000
50.87132 320.000
50.89127 326.000
50.91122 333.000
50.93117 335.000
50.95111 286.000
50.97106 337.000
50.99101 299.000
51.01095 342.000
51.03090 324.000
51.05085 316.000
51.07079 342.000
51.09074 351.000
51.11069 317.000
51.13064 333.000
51.15058 331.000
51.17053 291.000
51.19048 313.000
51.21042 358.000
51.23037 329.000
51.25032 320.000
51.27026 295.000
51.29021 320.000
51.31016 315.000
51.33010 315.000
51.35005 358.000
51.37000 287.000
51.38995 319.000
51.40989 350.000
51.42984 324.000
51.44979 276.000
51.46973 340.000
51.48968 293.000
51.50963 322.000
51.52957 336.000
51.54952 324.000
51.56947 312.000
51.58942 335.000
51.60936 316.000
51.62931 336.000
51.64926 332.000
51.66920 338.000
51.68915 325.000
51.70910 301.000
51.72904 338.000
51.74899 321.000
51.76894 317.000
51.78888 297.000
51.80883 291.000
51.82878 311.000
51.84873 298.000
51.86867 360.000
51.88862 326.000
51.90857 320.000
51.92851 316.000
51.94846 336.000
51.96841 303.000
51.98835 332.000
52.00830 286.000
52.02825 302.000
52.04820 352.000
52.06814 310.000
52.08809 295.000
52.10804 302.000
52.12798 314.000
52.14793 343.000
52.16788 364.000
52.18782 337.000
52.20777 311.000
52.22772 312.000
52.24767 328.000
52.26761 325.000
52.28756 304.000
52.30751 360.000
52.32745 350.000
52.34740 294.000
52.36735 310.000
52.38729 310.000
52.40724 338.000
52.42719 300.000
52.44713 306.000
52.46708 320.000
52.48703 317.000
52.50698 345.000
52.52692 318.000
52.54687 331.000
52.56682 330.000
52.58676 342.000
52.60671 293.000
52.62666 324.000
52.64660 311.000
52.66655 320.000
52.68650 356.000
52.70645 321.000
52.72639 334.000
52.74634 313.000
52.76629 308.000
52.78623 310.000
52.80618 306.000
52.82613 326.000
52.84607 324.000
52.86602 337.000
52.88597 306.000
52.90591 343.000
52.92586 344.000
52.94581 338.000
52.96576 342.000
52.98570 363.000
53.00565 317.000
53.02560 330.000
53.04554 334.000
53.06549 354.000
53.08544 336.000
53.10538 328.000
53.12533 363.000
53.14528 369.000
53.16523 347.000
53.18517 352.000
53.20512 384.000
53.22507 370.000
53.24501 361.000
53.26496 356.000
53.28491 368.000
53.30485 347.000
53.32480 332.000
53.34475 385.000
53.36469 369.000
53.38464 376.000
53.40459 366.000
53.42454 341.000
53.44448 337.000
53.46443 367.000
53.48438 358.000
53.50432 354.000
53.52427 361.000
53.54422 322.000
53.56416 347.000
53.58411 343.000
53.60406 375.000
53.62401 339.000
53.64395 336.000
53.66390 323.000
53.68385 329.000
53.70379 321.000
53.72374 339.000
53.74369 323.000
53.76363 322.000
53.78358 347.000
53.80353 324.000
53.82348 346.000
53.84342 340.000
53.86337 330.000
53.88332 359.000
53.90326 354.000
53.92321 323.000
53.94316 334.000
53.96310 301.000
53.98305 362.000
54.00300 324.000
54.02294 328.000
54.04289 306.000
54.06284 303.000
54.08279 328.000
54.10273 329.000
54.12268 283.000
54.14263 312.000
54.16257 298.000
54.18252 351.000
54.20247 333.000
54.22241 305.000
54.24236 322.000
54.26231 342.000
54.28226 282.000
54.30220 310.000
54.32215 303.000
54.34210 285.000
54.36204 319.000
54.38199 311.000
54.40194 324.000
54.42188 326.000
54.44183 317.000
54.46178 324.000
54.48172 322.000
54.50167 320.000
54.52162 328.000
54.54157 270.000
54.56151 309.000
54.58146 325.000
54.60141 313.000
54.62135 315.000
54.64130 315.000
54.66125 322.000
54.68119 312.000
54.70114 329.000
54.72109 338.000
54.74104 331.000
54.76098 295.000
54.78093 310.000
54.80088 321.000
54.82082 312.000
54.84077 357.000
54.86072 333.000
54.88066 311.000
54.90061 321.000
54.92056 310.000
54.94050 339.000
54.96045 313.000
54.98040 316.000
55.00035 337.000
55.02029 315.000
55.04024 301.000
55.06019 308.000
55.08013 329.000
55.10008 336.000
55.12003 294.000
55.13997 318.000
55.15992 329.000
55.17987 354.000
55.19982 321.000
55.21976 314.000
55.23971 315.000
55.25966 300.000
55.27960 356.000
55.29955 329.000
55.31950 331.000
55.33944 309.000
55.35939 305.000
55.37934 330.000
55.39929 336.000
55.41923 311.000
55.43918 286.000
55.45913 298.000
55.47907 308.000
55.49902 326.000
55.51897 319.000
55.53891 323.000
55.55886 301.000
55.57881 353.000
55.59875 344.000
55.61870 298.000
55.63865 317.000
55.65860 323.000
55.67854 320.000
55.69849 359.000
55.71844 327.000
55.73838 349.000
55.75833 342.000
55.77828 341.000
55.79822 297.000
55.81817 335.000
55.83812 329.000
55.85807 366.000
55.87801 338.000
55.89796 322.000
55.91791 323.000
55.93785 325.000
55.95780 307.000
55.97775 311.000
55.99769 329.000
56.01764 319.000
56.03759 339.000
56.05753 332.000
56.07748 352.000
56.09743 323.000
56.11738 330.000
56.13732 316.000
56.15727 329.000
56.17722 301.000
56.19716 304.000
56.21711 323.000
56.23706 335.000
56.25700 359.000
56.27695 329.000
56.29690 310.000
56.31685 338.000
56.33679 333.000
56.35674 310.000
56.37669 352.000
56.39663 336.000
56.41658 357.000
56.43653 329.000
56.45647 315.000
56.47642 342.000
56.49637 322.000
56.51631 302.000
56.53626 304.000
56.55621 360.000
56.57616 317.000
56.59610 318.000
56.61605 310.000
56.63600 331.000
56.65594 342.000
56.67589 329.000
56.69584 337.000
56.71578 312.000
56.73573 340.000
56.75568 337.000
56.77563 306.000
56.79557 307.000
56.81552 333.000
56.83547 322.000
56.85541 331.000
56.87536 328.000
56.89531 329.000
56.91525 305.000
56.93520 319.000
56.95515 334.000
56.97510 290.000
56.99504 321.000
57.01499 292.000
57.03494 296.000
57.05488 337.000
57.07483 338.000
57.09478 324.000
57.11472 323.000
57.13467 291.000
57.15462 324.000
57.17456 311.000
57.19451 312.000
57.21446 305.000
57.23441 325.000
57.25435 339.000
57.27430 333.000
57.29425 357.000
57.31419 317.000
57.33414 317.000
57.35409 333.000
57.37403 316.000
57.39398 372.000
57.41393 362.000
57.43388 376.000
57.45382 406.000
57.47377 404.000
57.49372 378.000
57.51366 384.000
57.53361 356.000
57.55356 362.000
57.57350 375.000
57.59345 358.000
57.61340 400.000
57.63334 390.000
57.65329 372.000
57.67324 365.000
57.69319 374.000
57.71313 354.000
57.73308 331.000
57.75303 336.000
57.77297 347.000
57.79292 371.000
57.81287 324.000
57.83281 337.000
57.85276 341.000
57.87271 379.000
57.89266 341.000
57.91260 348.000
57.93255 333.000
57.95250 311.000
57.97244 336.000
57.99239 331.000
58.01234 374.000
58.03228 347.000
58.05223 362.000
58.07218 380.000
58.09212 386.000
58.11207 380.000
58.13202 418.000
58.15197 411.000
58.17191 405.000
58.19186 392.000
58.21181 395.000
58.23175 423.000
58.25170 386.000
58.27165 407.000
58.29159 419.000
58.31154 428.000
58.33149 418.000
58.35144 389.000
58.37138 348.000
58.39133 380.000
58.41128 368.000
58.43122 346.000
58.45117 358.000
58.47112 358.000
58.49106 341.000
58.51101 369.000
58.53096 341.000
58.55090 344.000
58.57085 341.000
58.59080 303.000
58.61075 368.000
58.63069 321.000
58.65064 347.000
58.67059 295.000
58.69053 333.000
58.71048 318.000
58.73043 344.000
58.75037 344.000
58.77032 302.000
58.79027 306.000
58.81022 306.000
58.83016 330.000
58.85011 370.000
58.87006 336.000
58.89000 328.000
58.90995 305.000
58.92990 325.000
58.94984 315.000
58.96979 302.000
58.98974 357.000
59.00969 304.000
59.02963 319.000
59.04958 325.000
59.06953 328.000
59.08947 318.000
59.10942 323.000
59.12937 299.000
59.14931 318.000
59.16926 305.000
59.18921 313.000
59.20915 324.000
59.22910 312.000
59.24905 314.000
59.26900 331.000
59.28894 305.000
59.30889 360.000
59.32884 325.000
59.34878 331.000
59.36873 303.000
59.38868 322.000
59.40862 326.000
59.42857 334.000
59.44852 302.000
59.46847 334.000
59.48841 316.000
59.50836 336.000
59.52831 330.000
59.54825 335.000
59.56820 342.000
59.58815 312.000
59.60809 338.000
59.62804 337.000
59.64799 339.000
59.66793 335.000
59.68788 334.000
59.70783 326.000
59.72778 327.000
59.74772 321.000
59.76767 286.000
59.78762 334.000
59.80756 332.000
59.82751 336.000
59.84746 335.000
59.86740 357.000
59.88735 281.000
59.90730 298.000
59.92725 345.000
59.94719 347.000
59.96714 327.000
59.98709 344.000
60.00703 345.000
60.02698 315.000
60.04693 336.000
60.06687 312.000
60.08682 308.000
60.10677 353.000
60.12671 311.000
60.14666 328.000
60.16661 314.000
60.18656 325.000
60.20650 350.000
60.22645 321.000
60.24640 339.000
60.26634 327.000
60.28629 321.000
60.30624 306.000
60.32618 350.000
60.34613 320.000
60.36608 328.000
60.38603 330.000
60.40597 335.000
60.42592 278.000
60.44587 291.000
60.46581 344.000
60.48576 356.000
60.50571 317.000
60.52565 355.000
60.54560 322.000
60.56555 351.000
60.58550 325.000
60.60544 309.000
60.62539 333.000
60.64534 320.000
60.66528 345.000
60.68523 359.000
60.70518 316.000
60.72512 318.000
60.74507 355.000
60.76502 362.000
60.78496 311.000
60.80491 351.000
60.82486 337.000
60.84481 341.000
60.86475 305.000
60.88470 320.000
60.90465 356.000
60.92459 366.000
60.94454 340.000
60.96449 330.000
60.98443 360.000
61.00438 310.000
61.02433 347.000
61.04428 353.000
61.06422 342.000
61.08417 368.000
61.10412 349.000
61.12406 358.000
61.14401 352.000
61.16396 361.000
61.18390 338.000
61.20385 353.000
61.22380 365.000
61.24374 346.000
61.26369 329.000
61.28364 376.000
61.30359 391.000
61.32353 401.000
61.34348 422.000
61.36343 422.000
61.38337 421.000
61.40332 431.000
61.42327 456.000
61.44321 412.000
61.46316 481.000
61.48311 485.000
61.50306 502.000
61.52300 495.000
61.54295 490.000
61.56290 494.000
61.58284 481.000
61.60279 485.000
61.62274 471.000
61.64268 463.000
61.66263 455.000
61.68258 483.000
61.70252 500.000
61.72247 448.000
61.74242 470.000
61.76237 457.000
61.78231 441.000
61.80226 441.000
61.82221 460.000
61.84215 498.000
61.86210 473.000
61.88205 525.000
61.90199 548.000
61.92194 534.000
61.94189 598.000
61.96184 591.000
61.98178 719.000
62.00173 688.000
62.02168 738.000
62.04162 705.000
62.06157 697.000
62.08152 614.000
62.10146 643.000
62.12141 679.000
62.14136 653.000
62.16131 608.000
62.18125 634.000
62.20120 565.000
62.22115 562.000
62.24109 577.000
62.26104 617.000
62.28099 633.000
62.30093 578.000
62.32088 559.000
62.34083 537.000
62.36077 574.000
62.38072 644.000
62.40067 599.000
62.42062 627.000
62.44056 663.000
62.46051 717.000
62.48046 757.000
62.50040 775.000
62.52035 836.000
62.54030 878.000
62.56024 920.000
62.58019 965.000
62.60014 988.000
62.62009 833.000
62.64003 903.000
62.65998 917.000
62.67993 922.000
62.69987 835.000
62.71982 750.000
62.73977 814.000
62.75971 735.000
62.77966 678.000
62.79961 691.000
62.81955 593.000
62.83950 598.000
62.85945 493.000
62.87940 489.000
62.89934 486.000
62.91929 473.000
62.93924 446.000
62.95918 426.000
62.97913 406.000
62.99908 407.000
63.01902 375.000
63.03897 403.000
63.05892 435.000
63.07887 375.000
63.09881 376.000
63.11876 426.000
63.13871 400.000
63.15865 418.000
63.17860 405.000
63.19855 393.000
63.21849 389.000
63.23844 396.000
63.25839 384.000
63.27833 387.000
63.29828 384.000
63.31823 339.000
63.33818 376.000
63.35812 361.000
63.37807 372.000
63.39802 352.000
63.41796 355.000
63.43791 370.000
63.45786 364.000
63.47780 334.000
63.49775 376.000
63.51770 313.000
63.53765 358.000
63.55759 341.000
63.57754 363.000
63.59749 350.000
63.61743 320.000
63.63738 287.000
63.65733 324.000
63.67727 339.000
63.69722 330.000
63.71717 342.000
63.73712 314.000
63.75706 382.000
63.77701 331.000
63.79696 327.000
63.81690 304.000
63.83685 365.000
63.85680 324.000
63.87674 324.000
63.89669 330.000
63.91664 332.000
63.93658 342.000
63.95653 335.000
63.97648 322.000
63.99643 359.000
64.01637 308.000
64.03632 307.000
64.05627 323.000
64.07621 348.000
64.09616 352.000
64.11611 356.000
64.13605 338.000
64.15600 356.000
64.17595 359.000
64.19590 378.000
64.21584 384.000
64.23579 358.000
64.25574 363.000
64.27568 388.000
64.29563 368.000
64.31558 424.000
64.33552 430.000
64.35547 448.000
64.37542 472.000
64.39536 513.000
64.41531 551.000
64.43526 570.000
64.45521 590.000
64.47515 610.000
64.49510 609.000
64.51505 599.000
64.53499 587.000
64.55494 532.000
64.57489 572.000
64.59483 541.000
64.61478 509.000
64.63473 477.000
64.65468 492.000
64.67462 482.000
64.69457 435.000
64.71452 459.000
64.73446 473.000
64.75441 420.000
64.77436 411.000
64.79430 359.000
64.81425 422.000
64.83420 384.000
64.85414 339.000
64.87409 357.000
64.89404 339.000
64.91399 331.000
64.93393 335.000
64.95388 373.000
64.97383 311.000
64.99377 386.000
65.01372 332.000
65.03367 356.000
65.05361 355.000
65.07356 345.000
65.09351 331.000
65.11346 344.000
65.13340 338.000
65.15335 347.000
65.17330 348.000
65.19324 347.000
65.21319 318.000
65.23314 350.000
65.25308 371.000
65.27303 353.000
65.29298 354.000
65.31293 377.000
65.33287 365.000
65.35282 397.000
65.37277 384.000
65.39271 378.000
65.41266 365.000
65.43261 368.000
65.45255 398.000
65.47250 356.000
65.49245 374.000
65.51239 352.000
65.53234 364.000
65.55229 374.000
65.57224 374.000
65.59218 400.000
65.61213 414.000
65.63208 387.000
65.65202 399.000
65.67197 399.000
65.69192 395.000
65.71186 428.000
65.73181 407.000
65.75176 445.000
65.77171 405.000
65.79165 396.000
65.81160 410.000
65.83155 395.000
65.85149 381.000
65.87144 362.000
65.89139 390.000
65.91133 396.000
65.93128 370.000
65.95123 372.000
65.97117 361.000
65.99112 365.000
66.01107 370.000
66.03102 362.000
66.05096 373.000
66.07091 372.000
66.09086 390.000
66.11080 346.000
66.13075 413.000
66.15070 366.000
66.17064 425.000
66.19059 423.000
66.21054 406.000
66.23049 407.000
66.25043 491.000
66.27038 433.000
66.29033 390.000
66.31027 403.000
66.33022 436.000
66.35017 461.000
66.37011 403.000
66.39006 436.000
66.41001 419.000
66.42995 409.000
66.44990 416.000
66.46985 439.000
66.48980 433.000
66.50974 441.000
66.52969 374.000
66.54964 392.000
66.56958 386.000
66.58953 414.000
66.60948 447.000
66.62942 399.000
66.64937 410.000
66.66932 412.000
66.68927 435.000
66.70921 400.000
66.72916 426.000
66.74911 435.000
66.76905 462.000
66.78900 506.000
66.80895 516.000
66.82889 529.000
66.84884 576.000
66.86879 556.000
66.88874 572.000
66.90868 601.000
66.92863 519.000
66.94858 519.000
66.96852 502.000
66.98847 500.000
67.00842 543.000
67.02836 473.000
67.04831 441.000
67.06826 473.000
67.08820 449.000
67.10815 438.000
67.12810 411.000
67.14805 408.000
67.16799 395.000
67.18794 384.000
67.20789 370.000
67.22783 388.000
67.24778 366.000
67.26773 334.000
67.28767 339.000
67.30762 316.000
67.32757 373.000
67.34752 337.000
67.36746 320.000
67.38741 382.000
67.40736 328.000
67.42730 340.000
67.44725 352.000
67.46720 354.000
67.48714 341.000
67.50709 338.000
67.52704 377.000
67.54698 332.000
67.56693 347.000
67.58688 392.000
67.60683 396.000
67.62677 393.000
67.64672 399.000
67.66667 377.000
67.68661 333.000
67.70656 396.000
67.72651 352.000
67.74645 359.000
67.76640 404.000
67.78635 390.000
67.80630 401.000
67.82624 406.000
67.84619 417.000
67.86614 383.000
67.88608 396.000
67.90603 430.000
67.92598 435.000
67.94592 417.000
67.96587 452.000
67.98582 428.000
68.00576 441.000
68.02571 424.000
68.04566 435.000
68.06561 393.000
68.08555 413.000
68.10550 405.000
68.12545 368.000
68.14539 389.000
68.16534 401.000
68.18529 374.000
68.20523 378.000
68.22518 369.000
68.24513 368.000
68.26508 359.000
68.28502 346.000
68.30497 328.000
68.32492 340.000
68.34486 324.000
68.36481 374.000
68.38476 337.000
68.40470 331.000
68.42465 306.000
68.44460 336.000
68.46455 335.000
68.48449 314.000
68.50444 310.000
68.52439 342.000
68.54433 315.000
68.56428 321.000
68.58423 297.000
68.60417 314.000
68.62412 332.000
68.64407 352.000
68.66401 300.000
68.68396 315.000
68.70391 338.000
68.72386 312.000
68.74380 328.000
68.76375 330.000
68.78370 310.000
68.80364 299.000
68.82359 310.000
68.84354 294.000
68.86348 312.000
68.88343 319.000
68.90338 330.000
68.92333 316.000
68.94327 330.000
68.96322 336.000
68.98317 302.000
69.00311 335.000
69.02306 316.000
69.04301 312.000
69.06295 318.000
69.08290 330.000
69.10285 315.000
69.12279 292.000
69.14274 311.000
69.16269 326.000
69.18264 306.000
69.20258 305.000
69.22253 312.000
69.24248 295.000
69.26242 326.000
69.28237 320.000
69.30232 361.000
69.32226 334.000
69.34221 285.000
69.36216 330.000
69.38211 309.000
69.40205 320.000
69.42200 307.000
69.44195 300.000
69.46189 291.000
69.48184 296.000
69.50179 304.000
69.52173 314.000
69.54168 325.000
69.56163 316.000
69.58157 298.000
69.60152 304.000
69.62147 293.000
69.64142 326.000
69.66136 331.000
69.68131 313.000
69.70126 324.000
69.72120 301.000
69.74115 340.000
69.76110 349.000
69.78104 301.000
69.80099 325.000
69.82094 318.000
69.84089 346.000
69.86083 304.000
69.88078 299.000
69.90073 305.000
69.92067 326.000
69.94062 314.000
69.96057 317.000
69.98051 306.000
70.00046 302.000
70.02041 312.000
70.04035 302.000
70.06030 282.000
70.08025 332.000
70.10020 300.000
70.12014 327.000
70.14009 307.000
70.16004 346.000
70.17998 313.000
70.19993 318.000
70.21988 298.000
70.23982 296.000
70.25977 340.000
70.27972 306.000
70.29967 300.000
70.31961 282.000
70.33956 321.000
70.35951 299.000
70.37945 285.000
70.39940 312.000
70.41935 345.000
70.43929 359.000
70.45924 315.000
70.47919 298.000
70.49914 308.000
70.51908 291.000
70.53903 335.000
70.55898 310.000
70.57892 302.000
70.59887 302.000
70.61882 335.000
70.63876 342.000
70.65871 319.000
70.67866 323.000
70.69860 306.000
70.71855 307.000
70.73850 310.000
70.75845 284.000
70.77839 311.000
70.79834 294.000
70.81829 321.000
70.83823 332.000
70.85818 269.000
70.87813 305.000
70.89807 299.000
70.91802 298.000
70.93797 311.000
70.95792 291.000
70.97786 316.000
70.99781 285.000
71.01776 333.000
71.03770 329.000
71.05765 312.000
71.07760 307.000
71.09754 333.000
71.11749 306.000
71.13744 337.000
71.15738 317.000
71.17733 323.000
71.19728 328.000
71.21723 318.000
71.23717 302.000
71.25712 299.000
71.27707 321.000
71.29701 323.000
71.31696 332.000
71.33691 338.000
71.35685 305.000
71.37680 294.000
71.39675 325.000
71.41670 359.000
71.43664 331.000
71.45659 308.000
71.47654 357.000
71.49648 326.000
71.51643 342.000
71.53638 317.000
71.55632 321.000
71.57627 346.000
71.59622 327.000
71.61616 307.000
71.63611 339.000
71.65606 316.000
71.67601 342.000
71.69595 308.000
71.71590 291.000
71.73585 351.000
71.75579 329.000
71.77574 305.000
71.79569 344.000
71.81563 333.000
71.83558 268.000
71.85553 321.000
71.87548 341.000
71.89542 307.000
71.91537 299.000
71.93532 342.000
71.95526 310.000
71.97521 332.000
71.99516 308.000
72.01510 304.000
72.03505 348.000
72.05500 340.000
72.07495 324.000
72.09489 340.000
72.11484 339.000
72.13479 318.000
72.15473 315.000
72.17468 343.000
72.19463 330.000
72.21457 354.000
72.23452 357.000
72.25447 323.000
72.27441 311.000
72.29436 363.000
72.31431 379.000
72.33426 357.000
72.35420 398.000
72.37415 331.000
72.39410 384.000
72.41404 329.000
72.43399 352.000
72.45394 340.000
72.47388 321.000
72.49383 332.000
72.51378 316.000
72.53373 335.000
72.55367 337.000
72.57362 313.000
72.59357 384.000
72.61351 314.000
72.63346 323.000
72.65341 346.000
72.67335 327.000
72.69330 314.000
72.71325 320.000
72.73319 300.000
72.75314 328.000
72.77309 360.000
72.79304 294.000
72.81298 345.000
72.83293 311.000
72.85288 321.000
72.87282 273.000
72.89277 340.000
72.91272 315.000
72.93266 291.000
72.95261 274.000
72.97256 282.000
72.99251 320.000
73.01245 315.000
73.03240 318.000
73.05235 354.000
73.07229 342.000
73.09224 285.000
73.11219 329.000
73.13213 329.000
73.15208 286.000
73.17203 321.000
73.19197 325.000
73.21192 323.000
73.23187 292.000
73.25182 330.000
73.27176 321.000
73.29171 327.000
73.31166 311.000
73.33160 311.000
73.35155 301.000
73.37150 327.000
73.39144 322.000
73.41139 335.000
73.43134 329.000
73.45129 334.000
73.47123 361.000
73.49118 314.000
73.51113 337.000
73.53107 355.000
73.55102 318.000
73.57097 324.000
73.59091 307.000
73.61086 348.000
73.63081 343.000
73.65076 364.000
73.67070 356.000
73.69065 367.000
73.71060 364.000
73.73054 380.000
73.75049 387.000
73.77044 364.000
73.79038 379.000
73.81033 374.000
73.83028 376.000
73.85022 389.000
73.87017 397.000
73.89012 368.000
73.91007 334.000
73.93001 335.000
73.94996 359.000
73.96991 343.000
73.98985 343.000
74.00980 350.000
74.02975 367.000
74.04969 332.000
74.06964 363.000
74.08959 338.000
74.10954 339.000
74.12948 317.000
74.14943 320.000
74.16938 335.000
74.18932 312.000
74.20927 303.000
74.22922 332.000
74.24916 339.000
74.26911 336.000
74.28906 322.000
74.30900 327.000
74.32895 331.000
74.34890 339.000
74.36885 340.000
74.38879 310.000
74.40874 342.000
74.42869 348.000
74.44863 330.000
74.46858 331.000
74.48853 331.000
74.50847 341.000
74.52842 315.000
74.54837 333.000
74.56832 343.000
74.58826 333.000
74.60821 341.000
74.62816 341.000
74.64810 330.000
74.66805 395.000
74.68800 357.000
74.70794 367.000
74.72789 359.000
74.74784 368.000
74.76778 397.000
74.78773 368.000
74.80768 386.000
74.82763 450.000
74.84757 429.000
74.86752 445.000
74.88747 430.000
74.90741 431.000
74.92736 480.000
74.94731 487.000
74.96725 474.000
74.98720 486.000
75.00715 519.000
75.02710 489.000
75.04704 520.000
75.06699 515.000
75.08694 510.000
75.10688 553.000
75.12683 531.000
75.14678 496.000
75.16672 488.000
75.18667 520.000
75.20662 501.000
75.22657 465.000
75.24651 490.000
75.26646 473.000
75.28641 455.000
75.30635 462.000
75.32630 434.000
75.34625 425.000
75.36619 407.000
75.38614 412.000
75.40609 419.000
75.42603 401.000
75.44598 403.000
75.46593 361.000
75.48588 328.000
75.50582 399.000
75.52577 346.000
75.54572 310.000
75.56566 358.000
75.58561 338.000
75.60556 338.000
75.62550 332.000
75.64545 331.000
75.66540 310.000
75.68535 338.000
75.70529 314.000
75.72524 301.000
75.74519 326.000
75.76513 309.000
75.78508 310.000
75.80503 328.000
75.82497 309.000
75.84492 338.000
75.86487 322.000
75.88481 324.000
75.90476 343.000
75.92471 295.000
75.94466 309.000
75.96460 325.000
75.98455 316.000
76.00450 337.000
76.02444 349.000
76.04439 324.000
76.06434 330.000
76.08428 343.000
76.10423 344.000
76.12418 329.000
76.14413 347.000
76.16407 328.000
76.18402 341.000
76.20397 335.000
76.22391 343.000
76.24386 355.000
76.26381 314.000
76.28375 294.000
76.30370 296.000
76.32365 293.000
76.34359 329.000
76.36354 294.000
76.38349 324.000
76.40344 311.000
76.42338 295.000
76.44333 283.000
76.46328 290.000
76.48322 280.000
76.50317 307.000
76.52312 323.000
76.54306 315.000
76.56301 304.000
76.58296 285.000
76.60291 309.000
76.62285 316.000
76.64280 317.000
76.66275 358.000
76.68269 314.000
76.70264 306.000
76.72259 325.000
76.74253 293.000
76.76248 311.000
76.78243 339.000
76.80238 327.000
76.82232 309.000
76.84227 331.000
76.86222 282.000
76.88216 313.000
76.90211 336.000
76.92206 311.000
76.94200 314.000
76.96195 308.000
76.98190 301.000
77.00184 294.000
77.02179 290.000
77.04174 330.000
77.06169 302.000
77.08163 301.000
77.10158 330.000
77.12153 303.000
77.14147 318.000
77.16142 336.000
77.18137 268.000
77.20131 265.000
77.22126 306.000
77.24121 304.000
77.26116 303.000
77.28110 295.000
77.30105 294.000
77.32100 300.000
77.34094 292.000
77.36089 305.000
77.38084 329.000
77.40078 302.000
77.42073 303.000
77.44068 291.000
77.46062 363.000
77.48057 333.000
77.50052 280.000
77.52047 302.000
77.54041 310.000
77.56036 307.000
77.58031 315.000
77.60025 321.000
77.62020 288.000
77.64015 320.000
77.66009 318.000
77.68004 311.000
77.69999 302.000
77.71994 307.000
77.73988 296.000
77.75983 331.000
77.77978 298.000
77.79972 295.000
77.81967 319.000
77.83962 303.000
77.85956 346.000
77.87951 317.000
77.89946 314.000
77.91940 330.000
77.93935 322.000
77.95930 278.000
77.97925 330.000
77.99919 335.000
78.01914 354.000
78.03909 361.000
78.05903 353.000
78.07898 354.000
78.09893 382.000
78.11887 374.000
78.13882 381.000
78.15877 388.000
78.17872 443.000
78.19866 416.000
78.21861 446.000
78.23856 437.000
78.25850 472.000
78.27845 455.000
78.29840 458.000
78.31834 473.000
78.33829 455.000
78.35824 404.000
78.37819 426.000
78.39813 441.000
78.41808 414.000
78.43803 424.000
78.45797 434.000
78.47792 439.000
78.49787 376.000
78.51781 416.000
78.53776 420.000
78.55771 416.000
78.57765 366.000
78.59760 446.000
78.61755 370.000
78.63750 376.000
78.65744 358.000
78.67739 346.000
78.69734 337.000
78.71728 329.000
78.73723 346.000
78.75718 365.000
78.77712 339.000
78.79707 371.000
78.81702 388.000
78.83697 352.000
78.85691 379.000
78.87686 358.000
78.89681 410.000
78.91675 450.000
78.93670 424.000
78.95665 468.000
78.97659 463.000
78.99654 499.000
79.01649 415.000
79.03643 426.000
79.05638 424.000
79.07633 425.000
79.09628 430.000
79.11622 418.000
79.13617 439.000
79.15612 381.000
79.17606 378.000
79.19601 416.000
79.21596 392.000
79.23590 423.000
79.25585 414.000
79.27580 376.000
79.29575 369.000
79.31569 388.000
79.33564 358.000
79.35559 337.000
79.37553 380.000
79.39548 354.000
79.41543 308.000
79.43537 323.000
79.45532 334.000
79.47527 326.000
79.49521 328.000
79.51516 331.000
79.53511 340.000
79.55506 326.000
79.57500 313.000
79.59495 322.000
79.61490 342.000
79.63484 290.000
79.65479 325.000
79.67474 329.000
79.69468 303.000
79.71463 305.000
79.73458 317.000
79.75453 290.000
79.77447 335.000
79.79442 336.000
79.81437 315.000
79.83431 308.000
79.85426 293.000
79.87421 317.000
79.89415 309.000
79.91410 286.000
79.93405 303.000
79.95399 311.000
79.97394 315.000
79.99389 332.000
80.01384 282.000
80.03378 320.000
80.05373 360.000
80.07368 304.000
80.09362 284.000
80.11357 293.000
80.13352 293.000
80.15346 289.000
80.17341 302.000
80.19336 312.000
80.21331 291.000
80.23325 296.000
80.25320 332.000
80.27315 344.000
80.29309 329.000
80.31304 324.000
80.33299 313.000
80.35293 323.000
80.37288 320.000
80.39283 336.000
80.41278 295.000
80.43272 320.000
80.45267 345.000
80.47262 308.000
80.49256 294.000
80.51251 318.000
80.53246 324.000
80.55240 309.000
80.57235 275.000
80.59230 291.000
80.61224 340.000
80.63219 301.000
80.65214 299.000
80.67209 303.000
80.69203 319.000
80.71198 283.000
80.73193 313.000
80.75187 304.000
80.77182 285.000
80.79177 283.000
80.81171 299.000
80.83166 301.000
80.85161 312.000
80.87156 275.000
80.89150 280.000
80.91145 307.000
80.93140 340.000
80.95134 306.000
80.97129 331.000
80.99124 302.000
81.01118 277.000
81.03113 333.000
81.05108 320.000
81.07102 306.000
81.09097 296.000
81.11092 292.000
81.13087 323.000
81.15081 322.000
81.17076 311.000
81.19071 283.000
81.21065 344.000
81.23060 339.000
81.25055 299.000
81.27049 281.000
81.29044 299.000
81.31039 312.000
81.33034 310.000
81.35028 305.000
81.37023 288.000
81.39018 279.000
81.41012 303.000
81.43007 316.000
81.45002 310.000
81.46996 309.000
81.48991 284.000
81.50986 279.000
81.52980 316.000
81.54975 307.000
81.56970 272.000
81.58965 300.000
81.60959 312.000
81.62954 302.000
81.64949 302.000
81.66943 317.000
81.68938 290.000
81.70933 307.000
81.72927 298.000
81.74922 291.000
81.76917 319.000
81.78912 298.000
81.80906 291.000
81.82901 299.000
81.84896 310.000
81.86890 288.000
81.88885 300.000
81.90880 303.000
81.92874 301.000
81.94869 291.000
81.96864 312.000
81.98859 321.000
82.00853 329.000
82.02848 320.000
82.04843 286.000
82.06837 323.000
82.08832 325.000
82.10827 269.000
82.12821 304.000
82.14816 306.000
82.16811 340.000
82.18805 334.000
82.20800 304.000
82.22795 342.000
82.24790 276.000
82.26784 326.000
82.28779 354.000
82.30774 295.000
82.32768 299.000
82.34763 319.000
82.36758 356.000
82.38752 331.000
82.40747 329.000
82.42742 332.000
82.44737 321.000
82.46731 353.000
82.48726 356.000
82.50721 341.000
82.52715 331.000
82.54710 330.000
82.56705 322.000
82.58699 348.000
82.60694 335.000
82.62689 317.000
82.64683 298.000
82.66678 324.000
82.68673 342.000
82.70668 335.000
82.72662 320.000
82.74657 367.000
82.76652 279.000
82.78646 325.000
82.80641 281.000
82.82636 313.000
82.84630 320.000
82.86625 312.000
82.88620 312.000
82.90615 310.000
82.92609 340.000
82.94604 335.000
82.96599 287.000
82.98593 317.000
83.00588 364.000
83.02583 281.000
83.04577 332.000
83.06572 309.000
83.08567 293.000
83.10561 330.000
83.12556 330.000
83.14551 290.000
83.16546 351.000
83.18540 290.000
83.20535 311.000
83.22530 344.000
83.24524 309.000
83.26519 273.000
83.28514 297.000
83.30508 291.000
83.32503 291.000
83.34498 297.000
83.36493 331.000
83.38487 284.000
83.40482 301.000
83.42477 305.000
83.44471 276.000
83.46466 310.000
83.48461 309.000
83.50455 316.000
83.52450 302.000
83.54445 300.000
83.56440 320.000
83.58434 335.000
83.60429 342.000
83.62424 310.000
83.64418 303.000
83.66413 314.000
83.68408 319.000
83.70402 319.000
83.72397 303.000
83.74392 295.000
83.76386 300.000
83.78381 337.000
83.80376 346.000
83.82371 312.000
83.84365 302.000
83.86360 324.000
83.88355 330.000
83.90349 322.000
83.92344 302.000
83.94339 327.000
83.96333 301.000
83.98328 301.000
84.00323 337.000
84.02318 303.000
84.04312 281.000
84.06307 321.000
84.08302 327.000
84.10296 278.000
84.12291 336.000
84.14286 324.000
84.16280 284.000
84.18275 314.000
84.20270 326.000
84.22264 318.000
84.24259 305.000
84.26254 295.000
84.28249 316.000
84.30243 286.000
84.32238 325.000
84.34233 321.000
84.36227 290.000
84.38222 310.000
84.40217 347.000
84.42211 278.000
84.44206 319.000
84.46201 318.000
84.48196 338.000
84.50190 329.000
84.52185 327.000
84.54180 311.000
84.56174 273.000
84.58169 332.000
84.60164 334.000
84.62158 325.000
84.64153 305.000
84.66148 304.000
84.68142 329.000
84.70137 343.000
84.72132 315.000
84.74127 352.000
84.76121 340.000
84.78116 339.000
84.80111 353.000
84.82105 347.000
84.84100 404.000
84.86095 412.000
84.88089 411.000
84.90084 418.000
84.92079 401.000
84.94074 390.000
84.96068 389.000
84.98063 343.000
85.00058 384.000
85.02052 384.000
85.04047 366.000
85.06042 365.000
85.08036 358.000
85.10031 323.000
85.12026 344.000
85.14021 363.000
85.16015 337.000
85.18010 328.000
85.20005 350.000
85.21999 361.000
85.23994 338.000
85.25989 317.000
85.27983 295.000
85.29978 305.000
85.31973 309.000
85.33967 305.000
85.35962 330.000
85.37957 290.000
85.39952 351.000
85.41946 327.000
85.43941 305.000
85.45936 298.000
85.47930 310.000
85.49925 304.000
85.51920 306.000
85.53914 291.000
85.55909 298.000
85.57904 312.000
85.59899 312.000
85.61893 302.000
85.63888 276.000
85.65883 280.000
85.67877 333.000
85.69872 298.000
85.71867 311.000
85.73861 333.000
85.75856 286.000
85.77851 317.000
85.79845 286.000
85.81840 295.000
85.83835 315.000
85.85830 301.000
85.87824 309.000
85.89819 268.000
85.91814 295.000
85.93808 294.000
85.95803 289.000
85.97798 267.000
85.99792 315.000
86.01787 283.000
86.03782 304.000
86.05777 283.000
86.07771 303.000
86.09766 294.000
86.11761 282.000
86.13755 260.000
86.15750 282.000
86.17745 309.000
86.19739 305.000
86.21734 300.000
86.23729 285.000
86.25723 285.000
86.27718 292.000
86.29713 300.000
86.31708 341.000
86.33702 290.000
86.35697 274.000
86.37692 306.000
86.39686 312.000
86.41681 306.000
86.43676 274.000
86.45670 283.000
86.47665 340.000
86.49660 291.000
86.51655 309.000
86.53649 295.000
86.55644 299.000
86.57639 291.000
86.59633 337.000
86.61628 290.000
86.63623 288.000
86.65617 301.000
86.67612 290.000
86.69607 300.000
86.71602 299.000
86.73596 300.000
86.75591 308.000
86.77586 287.000
86.79580 339.000
86.81575 323.000
86.83570 310.000
86.85564 291.000
86.87559 291.000
86.89554 298.000
86.91548 323.000
86.93543 311.000
86.95538 331.000
86.97533 312.000
86.99527 294.000
87.01522 295.000
87.03517 283.000
87.05511 314.000
87.07506 325.000
87.09501 278.000
87.11495 317.000
87.13490 302.000
87.15485 303.000
87.17480 282.000
87.19474 291.000
87.21469 307.000
87.23464 294.000
87.25458 331.000
87.27453 301.000
87.29448 289.000
87.31442 309.000
87.33437 300.000
87.35432 330.000
87.37426 316.000
87.39421 324.000
87.41416 311.000
87.43411 288.000
87.45405 272.000
87.47400 349.000
87.49395 314.000
87.51389 310.000
87.53384 312.000
87.55379 309.000
87.57373 336.000
87.59368 307.000
87.61363 296.000
87.63358 299.000
87.65352 301.000
87.67347 295.000
87.69342 311.000
87.71336 291.000
87.73331 334.000
87.75326 293.000
87.77320 296.000
87.79315 323.000
87.81310 327.000
87.83304 317.000
87.85299 307.000
87.87294 316.000
87.89289 309.000
87.91283 297.000
87.93278 290.000
87.95273 313.000
87.97267 287.000
87.99262 286.000
88.01257 304.000
88.03251 304.000
88.05246 300.000
88.07241 311.000
88.09236 300.000
88.11230 301.000
88.13225 276.000
88.15220 315.000
88.17214 299.000
88.19209 302.000
88.21204 306.000
88.23198 307.000
88.25193 277.000
88.27188 301.000
88.29183 322.000
88.31177 309.000
88.33172 273.000
88.35167 270.000
88.37161 281.000
88.39156 327.000
88.41151 280.000
88.43145 281.000
88.45140 340.000
88.47135 304.000
88.49129 267.000
88.51124 323.000
88.53119 319.000
88.55114 305.000
88.57108 309.000
88.59103 293.000
88.61098 313.000
88.63092 299.000
88.65087 289.000
88.67082 286.000
88.69076 318.000
88.71071 281.000
88.73066 320.000
88.75061 296.000
88.77055 307.000
88.79050 326.000
88.81045 267.000
88.83039 284.000
88.85034 310.000
88.87029 301.000
88.89023 295.000
88.91018 306.000
88.93013 303.000
88.95007 301.000
88.97002 330.000
88.98997 285.000
89.00992 332.000
89.02986 294.000
89.04981 305.000
89.06976 320.000
89.08970 298.000
89.10965 292.000
89.12960 318.000
89.14954 289.000
89.16949 306.000
89.18944 312.000
89.20939 315.000
89.22933 300.000
89.24928 293.000
89.26923 312.000
89.28917 302.000
89.30912 305.000
89.32907 336.000
89.34901 302.000
89.36896 298.000
89.38891 298.000
89.40885 290.000
89.42880 307.000
89.44875 319.000
89.46870 288.000
89.48864 327.000
89.50859 338.000
89.52854 328.000
89.54848 361.000
89.56843 299.000
89.58838 291.000
89.60832 321.000
89.62827 304.000
89.64822 314.000
89.66817 332.000
89.68811 305.000
89.70806 321.000
89.72801 320.000
89.74795 306.000
89.76790 319.000
89.78785 309.000
89.80779 291.000
89.82774 330.000
89.84769 325.000
89.86764 334.000
89.88758 333.000
89.90753 312.000
89.92748 323.000
89.94742 306.000
89.96737 313.000
89.98732 322.000
90.00726 303.000
