10.00000 123.000
10.01995 117.000
10.03989 110.000
10.05984 127.000
10.07979 114.000
10.09973 145.000
10.11968 130.000
10.13963 118.000
10.15958 100.000
10.17952 107.000
10.19947 104.000
10.21942 109.000
10.23936 122.000
10.25931 107.000
10.27926 104.000
10.29920 88.000
10.31915 92.000
10.33910 114.000
10.35905 131.000
10.37899 102.000
10.39894 105.000
10.41889 126.000
10.43883 119.000
10.45878 124.000
10.47873 138.000
10.49867 116.000
10.51862 144.000
10.53857 98.000
10.55851 131.000
10.57846 109.000
10.59841 128.000
10.61836 110.000
10.63830 111.000
10.65825 106.000
10.67820 114.000
10.69814 117.000
10.71809 131.000
10.73804 126.000
10.75798 123.000
10.77793 102.000
10.79788 118.000
10.81783 109.000
10.83777 148.000
10.85772 114.000
10.87767 92.000
10.89761 107.000
10.91756 113.000
10.93751 115.000
10.95745 104.000
10.97740 119.000
10.99735 121.000
11.01730 121.000
11.03724 123.000
11.05719 115.000
11.07714 125.000
11.09708 97.000
11.11703 109.000
11.13698 116.000
11.15692 114.000
11.17687 115.000
11.19682 124.000
11.21676 111.000
11.23671 116.000
11.25666 120.000
11.27661 100.000
11.29655 121.000
11.31650 115.000
11.33645 100.000
11.35639 113.000
11.37634 125.000
11.39629 91.000
11.41623 116.000
11.43618 114.000
11.45613 120.000
11.47608 110.000
11.49602 121.000
11.51597 112.000
11.53592 104.000
11.55586 97.000
11.57581 93.000
11.59576 106.000
11.61570 123.000
11.63565 110.000
11.65560 95.000
11.67554 107.000
11.69549 121.000
11.71544 121.000
11.73539 106.000
11.75533 86.000
11.77528 130.000
11.79523 109.000
11.81517 115.000
11.83512 120.000
11.85507 117.000
11.87501 114.000
11.89496 126.000
11.91491 144.000
11.93486 96.000
11.95480 125.000
11.97475 120.000
11.99470 109.000
12.01464 109.000
12.03459 141.000
12.05454 124.000
12.07448 106.000
12.09443 132.000
12.11438 123.000
12.13432 133.000
12.15427 111.000
12.17422 116.000
12.19417 117.000
12.21411 108.000
12.23406 119.000
12.25401 115.000
12.27395 123.000
12.29390 112.000
12.31385 104.000
12.33379 118.000
12.35374 81.000
12.37369 108.000
12.39364 127.000
12.41358 103.000
12.43353 106.000
12.45348 118.000
12.47342 111.000
12.49337 99.000
12.51332 107.000
12.53326 122.000
12.55321 133.000
12.57316 110.000
12.59311 93.000
12.61305 118.000
12.63300 110.000
12.65295 126.000
12.67289 104.000
12.69284 111.000
12.71279 111.000
12.73273 116.000
12.75268 136.000
12.77263 108.000
12.79257 120.000
12.81252 106.000
12.83247 131.000
12.85242 117.000
12.87236 107.000
12.89231 133.000
12.91226 100.000
12.93220 113.000
12.95215 90.000
12.97210 116.000
12.99204 120.000
13.01199 105.000
13.03194 117.000
13.05189 119.000
13.07183 109.000
13.09178 123.000
13.11173 99.000
13.13167 113.000
13.15162 107.000
13.17157 134.000
13.19151 111.000
13.21146 122.000
13.23141 117.000
13.25135 121.000
13.27130 131.000
13.29125 120.000
13.31120 111.000
13.33114 117.000
13.35109 125.000
13.37104 115.000
13.39098 116.000
13.41093 113.000
13.43088 119.000
13.45082 110.000
13.47077 126.000
13.49072 108.000
13.51067 117.000
13.53061 137.000
13.55056 98.000
13.57051 126.000
13.59045 105.000
13.61040 99.000
13.63035 122.000
13.65029 110.000
13.67024 124.000
13.69019 123.000
13.71013 127.000
13.73008 129.000
13.75003 127.000
13.76998 118.000
13.78992 117.000
13.80987 110.000
13.82982 135.000
13.84976 111.000
13.86971 114.000
13.88966 121.000
13.90960 95.000
13.92955 114.000
13.94950 121.000
13.96945 114.000
13.98939 127.000
14.00934 111.000
14.02929 118.000
14.04923 109.000
14.06918 125.000
14.08913 111.000
14.10907 117.000
14.12902 130.000
14.14897 117.000
14.16892 125.000
14.18886 135.000
14.20881 121.000
14.22876 126.000
14.24870 118.000
14.26865 123.000
14.28860 113.000
14.30854 151.000
14.32849 136.000
14.34844 113.000
14.36838 134.000
14.38833 127.000
14.40828 123.000
14.42823 132.000
14.44817 112.000
14.46812 138.000
14.48807 117.000
14.50801 126.000
14.52796 133.000
14.54791 125.000
14.56785 124.000
14.58780 128.000
14.60775 143.000
14.62770 127.000
14.64764 114.000
14.66759 116.000
14.68754 137.000
14.70748 131.000
14.72743 134.000
14.74738 140.000
14.76732 115.000
14.78727 155.000
14.80722 130.000
14.82716 139.000
14.84711 116.000
14.86706 132.000
14.88701 145.000
14.90695 125.000
14.92690 140.000
14.94685 130.000
14.96679 134.000
14.98674 121.000
15.00669 142.000
15.02663 153.000
15.04658 137.000
15.06653 168.000
15.08648 147.000
15.10642 150.000
15.12637 149.000
15.14632 158.000
15.16626 154.000
15.18621 137.000
15.20616 173.000
15.22610 162.000
15.24605 175.000
15.26600 182.000
15.28594 162.000
15.30589 183.000
15.32584 163.000
15.34579 189.000
15.36573 208.000
15.38568 174.000
15.40563 216.000
15.42557 188.000
15.44552 189.000
15.46547 239.000
15.48541 240.000
15.50536 238.000
15.52531 256.000
15.54526 272.000
15.56520 294.000
15.58515 351.000
15.60510 402.000
15.62504 423.000
15.64499 536.000
15.66494 704.000
15.68488 957.000
15.70483 1435.000
15.72478 2150.000
15.74472 3150.000
15.76467 4558.000
15.78462 6502.000
15.80457 8415.000
15.82451 8980.000
15.84446 6839.000
15.86441 4486.000
15.88435 2443.000
15.90430 1145.000
15.92425 646.000
15.94419 482.000
15.96414 373.000
15.98409 299.000
16.00404 264.000
16.02398 243.000
16.04393 261.000
16.06388 223.000
16.08382 189.000
16.10377 195.000
16.12372 191.000
16.14366 203.000
16.16361 177.000
16.18356 177.000
16.20351 165.000
16.22345 206.000
16.24340 165.000
16.26335 170.000
16.28329 148.000
16.30324 146.000
16.32319 143.000
16.34313 168.000
16.36308 180.000
16.38303 155.000
16.40297 158.000
16.42292 136.000
16.44287 143.000
16.46282 149.000
16.48276 138.000
16.50271 148.000
16.52266 138.000
16.54260 143.000
16.56255 134.000
16.58250 148.000
16.60244 141.000
16.62239 151.000
16.64234 138.000
16.66229 146.000
16.68223 137.000
16.70218 137.000
16.72213 164.000
16.74207 151.000
16.76202 136.000
16.78197 131.000
16.80191 141.000
16.82186 135.000
16.84181 134.000
16.86175 128.000
16.88170 124.000
16.90165 113.000
16.92160 145.000
16.94154 149.000
16.96149 142.000
16.98144 135.000
17.00138 131.000
17.02133 132.000
17.04128 131.000
17.06122 126.000
17.08117 116.000
17.10112 129.000
17.12107 132.000
17.14101 124.000
17.16096 125.000
17.18091 134.000
17.20085 99.000
17.22080 134.000
17.24075 128.000
17.26069 126.000
17.28064 125.000
17.30059 129.000
17.32053 115.000
17.34048 138.000
17.36043 122.000
17.38038 129.000
17.40032 140.000
17.42027 117.000
17.44022 139.000
17.46016 122.000
17.48011 127.000
17.50006 119.000
17.52000 127.000
17.53995 147.000
17.55990 120.000
17.57985 141.000
17.59979 138.000
17.61974 114.000
17.63969 123.000
17.65963 140.000
17.67958 151.000
17.69953 125.000
17.71947 142.000
17.73942 125.000
17.75937 127.000
17.77932 108.000
17.79926 127.000
17.81921 156.000
17.83916 109.000
17.85910 135.000
17.87905 131.000
17.89900 137.000
17.91894 131.000
17.93889 122.000
17.95884 139.000
17.97878 132.000
17.99873 140.000
18.01868 137.000
18.03863 133.000
18.05857 134.000
18.07852 134.000
18.09847 124.000
18.11841 123.000
18.13836 130.000
18.15831 130.000
18.17825 146.000
18.19820 123.000
18.21815 135.000
18.23810 142.000
18.25804 128.000
18.27799 143.000
18.29794 162.000
18.31788 170.000
18.33783 135.000
18.35778 139.000
18.37772 141.000
18.39767 175.000
18.41762 175.000
18.43756 152.000
18.45751 135.000
18.47746 143.000
18.49741 130.000
18.51735 138.000
18.53730 138.000
18.55725 139.000
18.57719 149.000
18.59714 134.000
18.61709 122.000
18.63703 137.000
18.65698 112.000
18.67693 128.000
18.69688 115.000
18.71682 138.000
18.73677 133.000
18.75672 139.000
18.77666 139.000
18.79661 135.000
18.81656 135.000
18.83650 144.000
18.85645 129.000
18.87640 123.000
18.89634 105.000
18.91629 118.000
18.93624 132.000
18.95619 144.000
18.97613 124.000
18.99608 126.000
19.01603 127.000
19.03597 139.000
19.05592 129.000
19.07587 113.000
19.09581 131.000
19.11576 109.000
19.13571 122.000
19.15566 148.000
19.17560 156.000
19.19555 135.000
19.21550 132.000
19.23544 136.000
19.25539 134.000
19.27534 127.000
19.29528 137.000
19.31523 141.000
19.33518 128.000
19.35513 137.000
19.37507 130.000
19.39502 137.000
19.41497 129.000
19.43491 128.000
19.45486 125.000
19.47481 141.000
19.49475 122.000
19.51470 130.000
19.53465 136.000
19.55459 140.000
19.57454 131.000
19.59449 141.000
19.61444 145.000
19.63438 136.000
19.65433 124.000
19.67428 134.000
19.69422 140.000
19.71417 135.000
19.73412 140.000
19.75406 159.000
19.77401 127.000
19.79396 121.000
19.81391 135.000
19.83385 127.000
19.85380 131.000
19.87375 140.000
19.89369 139.000
19.91364 131.000
19.93359 139.000
19.95353 138.000
19.97348 129.000
19.99343 127.000
20.01337 132.000
20.03332 131.000
20.05327 127.000
20.07322 118.000
20.09316 156.000
20.11311 140.000
20.13306 160.000
20.15300 139.000
20.17295 144.000
20.19290 139.000
20.21284 156.000
20.23279 131.000
20.25274 136.000
20.27269 134.000
20.29263 115.000
20.31258 153.000
20.33253 150.000
20.35247 143.000
20.37242 130.000
20.39237 144.000
20.41231 143.000
20.43226 131.000
20.45221 154.000
20.47215 148.000
20.49210 123.000
20.51205 149.000
20.53200 146.000
20.55194 132.000
20.57189 168.000
20.59184 132.000
20.61178 146.000
20.63173 112.000
20.65168 161.000
20.67162 144.000
20.69157 127.000
20.71152 143.000
20.73147 142.000
20.75141 115.000
20.77136 131.000
20.79131 133.000
20.81125 155.000
20.83120 116.000
20.85115 153.000
20.87109 136.000
20.89104 137.000
20.91099 145.000
20.93094 140.000
20.95088 152.000
20.97083 142.000
20.99078 137.000
21.01072 140.000
21.03067 146.000
21.05062 136.000
21.07056 158.000
21.09051 173.000
21.11046 210.000
21.13040 183.000
21.15035 193.000
21.17030 161.000
21.19025 162.000
21.21019 153.000
21.23014 146.000
21.25009 132.000
21.27003 171.000
21.28998 154.000
21.30993 147.000
21.32987 138.000
21.34982 133.000
21.36977 138.000
21.38972 160.000
21.40966 166.000
21.42961 131.000
21.44956 167.000
21.46950 136.000
21.48945 132.000
21.50940 145.000
21.52934 145.000
21.54929 126.000
21.56924 145.000
21.58918 139.000
21.60913 146.000
21.62908 143.000
21.64903 127.000
21.66897 152.000
21.68892 143.000
21.70887 120.000
21.72881 161.000
21.74876 145.000
21.76871 170.000
21.78865 145.000
21.80860 159.000
21.82855 153.000
21.84850 148.000
21.86844 136.000
21.88839 149.000
21.90834 160.000
21.92828 142.000
21.94823 155.000
21.96818 151.000
21.98812 157.000
22.00807 170.000
22.02802 178.000
22.04796 177.000
22.06791 144.000
22.08786 149.000
22.10781 157.000
22.12775 154.000
22.14770 158.000
22.16765 178.000
22.18759 163.000
22.20754 157.000
22.22749 142.000
22.24743 149.000
22.26738 136.000
22.28733 160.000
22.30728 136.000
22.32722 145.000
22.34717 152.000
22.36712 133.000
22.38706 152.000
22.40701 133.000
22.42696 152.000
22.44690 171.000
22.46685 146.000
22.48680 135.000
22.50675 164.000
22.52669 156.000
22.54664 151.000
22.56659 135.000
22.58653 158.000
22.60648 155.000
22.62643 160.000
22.64637 162.000
22.66632 165.000
22.68627 152.000
22.70621 165.000
22.72616 123.000
22.74611 140.000
22.76606 139.000
22.78600 158.000
22.80595 133.000
22.82590 146.000
22.84584 152.000
22.86579 155.000
22.88574 164.000
22.90568 161.000
22.92563 143.000
22.94558 189.000
22.96553 161.000
22.98547 153.000
23.00542 154.000
23.02537 175.000
23.04531 150.000
23.06526 147.000
23.08521 154.000
23.10515 151.000
23.12510 128.000
23.14505 161.000
23.16499 148.000
23.18494 171.000
23.20489 163.000
23.22484 135.000
23.24478 165.000
23.26473 175.000
23.28468 126.000
23.30462 169.000
23.32457 161.000
23.34452 158.000
23.36446 177.000
23.38441 152.000
23.40436 170.000
23.42431 169.000
23.44425 156.000
23.46420 161.000
23.48415 167.000
23.50409 152.000
23.52404 167.000
23.54399 177.000
23.56393 180.000
23.58388 153.000
23.60383 164.000
23.62377 162.000
23.64372 155.000
23.66367 159.000
23.68362 168.000
23.70356 193.000
23.72351 137.000
23.74346 173.000
23.76340 165.000
23.78335 155.000
23.80330 159.000
23.82324 179.000
23.84319 163.000
23.86314 159.000
23.88309 157.000
23.90303 167.000
23.92298 140.000
23.94293 162.000
23.96287 169.000
23.98282 165.000
24.00277 154.000
24.02271 168.000
24.04266 167.000
24.06261 186.000
24.08256 173.000
24.10250 172.000
24.12245 169.000
24.14240 149.000
24.16234 172.000
24.18229 170.000
24.20224 146.000
24.22218 178.000
24.24213 161.000
24.26208 156.000
24.28202 167.000
24.30197 187.000
24.32192 167.000
24.34187 162.000
24.36181 175.000
24.38176 156.000
24.40171 155.000
24.42165 174.000
24.44160 184.000
24.46155 196.000
24.48149 171.000
24.50144 140.000
24.52139 162.000
24.54134 176.000
24.56128 160.000
24.58123 164.000
24.60118 166.000
24.62112 165.000
24.64107 145.000
24.66102 174.000
24.68096 151.000
24.70091 178.000
24.72086 163.000
24.74080 169.000
24.76075 177.000
24.78070 166.000
24.80065 157.000
24.82059 175.000
24.84054 167.000
24.86049 183.000
24.88043 184.000
24.90038 169.000
24.92033 181.000
24.94027 178.000
24.96022 183.000
24.98017 175.000
25.00012 178.000
25.02006 183.000
25.04001 185.000
25.05996 224.000
25.07990 178.000
25.09985 179.000
25.11980 170.000
25.13974 162.000
25.15969 175.000
25.17964 188.000
25.19958 179.000
25.21953 190.000
25.23948 186.000
25.25943 192.000
25.27937 215.000
25.29932 178.000
25.31927 164.000
25.33921 201.000
25.35916 186.000
25.37911 190.000
25.39905 198.000
25.41900 170.000
25.43895 190.000
25.45890 175.000
25.47884 167.000
25.49879 183.000
25.51874 189.000
25.53868 169.000
25.55863 197.000
25.57858 176.000
25.59852 186.000
25.61847 203.000
25.63842 216.000
25.65837 167.000
25.67831 200.000
25.69826 189.000
25.71821 195.000
25.73815 180.000
25.75810 193.000
25.77805 188.000
25.79799 190.000
25.81794 180.000
25.83789 200.000
25.85783 193.000
25.87778 207.000
25.89773 199.000
25.91768 217.000
25.93762 172.000
25.95757 221.000
25.97752 199.000
25.99746 215.000
26.01741 204.000
26.03736 186.000
26.05730 200.000
26.07725 194.000
26.09720 176.000
26.11715 183.000
26.13709 203.000
26.15704 202.000
26.17699 224.000
26.19693 184.000
26.21688 208.000
26.23683 178.000
26.25677 190.000
26.27672 210.000
26.29667 203.000
26.31661 198.000
26.33656 181.000
26.35651 213.000
26.37646 188.000
26.39640 223.000
26.41635 187.000
26.43630 182.000
26.45624 181.000
26.47619 189.000
26.49614 216.000
26.51608 200.000
26.53603 187.000
26.55598 196.000
26.57593 190.000
26.59587 184.000
26.61582 228.000
26.63577 216.000
26.65571 180.000
26.67566 193.000
26.69561 213.000
26.71555 194.000
26.73550 204.000
26.75545 208.000
26.77539 195.000
26.79534 201.000
26.81529 227.000
26.83524 206.000
26.85518 210.000
26.87513 173.000
26.89508 210.000
26.91502 221.000
26.93497 193.000
26.95492 212.000
26.97486 221.000
26.99481 200.000
27.01476 185.000
27.03471 180.000
27.05465 205.000
27.07460 231.000
27.09455 221.000
27.11449 239.000
27.13444 194.000
27.15439 234.000
27.17433 255.000
27.19428 200.000
27.21423 214.000
27.23417 213.000
27.25412 203.000
27.27407 225.000
27.29402 212.000
27.31396 209.000
27.33391 201.000
27.35386 232.000
27.37380 217.000
27.39375 224.000
27.41370 231.000
27.43364 217.000
27.45359 226.000
27.47354 207.000
27.49349 256.000
27.51343 218.000
27.53338 237.000
27.55333 217.000
27.57327 203.000
27.59322 197.000
27.61317 225.000
27.63311 235.000
27.65306 217.000
27.67301 204.000
27.69296 251.000
27.71290 203.000
27.73285 243.000
27.75280 234.000
27.77274 231.000
27.79269 213.000
27.81264 233.000
27.83258 206.000
27.85253 254.000
27.87248 231.000
27.89242 248.000
27.91237 224.000
27.93232 217.000
27.95227 241.000
27.97221 210.000
27.99216 249.000
28.01211 219.000
28.03205 220.000
28.05200 227.000
28.07195 224.000
28.09189 243.000
28.11184 244.000
28.13179 230.000
28.15174 251.000
28.17168 236.000
28.19163 225.000
28.21158 242.000
28.23152 234.000
28.25147 205.000
28.27142 216.000
28.29136 242.000
28.31131 262.000
28.33126 258.000
28.35120 222.000
28.37115 247.000
28.39110 238.000
28.41105 207.000
28.43099 242.000
28.45094 206.000
28.47089 242.000
28.49083 238.000
28.51078 252.000
28.53073 242.000
28.55067 240.000
28.57062 241.000
28.59057 211.000
28.61052 223.000
28.63046 255.000
28.65041 199.000
28.67036 242.000
28.69030 233.000
28.71025 230.000
28.73020 223.000
28.75014 222.000
28.77009 220.000
28.79004 222.000
28.80998 203.000
28.82993 243.000
28.84988 253.000
28.86983 221.000
28.88977 212.000
28.90972 245.000
28.92967 236.000
28.94961 250.000
28.96956 244.000
28.98951 224.000
29.00945 243.000
29.02940 250.000
29.04935 242.000
29.06930 203.000
29.08924 233.000
29.10919 221.000
29.12914 241.000
29.14908 219.000
29.16903 233.000
29.18898 227.000
29.20892 238.000
29.22887 228.000
29.24882 228.000
29.26877 262.000
29.28871 239.000
29.30866 243.000
29.32861 251.000
29.34855 236.000
29.36850 259.000
29.38845 224.000
29.40839 265.000
29.42834 266.000
29.44829 242.000
29.46823 253.000
29.48818 229.000
29.50813 227.000
29.52808 270.000
29.54802 255.000
29.56797 242.000
29.58792 244.000
29.60786 197.000
29.62781 249.000
29.64776 237.000
29.66770 231.000
29.68765 216.000
29.70760 272.000
29.72755 230.000
29.74749 241.000
29.76744 222.000
29.78739 240.000
29.80733 223.000
29.82728 237.000
29.84723 250.000
29.86717 233.000
29.88712 230.000
29.90707 244.000
29.92701 246.000
29.94696 245.000
29.96691 245.000
29.98686 235.000
30.00680 244.000
30.02675 247.000
30.04670 264.000
30.06664 221.000
30.08659 264.000
30.10654 261.000
30.12648 253.000
30.14643 257.000
30.16638 248.000
30.18633 265.000
30.20627 253.000
30.22622 251.000
30.24617 280.000
30.26611 235.000
30.28606 222.000
30.30601 213.000
30.32595 212.000
30.34590 235.000
30.36585 271.000
30.38579 228.000
30.40574 244.000
30.42569 228.000
30.44564 251.000
30.46558 236.000
30.48553 250.000
30.50548 237.000
30.52542 224.000
30.54537 255.000
30.56532 219.000
30.58526 251.000
30.60521 235.000
30.62516 224.000
30.64511 241.000
30.66505 240.000
30.68500 237.000
30.70495 240.000
30.72489 225.000
30.74484 244.000
30.76479 240.000
30.78473 245.000
30.80468 216.000
30.82463 244.000
30.84458 251.000
30.86452 258.000
30.88447 261.000
30.90442 256.000
30.92436 252.000
30.94431 246.000
30.96426 265.000
30.98420 227.000
31.00415 248.000
31.02410 229.000
31.04404 250.000
31.06399 240.000
31.08394 266.000
31.10389 248.000
31.12383 245.000
31.14378 258.000
31.16373 238.000
31.18367 241.000
31.20362 244.000
31.22357 258.000
31.24351 276.000
31.26346 243.000
31.28341 241.000
31.30336 215.000
31.32330 238.000
31.34325 258.000
31.36320 247.000
31.38314 232.000
31.40309 227.000
31.42304 260.000
31.44298 251.000
31.46293 260.000
31.48288 248.000
31.50282 249.000
31.52277 239.000
31.54272 275.000
31.56267 246.000
31.58261 242.000
31.60256 262.000
31.62251 249.000
31.64245 291.000
31.66240 258.000
31.68235 304.000
31.70229 265.000
31.72224 288.000
31.74219 297.000
31.76214 291.000
31.78208 330.000
31.80203 319.000
31.82198 317.000
31.84192 386.000
31.86187 415.000
31.88182 581.000
31.90176 647.000
31.92171 719.000
31.94166 884.000
31.96160 912.000
31.98155 861.000
32.00150 752.000
32.02145 703.000
32.04139 582.000
32.06134 510.000
32.08129 426.000
32.10123 358.000
32.12118 297.000
32.14113 271.000
32.16107 259.000
32.18102 272.000
32.20097 250.000
32.22092 262.000
32.24086 252.000
32.26081 259.000
32.28076 232.000
32.30070 249.000
32.32065 229.000
32.34060 231.000
32.36054 235.000
32.38049 233.000
32.40044 233.000
32.42039 254.000
32.44033 230.000
32.46028 218.000
32.48023 216.000
32.50017 236.000
32.52012 212.000
32.54007 224.000
32.56001 227.000
32.57996 226.000
32.59991 227.000
32.61985 246.000
32.63980 222.000
32.65975 242.000
32.67970 223.000
32.69964 219.000
32.71959 223.000
32.73954 257.000
32.75948 231.000
32.77943 230.000
32.79938 222.000
32.81932 227.000
32.83927 223.000
32.85922 224.000
32.87917 225.000
32.89911 206.000
32.91906 245.000
32.93901 223.000
32.95895 243.000
32.97890 245.000
32.99885 241.000
33.01879 225.000
33.03874 267.000
33.05869 226.000
33.07863 223.000
33.09858 225.000
33.11853 217.000
33.13848 197.000
33.15842 221.000
33.17837 217.000
33.19832 194.000
33.21826 218.000
33.23821 228.000
33.25816 219.000
33.27810 225.000
33.29805 202.000
33.31800 214.000
33.33795 208.000
33.35789 211.000
33.37784 234.000
33.39779 236.000
33.41773 217.000
33.43768 228.000
33.45763 205.000
33.47757 217.000
33.49752 219.000
33.51747 228.000
33.53741 222.000
33.55736 219.000
33.57731 227.000
33.59726 212.000
33.61720 256.000
33.63715 226.000
33.65710 205.000
33.67704 200.000
33.69699 203.000
33.71694 222.000
33.73688 192.000
33.75683 210.000
33.77678 220.000
33.79673 198.000
33.81667 212.000
33.83662 209.000
33.85657 210.000
33.87651 205.000
33.89646 199.000
33.91641 218.000
33.93635 216.000
33.95630 225.000
33.97625 210.000
33.99620 221.000
34.01614 203.000
34.03609 243.000
34.05604 201.000
34.07598 193.000
34.09593 226.000
34.11588 211.000
34.13582 233.000
34.15577 203.000
34.17572 213.000
34.19566 235.000
34.21561 242.000
34.23556 212.000
34.25551 214.000
34.27545 225.000
34.29540 211.000
34.31535 214.000
34.33529 224.000
34.35524 221.000
34.37519 244.000
34.39513 221.000
34.41508 221.000
34.43503 240.000
34.45498 209.000
34.47492 200.000
34.49487 237.000
34.51482 226.000
34.53476 218.000
34.55471 208.000
34.57466 204.000
34.59460 226.000
34.61455 215.000
34.63450 208.000
34.65444 212.000
34.67439 211.000
34.69434 223.000
34.71429 207.000
34.73423 222.000
34.75418 221.000
34.77413 238.000
34.79407 219.000
34.81402 207.000
34.83397 203.000
34.85391 227.000
34.87386 209.000
34.89381 194.000
34.91376 226.000
34.93370 216.000
34.95365 243.000
34.97360 220.000
34.99354 214.000
35.01349 215.000
35.03344 228.000
35.05338 219.000
35.07333 194.000
35.09328 213.000
35.11322 222.000
35.13317 218.000
35.15312 207.000
35.17307 203.000
35.19301 217.000
35.21296 214.000
35.23291 213.000
35.25285 200.000
35.27280 227.000
35.29275 211.000
35.31269 209.000
35.33264 214.000
35.35259 243.000
35.37254 205.000
35.39248 221.000
35.41243 248.000
35.43238 254.000
35.45232 236.000
35.47227 245.000
35.49222 237.000
35.51216 235.000
35.53211 245.000
35.55206 252.000
35.57201 252.000
35.59195 258.000
35.61190 242.000
35.63185 262.000
35.65179 250.000
35.67174 263.000
35.69169 276.000
35.71163 299.000
35.73158 296.000
35.75153 261.000
35.77147 331.000
35.79142 312.000
35.81137 355.000
35.83132 378.000
35.85126 439.000
35.87121 612.000
35.89116 834.000
35.91110 1090.000
35.93105 1243.000
35.95100 1183.000
35.97094 864.000
35.99089 815.000
36.01084 783.000
36.03079 753.000
36.05073 602.000
36.07068 443.000
36.09063 286.000
36.11057 273.000
36.13052 259.000
36.15047 226.000
36.17041 212.000
36.19036 234.000
36.21031 206.000
36.23025 237.000
36.25020 199.000
36.27015 194.000
36.29010 215.000
36.31004 252.000
36.32999 214.000
36.34994 231.000
36.36988 203.000
36.38983 263.000
36.40978 223.000
36.42972 233.000
36.44967 217.000
36.46962 227.000
36.48957 222.000
36.50951 220.000
36.52946 234.000
36.54941 201.000
36.56935 234.000
36.58930 223.000
36.60925 239.000
36.62919 199.000
36.64914 240.000
36.66909 236.000
36.68903 213.000
36.70898 202.000
36.72893 232.000
36.74888 231.000
36.76882 274.000
36.78877 283.000
36.80872 267.000
36.82866 297.000
36.84861 334.000
36.86856 293.000
36.88850 331.000
36.90845 309.000
36.92840 312.000
36.94835 307.000
36.96829 313.000
36.98824 297.000
37.00819 325.000
37.02813 306.000
37.04808 313.000
37.06803 346.000
37.08797 335.000
37.10792 387.000
37.12787 462.000
37.14781 622.000
37.16776 802.000
37.18771 1185.000
37.20766 1531.000
37.22760 1662.000
37.24755 1439.000
37.26750 1275.000
37.28744 1141.000
37.30739 1181.000
37.32734 1046.000
37.34728 813.000
37.36723 677.000
37.38718 490.000
37.40713 376.000
37.42707 315.000
37.44702 249.000
37.46697 247.000
37.48691 278.000
37.50686 258.000
37.52681 249.000
37.54675 262.000
37.56670 239.000
37.58665 217.000
37.60660 238.000
37.62654 249.000
37.64649 230.000
37.66644 213.000
37.68638 199.000
37.70633 223.000
37.72628 216.000
37.74622 206.000
37.76617 207.000
37.78612 197.000
37.80606 196.000
37.82601 195.000
37.84596 191.000
37.86591 214.000
37.88585 196.000
37.90580 208.000
37.92575 189.000
37.94569 189.000
37.96564 206.000
37.98559 198.000
38.00553 205.000
38.02548 211.000
38.04543 196.000
38.06538 184.000
38.08532 198.000
38.10527 172.000
38.12522 187.000
38.14516 203.000
38.16511 194.000
38.18506 206.000
38.20500 170.000
38.22495 171.000
38.24490 180.000
38.26484 211.000
38.28479 187.000
38.30474 182.000
38.32469 192.000
38.34463 182.000
38.36458 186.000
38.38453 210.000
38.40447 186.000
38.42442 188.000
38.44437 205.000
38.46431 192.000
38.48426 181.000
38.50421 202.000
38.52416 197.000
38.54410 226.000
38.56405 175.000
38.58400 195.000
38.60394 184.000
38.62389 213.000
38.64384 220.000
38.66378 192.000
38.68373 200.000
38.70368 216.000
38.72362 210.000
38.74357 200.000
38.76352 183.000
38.78347 213.000
38.80341 221.000
38.82336 211.000
38.84331 221.000
38.86325 221.000
38.88320 229.000
38.90315 246.000
38.92309 228.000
38.94304 258.000
38.96299 233.000
38.98294 239.000
39.00288 256.000
39.02283 255.000
39.04278 235.000
39.06272 268.000
39.08267 242.000
39.10262 263.000
39.12256 274.000
39.14251 283.000
39.16246 291.000
39.18241 333.000
39.20235 286.000
39.22230 326.000
39.24225 352.000
39.26219 372.000
39.28214 382.000
39.30209 406.000
39.32203 451.000
39.34198 480.000
39.36193 520.000
39.38187 638.000
39.40182 863.000
39.42177 1129.000
39.44172 1455.000
39.46166 2039.000
39.48161 2304.000
39.50156 1999.000
39.52150 1615.000
39.54145 1300.000
39.56140 1368.000
39.58134 1339.000
39.60129 1181.000
39.62124 812.000
39.64119 581.000
39.66113 437.000
39.68108 384.000
39.70103 329.000
39.72097 292.000
39.74092 288.000
39.76087 256.000
39.78081 230.000
39.80076 244.000
39.82071 246.000
39.84065 234.000
39.86060 227.000
39.88055 201.000
39.90050 229.000
39.92044 245.000
39.94039 199.000
39.96034 214.000
39.98028 227.000
40.00023 195.000
40.02018 226.000
40.04012 209.000
40.06007 185.000
40.08002 184.000
40.09997 215.000
40.11991 209.000
40.13986 198.000
40.15981 192.000
40.17975 224.000
40.19970 209.000
40.21965 190.000
40.23959 215.000
40.25954 211.000
40.27949 204.000
40.29943 217.000
40.31938 194.000
40.33933 179.000
40.35928 201.000
40.37922 181.000
40.39917 174.000
40.41912 204.000
40.43906 198.000
40.45901 201.000
40.47896 183.000
40.49890 204.000
40.51885 179.000
40.53880 178.000
40.55875 182.000
40.57869 191.000
40.59864 205.000
40.61859 189.000
40.63853 200.000
40.65848 195.000
40.67843 187.000
40.69837 200.000
40.71832 186.000
40.73827 200.000
40.75822 188.000
40.77816 200.000
40.79811 206.000
40.81806 201.000
40.83800 193.000
40.85795 188.000
40.87790 206.000
40.89784 186.000
40.91779 193.000
40.93774 205.000
40.95768 192.000
40.97763 198.000
40.99758 181.000
41.01753 177.000
41.03747 216.000
41.05742 173.000
41.07737 186.000
41.09731 186.000
41.11726 168.000
41.13721 187.000
41.15715 192.000
41.17710 200.000
41.19705 184.000
41.21700 196.000
41.23694 201.000
41.25689 182.000
41.27684 184.000
41.29678 166.000
41.31673 213.000
41.33668 171.000
41.35662 187.000
41.37657 200.000
41.39652 198.000
41.41646 189.000
41.43641 179.000
41.45636 180.000
41.47631 167.000
41.49625 193.000
41.51620 192.000
41.53615 194.000
41.55609 208.000
41.57604 181.000
41.59599 179.000
41.61593 190.000
41.63588 209.000
41.65583 204.000
41.67578 180.000
41.69572 175.000
41.71567 182.000
41.73562 210.000
41.75556 200.000
41.77551 201.000
41.79546 183.000
41.81540 193.000
41.83535 180.000
41.85530 191.000
41.87524 157.000
41.89519 198.000
41.91514 158.000
41.93509 217.000
41.95503 179.000
41.97498 188.000
41.99493 172.000
42.01487 199.000
42.03482 171.000
42.05477 183.000
42.07471 192.000
42.09466 169.000
42.11461 185.000
42.13456 188.000
42.15450 171.000
42.17445 194.000
42.19440 161.000
42.21434 189.000
42.23429 186.000
42.25424 195.000
42.27418 204.000
42.29413 182.000
42.31408 214.000
42.33403 194.000
42.35397 194.000
42.37392 191.000
42.39387 175.000
42.41381 203.000
42.43376 200.000
42.45371 206.000
42.47365 224.000
42.49360 207.000
42.51355 208.000
42.53349 212.000
42.55344 227.000
42.57339 230.000
42.59334 198.000
42.61328 224.000
42.63323 199.000
42.65318 230.000
42.67312 195.000
42.69307 230.000
42.71302 260.000
42.73296 239.000
42.75291 220.000
42.77286 259.000
42.79281 258.000
42.81275 243.000
42.83270 276.000
42.85265 258.000
42.87259 270.000
42.89254 303.000
42.91249 294.000
42.93243 266.000
42.95238 286.000
42.97233 336.000
42.99227 319.000
43.01222 336.000
43.03217 344.000
43.05212 427.000
43.07206 430.000
43.09201 427.000
43.11196 462.000
43.13190 536.000
43.15185 581.000
43.17180 796.000
43.19174 1077.000
43.21169 1507.000
43.23164 2223.000
43.25159 2791.000
43.27153 2869.000
43.29148 2075.000
43.31143 1544.000
43.33137 1355.000
43.35132 1650.000
43.37127 1750.000
43.39121 1504.000
43.41116 1042.000
43.43111 750.000
43.45105 648.000
43.47100 572.000
43.49095 597.000
43.51090 628.000
43.53084 722.000
43.55079 880.000
43.57074 938.000
43.59068 912.000
43.61063 827.000
43.63058 672.000
43.65052 598.000
43.67047 588.000
43.69042 641.000
43.71037 534.000
43.73031 433.000
43.75026 342.000
43.77021 322.000
43.79015 271.000
43.81010 256.000
43.83005 247.000
43.84999 231.000
43.86994 192.000
43.88989 219.000
43.90984 231.000
43.92978 212.000
43.94973 208.000
43.96968 193.000
43.98962 170.000
44.00957 181.000
44.02952 223.000
44.04946 205.000
44.06941 220.000
44.08936 192.000
44.10930 180.000
44.12925 228.000
44.14920 203.000
44.16915 187.000
44.18909 182.000
44.20904 174.000
44.22899 193.000
44.24893 170.000
44.26888 188.000
44.28883 192.000
44.30877 173.000
44.32872 190.000
44.34867 179.000
44.36862 190.000
44.38856 188.000
44.40851 191.000
44.42846 188.000
44.44840 174.000
44.46835 164.000
44.48830 177.000
44.50824 177.000
44.52819 174.000
44.54814 178.000
44.56808 182.000
44.58803 213.000
44.60798 175.000
44.62793 185.000
44.64787 165.000
44.66782 165.000
44.68777 179.000
44.70771 187.000
44.72766 202.000
44.74761 175.000
44.76755 194.000
44.78750 152.000
44.80745 170.000
44.82740 172.000
44.84734 158.000
44.86729 171.000
44.88724 171.000
44.90718 158.000
44.92713 208.000
44.94708 192.000
44.96702 160.000
44.98697 177.000
45.00692 174.000
45.02686 153.000
45.04681 171.000
45.06676 175.000
45.08671 174.000
45.10665 175.000
45.12660 184.000
45.14655 187.000
45.16649 153.000
45.18644 181.000
45.20639 201.000
45.22633 190.000
45.24628 182.000
45.26623 206.000
45.28618 205.000
45.30612 184.000
45.32607 185.000
45.34602 186.000
45.36596 167.000
45.38591 177.000
45.40586 187.000
45.42580 162.000
45.44575 165.000
45.46570 165.000
45.48565 174.000
45.50559 188.000
45.52554 197.000
45.54549 181.000
45.56543 154.000
45.58538 185.000
45.60533 172.000
45.62527 185.000
45.64522 169.000
45.66517 147.000
45.68511 163.000
45.70506 143.000
45.72501 166.000
45.74496 180.000
45.76490 140.000
45.78485 190.000
45.80480 155.000
45.82474 132.000
45.84469 176.000
45.86464 170.000
45.88458 154.000
45.90453 177.000
45.92448 154.000
45.94443 140.000
45.96437 146.000
45.98432 175.000
46.00427 173.000
46.02421 172.000
46.04416 170.000
46.06411 161.000
46.08405 160.000
46.10400 153.000
46.12395 181.000
46.14389 148.000
46.16384 167.000
46.18379 157.000
46.20374 151.000
46.22368 168.000
46.24363 145.000
46.26358 151.000
46.28352 180.000
46.30347 141.000
46.32342 169.000
46.34336 164.000
46.36331 164.000
46.38326 150.000
46.40321 170.000
46.42315 149.000
46.44310 174.000
46.46305 143.000
46.48299 155.000
46.50294 150.000
46.52289 154.000
46.54283 150.000
46.56278 164.000
46.58273 165.000
46.60267 142.000
46.62262 149.000
46.64257 148.000
46.66252 144.000
46.68246 177.000
46.70241 157.000
46.72236 147.000
46.74230 173.000
46.76225 153.000
46.78220 144.000
46.80214 153.000
46.82209 131.000
46.84204 160.000
46.86199 181.000
46.88193 153.000
46.90188 135.000
46.92183 183.000
46.94177 146.000
46.96172 148.000
46.98167 166.000
47.00161 175.000
47.02156 154.000
47.04151 173.000
47.06146 167.000
47.08140 142.000
47.10135 181.000
47.12130 172.000
47.14124 161.000
47.16119 130.000
47.18114 170.000
47.20108 159.000
47.22103 138.000
47.24098 136.000
47.26092 149.000
47.28087 158.000
47.30082 151.000
47.32077 156.000
47.34071 175.000
47.36066 174.000
47.38061 162.000
47.40055 165.000
47.42050 162.000
47.44045 132.000
47.46039 176.000
47.48034 182.000
47.50029 177.000
47.52024 169.000
47.54018 173.000
47.56013 165.000
47.58008 164.000
47.60002 152.000
47.61997 149.000
47.63992 139.000
47.65986 143.000
47.67981 150.000
47.69976 175.000
47.71970 169.000
47.73965 185.000
47.75960 170.000
47.77955 172.000
47.79949 166.000
47.81944 177.000
47.83939 173.000
47.85933 177.000
47.87928 170.000
47.89923 153.000
47.91917 176.000
47.93912 151.000
47.95907 150.000
47.97902 164.000
47.99896 154.000
48.01891 178.000
48.03886 159.000
48.05880 174.000
48.07875 181.000
48.09870 195.000
48.11864 181.000
48.13859 178.000
48.15854 205.000
48.17848 181.000
48.19843 198.000
48.21838 205.000
48.23833 192.000
48.25827 203.000
48.27822 201.000
48.29817 221.000
48.31811 170.000
48.33806 179.000
48.35801 226.000
48.37795 245.000
48.39790 227.000
48.41785 228.000
48.43780 241.000
48.45774 269.000
48.47769 250.000
48.49764 258.000
48.51758 283.000
48.53753 275.000
48.55748 318.000
48.57742 336.000
48.59737 302.000
48.61732 364.000
48.63726 315.000
48.65721 410.000
48.67716 431.000
48.69711 470.000
48.71705 563.000
48.73700 653.000
48.75695 805.000
48.77689 995.000
48.79684 1293.000
48.81679 1481.000
48.83673 1717.000
48.85668 1761.000
48.87663 1528.000
48.89658 1208.000
48.91652 1108.000
48.93647 1072.000
48.95642 1034.000
48.97636 1048.000
48.99631 847.000
49.01626 729.000
49.03620 544.000
49.05615 438.000
49.07610 358.000
49.09605 292.000
49.11599 262.000
49.13594 264.000
49.15589 245.000
49.17583 227.000
49.19578 200.000
49.21573 205.000
49.23567 196.000
49.25562 191.000
49.27557 207.000
49.29551 214.000
49.31546 174.000
49.33541 175.000
49.35536 191.000
49.37530 169.000
49.39525 179.000
49.41520 188.000
49.43514 173.000
49.45509 185.000
49.47504 155.000
49.49498 179.000
49.51493 148.000
49.53488 165.000
49.55483 140.000
49.57477 156.000
49.59472 201.000
49.61467 156.000
49.63461 176.000
49.65456 146.000
49.67451 161.000
49.69445 182.000
49.71440 160.000
49.73435 159.000
49.75429 160.000
49.77424 166.000
49.79419 162.000
49.81414 156.000
49.83408 129.000
49.85403 167.000
49.87398 181.000
49.89392 161.000
49.91387 150.000
49.93382 172.000
49.95376 154.000
49.97371 158.000
49.99366 155.000
50.01361 167.000
50.03355 150.000
50.05350 160.000
50.07345 145.000
50.09339 135.000
50.11334 146.000
50.13329 179.000
50.15323 148.000
50.17318 171.000
50.19313 134.000
50.21307 155.000
50.23302 163.000
50.25297 156.000
50.27292 148.000
50.29286 164.000
50.31281 152.000
50.33276 152.000
50.35270 142.000
50.37265 134.000
50.39260 141.000
50.41254 144.000
50.43249 167.000
50.45244 177.000
50.47239 162.000
50.49233 150.000
50.51228 141.000
50.53223 141.000
50.55217 130.000
50.57212 143.000
50.59207 139.000
50.61201 137.000
50.63196 117.000
50.65191 173.000
50.67186 135.000
50.69180 140.000
50.71175 141.000
50.73170 150.000
50.75164 155.000
50.77159 156.000
50.79154 159.000
50.81148 158.000
50.83143 149.000
50.85138 154.000
50.87132 137.000
50.89127 167.000
50.91122 142.000
50.93117 150.000
50.95111 164.000
50.97106 157.000
50.99101 139.000
51.01095 131.000
51.03090 126.000
51.05085 159.000
51.07079 136.000
51.09074 149.000
51.11069 125.000
51.13064 141.000
51.15058 145.000
51.17053 136.000
51.19048 139.000
51.21042 162.000
51.23037 158.000
51.25032 132.000
51.27026 133.000
51.29021 144.000
51.31016 169.000
51.33010 153.000
51.35005 147.000
51.37000 139.000
51.38995 162.000
51.40989 117.000
51.42984 130.000
51.44979 126.000
51.46973 177.000
51.48968 169.000
51.50963 164.000
51.52957 160.000
51.54952 142.000
51.56947 130.000
51.58942 165.000
51.60936 131.000
51.62931 151.000
51.64926 163.000
51.66920 139.000
51.68915 121.000
51.70910 147.000
51.72904 151.000
51.74899 148.000
51.76894 138.000
51.78888 139.000
51.80883 148.000
51.82878 152.000
51.84873 168.000
51.86867 134.000
51.88862 138.000
51.90857 142.000
51.92851 128.000
51.94846 152.000
51.96841 154.000
51.98835 158.000
52.00830 160.000
52.02825 161.000
52.04820 161.000
52.06814 168.000
52.08809 145.000
52.10804 155.000
52.12798 138.000
52.14793 136.000
52.16788 136.000
52.18782 125.000
52.20777 125.000
52.22772 147.000
52.24767 155.000
52.26761 159.000
52.28756 133.000
52.30751 137.000
52.32745 142.000
52.34740 127.000
52.36735 133.000
52.38729 140.000
52.40724 147.000
52.42719 161.000
52.44713 173.000
52.46708 157.000
52.48703 138.000
52.50698 171.000
52.52692 148.000
52.54687 148.000
52.56682 139.000
52.58676 135.000
52.60671 113.000
52.62666 142.000
52.64660 136.000
52.66655 133.000
52.68650 131.000
52.70645 153.000
52.72639 146.000
52.74634 144.000
52.76629 136.000
52.78623 142.000
52.80618 160.000
52.82613 161.000
52.84607 134.000
52.86602 156.000
52.88597 127.000
52.90591 145.000
52.92586 164.000
52.94581 141.000
52.96576 146.000
52.98570 156.000
53.00565 153.000
53.02560 145.000
53.04554 155.000
53.06549 153.000
53.08544 148.000
53.10538 143.000
53.12533 144.000
53.14528 132.000
53.16523 147.000
53.18517 150.000
53.20512 160.000
53.22507 138.000
53.24501 146.000
53.26496 136.000
53.28491 118.000
53.30485 174.000
53.32480 140.000
53.34475 152.000
53.36469 144.000
53.38464 135.000
53.40459 161.000
53.42454 143.000
53.44448 152.000
53.46443 129.000
53.48438 130.000
53.50432 169.000
53.52427 154.000
53.54422 136.000
53.56416 162.000
53.58411 121.000
53.60406 132.000
53.62401 111.000
53.64395 168.000
53.66390 146.000
53.68385 142.000
53.70379 144.000
53.72374 145.000
53.74369 151.000
53.76363 128.000
53.78358 128.000
53.80353 168.000
53.82348 149.000
53.84342 169.000
53.86337 157.000
53.88332 153.000
53.90326 142.000
53.92321 156.000
53.94316 123.000
53.96310 136.000
53.98305 142.000
54.00300 155.000
54.02294 167.000
54.04289 157.000
54.06284 147.000
54.08279 128.000
54.10273 144.000
54.12268 137.000
54.14263 130.000
54.16257 123.000
54.18252 164.000
54.20247 128.000
54.22241 136.000
54.24236 139.000
54.26231 143.000
54.28226 119.000
54.30220 141.000
54.32215 151.000
54.34210 166.000
54.36204 151.000
54.38199 126.000
54.40194 138.000
54.42188 160.000
54.44183 143.000
54.46178 124.000
54.48172 124.000
54.50167 155.000
54.52162 156.000
54.54157 134.000
54.56151 153.000
54.58146 154.000
54.60141 138.000
54.62135 142.000
54.64130 132.000
54.66125 118.000
54.68119 145.000
54.70114 140.000
54.72109 145.000
54.74104 135.000
54.76098 145.000
54.78093 131.000
54.80088 138.000
54.82082 144.000
54.84077 147.000
54.86072 153.000
54.88066 136.000
54.90061 113.000
54.92056 141.000
54.94050 147.000
54.96045 126.000
54.98040 161.000
55.00035 161.000
55.02029 129.000
55.04024 161.000
55.06019 129.000
55.08013 135.000
55.10008 140.000
55.12003 129.000
55.13997 133.000
55.15992 113.000
55.17987 136.000
55.19982 164.000
55.21976 153.000
55.23971 149.000
55.25966 132.000
55.27960 147.000
55.29955 166.000
55.31950 134.000
55.33944 139.000
55.35939 154.000
55.37934 150.000
55.39929 128.000
55.41923 134.000
55.43918 134.000
55.45913 136.000
55.47907 157.000
55.49902 139.000
55.51897 134.000
55.53891 142.000
55.55886 133.000
55.57881 157.000
55.59875 145.000
55.61870 118.000
55.63865 134.000
55.65860 135.000
55.67854 160.000
55.69849 135.000
55.71844 135.000
55.73838 134.000
55.75833 149.000
55.77828 137.000
55.79822 130.000
55.81817 149.000
55.83812 158.000
55.85807 134.000
55.87801 137.000
55.89796 140.000
55.91791 151.000
55.93785 143.000
55.95780 139.000
55.97775 124.000
55.99769 164.000
56.01764 144.000
56.03759 121.000
56.05753 142.000
56.07748 154.000
56.09743 141.000
56.11738 150.000
56.13732 142.000
56.15727 129.000
56.17722 134.000
56.19716 149.000
56.21711 143.000
56.23706 142.000
56.25700 147.000
56.27695 130.000
56.29690 151.000
56.31685 149.000
56.33679 128.000
56.35674 156.000
56.37669 136.000
56.39663 132.000
56.41658 154.000
56.43653 143.000
56.45647 141.000
56.47642 119.000
56.49637 152.000
56.51631 132.000
56.53626 157.000
56.55621 164.000
56.57616 149.000
56.59610 147.000
56.61605 143.000
56.63600 111.000
56.65594 140.000
56.67589 137.000
56.69584 138.000
56.71578 142.000
56.73573 152.000
56.75568 167.000
56.77563 153.000
56.79557 149.000
56.81552 162.000
56.83547 143.000
56.85541 123.000
56.87536 148.000
56.89531 140.000
56.91525 163.000
56.93520 156.000
56.95515 146.000
56.97510 161.000
56.99504 131.000
57.01499 135.000
57.03494 129.000
57.05488 126.000
57.07483 150.000
57.09478 130.000
57.11472 168.000
57.13467 140.000
57.15462 154.000
57.17456 152.000
57.19451 154.000
57.21446 147.000
57.23441 146.000
57.25435 155.000
57.27430 164.000
57.29425 153.000
57.31419 138.000
57.33414 170.000
57.35409 165.000
57.37403 156.000
57.39398 153.000
57.41393 147.000
57.43388 158.000
57.45382 135.000
57.47377 170.000
57.49372 131.000
57.51366 125.000
57.53361 138.000
57.55356 132.000
57.57350 131.000
57.59345 126.000
57.61340 136.000
57.63334 150.000
57.65329 155.000
57.67324 150.000
57.69319 149.000
57.71313 132.000
57.73308 124.000
57.75303 132.000
57.77297 123.000
57.79292 134.000
57.81287 157.000
57.83281 137.000
57.85276 159.000
57.87271 148.000
57.89266 143.000
57.91260 129.000
57.93255 135.000
57.95250 156.000
57.97244 163.000
57.99239 147.000
58.01234 145.000
58.03228 141.000
58.05223 157.000
58.07218 138.000
58.09212 136.000
58.11207 129.000
58.13202 143.000
58.15197 144.000
58.17191 139.000
58.19186 142.000
58.21181 148.000
58.23175 152.000
58.25170 128.000
58.27165 137.000
58.29159 145.000
58.31154 160.000
58.33149 141.000
58.35144 141.000
58.37138 162.000
58.39133 170.000
58.41128 168.000
58.43122 147.000
58.45117 131.000
58.47112 145.000
58.49106 168.000
58.51101 153.000
58.53096 158.000
58.55090 135.000
58.57085 137.000
58.59080 138.000
58.61075 136.000
58.63069 155.000
58.65064 145.000
58.67059 151.000
58.69053 133.000
58.71048 146.000
58.73043 134.000
58.75037 140.000
58.77032 141.000
58.79027 141.000
58.81022 172.000
58.83016 148.000
58.85011 137.000
58.87006 162.000
58.89000 133.000
58.90995 125.000
58.92990 138.000
58.94984 152.000
58.96979 148.000
58.98974 134.000
59.00969 150.000
59.02963 135.000
59.04958 141.000
59.06953 151.000
59.08947 157.000
59.10942 135.000
59.12937 146.000
59.14931 127.000
59.16926 141.000
59.18921 125.000
59.20915 166.000
59.22910 142.000
59.24905 132.000
59.26900 137.000
59.28894 138.000
59.30889 146.000
59.32884 157.000
59.34878 146.000
59.36873 144.000
59.38868 131.000
59.40862 137.000
59.42857 139.000
59.44852 121.000
59.46847 142.000
59.48841 142.000
59.50836 146.000
59.52831 136.000
59.54825 149.000
59.56820 172.000
59.58815 128.000
59.60809 144.000
59.62804 146.000
59.64799 131.000
59.66793 153.000
59.68788 136.000
59.70783 150.000
59.72778 144.000
59.74772 144.000
59.76767 150.000
59.78762 149.000
59.80756 147.000
59.82751 149.000
59.84746 133.000
59.86740 137.000
59.88735 141.000
59.90730 132.000
59.92725 148.000
59.94719 150.000
59.96714 134.000
59.98709 133.000
60.00703 131.000
60.02698 150.000
60.04693 136.000
60.06687 151.000
60.08682 139.000
60.10677 154.000
60.12671 139.000
60.14666 137.000
60.16661 146.000
60.18656 131.000
60.20650 140.000
60.22645 147.000
60.24640 158.000
60.26634 146.000
60.28629 161.000
60.30624 142.000
60.32618 139.000
60.34613 148.000
60.36608 120.000
60.38603 133.000
60.40597 135.000
60.42592 139.000
60.44587 141.000
60.46581 143.000
60.48576 150.000
60.50571 130.000
60.52565 140.000
60.54560 152.000
60.56555 139.000
60.58550 143.000
60.60544 148.000
60.62539 142.000
60.64534 127.000
60.66528 115.000
60.68523 146.000
60.70518 157.000
60.72512 133.000
60.74507 147.000
60.76502 138.000
60.78496 139.000
60.80491 152.000
60.82486 143.000
60.84481 164.000
60.86475 138.000
60.88470 149.000
60.90465 146.000
60.92459 134.000
60.94454 162.000
60.96449 136.000
60.98443 133.000
61.00438 133.000
61.02433 157.000
61.04428 132.000
61.06422 152.000
61.08417 127.000
61.10412 131.000
61.12406 148.000
61.14401 140.000
61.16396 135.000
61.18390 159.000
61.20385 157.000
61.22380 139.000
61.24374 148.000
61.26369 166.000
61.28364 152.000
61.30359 133.000
61.32353 161.000
61.34348 165.000
61.36343 139.000
61.38337 143.000
61.40332 156.000
61.42327 169.000
61.44321 180.000
61.46316 161.000
61.48311 157.000
61.50306 155.000
61.52300 139.000
61.54295 182.000
61.56290 153.000
61.58284 169.000
61.60279 191.000
61.62274 167.000
61.64268 176.000
61.66263 209.000
61.68258 185.000
61.70252 189.000
61.72247 205.000
61.74242 192.000
61.76237 210.000
61.78231 244.000
61.80226 227.000
61.82221 238.000
61.84215 257.000
61.86210 268.000
61.88205 267.000
61.90199 285.000
61.92194 338.000
61.94189 354.000
61.96184 420.000
61.98178 468.000
62.00173 589.000
62.02168 641.000
62.04162 649.000
62.06157 721.000
62.08152 684.000
62.10146 618.000
62.12141 533.000
62.14136 536.000
62.16131 510.000
62.18125 435.000
62.20120 467.000
62.22115 459.000
62.24109 458.000
62.26104 377.000
62.28099 377.000
62.30093 354.000
62.32088 300.000
62.34083 254.000
62.36077 265.000
62.38072 234.000
62.40067 249.000
62.42062 242.000
62.44056 220.000
62.46051 204.000
62.48046 226.000
62.50040 236.000
62.52035 235.000
62.54030 221.000
62.56024 197.000
62.58019 255.000
62.60014 255.000
62.62009 275.000
62.64003 292.000
62.65998 299.000
62.67993 285.000
62.69987 331.000
62.71982 340.000
62.73977 397.000
62.75971 530.000
62.77966 707.000
62.79961 857.000
62.81955 973.000
62.83950 995.000
62.85945 968.000
62.87940 914.000
62.89934 807.000
62.91929 685.000
62.93924 573.000
62.95918 597.000
62.97913 632.000
62.99908 664.000
63.01902 642.000
63.03897 598.000
63.05892 507.000
63.07887 414.000
63.09881 373.000
63.11876 304.000
63.13871 252.000
63.15865 245.000
63.17860 227.000
63.19855 193.000
63.21849 199.000
63.23844 201.000
63.25839 165.000
63.27833 187.000
63.29828 166.000
63.31823 156.000
63.33818 179.000
63.35812 165.000
63.37807 164.000
63.39802 158.000
63.41796 132.000
63.43791 151.000
63.45786 179.000
63.47780 150.000
63.49775 145.000
63.51770 169.000
63.53765 137.000
63.55759 144.000
63.57754 152.000
63.59749 159.000
63.61743 156.000
63.63738 148.000
63.65733 151.000
63.67727 159.000
63.69722 150.000
63.71717 179.000
63.73712 162.000
63.75706 142.000
63.77701 140.000
63.79696 162.000
63.81690 143.000
63.83685 139.000
63.85680 160.000
63.87674 123.000
63.89669 160.000
63.91664 170.000
63.93658 144.000
63.95653 139.000
63.97648 168.000
63.99643 185.000
64.01637 161.000
64.03632 153.000
64.05627 143.000
64.07621 153.000
64.09616 173.000
64.11611 138.000
64.13605 163.000
64.15600 147.000
64.17595 183.000
64.19590 175.000
64.21584 177.000
64.23579 178.000
64.25574 164.000
64.27568 187.000
64.29563 215.000
64.31558 200.000
64.33552 206.000
64.35547 204.000
64.37542 191.000
64.39536 225.000
64.41531 234.000
64.43526 247.000
64.45521 262.000
64.47515 280.000
64.49510 315.000
64.51505 385.000
64.53499 446.000
64.55494 558.000
64.57489 602.000
64.59483 676.000
64.61478 655.000
64.63473 563.000
64.65468 470.000
64.67462 397.000
64.69457 406.000
64.71452 369.000
64.73446 399.000
64.75441 455.000
64.77436 410.000
64.79430 417.000
64.81425 365.000
64.83420 322.000
64.85414 264.000
64.87409 258.000
64.89404 188.000
64.91399 173.000
64.93393 181.000
64.95388 147.000
64.97383 199.000
64.99377 181.000
65.01372 155.000
65.03367 154.000
65.05361 168.000
65.07356 138.000
65.09351 174.000
65.11346 180.000
65.13340 179.000
65.15335 157.000
65.17330 139.000
65.19324 148.000
65.21319 152.000
65.23314 131.000
65.25308 166.000
65.27303 160.000
65.29298 134.000
65.31293 144.000
65.33287 141.000
65.35282 148.000
65.37277 140.000
65.39271 136.000
65.41266 141.000
65.43261 150.000
65.45255 152.000
65.47250 146.000
65.49245 145.000
65.51239 156.000
65.53234 128.000
65.55229 123.000
65.57224 151.000
65.59218 144.000
65.61213 131.000
65.63208 144.000
65.65202 126.000
65.67197 146.000
65.69192 150.000
65.71186 147.000
65.73181 151.000
65.75176 125.000
65.77171 133.000
65.79165 162.000
65.81160 152.000
65.83155 153.000
65.85149 151.000
65.87144 141.000
65.89139 139.000
65.91133 139.000
65.93128 154.000
65.95123 142.000
65.97117 151.000
65.99112 144.000
66.01107 144.000
66.03102 122.000
66.05096 129.000
66.07091 146.000
66.09086 128.000
66.11080 160.000
66.13075 141.000
66.15070 143.000
66.17064 158.000
66.19059 153.000
66.21054 149.000
66.23049 156.000
66.25043 144.000
66.27038 159.000
66.29033 151.000
66.31027 152.000
66.33022 166.000
66.35017 147.000
66.37011 153.000
66.39006 155.000
66.41001 143.000
66.42995 169.000
66.44990 181.000
66.46985 186.000
66.48980 160.000
66.50974 154.000
66.52969 172.000
66.54964 151.000
66.56958 180.000
66.58953 188.000
66.60948 203.000
66.62942 188.000
66.64937 187.000
66.66932 169.000
66.68927 209.000
66.70921 232.000
66.72916 225.000
66.74911 248.000
66.76905 272.000
66.78900 273.000
66.80895 273.000
66.82889 274.000
66.84884 289.000
66.86879 301.000
66.88874 370.000
66.90868 370.000
66.92863 422.000
66.94858 445.000
66.96852 490.000
66.98847 521.000
67.00842 474.000
67.02836 402.000
67.04831 363.000
67.06826 334.000
67.08820 323.000
67.10815 324.000
67.12810 307.000
67.14805 311.000
67.16799 331.000
67.18794 285.000
67.20789 308.000
67.22783 229.000
67.24778 178.000
67.26773 194.000
67.28767 163.000
67.30762 159.000
67.32757 153.000
67.34752 165.000
67.36746 162.000
67.38741 152.000
67.40736 140.000
67.42730 148.000
67.44725 144.000
67.46720 124.000
67.48714 148.000
67.50709 141.000
67.52704 127.000
67.54698 140.000
67.56693 128.000
67.58688 154.000
67.60683 130.000
67.62677 143.000
67.64672 142.000
67.66667 136.000
67.68661 136.000
67.70656 133.000
67.72651 137.000
67.74645 145.000
67.76640 129.000
67.78635 144.000
67.80630 130.000
67.82624 123.000
67.84619 130.000
67.86614 118.000
67.88608 165.000
67.90603 117.000
67.92598 138.000
67.94592 131.000
67.96587 111.000
67.98582 126.000
68.00576 138.000
68.02571 147.000
68.04566 135.000
68.06561 141.000
68.08555 137.000
68.10550 145.000
68.12545 117.000
68.14539 137.000
68.16534 128.000
68.18529 138.000
68.20523 129.000
68.22518 123.000
68.24513 132.000
68.26508 147.000
68.28502 133.000
68.30497 128.000
68.32492 138.000
68.34486 136.000
68.36481 115.000
68.38476 123.000
68.40470 137.000
68.42465 151.000
68.44460 125.000
68.46455 130.000
68.48449 137.000
68.50444 122.000
68.52439 133.000
68.54433 119.000
68.56428 144.000
68.58423 135.000
68.60417 138.000
68.62412 113.000
68.64407 130.000
68.66401 126.000
68.68396 131.000
68.70391 153.000
68.72386 140.000
68.74380 131.000
68.76375 155.000
68.78370 136.000
68.80364 140.000
68.82359 131.000
68.84354 130.000
68.86348 132.000
68.88343 149.000
68.90338 117.000
68.92333 139.000
68.94327 126.000
68.96322 154.000
68.98317 134.000
69.00311 128.000
69.02306 133.000
69.04301 144.000
69.06295 147.000
69.08290 132.000
69.10285 130.000
69.12279 145.000
69.14274 122.000
69.16269 129.000
69.18264 133.000
69.20258 146.000
69.22253 131.000
69.24248 110.000
69.26242 123.000
69.28237 115.000
69.30232 141.000
69.32226 144.000
69.34221 154.000
69.36216 150.000
69.38211 121.000
69.40205 133.000
69.42200 146.000
69.44195 121.000
69.46189 128.000
69.48184 117.000
69.50179 116.000
69.52173 125.000
69.54168 128.000
69.56163 130.000
69.58157 139.000
69.60152 128.000
69.62147 119.000
69.64142 146.000
69.66136 126.000
69.68131 143.000
69.70126 149.000
69.72120 145.000
69.74115 162.000
69.76110 143.000
69.78104 138.000
69.80099 135.000
69.82094 127.000
69.84089 140.000
69.86083 158.000
69.88078 128.000
69.90073 139.000
69.92067 117.000
69.94062 121.000
69.96057 136.000
69.98051 114.000
70.00046 139.000
70.02041 136.000
70.04035 152.000
70.06030 140.000
70.08025 139.000
70.10020 145.000
70.12014 116.000
70.14009 127.000
70.16004 134.000
70.17998 126.000
70.19993 142.000
70.21988 130.000
70.23982 143.000
70.25977 138.000
70.27972 112.000
70.29967 137.000
70.31961 121.000
70.33956 123.000
70.35951 125.000
70.37945 123.000
70.39940 115.000
70.41935 127.000
70.43929 140.000
70.45924 127.000
70.47919 118.000
70.49914 129.000
70.51908 125.000
70.53903 143.000
70.55898 141.000
70.57892 140.000
70.59887 126.000
70.61882 129.000
70.63876 128.000
70.65871 117.000
70.67866 125.000
70.69860 147.000
70.71855 133.000
70.73850 147.000
70.75845 135.000
70.77839 134.000
70.79834 133.000
70.81829 126.000
70.83823 136.000
70.85818 111.000
70.87813 135.000
70.89807 125.000
70.91802 137.000
70.93797 128.000
70.95792 137.000
70.97786 140.000
70.99781 110.000
71.01776 122.000
71.03770 125.000
71.05765 138.000
71.07760 144.000
71.09754 126.000
71.11749 135.000
71.13744 134.000
71.15738 105.000
71.17733 124.000
71.19728 126.000
71.21723 142.000
71.23717 112.000
71.25712 128.000
71.27707 134.000
71.29701 125.000
71.31696 139.000
71.33691 113.000
71.35685 145.000
71.37680 139.000
71.39675 135.000
71.41670 135.000
71.43664 120.000
71.45659 132.000
71.47654 126.000
71.49648 98.000
71.51643 132.000
71.53638 119.000
71.55632 149.000
71.57627 103.000
71.59622 119.000
71.61616 110.000
71.63611 125.000
71.65606 149.000
71.67601 115.000
71.69595 114.000
71.71590 146.000
71.73585 139.000
71.75579 120.000
71.77574 114.000
71.79569 125.000
71.81563 124.000
71.83558 131.000
71.85553 136.000
71.87548 118.000
71.89542 113.000
71.91537 138.000
71.93532 109.000
71.95526 106.000
71.97521 131.000
71.99516 154.000
72.01510 124.000
72.03505 133.000
72.05500 118.000
72.07495 107.000
72.09489 119.000
72.11484 125.000
72.13479 116.000
72.15473 143.000
72.17468 111.000
72.19463 119.000
72.21457 127.000
72.23452 126.000
72.25447 119.000
72.27441 133.000
72.29436 106.000
72.31431 134.000
72.33426 134.000
72.35420 151.000
72.37415 128.000
72.39410 129.000
72.41404 121.000
72.43399 131.000
72.45394 110.000
72.47388 115.000
72.49383 127.000
72.51378 124.000
72.53373 128.000
72.55367 114.000
72.57362 142.000
72.59357 139.000
72.61351 151.000
72.63346 147.000
72.65341 116.000
72.67335 110.000
72.69330 134.000
72.71325 126.000
72.73319 123.000
72.75314 140.000
72.77309 123.000
72.79304 121.000
72.81298 135.000
72.83293 128.000
72.85288 113.000
72.87282 124.000
72.89277 124.000
72.91272 136.000
72.93266 121.000
72.95261 122.000
72.97256 124.000
72.99251 126.000
73.01245 112.000
73.03240 134.000
73.05235 118.000
73.07229 149.000
73.09224 129.000
73.11219 130.000
73.13213 132.000
73.15208 133.000
73.17203 137.000
73.19197 140.000
73.21192 138.000
73.23187 128.000
73.25182 151.000
73.27176 112.000
73.29171 135.000
73.31166 136.000
73.33160 126.000
73.35155 123.000
73.37150 162.000
73.39144 138.000
73.41139 142.000
73.43134 136.000
73.45129 141.000
73.47123 142.000
73.49118 138.000
73.51113 140.000
73.53107 138.000
73.55102 125.000
73.57097 136.000
73.59091 167.000
73.61086 147.000
73.63081 147.000
73.65076 170.000
73.67070 179.000
73.69065 161.000
73.71060 180.000
73.73054 150.000
73.75049 170.000
73.77044 180.000
73.79038 189.000
73.81033 201.000
73.83028 228.000
73.85022 247.000
73.87017 284.000
73.89012 290.000
73.91007 262.000
73.93001 259.000
73.94996 236.000
73.96991 194.000
73.98985 185.000
74.00980 238.000
74.02975 218.000
74.04969 183.000
74.06964 192.000
74.08959 207.000
74.10954 188.000
74.12948 201.000
74.14943 194.000
74.16938 189.000
74.18932 179.000
74.20927 170.000
74.22922 157.000
74.24916 165.000
74.26911 121.000
74.28906 149.000
74.30900 128.000
74.32895 139.000
74.34890 131.000
74.36885 139.000
74.38879 129.000
74.40874 138.000
74.42869 142.000
74.44863 137.000
74.46858 114.000
74.48853 135.000
74.50847 156.000
74.52842 137.000
74.54837 123.000
74.56832 127.000
74.58826 111.000
74.60821 135.000
74.62816 136.000
74.64810 138.000
74.66805 115.000
74.68800 150.000
74.70794 120.000
74.72789 109.000
74.74784 116.000
74.76778 135.000
74.78773 148.000
74.80768 143.000
74.82763 135.000
74.84757 118.000
74.86752 130.000
74.88747 145.000
74.90741 137.000
74.92736 152.000
74.94731 154.000
74.96725 148.000
74.98720 151.000
75.00715 134.000
75.02710 139.000
75.04704 158.000
75.06699 163.000
75.08694 165.000
75.10688 162.000
75.12683 166.000
75.14678 168.000
75.16672 175.000
75.18667 176.000
75.20662 185.000
75.22657 230.000
75.24651 193.000
75.26646 228.000
75.28641 257.000
75.30635 318.000
75.32630 335.000
75.34625 398.000
75.36619 445.000
75.38614 426.000
75.40609 362.000
75.42603 362.000
75.44598 291.000
75.46593 270.000
75.48588 262.000
75.50582 243.000
75.52577 271.000
75.54572 260.000
75.56566 279.000
75.58561 286.000
75.60556 309.000
75.62550 267.000
75.64545 212.000
75.66540 258.000
75.68535 203.000
75.70529 197.000
75.72524 168.000
75.74519 172.000
75.76513 140.000
75.78508 149.000
75.80503 155.000
75.82497 151.000
75.84492 133.000
75.86487 134.000
75.88481 132.000
75.90476 149.000
75.92471 129.000
75.94466 154.000
75.96460 141.000
75.98455 142.000
76.00450 129.000
76.02444 146.000
76.04439 144.000
76.06434 138.000
76.08428 149.000
76.10423 152.000
76.12418 157.000
76.14413 190.000
76.16407 189.000
76.18402 175.000
76.20397 229.000
76.22391 196.000
76.24386 172.000
76.26381 190.000
76.28375 183.000
76.30370 135.000
76.32365 149.000
76.34359 164.000
76.36354 157.000
76.38349 169.000
76.40344 186.000
76.42338 154.000
76.44333 158.000
76.46328 156.000
76.48322 170.000
76.50317 136.000
76.52312 129.000
76.54306 137.000
76.56301 134.000
76.58296 140.000
76.60291 130.000
76.62285 143.000
76.64280 132.000
76.66275 136.000
76.68269 119.000
76.70264 136.000
76.72259 153.000
76.74253 144.000
76.76248 145.000
76.78243 122.000
76.80238 139.000
76.82232 145.000
76.84227 125.000
76.86222 153.000
76.88216 117.000
76.90211 127.000
76.92206 130.000
76.94200 144.000
76.96195 135.000
76.98190 124.000
77.00184 142.000
77.02179 122.000
77.04174 105.000
77.06169 133.000
77.08163 143.000
77.10158 118.000
77.12153 159.000
77.14147 147.000
77.16142 134.000
77.18137 124.000
77.20131 134.000
77.22126 128.000
77.24121 144.000
77.26116 141.000
77.28110 137.000
77.30105 137.000
77.32100 127.000
77.34094 133.000
77.36089 120.000
77.38084 116.000
77.40078 147.000
77.42073 136.000
77.44068 146.000
77.46062 132.000
77.48057 100.000
77.50052 149.000
77.52047 130.000
77.54041 139.000
77.56036 143.000
77.58031 128.000
77.60025 130.000
77.62020 127.000
77.64015 129.000
77.66009 119.000
77.68004 144.000
77.69999 137.000
77.71994 135.000
77.73988 131.000
77.75983 130.000
77.77978 139.000
77.79972 136.000
77.81967 130.000
77.83962 145.000
77.85956 140.000
77.87951 158.000
77.89946 163.000
77.91940 161.000
77.93935 154.000
77.95930 156.000
77.97925 158.000
77.99919 161.000
78.01914 176.000
78.03909 173.000
78.05903 152.000
78.07898 188.000
78.09893 194.000
78.11887 185.000
78.13882 180.000
78.15877 234.000
78.17872 230.000
78.19866 254.000
78.21861 263.000
78.23856 287.000
78.25850 290.000
78.27845 285.000
78.29840 292.000
78.31834 293.000
78.33829 298.000
78.35824 327.000
78.37819 346.000
78.39813 365.000
78.41808 404.000
78.43803 312.000
78.45797 338.000
78.47792 319.000
78.49787 280.000
78.51781 298.000
78.53776 231.000
78.55771 223.000
78.57765 231.000
78.59760 221.000
78.61755 211.000
78.63750 217.000
78.65744 232.000
78.67739 203.000
78.69734 201.000
78.71728 216.000
78.73723 153.000
78.75718 201.000
78.77712 154.000
78.79707 155.000
78.81702 159.000
78.83697 151.000
78.85691 145.000
78.87686 137.000
78.89681 166.000
78.91675 148.000
78.93670 169.000
78.95665 163.000
78.97659 142.000
78.99654 169.000
79.01649 125.000
79.03643 163.000
79.05638 140.000
79.07633 162.000
79.09628 142.000
79.11622 163.000
79.13617 172.000
79.15612 170.000
79.17606 166.000
79.19601 165.000
79.21596 159.000
79.23590 224.000
79.25585 220.000
79.27580 238.000
79.29575 289.000
79.31569 299.000
79.33564 350.000
79.35559 349.000
79.37553 307.000
79.39548 264.000
79.41543 282.000
79.43537 266.000
79.45532 250.000
79.47527 258.000
79.49521 243.000
79.51516 306.000
79.53511 241.000
79.55506 237.000
79.57500 258.000
79.59495 225.000
79.61490 236.000
79.63484 209.000
79.65479 185.000
79.67474 188.000
79.69468 189.000
79.71463 170.000
79.73458 181.000
79.75453 160.000
79.77447 149.000
79.79442 143.000
79.81437 148.000
79.83431 121.000
79.85426 122.000
79.87421 141.000
79.89415 131.000
79.91410 127.000
79.93405 134.000
79.95399 128.000
79.97394 121.000
79.99389 121.000
80.01384 139.000
80.03378 129.000
80.05373 124.000
80.07368 135.000
80.09362 125.000
80.11357 145.000
80.13352 129.000
80.15346 133.000
80.17341 140.000
80.19336 109.000
80.21331 119.000
80.23325 120.000
80.25320 113.000
80.27315 128.000
80.29309 116.000
80.31304 138.000
80.33299 136.000
80.35293 132.000
80.37288 114.000
80.39283 122.000
80.41278 125.000
80.43272 151.000
80.45267 133.000
80.47262 123.000
80.49256 118.000
80.51251 114.000
80.53246 115.000
80.55240 142.000
80.57235 114.000
80.59230 119.000
80.61224 130.000
80.63219 147.000
80.65214 140.000
80.67209 128.000
80.69203 102.000
80.71198 143.000
80.73193 130.000
80.75187 133.000
80.77182 155.000
80.79177 124.000
80.81171 118.000
80.83166 124.000
80.85161 139.000
80.87156 130.000
80.89150 107.000
80.91145 110.000
80.93140 114.000
80.95134 127.000
80.97129 98.000
80.99124 115.000
81.01118 110.000
81.03113 142.000
81.05108 134.000
81.07102 128.000
81.09097 156.000
81.11092 134.000
81.13087 137.000
81.15081 139.000
81.17076 144.000
81.19071 145.000
81.21065 146.000
81.23060 128.000
81.25055 178.000
81.27049 143.000
81.29044 127.000
81.31039 143.000
81.33034 137.000
81.35028 117.000
81.37023 141.000
81.39018 135.000
81.41012 144.000
81.43007 139.000
81.45002 157.000
81.46996 133.000
81.48991 139.000
81.50986 141.000
81.52980 120.000
81.54975 125.000
81.56970 141.000
81.58965 112.000
81.60959 120.000
81.62954 119.000
81.64949 112.000
81.66943 116.000
81.68938 140.000
81.70933 122.000
81.72927 136.000
81.74922 129.000
81.76917 117.000
81.78912 126.000
81.80906 115.000
81.82901 125.000
81.84896 102.000
81.86890 149.000
81.88885 134.000
81.90880 125.000
81.92874 119.000
81.94869 114.000
81.96864 116.000
81.98859 125.000
82.00853 122.000
82.02848 125.000
82.04843 107.000
82.06837 131.000
82.08832 150.000
82.10827 120.000
82.12821 128.000
82.14816 121.000
82.16811 148.000
82.18805 106.000
82.20800 118.000
82.22795 118.000
82.24790 121.000
82.26784 114.000
82.28779 143.000
82.30774 130.000
82.32768 117.000
82.34763 112.000
82.36758 115.000
82.38752 112.000
82.40747 123.000
82.42742 127.000
82.44737 111.000
82.46731 141.000
82.48726 131.000
82.50721 116.000
82.52715 116.000
82.54710 130.000
82.56705 132.000
82.58699 128.000
82.60694 119.000
82.62689 107.000
82.64683 137.000
82.66678 119.000
82.68673 133.000
82.70668 110.000
82.72662 128.000
82.74657 100.000
82.76652 147.000
82.78646 108.000
82.80641 127.000
82.82636 134.000
82.84630 116.000
82.86625 118.000
82.88620 118.000
82.90615 112.000
82.92609 138.000
82.94604 121.000
82.96599 136.000
82.98593 122.000
83.00588 127.000
83.02583 144.000
83.04577 119.000
83.06572 138.000
83.08567 116.000
83.10561 111.000
83.12556 130.000
83.14551 137.000
83.16546 108.000
83.18540 135.000
83.20535 109.000
83.22530 132.000
83.24524 128.000
83.26519 122.000
83.28514 107.000
83.30508 118.000
83.32503 126.000
83.34498 111.000
83.36493 108.000
83.38487 106.000
83.40482 102.000
83.42477 132.000
83.44471 117.000
83.46466 120.000
83.48461 131.000
83.50455 104.000
83.52450 119.000
83.54445 115.000
83.56440 121.000
83.58434 125.000
83.60429 128.000
83.62424 114.000
83.64418 108.000
83.66413 114.000
83.68408 136.000
83.70402 123.000
83.72397 122.000
83.74392 124.000
83.76386 130.000
83.78381 114.000
83.80376 119.000
83.82371 126.000
83.84365 123.000
83.86360 128.000
83.88355 107.000
83.90349 108.000
83.92344 126.000
83.94339 115.000
83.96333 114.000
83.98328 118.000
84.00323 127.000
84.02318 130.000
84.04312 133.000
84.06307 125.000
84.08302 97.000
84.10296 117.000
84.12291 137.000
84.14286 144.000
84.16280 121.000
84.18275 129.000
84.20270 132.000
84.22264 122.000
84.24259 127.000
84.26254 123.000
84.28249 130.000
84.30243 116.000
84.32238 134.000
84.34233 137.000
84.36227 112.000
84.38222 123.000
84.40217 121.000
84.42211 145.000
84.44206 134.000
84.46201 134.000
84.48196 150.000
84.50190 123.000
84.52185 126.000
84.54180 146.000
84.56174 136.000
84.58169 140.000
84.60164 130.000
84.62158 138.000
84.64153 139.000
84.66148 133.000
84.68142 166.000
84.70137 127.000
84.72132 148.000
84.74127 160.000
84.76121 139.000
84.78116 154.000
84.80111 164.000
84.82105 191.000
84.84100 159.000
84.86095 169.000
84.88089 199.000
84.90084 187.000
84.92079 208.000
84.94074 236.000
84.96068 255.000
84.98063 286.000
85.00058 283.000
85.02052 292.000
85.04047 265.000
85.06042 269.000
85.08036 213.000
85.10031 184.000
85.12026 208.000
85.14021 180.000
85.16015 208.000
85.18010 200.000
85.20005 182.000
85.21999 211.000
85.23994 209.000
85.25989 219.000
85.27983 206.000
85.29978 178.000
85.31973 199.000
85.33967 159.000
85.35962 164.000
85.37957 164.000
85.39952 164.000
85.41946 143.000
85.43941 156.000
85.45936 122.000
85.47930 156.000
85.49925 121.000
85.51920 140.000
85.53914 131.000
85.55909 108.000
85.57904 115.000
85.59899 116.000
85.61893 141.000
85.63888 121.000
85.65883 128.000
85.67877 121.000
85.69872 125.000
85.71867 128.000
85.73861 120.000
85.75856 137.000
85.77851 104.000
85.79845 149.000
85.81840 117.000
85.83835 124.000
85.85830 124.000
85.87824 120.000
85.89819 113.000
85.91814 136.000
85.93808 124.000
85.95803 106.000
85.97798 122.000
85.99792 116.000
86.01787 140.000
86.03782 137.000
86.05777 116.000
86.07771 144.000
86.09766 108.000
86.11761 107.000
86.13755 107.000
86.15750 124.000
86.17745 121.000
86.19739 116.000
86.21734 135.000
86.23729 125.000
86.25723 124.000
86.27718 126.000
86.29713 125.000
86.31708 126.000
86.33702 128.000
86.35697 110.000
86.37692 97.000
86.39686 131.000
86.41681 115.000
86.43676 119.000
86.45670 103.000
86.47665 122.000
86.49660 126.000
86.51655 129.000
86.53649 133.000
86.55644 101.000
86.57639 101.000
86.59633 121.000
86.61628 105.000
86.63623 117.000
86.65617 121.000
86.67612 117.000
86.69607 119.000
86.71602 130.000
86.73596 113.000
86.75591 138.000
86.77586 139.000
86.79580 119.000
86.81575 123.000
86.83570 121.000
86.85564 125.000
86.87559 122.000
86.89554 139.000
86.91548 132.000
86.93543 127.000
86.95538 138.000
86.97533 134.000
86.99527 142.000
87.01522 130.000
87.03517 144.000
87.05511 162.000
87.07506 145.000
87.09501 149.000
87.11495 142.000
87.13490 144.000
87.15485 125.000
87.17480 135.000
87.19474 153.000
87.21469 145.000
87.23464 127.000
87.25458 130.000
87.27453 134.000
87.29448 145.000
87.31442 120.000
87.33437 143.000
87.35432 109.000
87.37426 121.000
87.39421 131.000
87.41416 125.000
87.43411 131.000
87.45405 136.000
87.47400 140.000
87.49395 145.000
87.51389 127.000
87.53384 131.000
87.55379 148.000
87.57373 143.000
87.59368 132.000
87.61363 131.000
87.63358 141.000
87.65352 136.000
87.67347 125.000
87.69342 129.000
87.71336 124.000
87.73331 131.000
87.75326 145.000
87.77320 138.000
87.79315 126.000
87.81310 113.000
87.83304 148.000
87.85299 136.000
87.87294 123.000
87.89289 127.000
87.91283 138.000
87.93278 114.000
87.95273 122.000
87.97267 130.000
87.99262 119.000
88.01257 117.000
88.03251 138.000
88.05246 129.000
88.07241 129.000
88.09236 147.000
88.11230 125.000
88.13225 147.000
88.15220 118.000
88.17214 140.000
88.19209 112.000
88.21204 126.000
88.23198 116.000
88.25193 115.000
88.27188 99.000
88.29183 129.000
88.31177 121.000
88.33172 122.000
88.35167 127.000
88.37161 123.000
88.39156 119.000
88.41151 131.000
88.43145 117.000
88.45140 109.000
88.47135 105.000
88.49129 132.000
88.51124 107.000
88.53119 127.000
88.55114 120.000
88.57108 131.000
88.59103 106.000
88.61098 118.000
88.63092 123.000
88.65087 116.000
88.67082 131.000
88.69076 114.000
88.71071 100.000
88.73066 114.000
88.75061 129.000
88.77055 112.000
88.79050 119.000
88.81045 120.000
88.83039 110.000
88.85034 103.000
88.87029 108.000
88.89023 109.000
88.91018 115.000
88.93013 120.000
88.95007 114.000
88.97002 132.000
88.98997 135.000
89.00992 117.000
89.02986 93.000
89.04981 117.000
89.06976 137.000
89.08970 123.000
89.10965 130.000
89.12960 122.000
89.14954 105.000
89.16949 131.000
89.18944 112.000
89.20939 110.000
89.22933 123.000
89.24928 128.000
89.26923 122.000
89.28917 123.000
89.30912 126.000
89.32907 125.000
89.34901 123.000
89.36896 118.000
89.38891 109.000
89.40885 117.000
89.42880 119.000
89.44875 123.000
89.46870 119.000
89.48864 105.000
89.50859 120.000
89.52854 122.000
89.54848 128.000
89.56843 97.000
89.58838 116.000
89.60832 108.000
89.62827 112.000
89.64822 118.000
89.66817 118.000
89.68811 118.000
89.70806 109.000
89.72801 110.000
89.74795 131.000
89.76790 123.000
89.78785 119.000
89.80779 120.000
89.82774 128.000
89.84769 130.000
89.86764 122.000
89.88758 125.000
89.90753 91.000
89.92748 97.000
89.94742 125.000
89.96737 136.000
89.98732 112.000
90.00726 121.000
