10.00000 158.000
10.01995 182.000
10.03989 157.000
10.05984 160.000
10.07979 147.000
10.09973 150.000
10.11968 173.000
10.13963 152.000
10.15958 163.000
10.17952 177.000
10.19947 154.000
10.21942 166.000
10.23936 150.000
10.25931 180.000
10.27926 185.000
10.29920 156.000
10.31915 190.000
10.33910 170.000
10.35905 157.000
10.37899 152.000
10.39894 157.000
10.41889 161.000
10.43883 158.000
10.45878 153.000
10.47873 164.000
10.49867 167.000
10.51862 188.000
10.53857 171.000
10.55851 180.000
10.57846 139.000
10.59841 162.000
10.61836 161.000
10.63830 186.000
10.65825 156.000
10.67820 168.000
10.69814 145.000
10.71809 166.000
10.73804 165.000
10.75798 169.000
10.77793 154.000
10.79788 183.000
10.81783 168.000
10.83777 166.000
10.85772 182.000
10.87767 152.000
10.89761 154.000
10.91756 144.000
10.93751 166.000
10.95745 186.000
10.97740 160.000
10.99735 172.000
11.01730 168.000
11.03724 163.000
11.05719 154.000
11.07714 167.000
11.09708 188.000
11.11703 169.000
11.13698 151.000
11.15692 173.000
11.17687 181.000
11.19682 180.000
11.21676 166.000
11.23671 159.000
11.25666 153.000
11.27661 171.000
11.29655 162.000
11.31650 185.000
11.33645 176.000
11.35639 140.000
11.37634 159.000
11.39629 169.000
11.41623 152.000
11.43618 162.000
11.45613 179.000
11.47608 166.000
11.49602 171.000
11.51597 193.000
11.53592 190.000
11.55586 162.000
11.57581 198.000
11.59576 184.000
11.61570 188.000
11.63565 164.000
11.65560 165.000
11.67554 188.000
11.69549 166.000
11.71544 194.000
11.73539 159.000
11.75533 175.000
11.77528 179.000
11.79523 184.000
11.81517 156.000
11.83512 165.000
11.85507 161.000
11.87501 153.000
11.89496 160.000
11.91491 181.000
11.93486 149.000
11.95480 180.000
11.97475 160.000
11.99470 173.000
12.01464 180.000
12.03459 164.000
12.05454 169.000
12.07448 184.000
12.09443 186.000
12.11438 153.000
12.13432 161.000
12.15427 146.000
12.17422 176.000
12.19417 201.000
12.21411 171.000
12.23406 186.000
12.25401 209.000
12.27395 160.000
12.29390 194.000
12.31385 177.000
12.33379 176.000
12.35374 152.000
12.37369 152.000
12.39364 167.000
12.41358 169.000
12.43353 176.000
12.45348 185.000
12.47342 175.000
12.49337 182.000
12.51332 194.000
12.53326 159.000
12.55321 152.000
12.57316 149.000
12.59311 162.000
12.61305 172.000
12.63300 175.000
12.65295 184.000
12.67289 163.000
12.69284 184.000
12.71279 185.000
12.73273 195.000
12.75268 166.000
12.77263 160.000
12.79257 188.000
12.81252 187.000
12.83247 177.000
12.85242 151.000
12.87236 190.000
12.89231 178.000
12.91226 172.000
12.93220 167.000
12.95215 167.000
12.97210 171.000
12.99204 184.000
13.01199 182.000
13.03194 163.000
13.05189 183.000
13.07183 158.000
13.09178 174.000
13.11173 182.000
13.13167 152.000
13.15162 171.000
13.17157 150.000
13.19151 158.000
13.21146 181.000
13.23141 174.000
13.25135 183.000
13.27130 173.000
13.29125 186.000
13.31120 165.000
13.33114 166.000
13.35109 150.000
13.37104 168.000
13.39098 144.000
13.41093 212.000
13.43088 194.000
13.45082 149.000
13.47077 170.000
13.49072 171.000
13.51067 180.000
13.53061 184.000
13.55056 172.000
13.57051 162.000
13.59045 175.000
13.61040 164.000
13.63035 138.000
13.65029 157.000
13.67024 165.000
13.69019 180.000
13.71013 187.000
13.73008 173.000
13.75003 166.000
13.76998 155.000
13.78992 156.000
13.80987 169.000
13.82982 181.000
13.84976 191.000
13.86971 151.000
13.88966 162.000
13.90960 161.000
13.92955 171.000
13.94950 193.000
13.96945 173.000
13.98939 180.000
14.00934 159.000
14.02929 158.000
14.04923 170.000
14.06918 178.000
14.08913 189.000
14.10907 147.000
14.12902 179.000
14.14897 182.000
14.16892 171.000
14.18886 191.000
14.20881 174.000
14.22876 173.000
14.24870 176.000
14.26865 188.000
14.28860 166.000
14.30854 197.000
14.32849 186.000
14.34844 172.000
14.36838 180.000
14.38833 184.000
14.40828 173.000
14.42823 180.000
14.44817 158.000
14.46812 172.000
14.48807 190.000
14.50801 175.000
14.52796 158.000
14.54791 202.000
14.56785 214.000
14.58780 181.000
14.60775 196.000
14.62770 182.000
14.64764 178.000
14.66759 186.000
14.68754 190.000
14.70748 170.000
14.72743 184.000
14.74738 197.000
14.76732 161.000
14.78727 177.000
14.80722 181.000
14.82716 191.000
14.84711 168.000
14.86706 181.000
14.88701 201.000
14.90695 184.000
14.92690 180.000
14.94685 203.000
14.96679 187.000
14.98674 186.000
15.00669 172.000
15.02663 179.000
15.04658 170.000
15.06653 172.000
15.08648 196.000
15.10642 177.000
15.12637 184.000
15.14632 166.000
15.16626 201.000
15.18621 192.000
15.20616 197.000
15.22610 183.000
15.24605 211.000
15.26600 212.000
15.28594 172.000
15.30589 203.000
15.32584 204.000
15.34579 172.000
15.36573 196.000
15.38568 208.000
15.40563 171.000
15.42557 191.000
15.44552 189.000
15.46547 204.000
15.48541 226.000
15.50536 180.000
15.52531 197.000
15.54526 226.000
15.56520 228.000
15.58515 209.000
15.60510 204.000
15.62504 254.000
15.64499 215.000
15.66494 218.000
15.68488 235.000
15.70483 220.000
15.72478 247.000
15.74472 275.000
15.76467 272.000
15.78462 324.000
15.80457 420.000
15.82451 486.000
15.84446 696.000
15.86441 946.000
15.88435 1293.000
15.90430 1711.000
15.92425 2115.000
15.94419 2484.000
15.96414 2972.000
15.98409 2713.000
16.00404 2033.000
16.02398 1334.000
16.04393 787.000
16.06388 491.000
16.08382 430.000
16.10377 419.000
16.12372 433.000
16.14366 435.000
16.16361 546.000
16.18356 670.000
16.20351 800.000
16.22345 954.000
16.24340 980.000
16.26335 1049.000
16.28329 1018.000
16.30324 1021.000
16.32319 1070.000
16.34313 1355.000
16.36308 1628.000
16.38303 2036.000
16.40297 2422.000
16.42292 2610.000
16.44287 2514.000
16.46282 2020.000
16.48276 1637.000
16.50271 1070.000
16.52266 713.000
16.54260 474.000
16.56255 375.000
16.58250 316.000
16.60244 252.000
16.62239 256.000
16.64234 212.000
16.66229 232.000
16.68223 221.000
16.70218 232.000
16.72213 210.000
16.74207 218.000
16.76202 217.000
16.78197 206.000
16.80191 228.000
16.82186 251.000
16.84181 206.000
16.86175 225.000
16.88170 275.000
16.90165 256.000
16.92160 278.000
16.94154 245.000
16.96149 255.000
16.98144 242.000
17.00138 217.000
17.02133 218.000
17.04128 169.000
17.06122 219.000
17.08117 218.000
17.10112 194.000
17.12107 201.000
17.14101 180.000
17.16096 184.000
17.18091 219.000
17.20085 174.000
17.22080 195.000
17.24075 170.000
17.26069 219.000
17.28064 193.000
17.30059 195.000
17.32053 202.000
17.34048 194.000
17.36043 195.000
17.38038 187.000
17.40032 182.000
17.42027 204.000
17.44022 175.000
17.46016 185.000
17.48011 166.000
17.50006 193.000
17.52000 184.000
17.53995 166.000
17.55990 187.000
17.57985 192.000
17.59979 182.000
17.61974 182.000
17.63969 185.000
17.65963 193.000
17.67958 181.000
17.69953 199.000
17.71947 191.000
17.73942 213.000
17.75937 175.000
17.77932 159.000
17.79926 175.000
17.81921 172.000
17.83916 174.000
17.85910 182.000
17.87905 181.000
17.89900 190.000
17.91894 176.000
17.93889 174.000
17.95884 180.000
17.97878 174.000
17.99873 181.000
18.01868 168.000
18.03863 179.000
18.05857 176.000
18.07852 163.000
18.09847 175.000
18.11841 172.000
18.13836 200.000
18.15831 194.000
18.17825 170.000
18.19820 162.000
18.21815 170.000
18.23810 152.000
18.25804 196.000
18.27799 166.000
18.29794 202.000
18.31788 200.000
18.33783 192.000
18.35778 173.000
18.37772 169.000
18.39767 210.000
18.41762 212.000
18.43756 275.000
18.45751 224.000
18.47746 259.000
18.49741 239.000
18.51735 227.000
18.53730 213.000
18.55725 184.000
18.57719 185.000
18.59714 180.000
18.61709 199.000
18.63703 183.000
18.65698 187.000
18.67693 185.000
18.69688 166.000
18.71682 161.000
18.73677 180.000
18.75672 186.000
18.77666 186.000
18.79661 183.000
18.81656 186.000
18.83650 192.000
18.85645 186.000
18.87640 213.000
18.89634 168.000
18.91629 171.000
18.93624 184.000
18.95619 169.000
18.97613 173.000
18.99608 198.000
19.01603 168.000
19.03597 202.000
19.05592 198.000
19.07587 179.000
19.09581 184.000
19.11576 180.000
19.13571 175.000
19.15566 155.000
19.17560 183.000
19.19555 228.000
19.21550 169.000
19.23544 180.000
19.25539 203.000
19.27534 179.000
19.29528 193.000
19.31523 175.000
19.33518 166.000
19.35513 191.000
19.37507 172.000
19.39502 177.000
19.41497 189.000
19.43491 168.000
19.45486 205.000
19.47481 174.000
19.49475 167.000
19.51470 177.000
19.53465 185.000
19.55459 186.000
19.57454 170.000
19.59449 166.000
19.61444 166.000
19.63438 169.000
19.65433 161.000
19.67428 172.000
19.69422 180.000
19.71417 187.000
19.73412 170.000
19.75406 192.000
19.77401 172.000
19.79396 193.000
19.81391 183.000
19.83385 201.000
19.85380 192.000
19.87375 189.000
19.89369 177.000
19.91364 156.000
19.93359 189.000
19.95353 178.000
19.97348 174.000
19.99343 216.000
20.01337 180.000
20.03332 180.000
20.05327 190.000
20.07322 179.000
20.09316 184.000
20.11311 178.000
20.13306 202.000
20.15300 179.000
20.17295 186.000
20.19290 211.000
20.21284 185.000
20.23279 184.000
20.25274 186.000
20.27269 197.000
20.29263 198.000
20.31258 201.000
20.33253 182.000
20.35247 181.000
20.37242 162.000
20.39237 193.000
20.41231 177.000
20.43226 189.000
20.45221 191.000
20.47215 180.000
20.49210 187.000
20.51205 202.000
20.53200 195.000
20.55194 187.000
20.57189 195.000
20.59184 190.000
20.61178 216.000
20.63173 192.000
20.65168 212.000
20.67162 197.000
20.69157 210.000
20.71152 217.000
20.73147 200.000
20.75141 205.000
20.77136 210.000
20.79131 204.000
20.81125 241.000
20.83120 250.000
20.85115 268.000
20.87109 309.000
20.89104 350.000
20.91099 380.000
20.93094 464.000
20.95088 437.000
20.97083 476.000
20.99078 479.000
21.01072 472.000
21.03067 432.000
21.05062 397.000
21.07056 376.000
21.09051 342.000
21.11046 302.000
21.13040 297.000
21.15035 288.000
21.17030 279.000
21.19025 224.000
21.21019 247.000
21.23014 216.000
21.25009 195.000
21.27003 178.000
21.28998 195.000
21.30993 160.000
21.32987 180.000
21.34982 202.000
21.36977 193.000
21.38972 195.000
21.40966 203.000
21.42961 184.000
21.44956 185.000
21.46950 186.000
21.48945 182.000
21.50940 171.000
21.52934 195.000
21.54929 199.000
21.56924 198.000
21.58918 208.000
21.60913 168.000
21.62908 200.000
21.64903 189.000
21.66897 218.000
21.68892 184.000
21.70887 178.000
21.72881 177.000
21.74876 192.000
21.76871 172.000
21.78865 180.000
21.80860 171.000
21.82855 194.000
21.84850 211.000
21.86844 200.000
21.88839 197.000
21.90834 195.000
21.92828 189.000
21.94823 188.000
21.96818 187.000
21.98812 187.000
22.00807 195.000
22.02802 205.000
22.04796 169.000
22.06791 183.000
22.08786 192.000
22.10781 161.000
22.12775 184.000
22.14770 187.000
22.16765 195.000
22.18759 200.000
22.20754 169.000
22.22749 225.000
22.24743 183.000
22.26738 186.000
22.28733 206.000
22.30728 193.000
22.32722 190.000
22.34717 163.000
22.36712 189.000
22.38706 200.000
22.40701 171.000
22.42696 198.000
22.44690 191.000
22.46685 191.000
22.48680 217.000
22.50675 181.000
22.52669 179.000
22.54664 207.000
22.56659 174.000
22.58653 185.000
22.60648 175.000
22.62643 166.000
22.64637 183.000
22.66632 199.000
22.68627 183.000
22.70621 184.000
22.72616 192.000
22.74611 174.000
22.76606 194.000
22.78600 205.000
22.80595 205.000
22.82590 223.000
22.84584 198.000
22.86579 188.000
22.88574 192.000
22.90568 177.000
22.92563 177.000
22.94558 189.000
22.96553 175.000
22.98547 189.000
23.00542 203.000
23.02537 185.000
23.04531 185.000
23.06526 205.000
23.08521 188.000
23.10515 193.000
23.12510 179.000
23.14505 174.000
23.16499 201.000
23.18494 186.000
23.20489 189.000
23.22484 182.000
23.24478 187.000
23.26473 182.000
23.28468 208.000
23.30462 193.000
23.32457 190.000
23.34452 192.000
23.36446 192.000
23.38441 183.000
23.40436 192.000
23.42431 207.000
23.44425 187.000
23.46420 180.000
23.48415 201.000
23.50409 189.000
23.52404 191.000
23.54399 185.000
23.56393 177.000
23.58388 188.000
23.60383 208.000
23.62377 194.000
23.64372 183.000
23.66367 201.000
23.68362 212.000
23.70356 213.000
23.72351 193.000
23.74346 200.000
23.76340 188.000
23.78335 195.000
23.80330 217.000
23.82324 165.000
23.84319 184.000
23.86314 177.000
23.88309 176.000
23.90303 217.000
23.92298 182.000
23.94293 203.000
23.96287 194.000
23.98282 206.000
24.00277 170.000
24.02271 218.000
24.04266 198.000
24.06261 186.000
24.08256 199.000
24.10250 196.000
24.12245 189.000
24.14240 188.000
24.16234 215.000
24.18229 204.000
24.20224 173.000
24.22218 206.000
24.24213 200.000
24.26208 189.000
24.28202 192.000
24.30197 180.000
24.32192 201.000
24.34187 205.000
24.36181 194.000
24.38176 168.000
24.40171 171.000
24.42165 201.000
24.44160 192.000
24.46155 200.000
24.48149 206.000
24.50144 208.000
24.52139 187.000
24.54134 178.000
24.56128 192.000
24.58123 212.000
24.60118 205.000
24.62112 204.000
24.64107 175.000
24.66102 185.000
24.68096 197.000
24.70091 211.000
24.72086 213.000
24.74080 196.000
24.76075 198.000
24.78070 191.000
24.80065 197.000
24.82059 196.000
24.84054 229.000
24.86049 187.000
24.88043 195.000
24.90038 201.000
24.92033 196.000
24.94027 203.000
24.96022 207.000
24.98017 194.000
25.00012 210.000
25.02006 212.000
25.04001 201.000
25.05996 223.000
25.07990 227.000
25.09985 223.000
25.11980 209.000
25.13974 233.000
25.15969 208.000
25.17964 191.000
25.19958 209.000
25.21953 207.000
25.23948 174.000
25.25943 221.000
25.27937 208.000
25.29932 167.000
25.31927 187.000
25.33921 195.000
25.35916 224.000
25.37911 199.000
25.39905 211.000
25.41900 188.000
25.43895 215.000
25.45890 193.000
25.47884 192.000
25.49879 187.000
25.51874 161.000
25.53868 196.000
25.55863 188.000
25.57858 184.000
25.59852 204.000
25.61847 171.000
25.63842 187.000
25.65837 186.000
25.67831 194.000
25.69826 208.000
25.71821 171.000
25.73815 211.000
25.75810 204.000
25.77805 178.000
25.79799 176.000
25.81794 214.000
25.83789 163.000
25.85783 184.000
25.87778 202.000
25.89773 243.000
25.91768 210.000
25.93762 216.000
25.95757 210.000
25.97752 208.000
25.99746 204.000
26.01741 210.000
26.03736 202.000
26.05730 199.000
26.07725 226.000
26.09720 199.000
26.11715 234.000
26.13709 195.000
26.15704 216.000
26.17699 190.000
26.19693 189.000
26.21688 206.000
26.23683 180.000
26.25677 188.000
26.27672 188.000
26.29667 158.000
26.31661 189.000
26.33656 218.000
26.35651 201.000
26.37646 187.000
26.39640 195.000
26.41635 188.000
26.43630 204.000
26.45624 215.000
26.47619 194.000
26.49614 213.000
26.51608 195.000
26.53603 196.000
26.55598 205.000
26.57593 202.000
26.59587 209.000
26.61582 196.000
26.63577 220.000
26.65571 233.000
26.67566 198.000
26.69561 182.000
26.71555 208.000
26.73550 221.000
26.75545 225.000
26.77539 210.000
26.79534 210.000
26.81529 211.000
26.83524 194.000
26.85518 200.000
26.87513 222.000
26.89508 194.000
26.91502 208.000
26.93497 210.000
26.95492 181.000
26.97486 191.000
26.99481 190.000
27.01476 215.000
27.03471 193.000
27.05465 208.000
27.07460 215.000
27.09455 222.000
27.11449 191.000
27.13444 216.000
27.15439 197.000
27.17433 210.000
27.19428 222.000
27.21423 205.000
27.23417 189.000
27.25412 203.000
27.27407 223.000
27.29402 192.000
27.31396 210.000
27.33391 209.000
27.35386 193.000
27.37380 179.000
27.39375 220.000
27.41370 225.000
27.43364 219.000
27.45359 219.000
27.47354 212.000
27.49349 212.000
27.51343 179.000
27.53338 212.000
27.55333 209.000
27.57327 209.000
27.59322 198.000
27.61317 216.000
27.63311 204.000
27.65306 201.000
27.67301 199.000
27.69296 187.000
27.71290 184.000
27.73285 205.000
27.75280 196.000
27.77274 236.000
27.79269 210.000
27.81264 203.000
27.83258 219.000
27.85253 192.000
27.87248 215.000
27.89242 211.000
27.91237 193.000
27.93232 215.000
27.95227 231.000
27.97221 190.000
27.99216 209.000
28.01211 197.000
28.03205 230.000
28.05200 220.000
28.07195 209.000
28.09189 202.000
28.11184 226.000
28.13179 196.000
28.15174 192.000
28.17168 223.000
28.19163 210.000
28.21158 226.000
28.23152 193.000
28.25147 191.000
28.27142 211.000
28.29136 201.000
28.31131 219.000
28.33126 200.000
28.35120 202.000
28.37115 238.000
28.39110 196.000
28.41105 191.000
28.43099 199.000
28.45094 219.000
28.47089 215.000
28.49083 202.000
28.51078 229.000
28.53073 223.000
28.55067 225.000
28.57062 228.000
28.59057 211.000
28.61052 218.000
28.63046 202.000
28.65041 221.000
28.67036 229.000
28.69030 211.000
28.71025 217.000
28.73020 212.000
28.75014 218.000
28.77009 199.000
28.79004 227.000
28.80998 213.000
28.82993 205.000
28.84988 234.000
28.86983 201.000
28.88977 214.000
28.90972 205.000
28.92967 225.000
28.94961 224.000
28.96956 237.000
28.98951 207.000
29.00945 201.000
29.02940 215.000
29.04935 231.000
29.06930 251.000
29.08924 216.000
29.10919 191.000
29.12914 218.000
29.14908 200.000
29.16903 201.000
29.18898 200.000
29.20892 221.000
29.22887 244.000
29.24882 225.000
29.26877 205.000
29.28871 237.000
29.30866 240.000
29.32861 245.000
29.34855 281.000
29.36850 296.000
29.38845 267.000
29.40839 279.000
29.42834 339.000
29.44829 335.000
29.46823 315.000
29.48818 332.000
29.50813 256.000
29.52808 274.000
29.54802 270.000
29.56797 262.000
29.58792 268.000
29.60786 243.000
29.62781 235.000
29.64776 241.000
29.66770 259.000
29.68765 215.000
29.70760 228.000
29.72755 235.000
29.74749 219.000
29.76744 235.000
29.78739 210.000
29.80733 197.000
29.82728 226.000
29.84723 226.000
29.86717 221.000
29.88712 242.000
29.90707 244.000
29.92701 213.000
29.94696 207.000
29.96691 258.000
29.98686 220.000
30.00680 237.000
30.02675 210.000
30.04670 229.000
30.06664 235.000
30.08659 218.000
30.10654 231.000
30.12648 227.000
30.14643 230.000
30.16638 220.000
30.18633 246.000
30.20627 260.000
30.22622 241.000
30.24617 256.000
30.26611 266.000
30.28606 290.000
30.30601 347.000
30.32595 354.000
30.34590 310.000
30.36585 257.000
30.38579 326.000
30.40574 281.000
30.42569 280.000
30.44564 229.000
30.46558 221.000
30.48553 213.000
30.50548 251.000
30.52542 228.000
30.54537 237.000
30.56532 240.000
30.58526 268.000
30.60521 223.000
30.62516 216.000
30.64511 221.000
30.66505 218.000
30.68500 228.000
30.70495 219.000
30.72489 230.000
30.74484 216.000
30.76479 205.000
30.78473 229.000
30.80468 200.000
30.82463 200.000
30.84458 228.000
30.86452 226.000
30.88447 227.000
30.90442 226.000
30.92436 214.000
30.94431 208.000
30.96426 210.000
30.98420 206.000
31.00415 207.000
31.02410 200.000
31.04404 209.000
31.06399 221.000
31.08394 204.000
31.10389 222.000
31.12383 226.000
31.14378 250.000
31.16373 222.000
31.18367 211.000
31.20362 222.000
31.22357 190.000
31.24351 199.000
31.26346 232.000
31.28341 226.000
31.30336 209.000
31.32330 218.000
31.34325 211.000
31.36320 232.000
31.38314 230.000
31.40309 222.000
31.42304 187.000
31.44298 216.000
31.46293 229.000
31.48288 213.000
31.50282 205.000
31.52277 207.000
31.54272 205.000
31.56267 219.000
31.58261 219.000
31.60256 223.000
31.62251 236.000
31.64245 212.000
31.66240 220.000
31.68235 244.000
31.70229 215.000
31.72224 227.000
31.74219 217.000
31.76214 235.000
31.78208 211.000
31.80203 191.000
31.82198 199.000
31.84192 243.000
31.86187 216.000
31.88182 216.000
31.90176 248.000
31.92171 246.000
31.94166 240.000
31.96160 231.000
31.98155 242.000
32.00150 258.000
32.02145 264.000
32.04139 266.000
32.06134 288.000
32.08129 287.000
32.10123 324.000
32.12118 332.000
32.14113 362.000
32.16107 409.000
32.18102 463.000
32.20097 495.000
32.22092 443.000
32.24086 377.000
32.26081 386.000
32.28076 343.000
32.30070 285.000
32.32065 310.000
32.34060 242.000
32.36054 222.000
32.38049 238.000
32.40044 222.000
32.42039 247.000
32.44033 261.000
32.46028 253.000
32.48023 290.000
32.50017 276.000
32.52012 269.000
32.54007 300.000
32.56001 292.000
32.57996 282.000
32.59991 284.000
32.61985 292.000
32.63980 260.000
32.65975 269.000
32.67970 299.000
32.69964 317.000
32.71959 330.000
32.73954 309.000
32.75948 299.000
32.77943 281.000
32.79938 304.000
32.81932 263.000
32.83927 256.000
32.85922 270.000
32.87917 302.000
32.89911 300.000
32.91906 305.000
32.93901 271.000
32.95895 277.000
32.97890 295.000
32.99885 297.000
33.01879 311.000
33.03874 341.000
33.05869 387.000
33.07863 351.000
33.09858 434.000
33.11853 444.000
33.13848 460.000
33.15842 451.000
33.17837 485.000
33.19832 391.000
33.21826 405.000
33.23821 348.000
33.25816 366.000
33.27810 319.000
33.29805 347.000
33.31800 287.000
33.33795 258.000
33.35789 244.000
33.37784 252.000
33.39779 246.000
33.41773 240.000
33.43768 219.000
33.45763 231.000
33.47757 239.000
33.49752 247.000
33.51747 190.000
33.53741 191.000
33.55736 224.000
33.57731 224.000
33.59726 222.000
33.61720 235.000
33.63715 191.000
33.65710 201.000
33.67704 238.000
33.69699 263.000
33.71694 250.000
33.73688 215.000
33.75683 242.000
33.77678 198.000
33.79673 202.000
33.81667 238.000
33.83662 226.000
33.85657 229.000
33.87651 249.000
33.89646 235.000
33.91641 220.000
33.93635 240.000
33.95630 246.000
33.97625 265.000
33.99620 240.000
34.01614 237.000
34.03609 223.000
34.05604 243.000
34.07598 258.000
34.09593 231.000
34.11588 230.000
34.13582 258.000
34.15577 253.000
34.17572 241.000
34.19566 245.000
34.21561 254.000
34.23556 273.000
34.25551 264.000
34.27545 285.000
34.29540 249.000
34.31535 305.000
34.33529 304.000
34.35524 336.000
34.37519 344.000
34.39513 363.000
34.41508 411.000
34.43503 462.000
34.45498 456.000
34.47492 488.000
34.49487 549.000
34.51482 574.000
34.53476 534.000
34.55471 513.000
34.57466 488.000
34.59460 501.000
34.61455 481.000
34.63450 423.000
34.65444 431.000
34.67439 392.000
34.69434 411.000
34.71429 394.000
34.73423 369.000
34.75418 376.000
34.77413 340.000
34.79407 366.000
34.81402 368.000
34.83397 355.000
34.85391 376.000
34.87386 346.000
34.89381 355.000
34.91376 316.000
34.93370 328.000
34.95365 339.000
34.97360 325.000
34.99354 268.000
35.01349 279.000
35.03344 301.000
35.05338 283.000
35.07333 315.000
35.09328 300.000
35.11322 287.000
35.13317 251.000
35.15312 261.000
35.17307 250.000
35.19301 281.000
35.21296 300.000
35.23291 287.000
35.25285 341.000
35.27280 326.000
35.29275 338.000
35.31269 344.000
35.33264 395.000
35.35259 424.000
35.37254 447.000
35.39248 504.000
35.41243 608.000
35.43238 692.000
35.45232 828.000
35.47227 805.000
35.49222 958.000
35.51216 978.000
35.53211 1102.000
35.55206 1149.000
35.57201 1264.000
35.59195 1274.000
35.61190 1167.000
35.63185 1192.000
35.65179 1206.000
35.67174 1329.000
35.69169 1388.000
35.71163 1250.000
35.73158 1086.000
35.75153 980.000
35.77147 907.000
35.79142 823.000
35.81137 755.000
35.83132 608.000
35.85126 545.000
35.87121 488.000
35.89116 440.000
35.91110 378.000
35.93105 362.000
35.95100 343.000
35.97094 298.000
35.99089 309.000
36.01084 309.000
36.03079 326.000
36.05073 280.000
36.07068 308.000
36.09063 287.000
36.11057 292.000
36.13052 286.000
36.15047 288.000
36.17041 293.000
36.19036 306.000
36.21031 242.000
36.23025 308.000
36.25020 252.000
36.27015 296.000
36.29010 264.000
36.31004 268.000
36.32999 253.000
36.34994 252.000
36.36988 264.000
36.38983 273.000
36.40978 271.000
36.42972 271.000
36.44967 284.000
36.46962 282.000
36.48957 269.000
36.50951 269.000
36.52946 282.000
36.54941 285.000
36.56935 313.000
36.58930 284.000
36.60925 339.000
36.62919 330.000
36.64914 357.000
36.66909 379.000
36.68903 389.000
36.70898 496.000
36.72893 496.000
36.74888 553.000
36.76882 540.000
36.78877 572.000
36.80872 649.000
36.82866 612.000
36.84861 574.000
36.86856 643.000
36.88850 618.000
36.90845 675.000
36.92840 612.000
36.94835 602.000
36.96829 654.000
36.98824 602.000
37.00819 653.000
37.02813 617.000
37.04808 621.000
37.06803 647.000
37.08797 642.000
37.10792 668.000
37.12787 704.000
37.14781 649.000
37.16776 697.000
37.18771 632.000
37.20766 652.000
37.22760 589.000
37.24755 497.000
37.26750 541.000
37.28744 454.000
37.30739 444.000
37.32734 394.000
37.34728 398.000
37.36723 328.000
37.38718 334.000
37.40713 358.000
37.42707 290.000
37.44702 310.000
37.46697 273.000
37.48691 274.000
37.50686 271.000
37.52681 258.000
37.54675 235.000
37.56670 233.000
37.58665 225.000
37.60660 237.000
37.62654 236.000
37.64649 236.000
37.66644 223.000
37.68638 220.000
37.70633 255.000
37.72628 221.000
37.74622 232.000
37.76617 245.000
37.78612 259.000
37.80606 242.000
37.82601 225.000
37.84596 236.000
37.86591 249.000
37.88585 247.000
37.90580 218.000
37.92575 249.000
37.94569 274.000
37.96564 239.000
37.98559 229.000
38.00553 235.000
38.02548 262.000
38.04543 250.000
38.06538 255.000
38.08532 278.000
38.10527 237.000
38.12522 250.000
38.14516 273.000
38.16511 235.000
38.18506 275.000
38.20500 239.000
38.22495 278.000
38.24490 262.000
38.26484 250.000
38.28479 294.000
38.30474 278.000
38.32469 275.000
38.34463 245.000
38.36458 261.000
38.38453 286.000
38.40447 293.000
38.42442 313.000
38.44437 280.000
38.46431 309.000
38.48426 313.000
38.50421 319.000
38.52416 343.000
38.54410 375.000
38.56405 396.000
38.58400 439.000
38.60394 482.000
38.62389 481.000
38.64384 561.000
38.66378 627.000
38.68373 669.000
38.70368 740.000
38.72362 775.000
38.74357 829.000
38.76352 807.000
38.78347 837.000
38.80341 859.000
38.82336 798.000
38.84331 715.000
38.86325 736.000
38.88320 650.000
38.90315 591.000
38.92309 592.000
38.94304 542.000
38.96299 561.000
38.98294 501.000
39.00288 502.000
39.02283 497.000
39.04278 516.000
39.06272 480.000
39.08267 482.000
39.10262 445.000
39.12256 420.000
39.14251 424.000
39.16246 456.000
39.18241 488.000
39.20235 485.000
39.22230 494.000
39.24225 501.000
39.26219 485.000
39.28214 515.000
39.30209 550.000
39.32203 540.000
39.34198 535.000
39.36193 520.000
39.38187 486.000
39.40182 469.000
39.42177 433.000
39.44172 436.000
39.46166 394.000
39.48161 361.000
39.50156 363.000
39.52150 323.000
39.54145 298.000
39.56140 291.000
39.58134 286.000
39.60129 269.000
39.62124 245.000
39.64119 265.000
39.66113 231.000
39.68108 263.000
39.70103 214.000
39.72097 222.000
39.74092 256.000
39.76087 202.000
39.78081 245.000
39.80076 210.000
39.82071 214.000
39.84065 250.000
39.86060 262.000
39.88055 256.000
39.90050 220.000
39.92044 237.000
39.94039 238.000
39.96034 259.000
39.98028 222.000
40.00023 229.000
40.02018 222.000
40.04012 235.000
40.06007 197.000
40.08002 238.000
40.09997 237.000
40.11991 268.000
40.13986 240.000
40.15981 232.000
40.17975 210.000
40.19970 241.000
40.21965 211.000
40.23959 197.000
40.25954 224.000
40.27949 223.000
40.29943 220.000
40.31938 231.000
40.33933 246.000
40.35928 214.000
40.37922 215.000
40.39917 243.000
40.41912 224.000
40.43906 204.000
40.45901 224.000
40.47896 204.000
40.49890 231.000
40.51885 246.000
40.53880 217.000
40.55875 250.000
40.57869 243.000
40.59864 231.000
40.61859 214.000
40.63853 242.000
40.65848 238.000
40.67843 236.000
40.69837 207.000
40.71832 239.000
40.73827 256.000
40.75822 252.000
40.77816 222.000
40.79811 235.000
40.81806 231.000
40.83800 254.000
40.85795 215.000
40.87790 254.000
40.89784 240.000
40.91779 235.000
40.93774 255.000
40.95768 240.000
40.97763 245.000
40.99758 237.000
41.01753 256.000
41.03747 240.000
41.05742 238.000
41.07737 245.000
41.09731 250.000
41.11726 253.000
41.13721 251.000
41.15715 267.000
41.17710 261.000
41.19705 229.000
41.21700 249.000
41.23694 254.000
41.25689 274.000
41.27684 261.000
41.29678 256.000
41.31673 285.000
41.33668 284.000
41.35662 262.000
41.37657 304.000
41.39652 300.000
41.41646 326.000
41.43641 325.000
41.45636 374.000
41.47631 360.000
41.49625 411.000
41.51620 435.000
41.53615 470.000
41.55609 590.000
41.57604 712.000
41.59599 834.000
41.61593 1026.000
41.63588 1260.000
41.65583 1512.000
41.67578 1789.000
41.69572 1992.000
41.71567 2053.000
41.73562 2046.000
41.75556 1969.000
41.77551 1813.000
41.79546 1711.000
41.81540 1489.000
41.83535 1279.000
41.85530 1102.000
41.87524 861.000
41.89519 823.000
41.91514 607.000
41.93509 504.000
41.95503 457.000
41.97498 405.000
41.99493 327.000
42.01487 357.000
42.03482 301.000
42.05477 317.000
42.07471 269.000
42.09466 295.000
42.11461 259.000
42.13456 265.000
42.15450 246.000
42.17445 220.000
42.19440 269.000
42.21434 277.000
42.23429 232.000
42.25424 249.000
42.27418 283.000
42.29413 269.000
42.31408 267.000
42.33403 263.000
42.35397 240.000
42.37392 266.000
42.39387 248.000
42.41381 263.000
42.43376 247.000
42.45371 250.000
42.47365 256.000
42.49360 244.000
42.51355 247.000
42.53349 269.000
42.55344 274.000
42.57339 268.000
42.59334 304.000
42.61328 267.000
42.63323 291.000
42.65318 273.000
42.67312 296.000
42.69307 317.000
42.71302 284.000
42.73296 330.000
42.75291 316.000
42.77286 317.000
42.79281 338.000
42.81275 350.000
42.83270 361.000
42.85265 395.000
42.87259 366.000
42.89254 390.000
42.91249 414.000
42.93243 452.000
42.95238 471.000
42.97233 460.000
42.99227 505.000
43.01222 563.000
43.03217 519.000
43.05212 609.000
43.07206 596.000
43.09201 616.000
43.11196 657.000
43.13190 650.000
43.15185 634.000
43.17180 684.000
43.19174 682.000
43.21169 686.000
43.23164 682.000
43.25159 628.000
43.27153 622.000
43.29148 585.000
43.31143 540.000
43.33137 576.000
43.35132 593.000
43.37127 569.000
43.39121 533.000
43.41116 542.000
43.43111 494.000
43.45105 465.000
43.47100 406.000
43.49095 438.000
43.51090 452.000
43.53084 413.000
43.55079 369.000
43.57074 343.000
43.59068 329.000
43.61063 323.000
43.63058 279.000
43.65052 282.000
43.67047 274.000
43.69042 269.000
43.71037 237.000
43.73031 243.000
43.75026 223.000
43.77021 226.000
43.79015 244.000
43.81010 233.000
43.83005 246.000
43.84999 240.000
43.86994 232.000
43.88989 235.000
43.90984 207.000
43.92978 213.000
43.94973 233.000
43.96968 222.000
43.98962 221.000
44.00957 242.000
44.02952 203.000
44.04946 224.000
44.06941 238.000
44.08936 244.000
44.10930 239.000
44.12925 216.000
44.14920 239.000
44.16915 235.000
44.18909 189.000
44.20904 221.000
44.22899 235.000
44.24893 220.000
44.26888 233.000
44.28883 200.000
44.30877 210.000
44.32872 214.000
44.34867 200.000
44.36862 219.000
44.38856 219.000
44.40851 225.000
44.42846 207.000
44.44840 200.000
44.46835 232.000
44.48830 178.000
44.50824 216.000
44.52819 199.000
44.54814 214.000
44.56808 201.000
44.58803 225.000
44.60798 234.000
44.62793 208.000
44.64787 168.000
44.66782 162.000
44.68777 252.000
44.70771 211.000
44.72766 213.000
44.74761 205.000
44.76755 221.000
44.78750 224.000
44.80745 206.000
44.82740 214.000
44.84734 203.000
44.86729 200.000
44.88724 211.000
44.90718 216.000
44.92713 215.000
44.94708 221.000
44.96702 229.000
44.98697 220.000
45.00692 260.000
45.02686 238.000
45.04681 268.000
45.06676 301.000
45.08671 287.000
45.10665 265.000
45.12660 275.000
45.14655 247.000
45.16649 283.000
45.18644 234.000
45.20639 239.000
45.22633 229.000
45.24628 232.000
45.26623 228.000
45.28618 223.000
45.30612 248.000
45.32607 219.000
45.34602 202.000
45.36596 213.000
45.38591 203.000
45.40586 243.000
45.42580 201.000
45.44575 217.000
45.46570 207.000
45.48565 213.000
45.50559 212.000
45.52554 212.000
45.54549 215.000
45.56543 223.000
45.58538 231.000
45.60533 189.000
45.62527 193.000
45.64522 223.000
45.66517 193.000
45.68511 203.000
45.70506 240.000
45.72501 196.000
45.74496 202.000
45.76490 245.000
45.78485 203.000
45.80480 203.000
45.82474 205.000
45.84469 198.000
45.86464 211.000
45.88458 227.000
45.90453 194.000
45.92448 205.000
45.94443 220.000
45.96437 194.000
45.98432 205.000
46.00427 214.000
46.02421 183.000
46.04416 208.000
46.06411 190.000
46.08405 220.000
46.10400 211.000
46.12395 199.000
46.14389 198.000
46.16384 199.000
46.18379 221.000
46.20374 213.000
46.22368 203.000
46.24363 200.000
46.26358 208.000
46.28352 203.000
46.30347 186.000
46.32342 210.000
46.34336 217.000
46.36331 223.000
46.38326 202.000
46.40321 192.000
46.42315 229.000
46.44310 211.000
46.46305 190.000
46.48299 215.000
46.50294 223.000
46.52289 227.000
46.54283 208.000
46.56278 207.000
46.58273 218.000
46.60267 226.000
46.62262 210.000
46.64257 218.000
46.66252 206.000
46.68246 204.000
46.70241 220.000
46.72236 223.000
46.74230 220.000
46.76225 207.000
46.78220 198.000
46.80214 188.000
46.82209 185.000
46.84204 209.000
46.86199 206.000
46.88193 196.000
46.90188 198.000
46.92183 201.000
46.94177 209.000
46.96172 202.000
46.98167 200.000
47.00161 199.000
47.02156 207.000
47.04151 217.000
47.06146 218.000
47.08140 193.000
47.10135 197.000
47.12130 197.000
47.14124 190.000
47.16119 233.000
47.18114 182.000
47.20108 199.000
47.22103 195.000
47.24098 202.000
47.26092 191.000
47.28087 194.000
47.30082 222.000
47.32077 207.000
47.34071 190.000
47.36066 211.000
47.38061 220.000
47.40055 223.000
47.42050 231.000
47.44045 190.000
47.46039 202.000
47.48034 197.000
47.50029 187.000
47.52024 210.000
47.54018 199.000
47.56013 205.000
47.58008 221.000
47.60002 201.000
47.61997 207.000
47.63992 205.000
47.65986 188.000
47.67981 210.000
47.69976 224.000
47.71970 247.000
47.73965 189.000
47.75960 211.000
47.77955 213.000
47.79949 217.000
47.81944 210.000
47.83939 206.000
47.85933 191.000
47.87928 222.000
47.89923 203.000
47.91917 210.000
47.93912 230.000
47.95907 246.000
47.97902 241.000
47.99896 225.000
48.01891 224.000
48.03886 228.000
48.05880 207.000
48.07875 238.000
48.09870 253.000
48.11864 215.000
48.13859 269.000
48.15854 245.000
48.17848 242.000
48.19843 233.000
48.21838 243.000
48.23833 223.000
48.25827 234.000
48.27822 258.000
48.29817 212.000
48.31811 230.000
48.33806 227.000
48.35801 252.000
48.37795 240.000
48.39790 267.000
48.41785 249.000
48.43780 235.000
48.45774 244.000
48.47769 254.000
48.49764 263.000
48.51758 265.000
48.53753 258.000
48.55748 287.000
48.57742 289.000
48.59737 284.000
48.61732 325.000
48.63726 325.000
48.65721 365.000
48.67716 378.000
48.69711 481.000
48.71705 473.000
48.73700 477.000
48.75695 523.000
48.77689 522.000
48.79684 504.000
48.81679 515.000
48.83673 482.000
48.85668 538.000
48.87663 487.000
48.89658 478.000
48.91652 513.000
48.93647 459.000
48.95642 427.000
48.97636 387.000
48.99631 407.000
49.01626 366.000
49.03620 336.000
49.05615 313.000
49.07610 336.000
49.09605 298.000
49.11599 247.000
49.13594 298.000
49.15589 277.000
49.17583 258.000
49.19578 243.000
49.21573 239.000
49.23567 222.000
49.25562 247.000
49.27557 240.000
49.29551 267.000
49.31546 260.000
49.33541 231.000
49.35536 256.000
49.37530 218.000
49.39525 243.000
49.41520 265.000
49.43514 219.000
49.45509 227.000
49.47504 229.000
49.49498 241.000
49.51493 256.000
49.53488 262.000
49.55483 242.000
49.57477 237.000
49.59472 226.000
49.61467 246.000
49.63461 235.000
49.65456 224.000
49.67451 232.000
49.69445 245.000
49.71440 228.000
49.73435 232.000
49.75429 220.000
49.77424 231.000
49.79419 215.000
49.81414 218.000
49.83408 230.000
49.85403 233.000
49.87398 223.000
49.89392 230.000
49.91387 191.000
49.93382 216.000
49.95376 216.000
49.97371 202.000
49.99366 216.000
50.01361 196.000
50.03355 213.000
50.05350 223.000
50.07345 208.000
50.09339 212.000
50.11334 191.000
50.13329 183.000
50.15323 212.000
50.17318 202.000
50.19313 214.000
50.21307 197.000
50.23302 212.000
50.25297 212.000
50.27292 244.000
50.29286 186.000
50.31281 222.000
50.33276 204.000
50.35270 241.000
50.37265 223.000
50.39260 218.000
50.41254 187.000
50.43249 214.000
50.45244 205.000
50.47239 220.000
50.49233 215.000
50.51228 190.000
50.53223 217.000
50.55217 196.000
50.57212 191.000
50.59207 173.000
50.61201 220.000
50.63196 226.000
50.65191 222.000
50.67186 198.000
50.69180 187.000
50.71175 231.000
50.73170 213.000
50.75164 222.000
50.77159 212.000
50.79154 205.000
50.81148 189.000
50.83143 196.000
50.85138 208.000
50.87132 221.000
50.89127 211.000
50.91122 200.000
50.93117 202.000
50.95111 195.000
50.97106 185.000
50.99101 200.000
51.01095 189.000
51.03090 202.000
51.05085 198.000
51.07079 197.000
51.09074 201.000
51.11069 215.000
51.13064 194.000
51.15058 184.000
51.17053 216.000
51.19048 190.000
51.21042 210.000
51.23037 221.000
51.25032 209.000
51.27026 201.000
51.29021 210.000
51.31016 224.000
51.33010 258.000
51.35005 220.000
51.37000 224.000
51.38995 228.000
51.40989 215.000
51.42984 192.000
51.44979 211.000
51.46973 225.000
51.48968 235.000
51.50963 189.000
51.52957 205.000
51.54952 203.000
51.56947 227.000
51.58942 219.000
51.60936 195.000
51.62931 211.000
51.64926 202.000
51.66920 181.000
51.68915 205.000
51.70910 199.000
51.72904 204.000
51.74899 195.000
51.76894 180.000
51.78888 210.000
51.80883 219.000
51.82878 195.000
51.84873 196.000
51.86867 222.000
51.88862 211.000
51.90857 228.000
51.92851 186.000
51.94846 223.000
51.96841 212.000
51.98835 219.000
52.00830 185.000
52.02825 229.000
52.04820 211.000
52.06814 220.000
52.08809 226.000
52.10804 234.000
52.12798 203.000
52.14793 219.000
52.16788 258.000
52.18782 207.000
52.20777 216.000
52.22772 233.000
52.24767 214.000
52.26761 257.000
52.28756 202.000
52.30751 227.000
52.32745 237.000
52.34740 223.000
52.36735 214.000
52.38729 194.000
52.40724 196.000
52.42719 212.000
52.44713 214.000
52.46708 202.000
52.48703 185.000
52.50698 220.000
52.52692 193.000
52.54687 183.000
52.56682 215.000
52.58676 208.000
52.60671 233.000
52.62666 222.000
52.64660 214.000
52.66655 196.000
52.68650 196.000
52.70645 228.000
52.72639 200.000
52.74634 206.000
52.76629 209.000
52.78623 213.000
52.80618 215.000
52.82613 205.000
52.84607 222.000
52.86602 220.000
52.88597 213.000
52.90591 228.000
52.92586 214.000
52.94581 235.000
52.96576 237.000
52.98570 213.000
53.00565 256.000
53.02560 252.000
53.04554 280.000
53.06549 258.000
53.08544 292.000
53.10538 284.000
53.12533 307.000
53.14528 317.000
53.16523 351.000
53.18517 387.000
53.20512 381.000
53.22507 395.000
53.24501 451.000
53.26496 489.000
53.28491 388.000
53.30485 419.000
53.32480 419.000
53.34475 373.000
53.36469 351.000
53.38464 377.000
53.40459 325.000
53.42454 367.000
53.44448 334.000
53.46443 324.000
53.48438 296.000
53.50432 303.000
53.52427 240.000
53.54422 279.000
53.56416 274.000
53.58411 261.000
53.60406 248.000
53.62401 249.000
53.64395 265.000
53.66390 221.000
53.68385 264.000
53.70379 259.000
53.72374 247.000
53.74369 243.000
53.76363 239.000
53.78358 245.000
53.80353 269.000
53.82348 238.000
53.84342 252.000
53.86337 204.000
53.88332 242.000
53.90326 221.000
53.92321 248.000
53.94316 249.000
53.96310 245.000
53.98305 216.000
54.00300 219.000
54.02294 182.000
54.04289 239.000
54.06284 209.000
54.08279 203.000
54.10273 206.000
54.12268 236.000
54.14263 191.000
54.16257 215.000
54.18252 220.000
54.20247 236.000
54.22241 205.000
54.24236 193.000
54.26231 205.000
54.28226 205.000
54.30220 233.000
54.32215 197.000
54.34210 226.000
54.36204 209.000
54.38199 200.000
54.40194 210.000
54.42188 213.000
54.44183 236.000
54.46178 212.000
54.48172 215.000
54.50167 213.000
54.52162 221.000
54.54157 202.000
54.56151 216.000
54.58146 211.000
54.60141 221.000
54.62135 212.000
54.64130 200.000
54.66125 204.000
54.68119 169.000
54.70114 213.000
54.72109 209.000
54.74104 193.000
54.76098 209.000
54.78093 227.000
54.80088 209.000
54.82082 230.000
54.84077 214.000
54.86072 225.000
54.88066 192.000
54.90061 195.000
54.92056 179.000
54.94050 205.000
54.96045 213.000
54.98040 208.000
55.00035 186.000
55.02029 198.000
55.04024 189.000
55.06019 223.000
55.08013 204.000
55.10008 193.000
55.12003 194.000
55.13997 198.000
55.15992 230.000
55.17987 214.000
55.19982 207.000
55.21976 188.000
55.23971 181.000
55.25966 198.000
55.27960 197.000
55.29955 215.000
55.31950 215.000
55.33944 209.000
55.35939 214.000
55.37934 191.000
55.39929 203.000
55.41923 222.000
55.43918 216.000
55.45913 218.000
55.47907 203.000
55.49902 237.000
55.51897 208.000
55.53891 205.000
55.55886 193.000
55.57881 204.000
55.59875 195.000
55.61870 209.000
55.63865 228.000
55.65860 202.000
55.67854 228.000
55.69849 224.000
55.71844 213.000
55.73838 192.000
55.75833 215.000
55.77828 214.000
55.79822 242.000
55.81817 198.000
55.83812 216.000
55.85807 186.000
55.87801 209.000
55.89796 204.000
55.91791 214.000
55.93785 210.000
55.95780 235.000
55.97775 200.000
55.99769 205.000
56.01764 197.000
56.03759 193.000
56.05753 195.000
56.07748 228.000
56.09743 219.000
56.11738 222.000
56.13732 211.000
56.15727 201.000
56.17722 218.000
56.19716 188.000
56.21711 210.000
56.23706 212.000
56.25700 198.000
56.27695 209.000
56.29690 203.000
56.31685 207.000
56.33679 204.000
56.35674 186.000
56.37669 176.000
56.39663 189.000
56.41658 185.000
56.43653 209.000
56.45647 214.000
56.47642 211.000
56.49637 203.000
56.51631 212.000
56.53626 233.000
56.55621 204.000
56.57616 235.000
56.59610 209.000
56.61605 208.000
56.63600 223.000
56.65594 205.000
56.67589 217.000
56.69584 217.000
56.71578 208.000
56.73573 222.000
56.75568 207.000
56.77563 199.000
56.79557 212.000
56.81552 238.000
56.83547 199.000
56.85541 215.000
56.87536 242.000
56.89531 227.000
56.91525 212.000
56.93520 222.000
56.95515 218.000
56.97510 243.000
56.99504 204.000
57.01499 216.000
57.03494 199.000
57.05488 201.000
57.07483 210.000
57.09478 215.000
57.11472 212.000
57.13467 234.000
57.15462 209.000
57.17456 198.000
57.19451 234.000
57.21446 207.000
57.23441 224.000
57.25435 256.000
57.27430 254.000
57.29425 266.000
57.31419 292.000
57.33414 333.000
57.35409 312.000
57.37403 306.000
57.39398 297.000
57.41393 287.000
57.43388 295.000
57.45382 317.000
57.47377 292.000
57.49372 287.000
57.51366 274.000
57.53361 288.000
57.55356 284.000
57.57350 278.000
57.59345 294.000
57.61340 288.000
57.63334 302.000
57.65329 296.000
57.67324 295.000
57.69319 304.000
57.71313 343.000
57.73308 335.000
57.75303 295.000
57.77297 306.000
57.79292 307.000
57.81287 349.000
57.83281 363.000
57.85276 407.000
57.87271 425.000
57.89266 487.000
57.91260 522.000
57.93255 531.000
57.95250 544.000
57.97244 526.000
57.99239 485.000
58.01234 517.000
58.03228 483.000
58.05223 461.000
58.07218 469.000
58.09212 454.000
58.11207 454.000
58.13202 413.000
58.15197 418.000
58.17191 408.000
58.19186 370.000
58.21181 350.000
58.23175 346.000
58.25170 335.000
58.27165 321.000
58.29159 328.000
58.31154 306.000
58.33149 312.000
58.35144 279.000
58.37138 284.000
58.39133 282.000
58.41128 302.000
58.43122 296.000
58.45117 263.000
58.47112 278.000
58.49106 254.000
58.51101 269.000
58.53096 244.000
58.55090 241.000
58.57085 235.000
58.59080 237.000
58.61075 236.000
58.63069 233.000
58.65064 232.000
58.67059 210.000
58.69053 230.000
58.71048 217.000
58.73043 229.000
58.75037 228.000
58.77032 255.000
58.79027 218.000
58.81022 245.000
58.83016 235.000
58.85011 201.000
58.87006 201.000
58.89000 220.000
58.90995 198.000
58.92990 202.000
58.94984 237.000
58.96979 222.000
58.98974 252.000
59.00969 234.000
59.02963 244.000
59.04958 203.000
59.06953 173.000
59.08947 215.000
59.10942 201.000
59.12937 232.000
59.14931 174.000
59.16926 218.000
59.18921 218.000
59.20915 209.000
59.22910 203.000
59.24905 218.000
59.26900 219.000
59.28894 189.000
59.30889 202.000
59.32884 220.000
59.34878 220.000
59.36873 217.000
59.38868 195.000
59.40862 185.000
59.42857 216.000
59.44852 211.000
59.46847 192.000
59.48841 202.000
59.50836 193.000
59.52831 222.000
59.54825 189.000
59.56820 207.000
59.58815 206.000
59.60809 224.000
59.62804 203.000
59.64799 228.000
59.66793 215.000
59.68788 185.000
59.70783 217.000
59.72778 205.000
59.74772 210.000
59.76767 209.000
59.78762 229.000
59.80756 193.000
59.82751 225.000
59.84746 197.000
59.86740 228.000
59.88735 194.000
59.90730 221.000
59.92725 212.000
59.94719 224.000
59.96714 201.000
59.98709 203.000
60.00703 197.000
60.02698 221.000
60.04693 217.000
60.06687 228.000
60.08682 215.000
60.10677 216.000
60.12671 217.000
60.14666 196.000
60.16661 221.000
60.18656 223.000
60.20650 217.000
60.22645 205.000
60.24640 215.000
60.26634 176.000
60.28629 202.000
60.30624 217.000
60.32618 214.000
60.34613 219.000
60.36608 223.000
60.38603 203.000
60.40597 220.000
60.42592 210.000
60.44587 193.000
60.46581 196.000
60.48576 227.000
60.50571 195.000
60.52565 204.000
60.54560 218.000
60.56555 238.000
60.58550 194.000
60.60544 244.000
60.62539 226.000
60.64534 237.000
60.66528 230.000
60.68523 206.000
60.70518 222.000
60.72512 250.000
60.74507 216.000
60.76502 210.000
60.78496 225.000
60.80491 237.000
60.82486 214.000
60.84481 219.000
60.86475 224.000
60.88470 246.000
60.90465 219.000
60.92459 211.000
60.94454 209.000
60.96449 227.000
60.98443 227.000
61.00438 230.000
61.02433 221.000
61.04428 230.000
61.06422 219.000
61.08417 221.000
61.10412 206.000
61.12406 232.000
61.14401 238.000
61.16396 209.000
61.18390 237.000
61.20385 222.000
61.22380 230.000
61.24374 231.000
61.26369 223.000
61.28364 251.000
61.30359 255.000
61.32353 203.000
61.34348 245.000
61.36343 246.000
61.38337 251.000
61.40332 288.000
61.42327 279.000
61.44321 274.000
61.46316 296.000
61.48311 317.000
61.50306 276.000
61.52300 314.000
61.54295 294.000
61.56290 308.000
61.58284 361.000
61.60279 378.000
61.62274 335.000
61.64268 350.000
61.66263 307.000
61.68258 341.000
61.70252 306.000
61.72247 315.000
61.74242 360.000
61.76237 381.000
61.78231 334.000
61.80226 356.000
61.82221 333.000
61.84215 316.000
61.86210 311.000
61.88205 291.000
61.90199 356.000
61.92194 351.000
61.94189 319.000
61.96184 334.000
61.98178 319.000
62.00173 353.000
62.02168 398.000
62.04162 386.000
62.06157 382.000
62.08152 363.000
62.10146 404.000
62.12141 389.000
62.14136 367.000
62.16131 347.000
62.18125 387.000
62.20120 368.000
62.22115 400.000
62.24109 377.000
62.26104 364.000
62.28099 390.000
62.30093 406.000
62.32088 398.000
62.34083 419.000
62.36077 403.000
62.38072 417.000
62.40067 403.000
62.42062 425.000
62.44056 419.000
62.46051 416.000
62.48046 402.000
62.50040 422.000
62.52035 441.000
62.54030 448.000
62.56024 484.000
62.58019 445.000
62.60014 479.000
62.62009 533.000
62.64003 505.000
62.65998 542.000
62.67993 558.000
62.69987 577.000
62.71982 558.000
62.73977 551.000
62.75971 564.000
62.77966 569.000
62.79961 594.000
62.81955 538.000
62.83950 541.000
62.85945 561.000
62.87940 517.000
62.89934 513.000
62.91929 554.000
62.93924 504.000
62.95918 537.000
62.97913 540.000
62.99908 510.000
63.01902 471.000
63.03897 420.000
63.05892 405.000
63.07887 447.000
63.09881 425.000
63.11876 424.000
63.13871 394.000
63.15865 371.000
63.17860 370.000
63.19855 396.000
63.21849 345.000
63.23844 372.000
63.25839 322.000
63.27833 288.000
63.29828 316.000
63.31823 301.000
63.33818 283.000
63.35812 298.000
63.37807 303.000
63.39802 284.000
63.41796 244.000
63.43791 267.000
63.45786 265.000
63.47780 262.000
63.49775 257.000
63.51770 253.000
63.53765 246.000
63.55759 253.000
63.57754 217.000
63.59749 236.000
63.61743 240.000
63.63738 230.000
63.65733 212.000
63.67727 242.000
63.69722 236.000
63.71717 219.000
63.73712 248.000
63.75706 221.000
63.77701 219.000
63.79696 210.000
63.81690 237.000
63.83685 255.000
63.85680 235.000
63.87674 254.000
63.89669 251.000
63.91664 227.000
63.93658 263.000
63.95653 256.000
63.97648 266.000
63.99643 225.000
64.01637 226.000
64.03632 246.000
64.05627 269.000
64.07621 272.000
64.09616 263.000
64.11611 267.000
64.13605 237.000
64.15600 249.000
64.17595 255.000
64.19590 245.000
64.21584 269.000
64.23579 262.000
64.25574 253.000
64.27568 263.000
64.29563 249.000
64.31558 287.000
64.33552 249.000
64.35547 241.000
64.37542 242.000
64.39536 214.000
64.41531 235.000
64.43526 224.000
64.45521 241.000
64.47515 227.000
64.49510 246.000
64.51505 233.000
64.53499 227.000
64.55494 245.000
64.57489 206.000
64.59483 226.000
64.61478 236.000
64.63473 221.000
64.65468 233.000
64.67462 224.000
64.69457 230.000
64.71452 202.000
64.73446 185.000
64.75441 219.000
64.77436 226.000
64.79430 211.000
64.81425 182.000
64.83420 224.000
64.85414 208.000
64.87409 209.000
64.89404 225.000
64.91399 232.000
64.93393 223.000
64.95388 217.000
64.97383 226.000
64.99377 227.000
65.01372 223.000
65.03367 227.000
65.05361 215.000
65.07356 224.000
65.09351 236.000
65.11346 232.000
65.13340 247.000
65.15335 240.000
65.17330 263.000
65.19324 231.000
65.21319 236.000
65.23314 239.000
65.25308 284.000
65.27303 277.000
65.29298 302.000
65.31293 270.000
65.33287 288.000
65.35282 276.000
65.37277 309.000
65.39271 346.000
65.41266 335.000
65.43261 292.000
65.45255 326.000
65.47250 332.000
65.49245 355.000
65.51239 287.000
65.53234 338.000
65.55229 287.000
65.57224 326.000
65.59218 320.000
65.61213 306.000
65.63208 360.000
65.65202 346.000
65.67197 310.000
65.69192 296.000
65.71186 305.000
65.73181 348.000
65.75176 308.000
65.77171 324.000
65.79165 285.000
65.81160 305.000
65.83155 333.000
65.85149 293.000
65.87144 304.000
65.89139 302.000
65.91133 290.000
65.93128 296.000
65.95123 313.000
65.97117 288.000
65.99112 332.000
66.01107 253.000
66.03102 254.000
66.05096 282.000
66.07091 314.000
66.09086 248.000
66.11080 285.000
66.13075 278.000
66.15070 276.000
66.17064 289.000
66.19059 272.000
66.21054 312.000
66.23049 288.000
66.25043 328.000
66.27038 315.000
66.29033 288.000
66.31027 317.000
66.33022 331.000
66.35017 339.000
66.37011 318.000
66.39006 347.000
66.41001 344.000
66.42995 330.000
66.44990 337.000
66.46985 301.000
66.48980 319.000
66.50974 315.000
66.52969 302.000
66.54964 331.000
66.56958 303.000
66.58953 281.000
66.60948 282.000
66.62942 287.000
66.64937 271.000
66.66932 235.000
66.68927 250.000
66.70921 265.000
66.72916 250.000
66.74911 230.000
66.76905 262.000
66.78900 229.000
66.80895 207.000
66.82889 251.000
66.84884 256.000
66.86879 234.000
66.88874 257.000
66.90868 225.000
66.92863 235.000
66.94858 219.000
66.96852 193.000
66.98847 236.000
67.00842 247.000
67.02836 229.000
67.04831 224.000
67.06826 237.000
67.08820 261.000
67.10815 240.000
67.12810 241.000
67.14805 250.000
67.16799 231.000
67.18794 234.000
67.20789 274.000
67.22783 224.000
67.24778 236.000
67.26773 222.000
67.28767 245.000
67.30762 235.000
67.32757 243.000
67.34752 227.000
67.36746 220.000
67.38741 231.000
67.40736 241.000
67.42730 216.000
67.44725 223.000
67.46720 244.000
67.48714 235.000
67.50709 225.000
67.52704 239.000
67.54698 203.000
67.56693 200.000
67.58688 230.000
67.60683 217.000
67.62677 236.000
67.64672 232.000
67.66667 247.000
67.68661 224.000
67.70656 252.000
67.72651 219.000
67.74645 239.000
67.76640 223.000
67.78635 242.000
67.80630 218.000
67.82624 262.000
67.84619 267.000
67.86614 277.000
67.88608 276.000
67.90603 281.000
67.92598 265.000
67.94592 286.000
67.96587 318.000
67.98582 307.000
68.00576 286.000
68.02571 312.000
68.04566 304.000
68.06561 293.000
68.08555 336.000
68.10550 282.000
68.12545 303.000
68.14539 289.000
68.16534 303.000
68.18529 281.000
68.20523 310.000
68.22518 317.000
68.24513 296.000
68.26508 306.000
68.28502 313.000
68.30497 324.000
68.32492 328.000
68.34486 305.000
68.36481 365.000
68.38476 280.000
68.40470 294.000
68.42465 280.000
68.44460 281.000
68.46455 301.000
68.48449 284.000
68.50444 264.000
68.52439 294.000
68.54433 260.000
68.56428 278.000
68.58423 240.000
68.60417 247.000
68.62412 270.000
68.64407 255.000
68.66401 246.000
68.68396 233.000
68.70391 234.000
68.72386 232.000
68.74380 260.000
68.76375 212.000
68.78370 251.000
68.80364 223.000
68.82359 219.000
68.84354 235.000
68.86348 195.000
68.88343 208.000
68.90338 213.000
68.92333 222.000
68.94327 205.000
68.96322 218.000
68.98317 245.000
69.00311 202.000
69.02306 205.000
69.04301 184.000
69.06295 207.000
69.08290 218.000
69.10285 221.000
69.12279 216.000
69.14274 210.000
69.16269 212.000
69.18264 223.000
69.20258 230.000
69.22253 228.000
69.24248 224.000
69.26242 221.000
69.28237 232.000
69.30232 208.000
69.32226 208.000
69.34221 211.000
69.36216 240.000
69.38211 217.000
69.40205 230.000
69.42200 256.000
69.44195 216.000
69.46189 232.000
69.48184 231.000
69.50179 244.000
69.52173 220.000
69.54168 224.000
69.56163 204.000
69.58157 232.000
69.60152 222.000
69.62147 205.000
69.64142 216.000
69.66136 224.000
69.68131 234.000
69.70126 219.000
69.72120 230.000
69.74115 216.000
69.76110 205.000
69.78104 212.000
69.80099 200.000
69.82094 214.000
69.84089 194.000
69.86083 204.000
69.88078 204.000
69.90073 221.000
69.92067 195.000
69.94062 206.000
69.96057 208.000
69.98051 198.000
70.00046 177.000
70.02041 194.000
70.04035 212.000
70.06030 206.000
70.08025 206.000
70.10020 224.000
70.12014 206.000
70.14009 198.000
70.16004 206.000
70.17998 206.000
70.19993 181.000
70.21988 189.000
70.23982 189.000
70.25977 177.000
70.27972 231.000
70.29967 203.000
70.31961 156.000
70.33956 187.000
70.35951 205.000
70.37945 205.000
70.39940 204.000
70.41935 195.000
70.43929 194.000
70.45924 214.000
70.47919 188.000
70.49914 194.000
70.51908 209.000
70.53903 202.000
70.55898 187.000
70.57892 226.000
70.59887 205.000
70.61882 200.000
70.63876 196.000
70.65871 187.000
70.67866 214.000
70.69860 192.000
70.71855 173.000
70.73850 200.000
70.75845 225.000
70.77839 202.000
70.79834 211.000
70.81829 224.000
70.83823 233.000
70.85818 204.000
70.87813 228.000
70.89807 232.000
70.91802 182.000
70.93797 236.000
70.95792 217.000
70.97786 222.000
70.99781 171.000
71.01776 190.000
71.03770 215.000
71.05765 218.000
71.07760 203.000
71.09754 214.000
71.11749 195.000
71.13744 211.000
71.15738 203.000
71.17733 179.000
71.19728 214.000
71.21723 213.000
71.23717 201.000
71.25712 209.000
71.27707 207.000
71.29701 190.000
71.31696 212.000
71.33691 213.000
71.35685 191.000
71.37680 216.000
71.39675 216.000
71.41670 226.000
71.43664 206.000
71.45659 176.000
71.47654 203.000
71.49648 202.000
71.51643 192.000
71.53638 199.000
71.55632 207.000
71.57627 197.000
71.59622 193.000
71.61616 221.000
71.63611 187.000
71.65606 191.000
71.67601 195.000
71.69595 196.000
71.71590 204.000
71.73585 206.000
71.75579 246.000
71.77574 210.000
71.79569 221.000
71.81563 219.000
71.83558 211.000
71.85553 204.000
71.87548 227.000
71.89542 187.000
71.91537 219.000
71.93532 190.000
71.95526 223.000
71.97521 185.000
71.99516 207.000
72.01510 230.000
72.03505 239.000
72.05500 215.000
72.07495 173.000
72.09489 193.000
72.11484 216.000
72.13479 206.000
72.15473 201.000
72.17468 213.000
72.19463 215.000
72.21457 208.000
72.23452 203.000
72.25447 243.000
72.27441 195.000
72.29436 201.000
72.31431 240.000
72.33426 210.000
72.35420 226.000
72.37415 202.000
72.39410 236.000
72.41404 243.000
72.43399 227.000
72.45394 233.000
72.47388 258.000
72.49383 250.000
72.51378 276.000
72.53373 255.000
72.55367 273.000
72.57362 256.000
72.59357 285.000
72.61351 283.000
72.63346 273.000
72.65341 271.000
72.67335 277.000
72.69330 273.000
72.71325 271.000
72.73319 276.000
72.75314 286.000
72.77309 273.000
72.79304 315.000
72.81298 314.000
72.83293 294.000
72.85288 298.000
72.87282 293.000
72.89277 270.000
72.91272 286.000
72.93266 284.000
72.95261 276.000
72.97256 275.000
72.99251 270.000
73.01245 263.000
73.03240 278.000
73.05235 291.000
73.07229 278.000
73.09224 286.000
73.11219 231.000
73.13213 272.000
73.15208 231.000
73.17203 248.000
73.19197 233.000
73.21192 254.000
73.23187 259.000
73.25182 233.000
73.27176 224.000
73.29171 243.000
73.31166 248.000
73.33160 249.000
73.35155 219.000
73.37150 220.000
73.39144 232.000
73.41139 212.000
73.43134 222.000
73.45129 228.000
73.47123 240.000
73.49118 268.000
73.51113 255.000
73.53107 220.000
73.55102 264.000
73.57097 264.000
73.59091 246.000
73.61086 245.000
73.63081 248.000
73.65076 223.000
73.67070 225.000
73.69065 248.000
73.71060 248.000
73.73054 228.000
73.75049 232.000
73.77044 232.000
73.79038 251.000
73.81033 239.000
73.83028 248.000
73.85022 221.000
73.87017 235.000
73.89012 232.000
73.91007 264.000
73.93001 202.000
73.94996 237.000
73.96991 243.000
73.98985 239.000
74.00980 246.000
74.02975 244.000
74.04969 246.000
74.06964 277.000
74.08959 266.000
74.10954 247.000
74.12948 245.000
74.14943 243.000
74.16938 230.000
74.18932 256.000
74.20927 282.000
74.22922 245.000
74.24916 257.000
74.26911 293.000
74.28906 272.000
74.30900 254.000
74.32895 264.000
74.34890 243.000
74.36885 245.000
74.38879 274.000
74.40874 260.000
74.42869 264.000
74.44863 221.000
74.46858 246.000
74.48853 257.000
74.50847 252.000
74.52842 293.000
74.54837 268.000
74.56832 266.000
74.58826 247.000
74.60821 243.000
74.62816 244.000
74.64810 283.000
74.66805 271.000
74.68800 276.000
74.70794 239.000
74.72789 282.000
74.74784 283.000
74.76778 282.000
74.78773 263.000
74.80768 291.000
74.82763 283.000
74.84757 285.000
74.86752 273.000
74.88747 293.000
74.90741 299.000
74.92736 276.000
74.94731 289.000
74.96725 307.000
74.98720 291.000
75.00715 300.000
75.02710 324.000
75.04704 308.000
75.06699 302.000
75.08694 322.000
75.10688 307.000
75.12683 303.000
75.14678 332.000
75.16672 323.000
75.18667 310.000
75.20662 316.000
75.22657 354.000
75.24651 305.000
75.26646 311.000
75.28641 298.000
75.30635 342.000
75.32630 276.000
75.34625 288.000
75.36619 269.000
75.38614 278.000
75.40609 302.000
75.42603 299.000
75.44598 249.000
75.46593 266.000
75.48588 293.000
75.50582 293.000
75.52577 253.000
75.54572 269.000
75.56566 242.000
75.58561 265.000
75.60556 214.000
75.62550 266.000
75.64545 252.000
75.66540 222.000
75.68535 258.000
75.70529 243.000
75.72524 222.000
75.74519 242.000
75.76513 215.000
75.78508 222.000
75.80503 203.000
75.82497 228.000
75.84492 185.000
75.86487 209.000
75.88481 207.000
75.90476 195.000
75.92471 203.000
75.94466 221.000
75.96460 224.000
75.98455 215.000
76.00450 218.000
76.02444 190.000
76.04439 215.000
76.06434 218.000
76.08428 218.000
76.10423 201.000
76.12418 233.000
76.14413 196.000
76.16407 214.000
76.18402 236.000
76.20397 208.000
76.22391 215.000
76.24386 197.000
76.26381 214.000
76.28375 179.000
76.30370 206.000
76.32365 229.000
76.34359 209.000
76.36354 203.000
76.38349 161.000
76.40344 196.000
76.42338 222.000
76.44333 208.000
76.46328 212.000
76.48322 213.000
76.50317 226.000
76.52312 191.000
76.54306 189.000
76.56301 215.000
76.58296 211.000
76.60291 204.000
76.62285 206.000
76.64280 187.000
76.66275 183.000
76.68269 185.000
76.70264 194.000
76.72259 186.000
76.74253 214.000
76.76248 191.000
76.78243 216.000
76.80238 198.000
76.82232 172.000
76.84227 196.000
76.86222 185.000
76.88216 206.000
76.90211 212.000
76.92206 206.000
76.94200 206.000
76.96195 197.000
76.98190 187.000
77.00184 197.000
77.02179 196.000
77.04174 219.000
77.06169 213.000
77.08163 188.000
77.10158 219.000
77.12153 207.000
77.14147 209.000
77.16142 196.000
77.18137 208.000
77.20131 208.000
77.22126 163.000
77.24121 192.000
77.26116 204.000
77.28110 192.000
77.30105 211.000
77.32100 209.000
77.34094 229.000
77.36089 219.000
77.38084 210.000
77.40078 224.000
77.42073 220.000
77.44068 188.000
77.46062 190.000
77.48057 203.000
77.50052 204.000
77.52047 172.000
77.54041 208.000
77.56036 240.000
77.58031 198.000
77.60025 225.000
77.62020 230.000
77.64015 189.000
77.66009 199.000
77.68004 222.000
77.69999 233.000
77.71994 220.000
77.73988 220.000
77.75983 233.000
77.77978 226.000
77.79972 237.000
77.81967 249.000
77.83962 205.000
77.85956 205.000
77.87951 250.000
77.89946 231.000
77.91940 211.000
77.93935 263.000
77.95930 217.000
77.97925 249.000
77.99919 230.000
78.01914 255.000
78.03909 219.000
78.05903 246.000
78.07898 264.000
78.09893 262.000
78.11887 254.000
78.13882 269.000
78.15877 283.000
78.17872 267.000
78.19866 283.000
78.21861 279.000
78.23856 300.000
78.25850 268.000
78.27845 267.000
78.29840 286.000
78.31834 304.000
78.33829 291.000
78.35824 257.000
78.37819 296.000
78.39813 283.000
78.41808 258.000
78.43803 280.000
78.45797 254.000
78.47792 256.000
78.49787 277.000
78.51781 267.000
78.53776 277.000
78.55771 269.000
78.57765 288.000
78.59760 262.000
78.61755 284.000
78.63750 283.000
78.65744 290.000
78.67739 266.000
78.69734 259.000
78.71728 263.000
78.73723 246.000
78.75718 276.000
78.77712 256.000
78.79707 282.000
78.81702 280.000
78.83697 251.000
78.85691 282.000
78.87686 272.000
78.89681 270.000
78.91675 252.000
78.93670 252.000
78.95665 242.000
78.97659 253.000
78.99654 261.000
79.01649 239.000
79.03643 231.000
79.05638 267.000
79.07633 269.000
79.09628 232.000
79.11622 277.000
79.13617 248.000
79.15612 251.000
79.17606 237.000
79.19601 242.000
79.21596 227.000
79.23590 216.000
79.25585 239.000
79.27580 233.000
79.29575 232.000
79.31569 219.000
79.33564 254.000
79.35559 223.000
79.37553 226.000
79.39548 203.000
79.41543 226.000
79.43537 208.000
79.45532 212.000
79.47527 230.000
79.49521 224.000
79.51516 218.000
79.53511 221.000
79.55506 221.000
79.57500 220.000
79.59495 193.000
79.61490 217.000
79.63484 188.000
79.65479 200.000
79.67474 209.000
79.69468 218.000
79.71463 210.000
79.73458 188.000
79.75453 220.000
79.77447 204.000
79.79442 199.000
79.81437 211.000
79.83431 203.000
79.85426 222.000
79.87421 188.000
79.89415 211.000
79.91410 206.000
79.93405 195.000
79.95399 211.000
79.97394 202.000
79.99389 204.000
80.01384 227.000
80.03378 196.000
80.05373 204.000
80.07368 205.000
80.09362 198.000
80.11357 182.000
80.13352 175.000
80.15346 197.000
80.17341 206.000
80.19336 207.000
80.21331 215.000
80.23325 180.000
80.25320 199.000
80.27315 210.000
80.29309 226.000
80.31304 225.000
80.33299 221.000
80.35293 220.000
80.37288 237.000
80.39283 219.000
80.41278 184.000
80.43272 205.000
80.45267 194.000
80.47262 229.000
80.49256 191.000
80.51251 211.000
80.53246 197.000
80.55240 222.000
80.57235 233.000
80.59230 247.000
80.61224 219.000
80.63219 228.000
80.65214 205.000
80.67209 203.000
80.69203 207.000
80.71198 232.000
80.73193 217.000
80.75187 225.000
80.77182 175.000
80.79177 210.000
80.81171 173.000
80.83166 215.000
80.85161 219.000
80.87156 199.000
80.89150 198.000
80.91145 219.000
80.93140 201.000
80.95134 221.000
80.97129 209.000
80.99124 207.000
81.01118 180.000
81.03113 194.000
81.05108 204.000
81.07102 209.000
81.09097 217.000
81.11092 212.000
81.13087 193.000
81.15081 228.000
81.17076 226.000
81.19071 185.000
81.21065 194.000
81.23060 188.000
81.25055 174.000
81.27049 232.000
81.29044 205.000
81.31039 189.000
81.33034 194.000
81.35028 208.000
81.37023 194.000
81.39018 212.000
81.41012 208.000
81.43007 198.000
81.45002 179.000
81.46996 216.000
81.48991 176.000
81.50986 174.000
81.52980 230.000
81.54975 202.000
81.56970 169.000
81.58965 203.000
81.60959 182.000
81.62954 212.000
81.64949 203.000
81.66943 206.000
81.68938 207.000
81.70933 202.000
81.72927 209.000
81.74922 198.000
81.76917 201.000
81.78912 199.000
81.80906 198.000
81.82901 192.000
81.84896 194.000
81.86890 193.000
81.88885 203.000
81.90880 222.000
81.92874 228.000
81.94869 192.000
81.96864 211.000
81.98859 220.000
82.00853 226.000
82.02848 217.000
82.04843 204.000
82.06837 232.000
82.08832 221.000
82.10827 207.000
82.12821 178.000
82.14816 209.000
82.16811 204.000
82.18805 204.000
82.20800 182.000
82.22795 217.000
82.24790 193.000
82.26784 228.000
82.28779 212.000
82.30774 194.000
82.32768 218.000
82.34763 238.000
82.36758 223.000
82.38752 229.000
82.40747 209.000
82.42742 229.000
82.44737 194.000
82.46731 217.000
82.48726 198.000
82.50721 230.000
82.52715 229.000
82.54710 221.000
82.56705 223.000
82.58699 206.000
82.60694 248.000
82.62689 254.000
82.64683 229.000
82.66678 222.000
82.68673 223.000
82.70668 206.000
82.72662 218.000
82.74657 231.000
82.76652 212.000
82.78646 225.000
82.80641 203.000
82.82636 210.000
82.84630 259.000
82.86625 227.000
82.88620 228.000
82.90615 204.000
82.92609 214.000
82.94604 240.000
82.96599 218.000
82.98593 209.000
83.00588 236.000
83.02583 197.000
83.04577 207.000
83.06572 234.000
83.08567 215.000
83.10561 229.000
83.12556 228.000
83.14551 196.000
83.16546 222.000
83.18540 244.000
83.20535 227.000
83.22530 229.000
83.24524 220.000
83.26519 212.000
83.28514 252.000
83.30508 192.000
83.32503 198.000
83.34498 229.000
83.36493 187.000
83.38487 224.000
83.40482 219.000
83.42477 231.000
83.44471 207.000
83.46466 229.000
83.48461 189.000
83.50455 202.000
83.52450 199.000
83.54445 226.000
83.56440 197.000
83.58434 216.000
83.60429 199.000
83.62424 208.000
83.64418 211.000
83.66413 221.000
83.68408 191.000
83.70402 242.000
83.72397 194.000
83.74392 232.000
83.76386 230.000
83.78381 185.000
83.80376 189.000
83.82371 227.000
83.84365 242.000
83.86360 206.000
83.88355 231.000
83.90349 231.000
83.92344 252.000
83.94339 226.000
83.96333 235.000
83.98328 216.000
84.00323 177.000
84.02318 230.000
84.04312 233.000
84.06307 231.000
84.08302 213.000
84.10296 199.000
84.12291 223.000
84.14286 212.000
84.16280 223.000
84.18275 216.000
84.20270 224.000
84.22264 192.000
84.24259 217.000
84.26254 223.000
84.28249 211.000
84.30243 207.000
84.32238 238.000
84.34233 184.000
84.36227 213.000
84.38222 219.000
84.40217 215.000
84.42211 211.000
84.44206 241.000
84.46201 224.000
84.48196 232.000
84.50190 207.000
84.52185 209.000
84.54180 218.000
84.56174 209.000
84.58169 220.000
84.60164 229.000
84.62158 206.000
84.64153 230.000
84.66148 227.000
84.68142 223.000
84.70137 246.000
84.72132 235.000
84.74127 215.000
84.76121 225.000
84.78116 184.000
84.80111 191.000
84.82105 224.000
84.84100 235.000
84.86095 218.000
84.88089 223.000
84.90084 200.000
84.92079 223.000
84.94074 187.000
84.96068 229.000
84.98063 197.000
85.00058 221.000
85.02052 199.000
85.04047 228.000
85.06042 223.000
85.08036 198.000
85.10031 189.000
85.12026 203.000
85.14021 192.000
85.16015 186.000
85.18010 244.000
85.20005 203.000
85.21999 210.000
85.23994 220.000
85.25989 193.000
85.27983 208.000
85.29978 178.000
85.31973 185.000
85.33967 187.000
85.35962 197.000
85.37957 189.000
85.39952 206.000
85.41946 174.000
85.43941 202.000
85.45936 191.000
85.47930 209.000
85.49925 171.000
85.51920 208.000
85.53914 201.000
85.55909 191.000
85.57904 222.000
85.59899 224.000
85.61893 214.000
85.63888 214.000
85.65883 182.000
85.67877 194.000
85.69872 195.000
85.71867 173.000
85.73861 190.000
85.75856 188.000
85.77851 215.000
85.79845 189.000
85.81840 203.000
85.83835 232.000
85.85830 185.000
85.87824 187.000
85.89819 185.000
85.91814 182.000
85.93808 206.000
85.95803 205.000
85.97798 188.000
85.99792 194.000
86.01787 181.000
86.03782 199.000
86.05777 185.000
86.07771 209.000
86.09766 180.000
86.11761 200.000
86.13755 194.000
86.15750 218.000
86.17745 209.000
86.19739 190.000
86.21734 187.000
86.23729 203.000
86.25723 196.000
86.27718 180.000
86.29713 202.000
86.31708 199.000
86.33702 217.000
86.35697 205.000
86.37692 191.000
86.39686 188.000
86.41681 200.000
86.43676 198.000
86.45670 203.000
86.47665 196.000
86.49660 189.000
86.51655 198.000
86.53649 203.000
86.55644 205.000
86.57639 216.000
86.59633 193.000
86.61628 221.000
86.63623 224.000
86.65617 224.000
86.67612 200.000
86.69607 203.000
86.71602 206.000
86.73596 228.000
86.75591 230.000
86.77586 241.000
86.79580 222.000
86.81575 227.000
86.83570 210.000
86.85564 237.000
86.87559 218.000
86.89554 200.000
86.91548 257.000
86.93543 262.000
86.95538 238.000
86.97533 216.000
86.99527 217.000
87.01522 261.000
87.03517 235.000
87.05511 213.000
87.07506 193.000
87.09501 228.000
87.11495 209.000
87.13490 219.000
87.15485 236.000
87.17480 221.000
87.19474 224.000
87.21469 230.000
87.23464 215.000
87.25458 249.000
87.27453 219.000
87.29448 209.000
87.31442 214.000
87.33437 206.000
87.35432 229.000
87.37426 211.000
87.39421 211.000
87.41416 226.000
87.43411 196.000
87.45405 229.000
87.47400 262.000
87.49395 197.000
87.51389 221.000
87.53384 213.000
87.55379 200.000
87.57373 204.000
87.59368 232.000
87.61363 216.000
87.63358 209.000
87.65352 216.000
87.67347 210.000
87.69342 199.000
87.71336 234.000
87.73331 218.000
87.75326 217.000
87.77320 208.000
87.79315 221.000
87.81310 205.000
87.83304 212.000
87.85299 229.000
87.87294 215.000
87.89289 179.000
87.91283 215.000
87.93278 227.000
87.95273 213.000
87.97267 224.000
87.99262 191.000
88.01257 232.000
88.03251 208.000
88.05246 191.000
88.07241 214.000
88.09236 224.000
88.11230 212.000
88.13225 215.000
88.15220 212.000
88.17214 181.000
88.19209 234.000
88.21204 230.000
88.23198 189.000
88.25193 213.000
88.27188 188.000
88.29183 165.000
88.31177 188.000
88.33172 223.000
88.35167 206.000
88.37161 188.000
88.39156 215.000
88.41151 219.000
88.43145 214.000
88.45140 204.000
88.47135 201.000
88.49129 212.000
88.51124 189.000
88.53119 214.000
88.55114 206.000
88.57108 173.000
88.59103 202.000
88.61098 201.000
88.63092 194.000
88.65087 220.000
88.67082 193.000
88.69076 212.000
88.71071 206.000
88.73066 191.000
88.75061 192.000
88.77055 195.000
88.79050 184.000
88.81045 186.000
88.83039 227.000
88.85034 194.000
88.87029 224.000
88.89023 173.000
88.91018 205.000
88.93013 203.000
88.95007 226.000
88.97002 220.000
88.98997 199.000
89.00992 225.000
89.02986 179.000
89.04981 190.000
89.06976 201.000
89.08970 196.000
89.10965 243.000
89.12960 214.000
89.14954 197.000
89.16949 191.000
89.18944 217.000
89.20939 204.000
89.22933 182.000
89.24928 212.000
89.26923 180.000
89.28917 213.000
89.30912 218.000
89.32907 200.000
89.34901 217.000
89.36896 218.000
89.38891 235.000
89.40885 201.000
89.42880 214.000
89.44875 184.000
89.46870 214.000
89.48864 192.000
89.50859 219.000
89.52854 208.000
89.54848 219.000
89.56843 200.000
89.58838 207.000
89.60832 220.000
89.62827 226.000
89.64822 226.000
89.66817 205.000
89.68811 205.000
89.70806 216.000
89.72801 220.000
89.74795 211.000
89.76790 217.000
89.78785 211.000
89.80779 218.000
89.82774 209.000
89.84769 189.000
89.86764 225.000
89.88758 209.000
89.90753 196.000
89.92748 196.000
89.94742 227.000
89.96737 198.000
89.98732 232.000
90.00726 211.000
