10.00000 89.000
10.01995 68.000
10.03989 83.000
10.05984 84.000
10.07979 69.000
10.09973 72.000
10.11968 80.000
10.13963 61.000
10.15958 63.000
10.17952 69.000
10.19947 85.000
10.21942 89.000
10.23936 88.000
10.25931 90.000
10.27926 77.000
10.29920 87.000
10.31915 81.000
10.33910 72.000
10.35905 77.000
10.37899 93.000
10.39894 88.000
10.41889 75.000
10.43883 83.000
10.45878 82.000
10.47873 94.000
10.49867 75.000
10.51862 74.000
10.53857 82.000
10.55851 80.000
10.57846 74.000
10.59841 83.000
10.61836 63.000
10.63830 82.000
10.65825 73.000
10.67820 89.000
10.69814 81.000
10.71809 60.000
10.73804 73.000
10.75798 70.000
10.77793 83.000
10.79788 78.000
10.81783 78.000
10.83777 73.000
10.85772 76.000
10.87767 67.000
10.89761 75.000
10.91756 83.000
10.93751 73.000
10.95745 77.000
10.97740 76.000
10.99735 85.000
11.01730 77.000
11.03724 68.000
11.05719 77.000
11.07714 82.000
11.09708 84.000
11.11703 83.000
11.13698 80.000
11.15692 81.000
11.17687 75.000
11.19682 90.000
11.21676 75.000
11.23671 75.000
11.25666 81.000
11.27661 74.000
11.29655 63.000
11.31650 68.000
11.33645 67.000
11.35639 77.000
11.37634 62.000
11.39629 78.000
11.41623 73.000
11.43618 88.000
11.45613 67.000
11.47608 66.000
11.49602 81.000
11.51597 70.000
11.53592 75.000
11.55586 69.000
11.57581 79.000
11.59576 78.000
11.61570 67.000
11.63565 94.000
11.65560 68.000
11.67554 70.000
11.69549 76.000
11.71544 72.000
11.73539 80.000
11.75533 88.000
11.77528 83.000
11.79523 73.000
11.81517 63.000
11.83512 77.000
11.85507 67.000
11.87501 67.000
11.89496 51.000
11.91491 76.000
11.93486 69.000
11.95480 63.000
11.97475 72.000
11.99470 70.000
12.01464 78.000
12.03459 67.000
12.05454 89.000
12.07448 94.000
12.09443 82.000
12.11438 80.000
12.13432 73.000
12.15427 85.000
12.17422 76.000
12.19417 89.000
12.21411 80.000
12.23406 82.000
12.25401 87.000
12.27395 63.000
12.29390 80.000
12.31385 70.000
12.33379 75.000
12.35374 79.000
12.37369 80.000
12.39364 69.000
12.41358 80.000
12.43353 84.000
12.45348 75.000
12.47342 77.000
12.49337 85.000
12.51332 74.000
12.53326 61.000
12.55321 75.000
12.57316 69.000
12.59311 78.000
12.61305 76.000
12.63300 80.000
12.65295 79.000
12.67289 77.000
12.69284 70.000
12.71279 76.000
12.73273 82.000
12.75268 78.000
12.77263 82.000
12.79257 78.000
12.81252 70.000
12.83247 64.000
12.85242 71.000
12.87236 85.000
12.89231 71.000
12.91226 80.000
12.93220 64.000
12.95215 67.000
12.97210 78.000
12.99204 75.000
13.01199 70.000
13.03194 66.000
13.05189 60.000
13.07183 71.000
13.09178 67.000
13.11173 82.000
13.13167 74.000
13.15162 69.000
13.17157 64.000
13.19151 84.000
13.21146 69.000
13.23141 60.000
13.25135 75.000
13.27130 79.000
13.29125 72.000
13.31120 71.000
13.33114 74.000
13.35109 76.000
13.37104 79.000
13.39098 64.000
13.41093 69.000
13.43088 74.000
13.45082 75.000
13.47077 65.000
13.49072 61.000
13.51067 85.000
13.53061 72.000
13.55056 71.000
13.57051 78.000
13.59045 67.000
13.61040 66.000
13.63035 69.000
13.65029 63.000
13.67024 76.000
13.69019 91.000
13.71013 89.000
13.73008 74.000
13.75003 72.000
13.76998 87.000
13.78992 87.000
13.80987 65.000
13.82982 81.000
13.84976 93.000
13.86971 70.000
13.88966 73.000
13.90960 69.000
13.92955 71.000
13.94950 76.000
13.96945 74.000
13.98939 56.000
14.00934 76.000
14.02929 87.000
14.04923 85.000
14.06918 75.000
14.08913 82.000
14.10907 79.000
14.12902 76.000
14.14897 87.000
14.16892 70.000
14.18886 61.000
14.20881 71.000
14.22876 68.000
14.24870 80.000
14.26865 56.000
14.28860 83.000
14.30854 66.000
14.32849 84.000
14.34844 64.000
14.36838 83.000
14.38833 58.000
14.40828 76.000
14.42823 70.000
14.44817 69.000
14.46812 64.000
14.48807 68.000
14.50801 70.000
14.52796 67.000
14.54791 67.000
14.56785 75.000
14.58780 64.000
14.60775 66.000
14.62770 85.000
14.64764 68.000
14.66759 77.000
14.68754 70.000
14.70748 61.000
14.72743 72.000
14.74738 76.000
14.76732 64.000
14.78727 87.000
14.80722 74.000
14.82716 75.000
14.84711 87.000
14.86706 71.000
14.88701 72.000
14.90695 91.000
14.92690 77.000
14.94685 80.000
14.96679 75.000
14.98674 82.000
15.00669 68.000
15.02663 96.000
15.04658 95.000
15.06653 88.000
15.08648 90.000
15.10642 83.000
15.12637 90.000
15.14632 98.000
15.16626 91.000
15.18621 96.000
15.20616 118.000
15.22610 117.000
15.24605 125.000
15.26600 132.000
15.28594 161.000
15.30589 176.000
15.32584 179.000
15.34579 213.000
15.36573 257.000
15.38568 332.000
15.40563 366.000
15.42557 382.000
15.44552 474.000
15.46547 524.000
15.48541 562.000
15.50536 660.000
15.52531 718.000
15.54526 812.000
15.56520 941.000
15.58515 969.000
15.60510 1149.000
15.62504 1121.000
15.64499 1164.000
15.66494 1171.000
15.68488 1160.000
15.70483 1055.000
15.72478 1008.000
15.74472 900.000
15.76467 854.000
15.78462 608.000
15.80457 530.000
15.82451 337.000
15.84446 272.000
15.86441 171.000
15.88435 169.000
15.90430 117.000
15.92425 125.000
15.94419 108.000
15.96414 87.000
15.98409 105.000
16.00404 90.000
16.02398 82.000
16.04393 99.000
16.06388 95.000
16.08382 87.000
16.10377 101.000
16.12372 105.000
16.14366 64.000
16.16361 98.000
16.18356 92.000
16.20351 89.000
16.22345 84.000
16.24340 93.000
16.26335 86.000
16.28329 99.000
16.30324 89.000
16.32319 88.000
16.34313 78.000
16.36308 86.000
16.38303 68.000
16.40297 86.000
16.42292 82.000
16.44287 73.000
16.46282 81.000
16.48276 67.000
16.50271 75.000
16.52266 71.000
16.54260 70.000
16.56255 92.000
16.58250 101.000
16.60244 91.000
16.62239 87.000
16.64234 98.000
16.66229 68.000
16.68223 90.000
16.70218 84.000
16.72213 96.000
16.74207 102.000
16.76202 91.000
16.78197 78.000
16.80191 80.000
16.82186 76.000
16.84181 62.000
16.86175 79.000
16.88170 76.000
16.90165 74.000
16.92160 58.000
16.94154 83.000
16.96149 63.000
16.98144 73.000
17.00138 76.000
17.02133 83.000
17.04128 71.000
17.06122 83.000
17.08117 83.000
17.10112 66.000
17.12107 94.000
17.14101 84.000
17.16096 67.000
17.18091 72.000
17.20085 78.000
17.22080 67.000
17.24075 68.000
17.26069 69.000
17.28064 63.000
17.30059 78.000
17.32053 83.000
17.34048 75.000
17.36043 77.000
17.38038 75.000
17.40032 86.000
17.42027 68.000
17.44022 72.000
17.46016 80.000
17.48011 70.000
17.50006 73.000
17.52000 67.000
17.53995 60.000
17.55990 64.000
17.57985 56.000
17.59979 86.000
17.61974 73.000
17.63969 82.000
17.65963 68.000
17.67958 65.000
17.69953 88.000
17.71947 72.000
17.73942 80.000
17.75937 67.000
17.77932 58.000
17.79926 79.000
17.81921 82.000
17.83916 75.000
17.85910 91.000
17.87905 81.000
17.89900 94.000
17.91894 70.000
17.93889 99.000
17.95884 101.000
17.97878 112.000
17.99873 104.000
18.01868 98.000
18.03863 107.000
18.05857 96.000
18.07852 107.000
18.09847 140.000
18.11841 131.000
18.13836 116.000
18.15831 133.000
18.17825 131.000
18.19820 145.000
18.21815 151.000
18.23810 163.000
18.25804 131.000
18.27799 139.000
18.29794 131.000
18.31788 112.000
18.33783 92.000
18.35778 100.000
18.37772 89.000
18.39767 71.000
18.41762 61.000
18.43756 85.000
18.45751 84.000
18.47746 64.000
18.49741 66.000
18.51735 98.000
18.53730 86.000
18.55725 58.000
18.57719 78.000
18.59714 75.000
18.61709 63.000
18.63703 78.000
18.65698 79.000
18.67693 64.000
18.69688 57.000
18.71682 74.000
18.73677 68.000
18.75672 64.000
18.77666 72.000
18.79661 82.000
18.81656 62.000
18.83650 74.000
18.85645 77.000
18.87640 83.000
18.89634 70.000
18.91629 77.000
18.93624 93.000
18.95619 60.000
18.97613 81.000
18.99608 82.000
19.01603 68.000
19.03597 71.000
19.05592 73.000
19.07587 88.000
19.09581 64.000
19.11576 82.000
19.13571 89.000
19.15566 79.000
19.17560 53.000
19.19555 82.000
19.21550 78.000
19.23544 68.000
19.25539 69.000
19.27534 58.000
19.29528 63.000
19.31523 68.000
19.33518 71.000
19.35513 72.000
19.37507 76.000
19.39502 69.000
19.41497 88.000
19.43491 69.000
19.45486 65.000
19.47481 83.000
19.49475 75.000
19.51470 62.000
19.53465 84.000
19.55459 68.000
19.57454 73.000
19.59449 63.000
19.61444 66.000
19.63438 77.000
19.65433 70.000
19.67428 76.000
19.69422 81.000
19.71417 69.000
19.73412 74.000
19.75406 76.000
19.77401 78.000
19.79396 75.000
19.81391 72.000
19.83385 73.000
19.85380 73.000
19.87375 91.000
19.89369 70.000
19.91364 62.000
19.93359 73.000
19.95353 81.000
19.97348 89.000
19.99343 64.000
20.01337 76.000
20.03332 58.000
20.05327 88.000
20.07322 75.000
20.09316 84.000
20.11311 72.000
20.13306 85.000
20.15300 70.000
20.17295 90.000
20.19290 72.000
20.21284 85.000
20.23279 76.000
20.25274 85.000
20.27269 79.000
20.29263 95.000
20.31258 70.000
20.33253 71.000
20.35247 87.000
20.37242 81.000
20.39237 82.000
20.41231 76.000
20.43226 89.000
20.45221 100.000
20.47215 98.000
20.49210 106.000
20.51205 97.000
20.53200 108.000
20.55194 93.000
20.57189 111.000
20.59184 129.000
20.61178 146.000
20.63173 147.000
20.65168 164.000
20.67162 168.000
20.69157 174.000
20.71152 171.000
20.73147 143.000
20.75141 147.000
20.77136 171.000
20.79131 155.000
20.81125 160.000
20.83120 139.000
20.85115 140.000
20.87109 122.000
20.89104 127.000
20.91099 111.000
20.93094 83.000
20.95088 91.000
20.97083 92.000
20.99078 67.000
21.01072 75.000
21.03067 94.000
21.05062 81.000
21.07056 83.000
21.09051 64.000
21.11046 71.000
21.13040 62.000
21.15035 69.000
21.17030 68.000
21.19025 74.000
21.21019 72.000
21.23014 65.000
21.25009 84.000
21.27003 81.000
21.28998 79.000
21.30993 80.000
21.32987 55.000
21.34982 64.000
21.36977 73.000
21.38972 68.000
21.40966 67.000
21.42961 62.000
21.44956 81.000
21.46950 56.000
21.48945 65.000
21.50940 68.000
21.52934 79.000
21.54929 84.000
21.56924 99.000
21.58918 77.000
21.60913 85.000
21.62908 71.000
21.64903 72.000
21.66897 74.000
21.68892 70.000
21.70887 65.000
21.72881 76.000
21.74876 66.000
21.76871 83.000
21.78865 87.000
21.80860 75.000
21.82855 59.000
21.84850 69.000
21.86844 73.000
21.88839 78.000
21.90834 70.000
21.92828 80.000
21.94823 82.000
21.96818 72.000
21.98812 63.000
22.00807 66.000
22.02802 78.000
22.04796 82.000
22.06791 66.000
22.08786 77.000
22.10781 58.000
22.12775 73.000
22.14770 73.000
22.16765 81.000
22.18759 90.000
22.20754 77.000
22.22749 66.000
22.24743 77.000
22.26738 80.000
22.28733 65.000
22.30728 91.000
22.32722 81.000
22.34717 69.000
22.36712 60.000
22.38706 72.000
22.40701 80.000
22.42696 85.000
22.44690 73.000
22.46685 69.000
22.48680 73.000
22.50675 55.000
22.52669 101.000
22.54664 95.000
22.56659 68.000
22.58653 83.000
22.60648 83.000
22.62643 76.000
22.64637 60.000
22.66632 60.000
22.68627 79.000
22.70621 90.000
22.72616 62.000
22.74611 82.000
22.76606 73.000
22.78600 74.000
22.80595 86.000
22.82590 62.000
22.84584 67.000
22.86579 82.000
22.88574 80.000
22.90568 61.000
22.92563 70.000
22.94558 82.000
22.96553 71.000
22.98547 87.000
23.00542 73.000
23.02537 75.000
23.04531 69.000
23.06526 63.000
23.08521 61.000
23.10515 51.000
23.12510 84.000
23.14505 65.000
23.16499 83.000
23.18494 79.000
23.20489 72.000
23.22484 70.000
23.24478 69.000
23.26473 54.000
23.28468 82.000
23.30462 76.000
23.32457 74.000
23.34452 81.000
23.36446 72.000
23.38441 86.000
23.40436 73.000
23.42431 62.000
23.44425 61.000
23.46420 87.000
23.48415 58.000
23.50409 78.000
23.52404 85.000
23.54399 74.000
23.56393 65.000
23.58388 91.000
23.60383 84.000
23.62377 59.000
23.64372 78.000
23.66367 72.000
23.68362 69.000
23.70356 65.000
23.72351 80.000
23.74346 76.000
23.76340 76.000
23.78335 61.000
23.80330 72.000
23.82324 73.000
23.84319 68.000
23.86314 84.000
23.88309 83.000
23.90303 80.000
23.92298 87.000
23.94293 70.000
23.96287 69.000
23.98282 67.000
24.00277 72.000
24.02271 68.000
24.04266 69.000
24.06261 70.000
24.08256 73.000
24.10250 72.000
24.12245 67.000
24.14240 72.000
24.16234 64.000
24.18229 80.000
24.20224 77.000
24.22218 80.000
24.24213 74.000
24.26208 82.000
24.28202 70.000
24.30197 70.000
24.32192 72.000
24.34187 67.000
24.36181 80.000
24.38176 70.000
24.40171 90.000
24.42165 91.000
24.44160 76.000
24.46155 83.000
24.48149 54.000
24.50144 86.000
24.52139 73.000
24.54134 89.000
24.56128 75.000
24.58123 93.000
24.60118 104.000
24.62112 79.000
24.64107 76.000
24.66102 68.000
24.68096 91.000
24.70091 65.000
24.72086 74.000
24.74080 97.000
24.76075 68.000
24.78070 62.000
24.80065 75.000
24.82059 78.000
24.84054 76.000
24.86049 78.000
24.88043 74.000
24.90038 80.000
24.92033 82.000
24.94027 81.000
24.96022 90.000
24.98017 71.000
25.00012 93.000
25.02006 78.000
25.04001 83.000
25.05996 72.000
25.07990 81.000
25.09985 58.000
25.11980 72.000
25.13974 83.000
25.15969 61.000
25.17964 86.000
25.19958 77.000
25.21953 59.000
25.23948 75.000
25.25943 83.000
25.27937 72.000
25.29932 79.000
25.31927 88.000
25.33921 86.000
25.35916 70.000
25.37911 79.000
25.39905 77.000
25.41900 79.000
25.43895 78.000
25.45890 68.000
25.47884 84.000
25.49879 59.000
25.51874 98.000
25.53868 79.000
25.55863 81.000
25.57858 66.000
25.59852 90.000
25.61847 61.000
25.63842 60.000
25.65837 83.000
25.67831 74.000
25.69826 73.000
25.71821 66.000
25.73815 76.000
25.75810 74.000
25.77805 73.000
25.79799 56.000
25.81794 61.000
25.83789 72.000
25.85783 61.000
25.87778 79.000
25.89773 68.000
25.91768 66.000
25.93762 76.000
25.95757 78.000
25.97752 76.000
25.99746 74.000
26.01741 65.000
26.03736 78.000
26.05730 94.000
26.07725 79.000
26.09720 65.000
26.11715 83.000
26.13709 76.000
26.15704 78.000
26.17699 80.000
26.19693 74.000
26.21688 60.000
26.23683 69.000
26.25677 81.000
26.27672 70.000
26.29667 60.000
26.31661 88.000
26.33656 71.000
26.35651 65.000
26.37646 89.000
26.39640 82.000
26.41635 77.000
26.43630 79.000
26.45624 83.000
26.47619 80.000
26.49614 77.000
26.51608 72.000
26.53603 74.000
26.55598 78.000
26.57593 90.000
26.59587 85.000
26.61582 75.000
26.63577 66.000
26.65571 69.000
26.67566 88.000
26.69561 84.000
26.71555 69.000
26.73550 79.000
26.75545 73.000
26.77539 80.000
26.79534 80.000
26.81529 95.000
26.83524 70.000
26.85518 96.000
26.87513 72.000
26.89508 81.000
26.91502 80.000
26.93497 84.000
26.95492 71.000
26.97486 64.000
26.99481 78.000
27.01476 73.000
27.03471 82.000
27.05465 84.000
27.07460 67.000
27.09455 73.000
27.11449 74.000
27.13444 83.000
27.15439 83.000
27.17433 79.000
27.19428 79.000
27.21423 82.000
27.23417 94.000
27.25412 85.000
27.27407 71.000
27.29402 75.000
27.31396 91.000
27.33391 80.000
27.35386 85.000
27.37380 74.000
27.39375 69.000
27.41370 80.000
27.43364 76.000
27.45359 80.000
27.47354 85.000
27.49349 89.000
27.51343 69.000
27.53338 86.000
27.55333 82.000
27.57327 85.000
27.59322 68.000
27.61317 81.000
27.63311 98.000
27.65306 90.000
27.67301 74.000
27.69296 74.000
27.71290 73.000
27.73285 87.000
27.75280 94.000
27.77274 96.000
27.79269 93.000
27.81264 70.000
27.83258 87.000
27.85253 88.000
27.87248 70.000
27.89242 65.000
27.91237 71.000
27.93232 87.000
27.95227 80.000
27.97221 69.000
27.99216 63.000
28.01211 88.000
28.03205 83.000
28.05200 74.000
28.07195 81.000
28.09189 72.000
28.11184 79.000
28.13179 90.000
28.15174 78.000
28.17168 71.000
28.19163 78.000
28.21158 65.000
28.23152 82.000
28.25147 72.000
28.27142 78.000
28.29136 91.000
28.31131 86.000
28.33126 73.000
28.35120 78.000
28.37115 77.000
28.39110 83.000
28.41105 82.000
28.43099 68.000
28.45094 72.000
28.47089 81.000
28.49083 69.000
28.51078 88.000
28.53073 61.000
28.55067 76.000
28.57062 83.000
28.59057 89.000
28.61052 70.000
28.63046 88.000
28.65041 88.000
28.67036 85.000
28.69030 83.000
28.71025 75.000
28.73020 78.000
28.75014 72.000
28.77009 83.000
28.79004 79.000
28.80998 87.000
28.82993 80.000
28.84988 66.000
28.86983 91.000
28.88977 84.000
28.90972 87.000
28.92967 100.000
28.94961 91.000
28.96956 99.000
28.98951 114.000
29.00945 109.000
29.02940 101.000
29.04935 117.000
29.06930 103.000
29.08924 112.000
29.10919 110.000
29.12914 128.000
29.14908 125.000
29.16903 124.000
29.18898 122.000
29.20892 136.000
29.22887 105.000
29.24882 110.000
29.26877 131.000
29.28871 105.000
29.30866 96.000
29.32861 104.000
29.34855 96.000
29.36850 97.000
29.38845 83.000
29.40839 86.000
29.42834 99.000
29.44829 82.000
29.46823 79.000
29.48818 82.000
29.50813 95.000
29.52808 105.000
29.54802 97.000
29.56797 85.000
29.58792 88.000
29.60786 96.000
29.62781 85.000
29.64776 102.000
29.66770 90.000
29.68765 79.000
29.70760 96.000
29.72755 92.000
29.74749 97.000
29.76744 102.000
29.78739 103.000
29.80733 123.000
29.82728 125.000
29.84723 116.000
29.86717 143.000
29.88712 141.000
29.90707 137.000
29.92701 177.000
29.94696 175.000
29.96691 196.000
29.98686 212.000
30.00680 247.000
30.02675 298.000
30.04670 261.000
30.06664 357.000
30.08659 380.000
30.10654 379.000
30.12648 378.000
30.14643 401.000
30.16638 339.000
30.18633 308.000
30.20627 269.000
30.22622 226.000
30.24617 203.000
30.26611 160.000
30.28606 133.000
30.30601 134.000
30.32595 108.000
30.34590 98.000
30.36585 99.000
30.38579 72.000
30.40574 69.000
30.42569 81.000
30.44564 73.000
30.46558 95.000
30.48553 83.000
30.50548 92.000
30.52542 86.000
30.54537 84.000
30.56532 79.000
30.58526 91.000
30.60521 94.000
30.62516 74.000
30.64511 77.000
30.66505 96.000
30.68500 95.000
30.70495 103.000
30.72489 93.000
30.74484 81.000
30.76479 83.000
30.78473 81.000
30.80468 66.000
30.82463 101.000
30.84458 82.000
30.86452 84.000
30.88447 77.000
30.90442 78.000
30.92436 96.000
30.94431 74.000
30.96426 74.000
30.98420 74.000
31.00415 73.000
31.02410 91.000
31.04404 84.000
31.06399 84.000
31.08394 75.000
31.10389 72.000
31.12383 73.000
31.14378 87.000
31.16373 77.000
31.18367 101.000
31.20362 71.000
31.22357 93.000
31.24351 88.000
31.26346 91.000
31.28341 90.000
31.30336 72.000
31.32330 89.000
31.34325 82.000
31.36320 84.000
31.38314 83.000
31.40309 85.000
31.42304 80.000
31.44298 98.000
31.46293 84.000
31.48288 88.000
31.50282 81.000
31.52277 131.000
31.54272 120.000
31.56267 123.000
31.58261 126.000
31.60256 129.000
31.62251 137.000
31.64245 127.000
31.66240 155.000
31.68235 155.000
31.70229 173.000
31.72224 191.000
31.74219 196.000
31.76214 188.000
31.78208 254.000
31.80203 244.000
31.82198 227.000
31.84192 280.000
31.86187 251.000
31.88182 269.000
31.90176 221.000
31.92171 214.000
31.94166 201.000
31.96160 184.000
31.98155 168.000
32.00150 141.000
32.02145 126.000
32.04139 131.000
32.06134 103.000
32.08129 109.000
32.10123 100.000
32.12118 99.000
32.14113 105.000
32.16107 106.000
32.18102 87.000
32.20097 80.000
32.22092 87.000
32.24086 92.000
32.26081 79.000
32.28076 83.000
32.30070 82.000
32.32065 80.000
32.34060 77.000
32.36054 90.000
32.38049 83.000
32.40044 85.000
32.42039 71.000
32.44033 96.000
32.46028 79.000
32.48023 76.000
32.50017 86.000
32.52012 73.000
32.54007 75.000
32.56001 67.000
32.57996 74.000
32.59991 69.000
32.61985 78.000
32.63980 85.000
32.65975 81.000
32.67970 70.000
32.69964 85.000
32.71959 76.000
32.73954 75.000
32.75948 87.000
32.77943 60.000
32.79938 79.000
32.81932 87.000
32.83927 90.000
32.85922 62.000
32.87917 81.000
32.89911 63.000
32.91906 80.000
32.93901 81.000
32.95895 87.000
32.97890 82.000
32.99885 68.000
33.01879 100.000
33.03874 80.000
33.05869 73.000
33.07863 93.000
33.09858 91.000
33.11853 90.000
33.13848 84.000
33.15842 76.000
33.17837 76.000
33.19832 75.000
33.21826 78.000
33.23821 72.000
33.25816 80.000
33.27810 76.000
33.29805 72.000
33.31800 66.000
33.33795 80.000
33.35789 82.000
33.37784 81.000
33.39779 78.000
33.41773 90.000
33.43768 89.000
33.45763 85.000
33.47757 84.000
33.49752 69.000
33.51747 82.000
33.53741 75.000
33.55736 68.000
33.57731 88.000
33.59726 71.000
33.61720 83.000
33.63715 83.000
33.65710 89.000
33.67704 67.000
33.69699 86.000
33.71694 83.000
33.73688 89.000
33.75683 91.000
33.77678 96.000
33.79673 98.000
33.81667 101.000
33.83662 72.000
33.85657 92.000
33.87651 81.000
33.89646 97.000
33.91641 90.000
33.93635 106.000
33.95630 97.000
33.97625 111.000
33.99620 132.000
34.01614 105.000
34.03609 99.000
34.05604 128.000
34.07598 128.000
34.09593 133.000
34.11588 139.000
34.13582 134.000
34.15577 139.000
34.17572 167.000
34.19566 156.000
34.21561 163.000
34.23556 157.000
34.25551 136.000
34.27545 188.000
34.29540 169.000
34.31535 190.000
34.33529 164.000
34.35524 164.000
34.37519 162.000
34.39513 192.000
34.41508 162.000
34.43503 180.000
34.45498 154.000
34.47492 156.000
34.49487 145.000
34.51482 140.000
34.53476 130.000
34.55471 163.000
34.57466 133.000
34.59460 132.000
34.61455 121.000
34.63450 106.000
34.65444 111.000
34.67439 130.000
34.69434 122.000
34.71429 124.000
34.73423 116.000
34.75418 122.000
34.77413 110.000
34.79407 106.000
34.81402 113.000
34.83397 89.000
34.85391 88.000
34.87386 93.000
34.89381 112.000
34.91376 104.000
34.93370 103.000
34.95365 95.000
34.97360 74.000
34.99354 108.000
35.01349 116.000
35.03344 120.000
35.05338 107.000
35.07333 120.000
35.09328 131.000
35.11322 136.000
35.13317 186.000
35.15312 159.000
35.17307 212.000
35.19301 235.000
35.21296 252.000
35.23291 278.000
35.25285 293.000
35.27280 400.000
35.29275 409.000
35.31269 463.000
35.33264 530.000
35.35259 646.000
35.37254 717.000
35.39248 804.000
35.41243 946.000
35.43238 1129.000
35.45232 1303.000
35.47227 1392.000
35.49222 1444.000
35.51216 1431.000
35.53211 1425.000
35.55206 1286.000
35.57201 1176.000
35.59195 1105.000
35.61190 911.000
35.63185 761.000
35.65179 644.000
35.67174 517.000
35.69169 401.000
35.71163 335.000
35.73158 234.000
35.75153 252.000
35.77147 180.000
35.79142 152.000
35.81137 171.000
35.83132 139.000
35.85126 116.000
35.87121 113.000
35.89116 112.000
35.91110 96.000
35.93105 94.000
35.95100 120.000
35.97094 108.000
35.99089 107.000
36.01084 113.000
36.03079 120.000
36.05073 91.000
36.07068 120.000
36.09063 88.000
36.11057 97.000
36.13052 96.000
36.15047 108.000
36.17041 107.000
36.19036 100.000
36.21031 107.000
36.23025 100.000
36.25020 99.000
36.27015 96.000
36.29010 94.000
36.31004 83.000
36.32999 99.000
36.34994 106.000
36.36988 103.000
36.38983 108.000
36.40978 100.000
36.42972 102.000
36.44967 110.000
36.46962 98.000
36.48957 111.000
36.50951 114.000
36.52946 91.000
36.54941 105.000
36.56935 117.000
36.58930 108.000
36.60925 106.000
36.62919 96.000
36.64914 90.000
36.66909 113.000
36.68903 100.000
36.70898 99.000
36.72893 119.000
36.74888 104.000
36.76882 130.000
36.78877 137.000
36.80872 132.000
36.82866 146.000
36.84861 154.000
36.86856 172.000
36.88850 153.000
36.90845 166.000
36.92840 195.000
36.94835 205.000
36.96829 214.000
36.98824 234.000
37.00819 289.000
37.02813 293.000
37.04808 341.000
37.06803 351.000
37.08797 321.000
37.10792 310.000
37.12787 320.000
37.14781 298.000
37.16776 276.000
37.18771 264.000
37.20766 221.000
37.22760 169.000
37.24755 160.000
37.26750 150.000
37.28744 116.000
37.30739 95.000
37.32734 111.000
37.34728 83.000
37.36723 89.000
37.38718 83.000
37.40713 84.000
37.42707 65.000
37.44702 80.000
37.46697 66.000
37.48691 63.000
37.50686 72.000
37.52681 81.000
37.54675 81.000
37.56670 62.000
37.58665 62.000
37.60660 65.000
37.62654 71.000
37.64649 90.000
37.66644 79.000
37.68638 79.000
37.70633 74.000
37.72628 74.000
37.74622 82.000
37.76617 90.000
37.78612 66.000
37.80606 80.000
37.82601 85.000
37.84596 78.000
37.86591 80.000
37.88585 69.000
37.90580 68.000
37.92575 66.000
37.94569 87.000
37.96564 85.000
37.98559 85.000
38.00553 65.000
38.02548 78.000
38.04543 65.000
38.06538 74.000
38.08532 97.000
38.10527 72.000
38.12522 92.000
38.14516 57.000
38.16511 66.000
38.18506 66.000
38.20500 57.000
38.22495 80.000
38.24490 63.000
38.26484 89.000
38.28479 61.000
38.30474 78.000
38.32469 72.000
38.34463 85.000
38.36458 82.000
38.38453 77.000
38.40447 73.000
38.42442 70.000
38.44437 85.000
38.46431 80.000
38.48426 79.000
38.50421 78.000
38.52416 77.000
38.54410 101.000
38.56405 91.000
38.58400 95.000
38.60394 79.000
38.62389 75.000
38.64384 103.000
38.66378 92.000
38.68373 115.000
38.70368 118.000
38.72362 121.000
38.74357 155.000
38.76352 146.000
38.78347 153.000
38.80341 185.000
38.82336 209.000
38.84331 191.000
38.86325 235.000
38.88320 265.000
38.90315 268.000
38.92309 301.000
38.94304 374.000
38.96299 442.000
38.98294 460.000
39.00288 522.000
39.02283 569.000
39.04278 615.000
39.06272 652.000
39.08267 667.000
39.10262 663.000
39.12256 691.000
39.14251 661.000
39.16246 619.000
39.18241 596.000
39.20235 511.000
39.22230 456.000
39.24225 432.000
39.26219 384.000
39.28214 347.000
39.30209 293.000
39.32203 232.000
39.34198 214.000
39.36193 182.000
39.38187 173.000
39.40182 134.000
39.42177 110.000
39.44172 125.000
39.46166 100.000
39.48161 97.000
39.50156 100.000
39.52150 90.000
39.54145 85.000
39.56140 101.000
39.58134 89.000
39.60129 100.000
39.62124 85.000
39.64119 82.000
39.66113 76.000
39.68108 86.000
39.70103 71.000
39.72097 64.000
39.74092 65.000
39.76087 75.000
39.78081 71.000
39.80076 100.000
39.82071 76.000
39.84065 88.000
39.86060 77.000
39.88055 91.000
39.90050 68.000
39.92044 90.000
39.94039 91.000
39.96034 82.000
39.98028 76.000
40.00023 86.000
40.02018 73.000
40.04012 74.000
40.06007 69.000
40.08002 82.000
40.09997 62.000
40.11991 76.000
40.13986 70.000
40.15981 61.000
40.17975 78.000
40.19970 76.000
40.21965 68.000
40.23959 72.000
40.25954 66.000
40.27949 87.000
40.29943 73.000
40.31938 92.000
40.33933 75.000
40.35928 81.000
40.37922 73.000
40.39917 83.000
40.41912 83.000
40.43906 61.000
40.45901 72.000
40.47896 65.000
40.49890 64.000
40.51885 69.000
40.53880 61.000
40.55875 72.000
40.57869 65.000
40.59864 89.000
40.61859 79.000
40.63853 68.000
40.65848 79.000
40.67843 69.000
40.69837 77.000
40.71832 75.000
40.73827 60.000
40.75822 63.000
40.77816 69.000
40.79811 65.000
40.81806 72.000
40.83800 85.000
40.85795 73.000
40.87790 63.000
40.89784 86.000
40.91779 62.000
40.93774 79.000
40.95768 76.000
40.97763 80.000
40.99758 74.000
41.01753 80.000
41.03747 65.000
41.05742 60.000
41.07737 67.000
41.09731 77.000
41.11726 65.000
41.13721 60.000
41.15715 59.000
41.17710 77.000
41.19705 76.000
41.21700 63.000
41.23694 75.000
41.25689 74.000
41.27684 68.000
41.29678 72.000
41.31673 64.000
41.33668 61.000
41.35662 79.000
41.37657 72.000
41.39652 83.000
41.41646 65.000
41.43641 78.000
41.45636 63.000
41.47631 68.000
41.49625 88.000
41.51620 81.000
41.53615 76.000
41.55609 93.000
41.57604 79.000
41.59599 90.000
41.61593 72.000
41.63588 63.000
41.65583 73.000
41.67578 73.000
41.69572 77.000
41.71567 83.000
41.73562 86.000
41.75556 68.000
41.77551 78.000
41.79546 65.000
41.81540 86.000
41.83535 74.000
41.85530 63.000
41.87524 73.000
41.89519 68.000
41.91514 59.000
41.93509 63.000
41.95503 58.000
41.97498 67.000
41.99493 74.000
42.01487 69.000
42.03482 90.000
42.05477 63.000
42.07471 86.000
42.09466 85.000
42.11461 71.000
42.13456 81.000
42.15450 71.000
42.17445 60.000
42.19440 65.000
42.21434 68.000
42.23429 79.000
42.25424 76.000
42.27418 74.000
42.29413 77.000
42.31408 79.000
42.33403 73.000
42.35397 91.000
42.37392 56.000
42.39387 73.000
42.41381 84.000
42.43376 74.000
42.45371 68.000
42.47365 85.000
42.49360 68.000
42.51355 91.000
42.53349 63.000
42.55344 81.000
42.57339 106.000
42.59334 77.000
42.61328 101.000
42.63323 81.000
42.65318 84.000
42.67312 112.000
42.69307 113.000
42.71302 88.000
42.73296 84.000
42.75291 94.000
42.77286 127.000
42.79281 124.000
42.81275 147.000
42.83270 141.000
42.85265 167.000
42.87259 208.000
42.89254 207.000
42.91249 218.000
42.93243 256.000
42.95238 285.000
42.97233 372.000
42.99227 355.000
43.01222 399.000
43.03217 478.000
43.05212 563.000
43.07206 642.000
43.09201 697.000
43.11196 717.000
43.13190 755.000
43.15185 715.000
43.17180 817.000
43.19174 831.000
43.21169 741.000
43.23164 749.000
43.25159 633.000
43.27153 630.000
43.29148 524.000
43.31143 456.000
43.33137 438.000
43.35132 355.000
43.37127 361.000
43.39121 298.000
43.41116 235.000
43.43111 207.000
43.45105 191.000
43.47100 163.000
43.49095 113.000
43.51090 133.000
43.53084 112.000
43.55079 98.000
43.57074 96.000
43.59068 108.000
43.61063 94.000
43.63058 92.000
43.65052 72.000
43.67047 81.000
43.69042 92.000
43.71037 74.000
43.73031 58.000
43.75026 63.000
43.77021 84.000
43.79015 77.000
43.81010 66.000
43.83005 72.000
43.84999 90.000
43.86994 62.000
43.88989 89.000
43.90984 56.000
43.92978 73.000
43.94973 74.000
43.96968 75.000
43.98962 73.000
44.00957 82.000
44.02952 75.000
44.04946 91.000
44.06941 66.000
44.08936 73.000
44.10930 68.000
44.12925 73.000
44.14920 67.000
44.16915 63.000
44.18909 65.000
44.20904 66.000
44.22899 89.000
44.24893 87.000
44.26888 79.000
44.28883 62.000
44.30877 75.000
44.32872 73.000
44.34867 59.000
44.36862 55.000
44.38856 67.000
44.40851 74.000
44.42846 70.000
44.44840 67.000
44.46835 77.000
44.48830 68.000
44.50824 62.000
44.52819 70.000
44.54814 73.000
44.56808 71.000
44.58803 74.000
44.60798 82.000
44.62793 72.000
44.64787 78.000
44.66782 69.000
44.68777 86.000
44.70771 68.000
44.72766 57.000
44.74761 76.000
44.76755 49.000
44.78750 79.000
44.80745 85.000
44.82740 65.000
44.84734 75.000
44.86729 76.000
44.88724 72.000
44.90718 71.000
44.92713 65.000
44.94708 70.000
44.96702 69.000
44.98697 61.000
45.00692 55.000
45.02686 74.000
45.04681 86.000
45.06676 70.000
45.08671 77.000
45.10665 71.000
45.12660 61.000
45.14655 63.000
45.16649 61.000
45.18644 70.000
45.20639 61.000
45.22633 59.000
45.24628 61.000
45.26623 67.000
45.28618 68.000
45.30612 68.000
45.32607 72.000
45.34602 66.000
45.36596 67.000
45.38591 83.000
45.40586 57.000
45.42580 69.000
45.44575 58.000
45.46570 73.000
45.48565 78.000
45.50559 79.000
45.52554 55.000
45.54549 68.000
45.56543 74.000
45.58538 75.000
45.60533 72.000
45.62527 90.000
45.64522 67.000
45.66517 65.000
45.68511 67.000
45.70506 94.000
45.72501 68.000
45.74496 87.000
45.76490 77.000
45.78485 70.000
45.80480 67.000
45.82474 65.000
45.84469 80.000
45.86464 63.000
45.88458 78.000
45.90453 73.000
45.92448 66.000
45.94443 50.000
45.96437 55.000
45.98432 90.000
46.00427 63.000
46.02421 74.000
46.04416 61.000
46.06411 61.000
46.08405 61.000
46.10400 59.000
46.12395 72.000
46.14389 70.000
46.16384 65.000
46.18379 49.000
46.20374 47.000
46.22368 70.000
46.24363 61.000
46.26358 59.000
46.28352 59.000
46.30347 76.000
46.32342 66.000
46.34336 58.000
46.36331 53.000
46.38326 79.000
46.40321 73.000
46.42315 51.000
46.44310 70.000
46.46305 58.000
46.48299 88.000
46.50294 77.000
46.52289 48.000
46.54283 69.000
46.56278 66.000
46.58273 58.000
46.60267 84.000
46.62262 55.000
46.64257 60.000
46.66252 72.000
46.68246 75.000
46.70241 55.000
46.72236 59.000
46.74230 63.000
46.76225 72.000
46.78220 67.000
46.80214 66.000
46.82209 74.000
46.84204 72.000
46.86199 84.000
46.88193 80.000
46.90188 61.000
46.92183 68.000
46.94177 68.000
46.96172 57.000
46.98167 61.000
47.00161 68.000
47.02156 66.000
47.04151 60.000
47.06146 67.000
47.08140 70.000
47.10135 71.000
47.12130 73.000
47.14124 84.000
47.16119 68.000
47.18114 70.000
47.20108 94.000
47.22103 79.000
47.24098 55.000
47.26092 87.000
47.28087 77.000
47.30082 62.000
47.32077 71.000
47.34071 87.000
47.36066 69.000
47.38061 77.000
47.40055 63.000
47.42050 72.000
47.44045 69.000
47.46039 72.000
47.48034 81.000
47.50029 60.000
47.52024 74.000
47.54018 80.000
47.56013 85.000
47.58008 69.000
47.60002 64.000
47.61997 84.000
47.63992 77.000
47.65986 82.000
47.67981 77.000
47.69976 69.000
47.71970 74.000
47.73965 78.000
47.75960 75.000
47.77955 93.000
47.79949 93.000
47.81944 96.000
47.83939 97.000
47.85933 96.000
47.87928 64.000
47.89923 79.000
47.91917 83.000
47.93912 81.000
47.95907 83.000
47.97902 97.000
47.99896 96.000
48.01891 100.000
48.03886 83.000
48.05880 92.000
48.07875 106.000
48.09870 97.000
48.11864 109.000
48.13859 107.000
48.15854 119.000
48.17848 128.000
48.19843 127.000
48.21838 131.000
48.23833 132.000
48.25827 174.000
48.27822 191.000
48.29817 208.000
48.31811 208.000
48.33806 271.000
48.35801 295.000
48.37795 305.000
48.39790 348.000
48.41785 406.000
48.43780 417.000
48.45774 479.000
48.47769 540.000
48.49764 619.000
48.51758 643.000
48.53753 628.000
48.55748 588.000
48.57742 657.000
48.59737 630.000
48.61732 595.000
48.63726 577.000
48.65721 491.000
48.67716 450.000
48.69711 388.000
48.71705 321.000
48.73700 311.000
48.75695 295.000
48.77689 240.000
48.79684 208.000
48.81679 163.000
48.83673 159.000
48.85668 127.000
48.87663 109.000
48.89658 118.000
48.91652 116.000
48.93647 101.000
48.95642 88.000
48.97636 92.000
48.99631 73.000
49.01626 95.000
49.03620 99.000
49.05615 79.000
49.07610 72.000
49.09605 71.000
49.11599 92.000
49.13594 76.000
49.15589 68.000
49.17583 76.000
49.19578 85.000
49.21573 64.000
49.23567 76.000
49.25562 89.000
49.27557 79.000
49.29551 84.000
49.31546 84.000
49.33541 92.000
49.35536 68.000
49.37530 88.000
49.39525 87.000
49.41520 92.000
49.43514 102.000
49.45509 79.000
49.47504 75.000
49.49498 89.000
49.51493 80.000
49.53488 80.000
49.55483 76.000
49.57477 81.000
49.59472 65.000
49.61467 80.000
49.63461 71.000
49.65456 80.000
49.67451 74.000
49.69445 83.000
49.71440 83.000
49.73435 71.000
49.75429 83.000
49.77424 61.000
49.79419 62.000
49.81414 74.000
49.83408 88.000
49.85403 69.000
49.87398 53.000
49.89392 86.000
49.91387 64.000
49.93382 78.000
49.95376 63.000
49.97371 65.000
49.99366 73.000
50.01361 74.000
50.03355 59.000
50.05350 70.000
50.07345 74.000
50.09339 79.000
50.11334 65.000
50.13329 67.000
50.15323 56.000
50.17318 60.000
50.19313 69.000
50.21307 73.000
50.23302 74.000
50.25297 68.000
50.27292 58.000
50.29286 61.000
50.31281 73.000
50.33276 68.000
50.35270 66.000
50.37265 69.000
50.39260 61.000
50.41254 71.000
50.43249 64.000
50.45244 67.000
50.47239 63.000
50.49233 62.000
50.51228 75.000
50.53223 65.000
50.55217 53.000
50.57212 57.000
50.59207 65.000
50.61201 72.000
50.63196 71.000
50.65191 57.000
50.67186 67.000
50.69180 61.000
50.71175 56.000
50.73170 65.000
50.75164 77.000
50.77159 79.000
50.79154 77.000
50.81148 73.000
50.83143 68.000
50.85138 68.000
50.87132 69.000
50.89127 80.000
50.91122 76.000
50.93117 53.000
50.95111 65.000
50.97106 70.000
50.99101 63.000
51.01095 55.000
51.03090 63.000
51.05085 67.000
51.07079 74.000
51.09074 70.000
51.11069 58.000
51.13064 69.000
51.15058 59.000
51.17053 63.000
51.19048 74.000
51.21042 69.000
51.23037 67.000
51.25032 62.000
51.27026 64.000
51.29021 78.000
51.31016 59.000
51.33010 68.000
51.35005 76.000
51.37000 77.000
51.38995 67.000
51.40989 71.000
51.42984 73.000
51.44979 60.000
51.46973 64.000
51.48968 62.000
51.50963 56.000
51.52957 73.000
51.54952 69.000
51.56947 61.000
51.58942 68.000
51.60936 75.000
51.62931 76.000
51.64926 69.000
51.66920 76.000
51.68915 84.000
51.70910 90.000
51.72904 72.000
51.74899 67.000
51.76894 79.000
51.78888 70.000
51.80883 77.000
51.82878 78.000
51.84873 87.000
51.86867 71.000
51.88862 106.000
51.90857 94.000
51.92851 77.000
51.94846 67.000
51.96841 82.000
51.98835 88.000
52.00830 77.000
52.02825 93.000
52.04820 71.000
52.06814 77.000
52.08809 69.000
52.10804 74.000
52.12798 67.000
52.14793 77.000
52.16788 63.000
52.18782 76.000
52.20777 70.000
52.22772 60.000
52.24767 77.000
52.26761 67.000
52.28756 82.000
52.30751 67.000
52.32745 57.000
52.34740 69.000
52.36735 61.000
52.38729 68.000
52.40724 50.000
52.42719 63.000
52.44713 77.000
52.46708 62.000
52.48703 70.000
52.50698 79.000
52.52692 61.000
52.54687 55.000
52.56682 54.000
52.58676 59.000
52.60671 74.000
52.62666 69.000
52.64660 61.000
52.66655 69.000
52.68650 78.000
52.70645 60.000
52.72639 85.000
52.74634 60.000
52.76629 72.000
52.78623 60.000
52.80618 53.000
52.82613 66.000
52.84607 67.000
52.86602 63.000
52.88597 76.000
52.90591 62.000
52.92586 52.000
52.94581 73.000
52.96576 68.000
52.98570 78.000
53.00565 67.000
53.02560 63.000
53.04554 68.000
53.06549 79.000
53.08544 68.000
53.10538 84.000
53.12533 66.000
53.14528 63.000
53.16523 75.000
53.18517 67.000
53.20512 53.000
53.22507 76.000
53.24501 58.000
53.26496 58.000
53.28491 69.000
53.30485 65.000
53.32480 69.000
53.34475 80.000
53.36469 87.000
53.38464 92.000
53.40459 76.000
53.42454 91.000
53.44448 99.000
53.46443 82.000
53.48438 109.000
53.50432 96.000
53.52427 96.000
53.54422 140.000
53.56416 112.000
53.58411 146.000
53.60406 160.000
53.62401 163.000
53.64395 160.000
53.66390 169.000
53.68385 151.000
53.70379 126.000
53.72374 143.000
53.74369 159.000
53.76363 139.000
53.78358 149.000
53.80353 133.000
53.82348 122.000
53.84342 130.000
53.86337 96.000
53.88332 87.000
53.90326 93.000
53.92321 88.000
53.94316 64.000
53.96310 77.000
53.98305 85.000
54.00300 61.000
54.02294 69.000
54.04289 72.000
54.06284 74.000
54.08279 78.000
54.10273 69.000
54.12268 73.000
54.14263 72.000
54.16257 67.000
54.18252 68.000
54.20247 66.000
54.22241 68.000
54.24236 66.000
54.26231 60.000
54.28226 63.000
54.30220 68.000
54.32215 67.000
54.34210 78.000
54.36204 76.000
54.38199 70.000
54.40194 66.000
54.42188 60.000
54.44183 66.000
54.46178 78.000
54.48172 75.000
54.50167 69.000
54.52162 63.000
54.54157 68.000
54.56151 81.000
54.58146 65.000
54.60141 70.000
54.62135 54.000
54.64130 68.000
54.66125 63.000
54.68119 59.000
54.70114 59.000
54.72109 74.000
54.74104 78.000
54.76098 61.000
54.78093 59.000
54.80088 68.000
54.82082 78.000
54.84077 66.000
54.86072 67.000
54.88066 70.000
54.90061 65.000
54.92056 62.000
54.94050 51.000
54.96045 54.000
54.98040 64.000
55.00035 74.000
55.02029 84.000
55.04024 78.000
55.06019 67.000
55.08013 70.000
55.10008 59.000
55.12003 64.000
55.13997 85.000
55.15992 55.000
55.17987 51.000
55.19982 61.000
55.21976 73.000
55.23971 53.000
55.25966 78.000
55.27960 79.000
55.29955 59.000
55.31950 71.000
55.33944 70.000
55.35939 65.000
55.37934 62.000
55.39929 56.000
55.41923 80.000
55.43918 68.000
55.45913 68.000
55.47907 73.000
55.49902 72.000
55.51897 69.000
55.53891 68.000
55.55886 68.000
55.57881 78.000
55.59875 74.000
55.61870 71.000
55.63865 81.000
55.65860 64.000
55.67854 69.000
55.69849 62.000
55.71844 68.000
55.73838 71.000
55.75833 63.000
55.77828 63.000
55.79822 71.000
55.81817 64.000
55.83812 69.000
55.85807 75.000
55.87801 68.000
55.89796 70.000
55.91791 69.000
55.93785 59.000
55.95780 70.000
55.97775 63.000
55.99769 62.000
56.01764 67.000
56.03759 69.000
56.05753 70.000
56.07748 65.000
56.09743 54.000
56.11738 74.000
56.13732 72.000
56.15727 61.000
56.17722 78.000
56.19716 95.000
56.21711 64.000
56.23706 61.000
56.25700 70.000
56.27695 73.000
56.29690 65.000
56.31685 57.000
56.33679 61.000
56.35674 71.000
56.37669 64.000
56.39663 72.000
56.41658 76.000
56.43653 68.000
56.45647 72.000
56.47642 77.000
56.49637 77.000
56.51631 86.000
56.53626 73.000
56.55621 73.000
56.57616 62.000
56.59610 77.000
56.61605 75.000
56.63600 69.000
56.65594 78.000
56.67589 79.000
56.69584 55.000
56.71578 85.000
56.73573 56.000
56.75568 69.000
56.77563 66.000
56.79557 90.000
56.81552 67.000
56.83547 71.000
56.85541 83.000
56.87536 97.000
56.89531 98.000
56.91525 97.000
56.93520 113.000
56.95515 112.000
56.97510 139.000
56.99504 133.000
57.01499 162.000
57.03494 155.000
57.05488 169.000
57.07483 221.000
57.09478 197.000
57.11472 270.000
57.13467 277.000
57.15462 343.000
57.17456 352.000
57.19451 383.000
57.21446 357.000
57.23441 375.000
57.25435 371.000
57.27430 314.000
57.29425 340.000
57.31419 314.000
57.33414 316.000
57.35409 330.000
57.37403 247.000
57.39398 232.000
57.41393 217.000
57.43388 186.000
57.45382 169.000
57.47377 140.000
57.49372 137.000
57.51366 116.000
57.53361 102.000
57.55356 106.000
57.57350 84.000
57.59345 67.000
57.61340 97.000
57.63334 86.000
57.65329 75.000
57.67324 74.000
57.69319 65.000
57.71313 76.000
57.73308 69.000
57.75303 61.000
57.77297 63.000
57.79292 75.000
57.81287 75.000
57.83281 71.000
57.85276 62.000
57.87271 64.000
57.89266 60.000
57.91260 88.000
57.93255 52.000
57.95250 58.000
57.97244 74.000
57.99239 65.000
58.01234 73.000
58.03228 80.000
58.05223 52.000
58.07218 58.000
58.09212 67.000
58.11207 64.000
58.13202 76.000
58.15197 72.000
58.17191 64.000
58.19186 72.000
58.21181 56.000
58.23175 58.000
58.25170 77.000
58.27165 65.000
58.29159 80.000
58.31154 64.000
58.33149 77.000
58.35144 70.000
58.37138 84.000
58.39133 72.000
58.41128 77.000
58.43122 74.000
58.45117 71.000
58.47112 63.000
58.49106 66.000
58.51101 64.000
58.53096 74.000
58.55090 70.000
58.57085 59.000
58.59080 62.000
58.61075 65.000
58.63069 58.000
58.65064 76.000
58.67059 62.000
58.69053 67.000
58.71048 61.000
58.73043 69.000
58.75037 57.000
58.77032 63.000
58.79027 73.000
58.81022 70.000
58.83016 54.000
58.85011 84.000
58.87006 68.000
58.89000 75.000
58.90995 63.000
58.92990 56.000
58.94984 66.000
58.96979 61.000
58.98974 82.000
59.00969 48.000
59.02963 72.000
59.04958 62.000
59.06953 81.000
59.08947 79.000
59.10942 86.000
59.12937 69.000
59.14931 75.000
59.16926 61.000
59.18921 56.000
59.20915 81.000
59.22910 70.000
59.24905 69.000
59.26900 66.000
59.28894 75.000
59.30889 70.000
59.32884 64.000
59.34878 74.000
59.36873 62.000
59.38868 85.000
59.40862 68.000
59.42857 57.000
59.44852 57.000
59.46847 65.000
59.48841 72.000
59.50836 87.000
59.52831 73.000
59.54825 78.000
59.56820 74.000
59.58815 67.000
59.60809 67.000
59.62804 63.000
59.64799 79.000
59.66793 46.000
59.68788 79.000
59.70783 65.000
59.72778 69.000
59.74772 46.000
59.76767 69.000
59.78762 58.000
59.80756 62.000
59.82751 62.000
59.84746 90.000
59.86740 67.000
59.88735 65.000
59.90730 57.000
59.92725 69.000
59.94719 67.000
59.96714 77.000
59.98709 70.000
60.00703 63.000
60.02698 71.000
60.04693 58.000
60.06687 68.000
60.08682 66.000
60.10677 80.000
60.12671 88.000
60.14666 75.000
60.16661 65.000
60.18656 70.000
60.20650 72.000
60.22645 74.000
60.24640 90.000
60.26634 68.000
60.28629 58.000
60.30624 79.000
60.32618 69.000
60.34613 73.000
60.36608 60.000
60.38603 69.000
60.40597 73.000
60.42592 67.000
60.44587 79.000
60.46581 74.000
60.48576 47.000
60.50571 69.000
60.52565 78.000
60.54560 70.000
60.56555 67.000
60.58550 68.000
60.60544 77.000
60.62539 72.000
60.64534 73.000
60.66528 75.000
60.68523 72.000
60.70518 71.000
60.72512 76.000
60.74507 68.000
60.76502 86.000
60.78496 86.000
60.80491 68.000
60.82486 69.000
60.84481 74.000
60.86475 61.000
60.88470 74.000
60.90465 77.000
60.92459 76.000
60.94454 63.000
60.96449 75.000
60.98443 69.000
61.00438 66.000
61.02433 61.000
61.04428 72.000
61.06422 85.000
61.08417 98.000
61.10412 74.000
61.12406 61.000
61.14401 69.000
61.16396 89.000
61.18390 73.000
61.20385 75.000
61.22380 84.000
61.24374 70.000
61.26369 80.000
61.28364 69.000
61.30359 91.000
61.32353 85.000
61.34348 91.000
61.36343 100.000
61.38337 90.000
61.40332 98.000
61.42327 81.000
61.44321 90.000
61.46316 116.000
61.48311 113.000
61.50306 115.000
61.52300 106.000
61.54295 115.000
61.56290 136.000
61.58284 146.000
61.60279 155.000
61.62274 169.000
61.64268 195.000
61.66263 192.000
61.68258 201.000
61.70252 220.000
61.72247 231.000
61.74242 234.000
61.76237 269.000
61.78231 293.000
61.80226 319.000
61.82221 320.000
61.84215 321.000
61.86210 330.000
61.88205 345.000
61.90199 316.000
61.92194 288.000
61.94189 294.000
61.96184 262.000
61.98178 279.000
62.00173 242.000
62.02168 233.000
62.04162 258.000
62.06157 212.000
62.08152 209.000
62.10146 160.000
62.12141 152.000
62.14136 157.000
62.16131 155.000
62.18125 99.000
62.20120 105.000
62.22115 107.000
62.24109 109.000
62.26104 105.000
62.28099 110.000
62.30093 86.000
62.32088 93.000
62.34083 93.000
62.36077 94.000
62.38072 91.000
62.40067 128.000
62.42062 101.000
62.44056 117.000
62.46051 123.000
62.48046 124.000
62.50040 124.000
62.52035 125.000
62.54030 160.000
62.56024 172.000
62.58019 195.000
62.60014 208.000
62.62009 254.000
62.64003 323.000
62.65998 303.000
62.67993 341.000
62.69987 364.000
62.71982 409.000
62.73977 438.000
62.75971 436.000
62.77966 439.000
62.79961 491.000
62.81955 562.000
62.83950 549.000
62.85945 607.000
62.87940 508.000
62.89934 553.000
62.91929 523.000
62.93924 432.000
62.95918 434.000
62.97913 364.000
62.99908 368.000
63.01902 339.000
63.03897 324.000
63.05892 309.000
63.07887 272.000
63.09881 232.000
63.11876 169.000
63.13871 163.000
63.15865 156.000
63.17860 130.000
63.19855 118.000
63.21849 114.000
63.23844 93.000
63.25839 105.000
63.27833 102.000
63.29828 95.000
63.31823 102.000
63.33818 94.000
63.35812 60.000
63.37807 78.000
63.39802 82.000
63.41796 97.000
63.43791 76.000
63.45786 79.000
63.47780 77.000
63.49775 94.000
63.51770 87.000
63.53765 100.000
63.55759 99.000
63.57754 91.000
63.59749 118.000
63.61743 115.000
63.63738 114.000
63.65733 93.000
63.67727 114.000
63.69722 125.000
63.71717 150.000
63.73712 149.000
63.75706 162.000
63.77701 184.000
63.79696 183.000
63.81690 168.000
63.83685 180.000
63.85680 201.000
63.87674 218.000
63.89669 198.000
63.91664 208.000
63.93658 196.000
63.95653 227.000
63.97648 208.000
63.99643 234.000
64.01637 174.000
64.03632 205.000
64.05627 196.000
64.07621 187.000
64.09616 200.000
64.11611 190.000
64.13605 181.000
64.15600 209.000
64.17595 184.000
64.19590 166.000
64.21584 176.000
64.23579 173.000
64.25574 166.000
64.27568 147.000
64.29563 143.000
64.31558 119.000
64.33552 143.000
64.35547 107.000
64.37542 112.000
64.39536 95.000
64.41531 96.000
64.43526 96.000
64.45521 95.000
64.47515 94.000
64.49510 64.000
64.51505 64.000
64.53499 80.000
64.55494 84.000
64.57489 64.000
64.59483 102.000
64.61478 70.000
64.63473 68.000
64.65468 69.000
64.67462 84.000
64.69457 76.000
64.71452 83.000
64.73446 82.000
64.75441 75.000
64.77436 83.000
64.79430 63.000
64.81425 76.000
64.83420 70.000
64.85414 64.000
64.87409 72.000
64.89404 65.000
64.91399 68.000
64.93393 64.000
64.95388 68.000
64.97383 77.000
64.99377 73.000
65.01372 61.000
65.03367 75.000
65.05361 68.000
65.07356 73.000
65.09351 73.000
65.11346 72.000
65.13340 64.000
65.15335 63.000
65.17330 78.000
65.19324 89.000
65.21319 75.000
65.23314 75.000
65.25308 75.000
65.27303 78.000
65.29298 89.000
65.31293 76.000
65.33287 79.000
65.35282 71.000
65.37277 74.000
65.39271 77.000
65.41266 80.000
65.43261 70.000
65.45255 90.000
65.47250 81.000
65.49245 83.000
65.51239 76.000
65.53234 85.000
65.55229 90.000
65.57224 83.000
65.59218 69.000
65.61213 76.000
65.63208 89.000
65.65202 79.000
65.67197 68.000
65.69192 75.000
65.71186 91.000
65.73181 62.000
65.75176 80.000
65.77171 92.000
65.79165 88.000
65.81160 70.000
65.83155 78.000
65.85149 88.000
65.87144 88.000
65.89139 87.000
65.91133 86.000
65.93128 85.000
65.95123 94.000
65.97117 86.000
65.99112 95.000
66.01107 106.000
66.03102 123.000
66.05096 102.000
66.07091 108.000
66.09086 115.000
66.11080 114.000
66.13075 115.000
66.15070 137.000
66.17064 129.000
66.19059 149.000
66.21054 150.000
66.23049 142.000
66.25043 142.000
66.27038 153.000
66.29033 169.000
66.31027 168.000
66.33022 165.000
66.35017 158.000
66.37011 166.000
66.39006 176.000
66.41001 170.000
66.42995 174.000
66.44990 179.000
66.46985 155.000
66.48980 149.000
66.50974 140.000
66.52969 140.000
66.54964 155.000
66.56958 154.000
66.58953 156.000
66.60948 138.000
66.62942 139.000
66.64937 141.000
66.66932 126.000
66.68927 129.000
66.70921 120.000
66.72916 118.000
66.74911 121.000
66.76905 109.000
66.78900 144.000
66.80895 116.000
66.82889 123.000
66.84884 116.000
66.86879 112.000
66.88874 112.000
66.90868 120.000
66.92863 97.000
66.94858 87.000
66.96852 85.000
66.98847 91.000
67.00842 100.000
67.02836 93.000
67.04831 101.000
67.06826 81.000
67.08820 64.000
67.10815 73.000
67.12810 78.000
67.14805 73.000
67.16799 72.000
67.18794 84.000
67.20789 68.000
67.22783 80.000
67.24778 69.000
67.26773 67.000
67.28767 70.000
67.30762 81.000
67.32757 59.000
67.34752 64.000
67.36746 72.000
67.38741 67.000
67.40736 58.000
67.42730 56.000
67.44725 66.000
67.46720 78.000
67.48714 63.000
67.50709 60.000
67.52704 55.000
67.54698 60.000
67.56693 70.000
67.58688 55.000
67.60683 61.000
67.62677 73.000
67.64672 61.000
67.66667 54.000
67.68661 61.000
67.70656 66.000
67.72651 82.000
67.74645 62.000
67.76640 61.000
67.78635 53.000
67.80630 63.000
67.82624 68.000
67.84619 62.000
67.86614 75.000
67.88608 73.000
67.90603 66.000
67.92598 72.000
67.94592 53.000
67.96587 54.000
67.98582 59.000
68.00576 58.000
68.02571 78.000
68.04566 61.000
68.06561 54.000
68.08555 59.000
68.10550 70.000
68.12545 70.000
68.14539 65.000
68.16534 75.000
68.18529 78.000
68.20523 61.000
68.22518 60.000
68.24513 64.000
68.26508 46.000
68.28502 59.000
68.30497 71.000
68.32492 64.000
68.34486 53.000
68.36481 66.000
68.38476 62.000
68.40470 60.000
68.42465 70.000
68.44460 52.000
68.46455 65.000
68.48449 68.000
68.50444 62.000
68.52439 74.000
68.54433 73.000
68.56428 64.000
68.58423 48.000
68.60417 79.000
68.62412 62.000
68.64407 60.000
68.66401 70.000
68.68396 60.000
68.70391 69.000
68.72386 64.000
68.74380 62.000
68.76375 49.000
68.78370 56.000
68.80364 58.000
68.82359 70.000
68.84354 71.000
68.86348 60.000
68.88343 64.000
68.90338 76.000
68.92333 60.000
68.94327 65.000
68.96322 70.000
68.98317 71.000
69.00311 58.000
69.02306 56.000
69.04301 56.000
69.06295 66.000
69.08290 55.000
69.10285 63.000
69.12279 68.000
69.14274 74.000
69.16269 52.000
69.18264 69.000
69.20258 66.000
69.22253 56.000
69.24248 56.000
69.26242 61.000
69.28237 66.000
69.30232 64.000
69.32226 68.000
69.34221 64.000
69.36216 58.000
69.38211 50.000
69.40205 73.000
69.42200 74.000
69.44195 66.000
69.46189 59.000
69.48184 62.000
69.50179 66.000
69.52173 47.000
69.54168 67.000
69.56163 66.000
69.58157 63.000
69.60152 74.000
69.62147 63.000
69.64142 65.000
69.66136 75.000
69.68131 74.000
69.70126 57.000
69.72120 53.000
69.74115 63.000
69.76110 62.000
69.78104 63.000
69.80099 73.000
69.82094 68.000
69.84089 74.000
69.86083 76.000
69.88078 66.000
69.90073 69.000
69.92067 67.000
69.94062 67.000
69.96057 56.000
69.98051 68.000
70.00046 65.000
70.02041 62.000
70.04035 75.000
70.06030 65.000
70.08025 67.000
70.10020 69.000
70.12014 58.000
70.14009 48.000
70.16004 66.000
70.17998 58.000
70.19993 55.000
70.21988 71.000
70.23982 65.000
70.25977 52.000
70.27972 68.000
70.29967 68.000
70.31961 62.000
70.33956 63.000
70.35951 72.000
70.37945 64.000
70.39940 71.000
70.41935 70.000
70.43929 49.000
70.45924 61.000
70.47919 60.000
70.49914 67.000
70.51908 72.000
70.53903 75.000
70.55898 69.000
70.57892 62.000
70.59887 64.000
70.61882 63.000
70.63876 58.000
70.65871 61.000
70.67866 54.000
70.69860 65.000
70.71855 80.000
70.73850 56.000
70.75845 68.000
70.77839 71.000
70.79834 58.000
70.81829 60.000
70.83823 48.000
70.85818 71.000
70.87813 76.000
70.89807 47.000
70.91802 62.000
70.93797 82.000
70.95792 62.000
70.97786 61.000
70.99781 68.000
71.01776 59.000
71.03770 68.000
71.05765 69.000
71.07760 58.000
71.09754 50.000
71.11749 75.000
71.13744 70.000
71.15738 78.000
71.17733 78.000
71.19728 71.000
71.21723 77.000
71.23717 66.000
71.25712 91.000
71.27707 83.000
71.29701 73.000
71.31696 85.000
71.33691 102.000
71.35685 100.000
71.37680 93.000
71.39675 86.000
71.41670 80.000
71.43664 85.000
71.45659 95.000
71.47654 88.000
71.49648 77.000
71.51643 84.000
71.53638 77.000
71.55632 81.000
71.57627 83.000
71.59622 73.000
71.61616 79.000
71.63611 85.000
71.65606 52.000
71.67601 74.000
71.69595 65.000
71.71590 90.000
71.73585 70.000
71.75579 70.000
71.77574 60.000
71.79569 89.000
71.81563 57.000
71.83558 58.000
71.85553 62.000
71.87548 69.000
71.89542 75.000
71.91537 62.000
71.93532 66.000
71.95526 60.000
71.97521 60.000
71.99516 69.000
72.01510 72.000
72.03505 68.000
72.05500 81.000
72.07495 58.000
72.09489 71.000
72.11484 73.000
72.13479 71.000
72.15473 53.000
72.17468 83.000
72.19463 63.000
72.21457 69.000
72.23452 51.000
72.25447 64.000
72.27441 58.000
72.29436 70.000
72.31431 55.000
72.33426 62.000
72.35420 56.000
72.37415 61.000
72.39410 69.000
72.41404 68.000
72.43399 81.000
72.45394 57.000
72.47388 77.000
72.49383 80.000
72.51378 69.000
72.53373 61.000
72.55367 65.000
72.57362 72.000
72.59357 68.000
72.61351 82.000
72.63346 71.000
72.65341 63.000
72.67335 70.000
72.69330 93.000
72.71325 71.000
72.73319 73.000
72.75314 82.000
72.77309 59.000
72.79304 59.000
72.81298 69.000
72.83293 62.000
72.85288 58.000
72.87282 66.000
72.89277 66.000
72.91272 58.000
72.93266 88.000
72.95261 64.000
72.97256 69.000
72.99251 87.000
73.01245 65.000
73.03240 78.000
73.05235 80.000
73.07229 90.000
73.09224 96.000
73.11219 92.000
73.13213 78.000
73.15208 85.000
73.17203 99.000
73.19197 109.000
73.21192 95.000
73.23187 97.000
73.25182 111.000
73.27176 111.000
73.29171 123.000
73.31166 90.000
73.33160 127.000
73.35155 123.000
73.37150 117.000
73.39144 110.000
73.41139 98.000
73.43134 111.000
73.45129 125.000
73.47123 133.000
73.49118 114.000
73.51113 115.000
73.53107 108.000
73.55102 117.000
73.57097 95.000
73.59091 86.000
73.61086 87.000
73.63081 74.000
73.65076 77.000
73.67070 95.000
73.69065 82.000
73.71060 84.000
73.73054 82.000
73.75049 84.000
73.77044 84.000
73.79038 74.000
73.81033 70.000
73.83028 81.000
73.85022 68.000
73.87017 58.000
73.89012 78.000
73.91007 72.000
73.93001 85.000
73.94996 70.000
73.96991 61.000
73.98985 70.000
74.00980 66.000
74.02975 63.000
74.04969 56.000
74.06964 60.000
74.08959 83.000
74.10954 69.000
74.12948 69.000
74.14943 86.000
74.16938 65.000
74.18932 78.000
74.20927 85.000
74.22922 82.000
74.24916 98.000
74.26911 103.000
74.28906 95.000
74.30900 110.000
74.32895 125.000
74.34890 118.000
74.36885 124.000
74.38879 130.000
74.40874 157.000
74.42869 124.000
74.44863 157.000
74.46858 129.000
74.48853 141.000
74.50847 132.000
74.52842 132.000
74.54837 94.000
74.56832 107.000
74.58826 117.000
74.60821 99.000
74.62816 117.000
74.64810 110.000
74.66805 100.000
74.68800 89.000
74.70794 103.000
74.72789 82.000
74.74784 87.000
74.76778 83.000
74.78773 75.000
74.80768 65.000
74.82763 85.000
74.84757 67.000
74.86752 68.000
74.88747 56.000
74.90741 66.000
74.92736 83.000
74.94731 74.000
74.96725 67.000
74.98720 88.000
75.00715 63.000
75.02710 100.000
75.04704 88.000
75.06699 92.000
75.08694 92.000
75.10688 91.000
75.12683 100.000
75.14678 82.000
75.16672 134.000
75.18667 128.000
75.20662 122.000
75.22657 126.000
75.24651 130.000
75.26646 138.000
75.28641 134.000
75.30635 163.000
75.32630 132.000
75.34625 154.000
75.36619 123.000
75.38614 132.000
75.40609 153.000
75.42603 141.000
75.44598 146.000
75.46593 134.000
75.48588 137.000
75.50582 122.000
75.52577 121.000
75.54572 127.000
75.56566 116.000
75.58561 117.000
75.60556 95.000
75.62550 104.000
75.64545 106.000
75.66540 97.000
75.68535 104.000
75.70529 100.000
75.72524 94.000
75.74519 107.000
75.76513 114.000
75.78508 96.000
75.80503 90.000
75.82497 79.000
75.84492 91.000
75.86487 66.000
75.88481 73.000
75.90476 76.000
75.92471 84.000
75.94466 64.000
75.96460 80.000
75.98455 75.000
76.00450 78.000
76.02444 70.000
76.04439 64.000
76.06434 62.000
76.08428 57.000
76.10423 67.000
76.12418 46.000
76.14413 57.000
76.16407 71.000
76.18402 52.000
76.20397 75.000
76.22391 53.000
76.24386 65.000
76.26381 65.000
76.28375 78.000
76.30370 70.000
76.32365 71.000
76.34359 72.000
76.36354 57.000
76.38349 72.000
76.40344 77.000
76.42338 63.000
76.44333 72.000
76.46328 62.000
76.48322 61.000
76.50317 63.000
76.52312 66.000
76.54306 68.000
76.56301 65.000
76.58296 68.000
76.60291 61.000
76.62285 59.000
76.64280 65.000
76.66275 58.000
76.68269 66.000
76.70264 53.000
76.72259 59.000
76.74253 77.000
76.76248 83.000
76.78243 68.000
76.80238 57.000
76.82232 62.000
76.84227 59.000
76.86222 64.000
76.88216 83.000
76.90211 60.000
76.92206 74.000
76.94200 71.000
76.96195 64.000
76.98190 65.000
77.00184 57.000
77.02179 57.000
77.04174 74.000
77.06169 69.000
77.08163 51.000
77.10158 47.000
77.12153 54.000
77.14147 54.000
77.16142 76.000
77.18137 68.000
77.20131 47.000
77.22126 66.000
77.24121 72.000
77.26116 80.000
77.28110 73.000
77.30105 69.000
77.32100 89.000
77.34094 68.000
77.36089 63.000
77.38084 81.000
77.40078 70.000
77.42073 90.000
77.44068 87.000
77.46062 88.000
77.48057 79.000
77.50052 94.000
77.52047 87.000
77.54041 89.000
77.56036 96.000
77.58031 94.000
77.60025 88.000
77.62020 107.000
77.64015 104.000
77.66009 116.000
77.68004 101.000
77.69999 110.000
77.71994 116.000
77.73988 114.000
77.75983 128.000
77.77978 87.000
77.79972 120.000
77.81967 115.000
77.83962 104.000
77.85956 92.000
77.87951 105.000
77.89946 99.000
77.91940 102.000
77.93935 124.000
77.95930 138.000
77.97925 129.000
77.99919 136.000
78.01914 121.000
78.03909 132.000
78.05903 133.000
78.07898 135.000
78.09893 155.000
78.11887 137.000
78.13882 145.000
78.15877 163.000
78.17872 153.000
78.19866 152.000
78.21861 133.000
78.23856 142.000
78.25850 143.000
78.27845 124.000
78.29840 119.000
78.31834 108.000
78.33829 102.000
78.35824 110.000
78.37819 94.000
78.39813 103.000
78.41808 110.000
78.43803 104.000
78.45797 88.000
78.47792 82.000
78.49787 95.000
78.51781 80.000
78.53776 71.000
78.55771 69.000
78.57765 59.000
78.59760 68.000
78.61755 66.000
78.63750 68.000
78.65744 76.000
78.67739 91.000
78.69734 70.000
78.71728 75.000
78.73723 72.000
78.75718 62.000
78.77712 70.000
78.79707 57.000
78.81702 76.000
78.83697 74.000
78.85691 72.000
78.87686 70.000
78.89681 67.000
78.91675 60.000
78.93670 59.000
78.95665 63.000
78.97659 87.000
78.99654 84.000
79.01649 63.000
79.03643 78.000
79.05638 93.000
79.07633 71.000
79.09628 81.000
79.11622 89.000
79.13617 88.000
79.15612 89.000
79.17606 106.000
79.19601 87.000
79.21596 93.000
79.23590 96.000
79.25585 88.000
79.27580 87.000
79.29575 109.000
79.31569 110.000
79.33564 110.000
79.35559 99.000
79.37553 101.000
79.39548 104.000
79.41543 125.000
79.43537 100.000
79.45532 96.000
79.47527 90.000
79.49521 93.000
79.51516 106.000
79.53511 87.000
79.55506 96.000
79.57500 95.000
79.59495 87.000
79.61490 88.000
79.63484 78.000
79.65479 74.000
79.67474 67.000
79.69468 84.000
79.71463 88.000
79.73458 72.000
79.75453 73.000
79.77447 68.000
79.79442 82.000
79.81437 87.000
79.83431 73.000
79.85426 61.000
79.87421 66.000
79.89415 68.000
79.91410 63.000
79.93405 65.000
79.95399 66.000
79.97394 75.000
79.99389 76.000
80.01384 66.000
80.03378 59.000
80.05373 57.000
80.07368 70.000
80.09362 73.000
80.11357 73.000
80.13352 51.000
80.15346 57.000
80.17341 66.000
80.19336 81.000
80.21331 63.000
80.23325 81.000
80.25320 72.000
80.27315 62.000
80.29309 64.000
80.31304 64.000
80.33299 62.000
80.35293 90.000
80.37288 61.000
80.39283 58.000
80.41278 70.000
80.43272 72.000
80.45267 71.000
80.47262 62.000
80.49256 62.000
80.51251 53.000
80.53246 76.000
80.55240 66.000
80.57235 72.000
80.59230 77.000
80.61224 57.000
80.63219 74.000
80.65214 55.000
80.67209 51.000
80.69203 85.000
80.71198 59.000
80.73193 66.000
80.75187 58.000
80.77182 49.000
80.79177 61.000
80.81171 75.000
80.83166 66.000
80.85161 58.000
80.87156 73.000
80.89150 63.000
80.91145 60.000
80.93140 56.000
80.95134 62.000
80.97129 72.000
80.99124 56.000
81.01118 69.000
81.03113 59.000
81.05108 66.000
81.07102 62.000
81.09097 78.000
81.11092 68.000
81.13087 65.000
81.15081 68.000
81.17076 64.000
81.19071 69.000
81.21065 63.000
81.23060 59.000
81.25055 61.000
81.27049 51.000
81.29044 66.000
81.31039 58.000
81.33034 78.000
81.35028 62.000
81.37023 57.000
81.39018 49.000
81.41012 53.000
81.43007 57.000
81.45002 65.000
81.46996 53.000
81.48991 71.000
81.50986 57.000
81.52980 63.000
81.54975 63.000
81.56970 59.000
81.58965 58.000
81.60959 73.000
81.62954 65.000
81.64949 62.000
81.66943 65.000
81.68938 76.000
81.70933 54.000
81.72927 57.000
81.74922 58.000
81.76917 67.000
81.78912 50.000
81.80906 60.000
81.82901 53.000
81.84896 69.000
81.86890 55.000
81.88885 62.000
81.90880 56.000
81.92874 73.000
81.94869 62.000
81.96864 52.000
81.98859 63.000
82.00853 80.000
82.02848 86.000
82.04843 57.000
82.06837 65.000
82.08832 60.000
82.10827 60.000
82.12821 61.000
82.14816 54.000
82.16811 74.000
82.18805 64.000
82.20800 68.000
82.22795 76.000
82.24790 62.000
82.26784 56.000
82.28779 66.000
82.30774 54.000
82.32768 63.000
82.34763 69.000
82.36758 76.000
82.38752 58.000
82.40747 54.000
82.42742 55.000
82.44737 81.000
82.46731 60.000
82.48726 79.000
82.50721 74.000
82.52715 62.000
82.54710 68.000
82.56705 60.000
82.58699 48.000
82.60694 61.000
82.62689 63.000
82.64683 68.000
82.66678 94.000
82.68673 61.000
82.70668 66.000
82.72662 55.000
82.74657 72.000
82.76652 74.000
82.78646 75.000
82.80641 57.000
82.82636 49.000
82.84630 71.000
82.86625 59.000
82.88620 81.000
82.90615 53.000
82.92609 58.000
82.94604 56.000
82.96599 68.000
82.98593 52.000
83.00588 51.000
83.02583 62.000
83.04577 53.000
83.06572 59.000
83.08567 69.000
83.10561 57.000
83.12556 62.000
83.14551 57.000
83.16546 56.000
83.18540 81.000
83.20535 63.000
83.22530 74.000
83.24524 61.000
83.26519 63.000
83.28514 65.000
83.30508 52.000
83.32503 66.000
83.34498 76.000
83.36493 60.000
83.38487 67.000
83.40482 61.000
83.42477 64.000
83.44471 70.000
83.46466 72.000
83.48461 46.000
83.50455 70.000
83.52450 73.000
83.54445 57.000
83.56440 63.000
83.58434 73.000
83.60429 61.000
83.62424 70.000
83.64418 80.000
83.66413 67.000
83.68408 68.000
83.70402 71.000
83.72397 73.000
83.74392 73.000
83.76386 79.000
83.78381 88.000
83.80376 72.000
83.82371 62.000
83.84365 61.000
83.86360 75.000
83.88355 80.000
83.90349 74.000
83.92344 63.000
83.94339 85.000
83.96333 80.000
83.98328 77.000
84.00323 80.000
84.02318 84.000
84.04312 70.000
84.06307 82.000
84.08302 89.000
84.10296 110.000
84.12291 86.000
84.14286 99.000
84.16280 103.000
84.18275 118.000
84.20270 86.000
84.22264 102.000
84.24259 99.000
84.26254 111.000
84.28249 111.000
84.30243 116.000
84.32238 107.000
84.34233 120.000
84.36227 114.000
84.38222 113.000
84.40217 103.000
84.42211 103.000
84.44206 125.000
84.46201 108.000
84.48196 131.000
84.50190 94.000
84.52185 113.000
84.54180 109.000
84.56174 90.000
84.58169 95.000
84.60164 97.000
84.62158 103.000
84.64153 106.000
84.66148 121.000
84.68142 101.000
84.70137 85.000
84.72132 103.000
84.74127 96.000
84.76121 88.000
84.78116 94.000
84.80111 72.000
84.82105 83.000
84.84100 90.000
84.86095 70.000
84.88089 97.000
84.90084 64.000
84.92079 75.000
84.94074 87.000
84.96068 84.000
84.98063 80.000
85.00058 85.000
85.02052 78.000
85.04047 69.000
85.06042 66.000
85.08036 66.000
85.10031 76.000
85.12026 61.000
85.14021 61.000
85.16015 67.000
85.18010 75.000
85.20005 67.000
85.21999 70.000
85.23994 59.000
85.25989 74.000
85.27983 57.000
85.29978 64.000
85.31973 61.000
85.33967 57.000
85.35962 72.000
85.37957 67.000
85.39952 62.000
85.41946 56.000
85.43941 76.000
85.45936 77.000
85.47930 54.000
85.49925 57.000
85.51920 58.000
85.53914 63.000
85.55909 51.000
85.57904 62.000
85.59899 75.000
85.61893 60.000
85.63888 68.000
85.65883 48.000
85.67877 54.000
85.69872 59.000
85.71867 61.000
85.73861 66.000
85.75856 67.000
85.77851 66.000
85.79845 58.000
85.81840 60.000
85.83835 59.000
85.85830 67.000
85.87824 73.000
85.89819 59.000
85.91814 67.000
85.93808 49.000
85.95803 69.000
85.97798 56.000
85.99792 63.000
86.01787 92.000
86.03782 70.000
86.05777 51.000
86.07771 73.000
86.09766 73.000
86.11761 66.000
86.13755 58.000
86.15750 62.000
86.17745 48.000
86.19739 42.000
86.21734 58.000
86.23729 56.000
86.25723 51.000
86.27718 75.000
86.29713 59.000
86.31708 69.000
86.33702 57.000
86.35697 48.000
86.37692 51.000
86.39686 68.000
86.41681 55.000
86.43676 73.000
86.45670 70.000
86.47665 65.000
86.49660 68.000
86.51655 56.000
86.53649 72.000
86.55644 59.000
86.57639 84.000
86.59633 55.000
86.61628 72.000
86.63623 66.000
86.65617 74.000
86.67612 62.000
86.69607 62.000
86.71602 74.000
86.73596 59.000
86.75591 59.000
86.77586 60.000
86.79580 53.000
86.81575 79.000
86.83570 72.000
86.85564 77.000
86.87559 74.000
86.89554 77.000
86.91548 68.000
86.93543 78.000
86.95538 70.000
86.97533 78.000
86.99527 79.000
87.01522 70.000
87.03517 77.000
87.05511 73.000
87.07506 79.000
87.09501 73.000
87.11495 79.000
87.13490 101.000
87.15485 77.000
87.17480 78.000
87.19474 91.000
87.21469 89.000
87.23464 95.000
87.25458 100.000
87.27453 90.000
87.29448 88.000
87.31442 92.000
87.33437 101.000
87.35432 116.000
87.37426 102.000
87.39421 92.000
87.41416 100.000
87.43411 109.000
87.45405 88.000
87.47400 110.000
87.49395 84.000
87.51389 94.000
87.53384 105.000
87.55379 116.000
87.57373 86.000
87.59368 90.000
87.61363 110.000
87.63358 99.000
87.65352 93.000
87.67347 74.000
87.69342 79.000
87.71336 64.000
87.73331 83.000
87.75326 78.000
87.77320 79.000
87.79315 77.000
87.81310 97.000
87.83304 85.000
87.85299 65.000
87.87294 69.000
87.89289 73.000
87.91283 67.000
87.93278 69.000
87.95273 76.000
87.97267 72.000
87.99262 65.000
88.01257 69.000
88.03251 56.000
88.05246 66.000
88.07241 77.000
88.09236 57.000
88.11230 50.000
88.13225 69.000
88.15220 49.000
88.17214 73.000
88.19209 75.000
88.21204 53.000
88.23198 67.000
88.25193 68.000
88.27188 55.000
88.29183 61.000
88.31177 56.000
88.33172 62.000
88.35167 60.000
88.37161 52.000
88.39156 67.000
88.41151 67.000
88.43145 64.000
88.45140 39.000
88.47135 76.000
88.49129 78.000
88.51124 66.000
88.53119 55.000
88.55114 55.000
88.57108 61.000
88.59103 66.000
88.61098 55.000
88.63092 54.000
88.65087 63.000
88.67082 61.000
88.69076 57.000
88.71071 53.000
88.73066 70.000
88.75061 63.000
88.77055 47.000
88.79050 57.000
88.81045 65.000
88.83039 54.000
88.85034 62.000
88.87029 57.000
88.89023 65.000
88.91018 57.000
88.93013 56.000
88.95007 61.000
88.97002 65.000
88.98997 55.000
89.00992 56.000
89.02986 60.000
89.04981 61.000
89.06976 69.000
89.08970 63.000
89.10965 49.000
89.12960 69.000
89.14954 56.000
89.16949 56.000
89.18944 70.000
89.20939 80.000
89.22933 53.000
89.24928 58.000
89.26923 68.000
89.28917 61.000
89.30912 59.000
89.32907 59.000
89.34901 68.000
89.36896 72.000
89.38891 77.000
89.40885 62.000
89.42880 68.000
89.44875 56.000
89.46870 70.000
89.48864 60.000
89.50859 69.000
89.52854 70.000
89.54848 53.000
89.56843 78.000
89.58838 61.000
89.60832 46.000
89.62827 68.000
89.64822 69.000
89.66817 63.000
89.68811 54.000
89.70806 67.000
89.72801 69.000
89.74795 57.000
89.76790 82.000
89.78785 69.000
89.80779 74.000
89.82774 82.000
89.84769 62.000
89.86764 74.000
89.88758 63.000
89.90753 61.000
89.92748 100.000
89.94742 60.000
89.96737 90.000
89.98732 83.000
90.00726 76.000
