10.00000 272.000
10.01995 268.000
10.03989 249.000
10.05984 286.000
10.07979 254.000
10.09973 256.000
10.11968 285.000
10.13963 257.000
10.15958 273.000
10.17952 286.000
10.19947 311.000
10.21942 281.000
10.23936 287.000
10.25931 265.000
10.27926 243.000
10.29920 267.000
10.31915 264.000
10.33910 248.000
10.35905 282.000
10.37899 284.000
10.39894 287.000
10.41889 257.000
10.43883 267.000
10.45878 248.000
10.47873 264.000
10.49867 287.000
10.51862 267.000
10.53857 271.000
10.55851 264.000
10.57846 301.000
10.59841 259.000
10.61836 297.000
10.63830 256.000
10.65825 253.000
10.67820 274.000
10.69814 278.000
10.71809 302.000
10.73804 271.000
10.75798 268.000
10.77793 283.000
10.79788 266.000
10.81783 270.000
10.83777 260.000
10.85772 256.000
10.87767 257.000
10.89761 281.000
10.91756 263.000
10.93751 251.000
10.95745 223.000
10.97740 286.000
10.99735 271.000
11.01730 266.000
11.03724 269.000
11.05719 264.000
11.07714 284.000
11.09708 277.000
11.11703 277.000
11.13698 256.000
11.15692 256.000
11.17687 293.000
11.19682 270.000
11.21676 278.000
11.23671 262.000
11.25666 281.000
11.27661 278.000
11.29655 295.000
11.31650 284.000
11.33645 285.000
11.35639 255.000
11.37634 244.000
11.39629 291.000
11.41623 260.000
11.43618 262.000
11.45613 255.000
11.47608 239.000
11.49602 248.000
11.51597 253.000
11.53592 319.000
11.55586 223.000
11.57581 257.000
11.59576 277.000
11.61570 268.000
11.63565 293.000
11.65560 296.000
11.67554 259.000
11.69549 275.000
11.71544 294.000
11.73539 307.000
11.75533 273.000
11.77528 243.000
11.79523 235.000
11.81517 275.000
11.83512 267.000
11.85507 269.000
11.87501 265.000
11.89496 275.000
11.91491 264.000
11.93486 243.000
11.95480 281.000
11.97475 259.000
11.99470 275.000
12.01464 271.000
12.03459 276.000
12.05454 235.000
12.07448 264.000
12.09443 247.000
12.11438 274.000
12.13432 269.000
12.15427 263.000
12.17422 259.000
12.19417 255.000
12.21411 260.000
12.23406 307.000
12.25401 267.000
12.27395 290.000
12.29390 271.000
12.31385 273.000
12.33379 315.000
12.35374 280.000
12.37369 276.000
12.39364 275.000
12.41358 284.000
12.43353 243.000
12.45348 267.000
12.47342 261.000
12.49337 295.000
12.51332 277.000
12.53326 276.000
12.55321 295.000
12.57316 296.000
12.59311 321.000
12.61305 270.000
12.63300 247.000
12.65295 254.000
12.67289 301.000
12.69284 288.000
12.71279 285.000
12.73273 272.000
12.75268 260.000
12.77263 280.000
12.79257 254.000
12.81252 261.000
12.83247 284.000
12.85242 272.000
12.87236 289.000
12.89231 275.000
12.91226 281.000
12.93220 304.000
12.95215 261.000
12.97210 285.000
12.99204 311.000
13.01199 261.000
13.03194 258.000
13.05189 264.000
13.07183 272.000
13.09178 285.000
13.11173 283.000
13.13167 253.000
13.15162 299.000
13.17157 246.000
13.19151 302.000
13.21146 279.000
13.23141 278.000
13.25135 274.000
13.27130 264.000
13.29125 285.000
13.31120 290.000
13.33114 260.000
13.35109 281.000
13.37104 256.000
13.39098 274.000
13.41093 277.000
13.43088 241.000
13.45082 262.000
13.47077 278.000
13.49072 282.000
13.51067 273.000
13.53061 314.000
13.55056 296.000
13.57051 248.000
13.59045 299.000
13.61040 287.000
13.63035 254.000
13.65029 288.000
13.67024 321.000
13.69019 267.000
13.71013 274.000
13.73008 268.000
13.75003 294.000
13.76998 285.000
13.78992 258.000
13.80987 265.000
13.82982 272.000
13.84976 304.000
13.86971 314.000
13.88966 296.000
13.90960 300.000
13.92955 260.000
13.94950 291.000
13.96945 305.000
13.98939 278.000
14.00934 258.000
14.02929 298.000
14.04923 269.000
14.06918 288.000
14.08913 279.000
14.10907 258.000
14.12902 259.000
14.14897 244.000
14.16892 260.000
14.18886 274.000
14.20881 293.000
14.22876 268.000
14.24870 307.000
14.26865 283.000
14.28860 282.000
14.30854 302.000
14.32849 279.000
14.34844 253.000
14.36838 268.000
14.38833 281.000
14.40828 284.000
14.42823 280.000
14.44817 296.000
14.46812 260.000
14.48807 283.000
14.50801 294.000
14.52796 268.000
14.54791 285.000
14.56785 253.000
14.58780 280.000
14.60775 314.000
14.62770 325.000
14.64764 311.000
14.66759 274.000
14.68754 281.000
14.70748 347.000
14.72743 278.000
14.74738 249.000
14.76732 271.000
14.78727 268.000
14.80722 282.000
14.82716 285.000
14.84711 293.000
14.86706 285.000
14.88701 294.000
14.90695 291.000
14.92690 298.000
14.94685 309.000
14.96679 314.000
14.98674 304.000
15.00669 309.000
15.02663 324.000
15.04658 332.000
15.06653 305.000
15.08648 271.000
15.10642 281.000
15.12637 326.000
15.14632 299.000
15.16626 353.000
15.18621 289.000
15.20616 370.000
15.22610 310.000
15.24605 313.000
15.26600 315.000
15.28594 337.000
15.30589 330.000
15.32584 310.000
15.34579 356.000
15.36573 349.000
15.38568 333.000
15.40563 324.000
15.42557 360.000
15.44552 354.000
15.46547 383.000
15.48541 361.000
15.50536 341.000
15.52531 387.000
15.54526 385.000
15.56520 386.000
15.58515 432.000
15.60510 412.000
15.62504 499.000
15.64499 457.000
15.66494 565.000
15.68488 598.000
15.70483 639.000
15.72478 738.000
15.74472 932.000
15.76467 1259.000
15.78462 1804.000
15.80457 2621.000
15.82451 4051.000
15.84446 6576.000
15.86441 10020.000
15.88435 12878.000
15.90430 10350.000
15.92425 7308.000
15.94419 4285.000
15.96414 1898.000
15.98409 1149.000
16.00404 872.000
16.02398 684.000
16.04393 615.000
16.06388 538.000
16.08382 510.000
16.10377 495.000
16.12372 424.000
16.14366 441.000
16.16361 401.000
16.18356 398.000
16.20351 384.000
16.22345 389.000
16.24340 367.000
16.26335 362.000
16.28329 370.000
16.30324 378.000
16.32319 326.000
16.34313 325.000
16.36308 345.000
16.38303 345.000
16.40297 331.000
16.42292 312.000
16.44287 313.000
16.46282 301.000
16.48276 331.000
16.50271 303.000
16.52266 308.000
16.54260 330.000
16.56255 283.000
16.58250 298.000
16.60244 297.000
16.62239 295.000
16.64234 293.000
16.66229 308.000
16.68223 286.000
16.70218 339.000
16.72213 319.000
16.74207 332.000
16.76202 351.000
16.78197 312.000
16.80191 364.000
16.82186 426.000
16.84181 497.000
16.86175 525.000
16.88170 511.000
16.90165 479.000
16.92160 438.000
16.94154 366.000
16.96149 340.000
16.98144 256.000
17.00138 297.000
17.02133 288.000
17.04128 302.000
17.06122 327.000
17.08117 279.000
17.10112 302.000
17.12107 314.000
17.14101 260.000
17.16096 265.000
17.18091 303.000
17.20085 266.000
17.22080 263.000
17.24075 290.000
17.26069 305.000
17.28064 312.000
17.30059 298.000
17.32053 268.000
17.34048 270.000
17.36043 295.000
17.38038 250.000
17.40032 309.000
17.42027 286.000
17.44022 278.000
17.46016 275.000
17.48011 272.000
17.50006 257.000
17.52000 285.000
17.53995 269.000
17.55990 290.000
17.57985 308.000
17.59979 310.000
17.61974 284.000
17.63969 252.000
17.65963 297.000
17.67958 258.000
17.69953 291.000
17.71947 253.000
17.73942 272.000
17.75937 280.000
17.77932 276.000
17.79926 262.000
17.81921 253.000
17.83916 292.000
17.85910 318.000
17.87905 303.000
17.89900 287.000
17.91894 270.000
17.93889 303.000
17.95884 295.000
17.97878 294.000
17.99873 285.000
18.01868 281.000
18.03863 311.000
18.05857 286.000
18.07852 296.000
18.09847 284.000
18.11841 269.000
18.13836 300.000
18.15831 259.000
18.17825 276.000
18.19820 275.000
18.21815 294.000
18.23810 274.000
18.25804 275.000
18.27799 327.000
18.29794 267.000
18.31788 280.000
18.33783 300.000
18.35778 278.000
18.37772 268.000
18.39767 317.000
18.41762 273.000
18.43756 284.000
18.45751 311.000
18.47746 271.000
18.49741 284.000
18.51735 311.000
18.53730 298.000
18.55725 330.000
18.57719 271.000
18.59714 290.000
18.61709 295.000
18.63703 268.000
18.65698 265.000
18.67693 271.000
18.69688 256.000
18.71682 266.000
18.73677 297.000
18.75672 283.000
18.77666 275.000
18.79661 300.000
18.81656 274.000
18.83650 275.000
18.85645 303.000
18.87640 279.000
18.89634 309.000
18.91629 298.000
18.93624 271.000
18.95619 244.000
18.97613 300.000
18.99608 297.000
19.01603 295.000
19.03597 287.000
19.05592 330.000
19.07587 310.000
19.09581 271.000
19.11576 293.000
19.13571 281.000
19.15566 283.000
19.17560 296.000
19.19555 296.000
19.21550 298.000
19.23544 313.000
19.25539 276.000
19.27534 286.000
19.29528 297.000
19.31523 259.000
19.33518 270.000
19.35513 302.000
19.37507 283.000
19.39502 306.000
19.41497 259.000
19.43491 288.000
19.45486 294.000
19.47481 314.000
19.49475 282.000
19.51470 309.000
19.53465 281.000
19.55459 258.000
19.57454 266.000
19.59449 253.000
19.61444 333.000
19.63438 279.000
19.65433 277.000
19.67428 309.000
19.69422 273.000
19.71417 273.000
19.73412 314.000
19.75406 328.000
19.77401 287.000
19.79396 273.000
19.81391 277.000
19.83385 281.000
19.85380 272.000
19.87375 267.000
19.89369 287.000
19.91364 298.000
19.93359 289.000
19.95353 284.000
19.97348 280.000
19.99343 296.000
20.01337 288.000
20.03332 295.000
20.05327 290.000
20.07322 307.000
20.09316 304.000
20.11311 306.000
20.13306 291.000
20.15300 280.000
20.17295 256.000
20.19290 273.000
20.21284 237.000
20.23279 284.000
20.25274 285.000
20.27269 277.000
20.29263 264.000
20.31258 290.000
20.33253 287.000
20.35247 273.000
20.37242 295.000
20.39237 290.000
20.41231 304.000
20.43226 310.000
20.45221 304.000
20.47215 291.000
20.49210 314.000
20.51205 315.000
20.53200 292.000
20.55194 315.000
20.57189 275.000
20.59184 307.000
20.61178 275.000
20.63173 339.000
20.65168 336.000
20.67162 278.000
20.69157 312.000
20.71152 284.000
20.73147 266.000
20.75141 277.000
20.77136 276.000
20.79131 329.000
20.81125 308.000
20.83120 290.000
20.85115 303.000
20.87109 284.000
20.89104 291.000
20.91099 309.000
20.93094 288.000
20.95088 308.000
20.97083 295.000
20.99078 291.000
21.01072 313.000
21.03067 315.000
21.05062 341.000
21.07056 405.000
21.09051 425.000
21.11046 486.000
21.13040 519.000
21.15035 514.000
21.17030 514.000
21.19025 480.000
21.21019 421.000
21.23014 376.000
21.25009 355.000
21.27003 273.000
21.28998 326.000
21.30993 309.000
21.32987 291.000
21.34982 329.000
21.36977 298.000
21.38972 293.000
21.40966 307.000
21.42961 291.000
21.44956 281.000
21.46950 282.000
21.48945 279.000
21.50940 278.000
21.52934 251.000
21.54929 307.000
21.56924 281.000
21.58918 289.000
21.60913 273.000
21.62908 286.000
21.64903 297.000
21.66897 280.000
21.68892 303.000
21.70887 273.000
21.72881 265.000
21.74876 289.000
21.76871 336.000
21.78865 292.000
21.80860 306.000
21.82855 266.000
21.84850 292.000
21.86844 289.000
21.88839 305.000
21.90834 327.000
21.92828 274.000
21.94823 315.000
21.96818 259.000
21.98812 303.000
22.00807 301.000
22.02802 317.000
22.04796 277.000
22.06791 318.000
22.08786 300.000
22.10781 288.000
22.12775 257.000
22.14770 306.000
22.16765 288.000
22.18759 294.000
22.20754 295.000
22.22749 311.000
22.24743 279.000
22.26738 298.000
22.28733 278.000
22.30728 291.000
22.32722 292.000
22.34717 296.000
22.36712 290.000
22.38706 299.000
22.40701 266.000
22.42696 308.000
22.44690 321.000
22.46685 279.000
22.48680 290.000
22.50675 270.000
22.52669 293.000
22.54664 312.000
22.56659 304.000
22.58653 301.000
22.60648 309.000
22.62643 291.000
22.64637 276.000
22.66632 286.000
22.68627 309.000
22.70621 332.000
22.72616 287.000
22.74611 285.000
22.76606 265.000
22.78600 265.000
22.80595 296.000
22.82590 317.000
22.84584 310.000
22.86579 271.000
22.88574 292.000
22.90568 294.000
22.92563 303.000
22.94558 300.000
22.96553 288.000
22.98547 327.000
23.00542 297.000
23.02537 318.000
23.04531 290.000
23.06526 333.000
23.08521 303.000
23.10515 298.000
23.12510 349.000
23.14505 316.000
23.16499 288.000
23.18494 332.000
23.20489 293.000
23.22484 310.000
23.24478 300.000
23.26473 292.000
23.28468 286.000
23.30462 277.000
23.32457 284.000
23.34452 267.000
23.36446 282.000
23.38441 276.000
23.40436 289.000
23.42431 295.000
23.44425 284.000
23.46420 327.000
23.48415 306.000
23.50409 302.000
23.52404 295.000
23.54399 293.000
23.56393 296.000
23.58388 268.000
23.60383 305.000
23.62377 300.000
23.64372 316.000
23.66367 303.000
23.68362 317.000
23.70356 275.000
23.72351 279.000
23.74346 295.000
23.76340 273.000
23.78335 288.000
23.80330 294.000
23.82324 298.000
23.84319 296.000
23.86314 289.000
23.88309 324.000
23.90303 251.000
23.92298 288.000
23.94293 315.000
23.96287 290.000
23.98282 322.000
24.00277 283.000
24.02271 306.000
24.04266 286.000
24.06261 260.000
24.08256 300.000
24.10250 291.000
24.12245 286.000
24.14240 279.000
24.16234 320.000
24.18229 301.000
24.20224 328.000
24.22218 306.000
24.24213 317.000
24.26208 296.000
24.28202 308.000
24.30197 302.000
24.32192 296.000
24.34187 286.000
24.36181 319.000
24.38176 294.000
24.40171 314.000
24.42165 295.000
24.44160 281.000
24.46155 275.000
24.48149 282.000
24.50144 337.000
24.52139 308.000
24.54134 288.000
24.56128 307.000
24.58123 282.000
24.60118 295.000
24.62112 306.000
24.64107 291.000
24.66102 278.000
24.68096 298.000
24.70091 298.000
24.72086 299.000
24.74080 324.000
24.76075 297.000
24.78070 342.000
24.80065 322.000
24.82059 327.000
24.84054 293.000
24.86049 294.000
24.88043 315.000
24.90038 303.000
24.92033 352.000
24.94027 319.000
24.96022 332.000
24.98017 344.000
25.00012 361.000
25.02006 432.000
25.04001 410.000
25.05996 393.000
25.07990 377.000
25.09985 378.000
25.11980 340.000
25.13974 334.000
25.15969 300.000
25.17964 300.000
25.19958 296.000
25.21953 295.000
25.23948 291.000
25.25943 305.000
25.27937 306.000
25.29932 293.000
25.31927 321.000
25.33921 297.000
25.35916 284.000
25.37911 297.000
25.39905 287.000
25.41900 320.000
25.43895 325.000
25.45890 282.000
25.47884 299.000
25.49879 276.000
25.51874 297.000
25.53868 301.000
25.55863 309.000
25.57858 332.000
25.59852 275.000
25.61847 289.000
25.63842 322.000
25.65837 282.000
25.67831 280.000
25.69826 297.000
25.71821 327.000
25.73815 280.000
25.75810 301.000
25.77805 327.000
25.79799 310.000
25.81794 317.000
25.83789 315.000
25.85783 293.000
25.87778 277.000
25.89773 299.000
25.91768 286.000
25.93762 352.000
25.95757 311.000
25.97752 312.000
25.99746 292.000
26.01741 322.000
26.03736 310.000
26.05730 322.000
26.07725 327.000
26.09720 298.000
26.11715 292.000
26.13709 298.000
26.15704 316.000
26.17699 312.000
26.19693 292.000
26.21688 345.000
26.23683 320.000
26.25677 302.000
26.27672 306.000
26.29667 318.000
26.31661 262.000
26.33656 310.000
26.35651 304.000
26.37646 322.000
26.39640 278.000
26.41635 321.000
26.43630 296.000
26.45624 329.000
26.47619 297.000
26.49614 329.000
26.51608 327.000
26.53603 306.000
26.55598 326.000
26.57593 313.000
26.59587 321.000
26.61582 298.000
26.63577 299.000
26.65571 323.000
26.67566 331.000
26.69561 327.000
26.71555 328.000
26.73550 296.000
26.75545 289.000
26.77539 331.000
26.79534 329.000
26.81529 304.000
26.83524 288.000
26.85518 327.000
26.87513 332.000
26.89508 288.000
26.91502 322.000
26.93497 324.000
26.95492 332.000
26.97486 311.000
26.99481 303.000
27.01476 320.000
27.03471 335.000
27.05465 311.000
27.07460 326.000
27.09455 326.000
27.11449 324.000
27.13444 346.000
27.15439 328.000
27.17433 335.000
27.19428 348.000
27.21423 356.000
27.23417 363.000
27.25412 398.000
27.27407 348.000
27.29402 341.000
27.31396 334.000
27.33391 331.000
27.35386 296.000
27.37380 324.000
27.39375 298.000
27.41370 329.000
27.43364 332.000
27.45359 311.000
27.47354 296.000
27.49349 319.000
27.51343 314.000
27.53338 300.000
27.55333 328.000
27.57327 308.000
27.59322 322.000
27.61317 305.000
27.63311 329.000
27.65306 317.000
27.67301 305.000
27.69296 301.000
27.71290 305.000
27.73285 305.000
27.75280 299.000
27.77274 345.000
27.79269 310.000
27.81264 325.000
27.83258 316.000
27.85253 300.000
27.87248 329.000
27.89242 305.000
27.91237 280.000
27.93232 301.000
27.95227 294.000
27.97221 354.000
27.99216 329.000
28.01211 303.000
28.03205 311.000
28.05200 357.000
28.07195 322.000
28.09189 299.000
28.11184 291.000
28.13179 351.000
28.15174 299.000
28.17168 346.000
28.19163 305.000
28.21158 348.000
28.23152 324.000
28.25147 348.000
28.27142 305.000
28.29136 303.000
28.31131 323.000
28.33126 337.000
28.35120 347.000
28.37115 361.000
28.39110 377.000
28.41105 373.000
28.43099 336.000
28.45094 387.000
28.47089 372.000
28.49083 378.000
28.51078 334.000
28.53073 348.000
28.55067 359.000
28.57062 312.000
28.59057 371.000
28.61052 324.000
28.63046 280.000
28.65041 335.000
28.67036 304.000
28.69030 288.000
28.71025 325.000
28.73020 390.000
28.75014 354.000
28.77009 333.000
28.79004 366.000
28.80998 307.000
28.82993 332.000
28.84988 377.000
28.86983 337.000
28.88977 315.000
28.90972 309.000
28.92967 315.000
28.94961 352.000
28.96956 323.000
28.98951 344.000
29.00945 331.000
29.02940 337.000
29.04935 306.000
29.06930 327.000
29.08924 351.000
29.10919 339.000
29.12914 329.000
29.14908 328.000
29.16903 317.000
29.18898 336.000
29.20892 388.000
29.22887 344.000
29.24882 380.000
29.26877 422.000
29.28871 410.000
29.30866 455.000
29.32861 513.000
29.34855 580.000
29.36850 680.000
29.38845 680.000
29.40839 733.000
29.42834 749.000
29.44829 683.000
29.46823 627.000
29.48818 615.000
29.50813 573.000
29.52808 490.000
29.54802 423.000
29.56797 422.000
29.58792 434.000
29.60786 349.000
29.62781 430.000
29.64776 369.000
29.66770 358.000
29.68765 341.000
29.70760 326.000
29.72755 353.000
29.74749 369.000
29.76744 334.000
29.78739 312.000
29.80733 350.000
29.82728 329.000
29.84723 326.000
29.86717 348.000
29.88712 321.000
29.90707 328.000
29.92701 312.000
29.94696 307.000
29.96691 337.000
29.98686 348.000
30.00680 320.000
30.02675 330.000
30.04670 334.000
30.06664 288.000
30.08659 306.000
30.10654 343.000
30.12648 336.000
30.14643 322.000
30.16638 354.000
30.18633 331.000
30.20627 309.000
30.22622 339.000
30.24617 328.000
30.26611 330.000
30.28606 351.000
30.30601 334.000
30.32595 335.000
30.34590 336.000
30.36585 347.000
30.38579 349.000
30.40574 362.000
30.42569 322.000
30.44564 337.000
30.46558 342.000
30.48553 323.000
30.50548 314.000
30.52542 323.000
30.54537 335.000
30.56532 319.000
30.58526 353.000
30.60521 325.000
30.62516 333.000
30.64511 318.000
30.66505 338.000
30.68500 324.000
30.70495 311.000
30.72489 338.000
30.74484 347.000
30.76479 347.000
30.78473 368.000
30.80468 331.000
30.82463 376.000
30.84458 371.000
30.86452 325.000
30.88447 357.000
30.90442 311.000
30.92436 331.000
30.94431 353.000
30.96426 348.000
30.98420 340.000
31.00415 324.000
31.02410 323.000
31.04404 297.000
31.06399 343.000
31.08394 373.000
31.10389 347.000
31.12383 336.000
31.14378 367.000
31.16373 328.000
31.18367 330.000
31.20362 353.000
31.22357 321.000
31.24351 354.000
31.26346 331.000
31.28341 311.000
31.30336 387.000
31.32330 334.000
31.34325 349.000
31.36320 357.000
31.38314 335.000
31.40309 302.000
31.42304 377.000
31.44298 335.000
31.46293 313.000
31.48288 334.000
31.50282 359.000
31.52277 379.000
31.54272 344.000
31.56267 381.000
31.58261 291.000
31.60256 354.000
31.62251 336.000
31.64245 349.000
31.66240 341.000
31.68235 342.000
31.70229 391.000
31.72224 367.000
31.74219 359.000
31.76214 356.000
31.78208 381.000
31.80203 369.000
31.82198 390.000
31.84192 393.000
31.86187 381.000
31.88182 391.000
31.90176 400.000
31.92171 419.000
31.94166 465.000
31.96160 468.000
31.98155 574.000
32.00150 763.000
32.02145 931.000
32.04139 1193.000
32.06134 1409.000
32.08129 1154.000
32.10123 932.000
32.12118 919.000
32.14113 898.000
32.16107 718.000
32.18102 536.000
32.20097 446.000
32.22092 445.000
32.24086 378.000
32.26081 418.000
32.28076 346.000
32.30070 356.000
32.32065 394.000
32.34060 372.000
32.36054 355.000
32.38049 375.000
32.40044 381.000
32.42039 397.000
32.44033 418.000
32.46028 457.000
32.48023 404.000
32.50017 462.000
32.52012 452.000
32.54007 443.000
32.56001 438.000
32.57996 417.000
32.59991 397.000
32.61985 384.000
32.63980 396.000
32.65975 383.000
32.67970 340.000
32.69964 371.000
32.71959 331.000
32.73954 332.000
32.75948 318.000
32.77943 344.000
32.79938 358.000
32.81932 340.000
32.83927 353.000
32.85922 327.000
32.87917 353.000
32.89911 338.000
32.91906 333.000
32.93901 318.000
32.95895 344.000
32.97890 349.000
32.99885 341.000
33.01879 350.000
33.03874 297.000
33.05869 324.000
33.07863 340.000
33.09858 336.000
33.11853 330.000
33.13848 316.000
33.15842 350.000
33.17837 332.000
33.19832 361.000
33.21826 333.000
33.23821 352.000
33.25816 326.000
33.27810 352.000
33.29805 329.000
33.31800 325.000
33.33795 338.000
33.35789 317.000
33.37784 387.000
33.39779 341.000
33.41773 305.000
33.43768 338.000
33.45763 352.000
33.47757 329.000
33.49752 305.000
33.51747 325.000
33.53741 318.000
33.55736 336.000
33.57731 309.000
33.59726 356.000
33.61720 328.000
33.63715 350.000
33.65710 324.000
33.67704 353.000
33.69699 333.000
33.71694 355.000
33.73688 350.000
33.75683 353.000
33.77678 352.000
33.79673 356.000
33.81667 347.000
33.83662 350.000
33.85657 330.000
33.87651 354.000
33.89646 319.000
33.91641 331.000
33.93635 347.000
33.95630 300.000
33.97625 351.000
33.99620 314.000
34.01614 306.000
34.03609 359.000
34.05604 379.000
34.07598 339.000
34.09593 358.000
34.11588 346.000
34.13582 325.000
34.15577 350.000
34.17572 347.000
34.19566 357.000
34.21561 375.000
34.23556 332.000
34.25551 369.000
34.27545 352.000
34.29540 370.000
34.31535 339.000
34.33529 329.000
34.35524 310.000
34.37519 346.000
34.39513 360.000
34.41508 336.000
34.43503 347.000
34.45498 338.000
34.47492 348.000
34.49487 337.000
34.51482 376.000
34.53476 354.000
34.55471 359.000
34.57466 350.000
34.59460 372.000
34.61455 335.000
34.63450 377.000
34.65444 355.000
34.67439 394.000
34.69434 418.000
34.71429 446.000
34.73423 470.000
34.75418 499.000
34.77413 522.000
34.79407 570.000
34.81402 592.000
34.83397 648.000
34.85391 675.000
34.87386 703.000
34.89381 634.000
34.91376 660.000
34.93370 590.000
34.95365 545.000
34.97360 538.000
34.99354 556.000
35.01349 445.000
35.03344 419.000
35.05338 378.000
35.07333 447.000
35.09328 431.000
35.11322 439.000
35.13317 412.000
35.15312 421.000
35.17307 445.000
35.19301 423.000
35.21296 405.000
35.23291 446.000
35.25285 492.000
35.27280 485.000
35.29275 452.000
35.31269 502.000
35.33264 552.000
35.35259 584.000
35.37254 670.000
35.39248 773.000
35.41243 940.000
35.43238 1047.000
35.45232 1134.000
35.47227 1194.000
35.49222 1344.000
35.51216 1474.000
35.53211 1685.000
35.55206 1810.000
35.57201 1614.000
35.59195 1546.000
35.61190 1400.000
35.63185 1323.000
35.65179 1193.000
35.67174 1122.000
35.69169 918.000
35.71163 847.000
35.73158 747.000
35.75153 701.000
35.77147 732.000
35.79142 775.000
35.81137 799.000
35.83132 888.000
35.85126 912.000
35.87121 1038.000
35.89116 1112.000
35.91110 1296.000
35.93105 1420.000
35.95100 1270.000
35.97094 1035.000
35.99089 969.000
36.01084 908.000
36.03079 848.000
36.05073 671.000
36.07068 588.000
36.09063 513.000
36.11057 455.000
36.13052 401.000
36.15047 410.000
36.17041 455.000
36.19036 411.000
36.21031 401.000
36.23025 366.000
36.25020 392.000
36.27015 389.000
36.29010 402.000
36.31004 376.000
36.32999 421.000
36.34994 433.000
36.36988 393.000
36.38983 380.000
36.40978 430.000
36.42972 424.000
36.44967 380.000
36.46962 413.000
36.48957 425.000
36.50951 430.000
36.52946 437.000
36.54941 372.000
36.56935 446.000
36.58930 391.000
36.60925 412.000
36.62919 402.000
36.64914 373.000
36.66909 393.000
36.68903 393.000
36.70898 413.000
36.72893 365.000
36.74888 406.000
36.76882 410.000
36.78877 416.000
36.80872 465.000
36.82866 451.000
36.84861 440.000
36.86856 473.000
36.88850 455.000
36.90845 443.000
36.92840 470.000
36.94835 466.000
36.96829 498.000
36.98824 498.000
37.00819 467.000
37.02813 537.000
37.04808 718.000
37.06803 798.000
37.08797 1092.000
37.10792 1348.000
37.12787 1597.000
37.14781 1628.000
37.16776 1592.000
37.18771 1467.000
37.20766 1422.000
37.22760 1366.000
37.24755 1249.000
37.26750 1059.000
37.28744 973.000
37.30739 852.000
37.32734 725.000
37.34728 616.000
37.36723 545.000
37.38718 523.000
37.40713 473.000
37.42707 480.000
37.44702 438.000
37.46697 416.000
37.48691 428.000
37.50686 395.000
37.52681 384.000
37.54675 361.000
37.56670 404.000
37.58665 365.000
37.60660 379.000
37.62654 367.000
37.64649 370.000
37.66644 392.000
37.68638 370.000
37.70633 378.000
37.72628 362.000
37.74622 330.000
37.76617 386.000
37.78612 366.000
37.80606 354.000
37.82601 357.000
37.84596 396.000
37.86591 366.000
37.88585 341.000
37.90580 384.000
37.92575 352.000
37.94569 385.000
37.96564 376.000
37.98559 352.000
38.00553 346.000
38.02548 375.000
38.04543 373.000
38.06538 379.000
38.08532 370.000
38.10527 406.000
38.12522 382.000
38.14516 410.000
38.16511 383.000
38.18506 402.000
38.20500 394.000
38.22495 406.000
38.24490 435.000
38.26484 398.000
38.28479 400.000
38.30474 466.000
38.32469 458.000
38.34463 429.000
38.36458 477.000
38.38453 432.000
38.40447 473.000
38.42442 487.000
38.44437 524.000
38.46431 522.000
38.48426 562.000
38.50421 604.000
38.52416 615.000
38.54410 687.000
38.56405 792.000
38.58400 865.000
38.60394 1001.000
38.62389 1170.000
38.64384 1297.000
38.66378 1416.000
38.68373 1461.000
38.70368 1481.000
38.72362 1406.000
38.74357 1266.000
38.76352 1278.000
38.78347 1155.000
38.80341 1035.000
38.82336 1002.000
38.84331 895.000
38.86325 870.000
38.88320 740.000
38.90315 767.000
38.92309 743.000
38.94304 744.000
38.96299 731.000
38.98294 796.000
39.00288 744.000
39.02283 766.000
39.04278 764.000
39.06272 665.000
39.08267 689.000
39.10262 654.000
39.12256 605.000
39.14251 608.000
39.16246 566.000
39.18241 556.000
39.20235 562.000
39.22230 520.000
39.24225 550.000
39.26219 563.000
39.28214 544.000
39.30209 628.000
39.32203 591.000
39.34198 695.000
39.36193 753.000
39.38187 893.000
39.40182 1117.000
39.42177 1399.000
39.44172 1578.000
39.46166 1757.000
39.48161 1948.000
39.50156 2010.000
39.52150 1810.000
39.54145 1687.000
39.56140 1494.000
39.58134 1349.000
39.60129 1256.000
39.62124 1053.000
39.64119 865.000
39.66113 696.000
39.68108 611.000
39.70103 548.000
39.72097 509.000
39.74092 482.000
39.76087 491.000
39.78081 460.000
39.80076 444.000
39.82071 391.000
39.84065 426.000
39.86060 372.000
39.88055 392.000
39.90050 356.000
39.92044 368.000
39.94039 372.000
39.96034 421.000
39.98028 366.000
40.00023 369.000
40.02018 370.000
40.04012 325.000
40.06007 340.000
40.08002 327.000
40.09997 348.000
40.11991 372.000
40.13986 356.000
40.15981 345.000
40.17975 321.000
40.19970 331.000
40.21965 356.000
40.23959 300.000
40.25954 339.000
40.27949 358.000
40.29943 337.000
40.31938 335.000
40.33933 328.000
40.35928 352.000
40.37922 314.000
40.39917 331.000
40.41912 332.000
40.43906 323.000
40.45901 317.000
40.47896 321.000
40.49890 289.000
40.51885 328.000
40.53880 361.000
40.55875 330.000
40.57869 317.000
40.59864 328.000
40.61859 337.000
40.63853 331.000
40.65848 334.000
40.67843 360.000
40.69837 346.000
40.71832 310.000
40.73827 316.000
40.75822 343.000
40.77816 336.000
40.79811 349.000
40.81806 326.000
40.83800 346.000
40.85795 331.000
40.87790 326.000
40.89784 375.000
40.91779 347.000
40.93774 307.000
40.95768 332.000
40.97763 309.000
40.99758 319.000
41.01753 326.000
41.03747 346.000
41.05742 322.000
41.07737 345.000
41.09731 309.000
41.11726 298.000
41.13721 324.000
41.15715 343.000
41.17710 323.000
41.19705 321.000
41.21700 317.000
41.23694 336.000
41.25689 315.000
41.27684 320.000
41.29678 309.000
41.31673 295.000
41.33668 305.000
41.35662 325.000
41.37657 306.000
41.39652 293.000
41.41646 318.000
41.43641 328.000
41.45636 358.000
41.47631 354.000
41.49625 310.000
41.51620 311.000
41.53615 343.000
41.55609 346.000
41.57604 331.000
41.59599 324.000
41.61593 328.000
41.63588 313.000
41.65583 326.000
41.67578 325.000
41.69572 342.000
41.71567 339.000
41.73562 303.000
41.75556 308.000
41.77551 341.000
41.79546 301.000
41.81540 332.000
41.83535 318.000
41.85530 347.000
41.87524 329.000
41.89519 337.000
41.91514 309.000
41.93509 325.000
41.95503 341.000
41.97498 343.000
41.99493 329.000
42.01487 290.000
42.03482 330.000
42.05477 339.000
42.07471 345.000
42.09466 326.000
42.11461 318.000
42.13456 328.000
42.15450 333.000
42.17445 331.000
42.19440 306.000
42.21434 340.000
42.23429 336.000
42.25424 342.000
42.27418 333.000
42.29413 334.000
42.31408 326.000
42.33403 328.000
42.35397 308.000
42.37392 349.000
42.39387 290.000
42.41381 333.000
42.43376 360.000
42.45371 360.000
42.47365 363.000
42.49360 359.000
42.51355 372.000
42.53349 391.000
42.55344 382.000
42.57339 392.000
42.59334 350.000
42.61328 417.000
42.63323 397.000
42.65318 391.000
42.67312 358.000
42.69307 385.000
42.71302 404.000
42.73296 361.000
42.75291 384.000
42.77286 416.000
42.79281 436.000
42.81275 441.000
42.83270 402.000
42.85265 445.000
42.87259 444.000
42.89254 523.000
42.91249 546.000
42.93243 565.000
42.95238 609.000
42.97233 678.000
42.99227 725.000
43.01222 839.000
43.03217 877.000
43.05212 1018.000
43.07206 1115.000
43.09201 1131.000
43.11196 1351.000
43.13190 1396.000
43.15185 1516.000
43.17180 1592.000
43.19174 1596.000
43.21169 1577.000
43.23164 1542.000
43.25159 1389.000
43.27153 1385.000
43.29148 1227.000
43.31143 1152.000
43.33137 1070.000
43.35132 977.000
43.37127 896.000
43.39121 846.000
43.41116 752.000
43.43111 724.000
43.45105 701.000
43.47100 712.000
43.49095 705.000
43.51090 714.000
43.53084 767.000
43.55079 948.000
43.57074 948.000
43.59068 909.000
43.61063 869.000
43.63058 879.000
43.65052 819.000
43.67047 780.000
43.69042 782.000
43.71037 662.000
43.73031 628.000
43.75026 589.000
43.77021 500.000
43.79015 501.000
43.81010 468.000
43.83005 414.000
43.84999 403.000
43.86994 402.000
43.88989 393.000
43.90984 425.000
43.92978 339.000
43.94973 338.000
43.96968 362.000
43.98962 334.000
44.00957 341.000
44.02952 349.000
44.04946 388.000
44.06941 351.000
44.08936 322.000
44.10930 295.000
44.12925 352.000
44.14920 333.000
44.16915 320.000
44.18909 359.000
44.20904 338.000
44.22899 341.000
44.24893 309.000
44.26888 331.000
44.28883 316.000
44.30877 296.000
44.32872 337.000
44.34867 327.000
44.36862 332.000
44.38856 334.000
44.40851 337.000
44.42846 348.000
44.44840 304.000
44.46835 314.000
44.48830 320.000
44.50824 333.000
44.52819 326.000
44.54814 346.000
44.56808 337.000
44.58803 326.000
44.60798 300.000
44.62793 306.000
44.64787 340.000
44.66782 325.000
44.68777 320.000
44.70771 308.000
44.72766 320.000
44.74761 338.000
44.76755 336.000
44.78750 328.000
44.80745 366.000
44.82740 313.000
44.84734 346.000
44.86729 319.000
44.88724 345.000
44.90718 300.000
44.92713 349.000
44.94708 336.000
44.96702 319.000
44.98697 335.000
45.00692 333.000
45.02686 326.000
45.04681 308.000
45.06676 343.000
45.08671 336.000
45.10665 324.000
45.12660 321.000
45.14655 324.000
45.16649 317.000
45.18644 332.000
45.20639 336.000
45.22633 344.000
45.24628 310.000
45.26623 320.000
45.28618 329.000
45.30612 320.000
45.32607 325.000
45.34602 351.000
45.36596 323.000
45.38591 330.000
45.40586 354.000
45.42580 327.000
45.44575 314.000
45.46570 339.000
45.48565 313.000
45.50559 304.000
45.52554 355.000
45.54549 304.000
45.56543 341.000
45.58538 331.000
45.60533 328.000
45.62527 322.000
45.64522 340.000
45.66517 356.000
45.68511 315.000
45.70506 308.000
45.72501 355.000
45.74496 314.000
45.76490 328.000
45.78485 333.000
45.80480 347.000
45.82474 322.000
45.84469 315.000
45.86464 319.000
45.88458 293.000
45.90453 332.000
45.92448 300.000
45.94443 327.000
45.96437 311.000
45.98432 333.000
46.00427 303.000
46.02421 316.000
46.04416 314.000
46.06411 302.000
46.08405 323.000
46.10400 350.000
46.12395 325.000
46.14389 325.000
46.16384 340.000
46.18379 273.000
46.20374 321.000
46.22368 327.000
46.24363 336.000
46.26358 348.000
46.28352 349.000
46.30347 348.000
46.32342 350.000
46.34336 340.000
46.36331 307.000
46.38326 341.000
46.40321 301.000
46.42315 320.000
46.44310 312.000
46.46305 326.000
46.48299 313.000
46.50294 338.000
46.52289 322.000
46.54283 320.000
46.56278 304.000
46.58273 316.000
46.60267 309.000
46.62262 271.000
46.64257 253.000
46.66252 331.000
46.68246 296.000
46.70241 337.000
46.72236 333.000
46.74230 297.000
46.76225 333.000
46.78220 289.000
46.80214 336.000
46.82209 337.000
46.84204 327.000
46.86199 309.000
46.88193 295.000
46.90188 294.000
46.92183 310.000
46.94177 343.000
46.96172 309.000
46.98167 296.000
47.00161 302.000
47.02156 339.000
47.04151 296.000
47.06146 319.000
47.08140 285.000
47.10135 310.000
47.12130 297.000
47.14124 307.000
47.16119 333.000
47.18114 325.000
47.20108 333.000
47.22103 314.000
47.24098 298.000
47.26092 308.000
47.28087 305.000
47.30082 314.000
47.32077 300.000
47.34071 316.000
47.36066 314.000
47.38061 277.000
47.40055 267.000
47.42050 310.000
47.44045 330.000
47.46039 297.000
47.48034 328.000
47.50029 305.000
47.52024 313.000
47.54018 304.000
47.56013 306.000
47.58008 320.000
47.60002 308.000
47.61997 313.000
47.63992 310.000
47.65986 292.000
47.67981 346.000
47.69976 309.000
47.71970 304.000
47.73965 297.000
47.75960 312.000
47.77955 315.000
47.79949 297.000
47.81944 335.000
47.83939 350.000
47.85933 332.000
47.87928 348.000
47.89923 350.000
47.91917 329.000
47.93912 349.000
47.95907 335.000
47.97902 340.000
47.99896 332.000
48.01891 388.000
48.03886 385.000
48.05880 329.000
48.07875 379.000
48.09870 374.000
48.11864 352.000
48.13859 363.000
48.15854 402.000
48.17848 387.000
48.19843 406.000
48.21838 398.000
48.23833 402.000
48.25827 395.000
48.27822 346.000
48.29817 387.000
48.31811 365.000
48.33806 369.000
48.35801 386.000
48.37795 348.000
48.39790 385.000
48.41785 396.000
48.43780 371.000
48.45774 364.000
48.47769 392.000
48.49764 380.000
48.51758 411.000
48.53753 390.000
48.55748 424.000
48.57742 461.000
48.59737 452.000
48.61732 463.000
48.63726 548.000
48.65721 543.000
48.67716 587.000
48.69711 611.000
48.71705 651.000
48.73700 753.000
48.75695 834.000
48.77689 990.000
48.79684 1098.000
48.81679 1380.000
48.83673 1632.000
48.85668 1851.000
48.87663 1796.000
48.89658 1729.000
48.91652 1706.000
48.93647 1529.000
48.95642 1505.000
48.97636 1404.000
48.99631 1335.000
49.01626 1264.000
49.03620 1106.000
49.05615 1004.000
49.07610 882.000
49.09605 709.000
49.11599 707.000
49.13594 597.000
49.15589 539.000
49.17583 511.000
49.19578 468.000
49.21573 456.000
49.23567 416.000
49.25562 403.000
49.27557 448.000
49.29551 397.000
49.31546 396.000
49.33541 360.000
49.35536 390.000
49.37530 384.000
49.39525 374.000
49.41520 372.000
49.43514 342.000
49.45509 380.000
49.47504 365.000
49.49498 390.000
49.51493 350.000
49.53488 368.000
49.55483 353.000
49.57477 407.000
49.59472 369.000
49.61467 383.000
49.63461 338.000
49.65456 365.000
49.67451 367.000
49.69445 344.000
49.71440 331.000
49.73435 325.000
49.75429 326.000
49.77424 317.000
49.79419 332.000
49.81414 312.000
49.83408 334.000
49.85403 311.000
49.87398 339.000
49.89392 310.000
49.91387 331.000
49.93382 349.000
49.95376 292.000
49.97371 308.000
49.99366 354.000
50.01361 303.000
50.03355 330.000
50.05350 336.000
50.07345 342.000
50.09339 315.000
50.11334 324.000
50.13329 348.000
50.15323 321.000
50.17318 351.000
50.19313 293.000
50.21307 320.000
50.23302 262.000
50.25297 308.000
50.27292 303.000
50.29286 333.000
50.31281 325.000
50.33276 324.000
50.35270 296.000
50.37265 292.000
50.39260 286.000
50.41254 291.000
50.43249 315.000
50.45244 289.000
50.47239 302.000
50.49233 307.000
50.51228 291.000
50.53223 311.000
50.55217 304.000
50.57212 308.000
50.59207 315.000
50.61201 350.000
50.63196 325.000
50.65191 300.000
50.67186 341.000
50.69180 285.000
50.71175 309.000
50.73170 306.000
50.75164 318.000
50.77159 312.000
50.79154 298.000
50.81148 308.000
50.83143 311.000
50.85138 299.000
50.87132 335.000
50.89127 292.000
50.91122 301.000
50.93117 309.000
50.95111 302.000
50.97106 325.000
50.99101 291.000
51.01095 333.000
51.03090 315.000
51.05085 312.000
51.07079 297.000
51.09074 308.000
51.11069 299.000
51.13064 307.000
51.15058 329.000
51.17053 344.000
51.19048 337.000
51.21042 318.000
51.23037 323.000
51.25032 329.000
51.27026 317.000
51.29021 323.000
51.31016 317.000
51.33010 319.000
51.35005 310.000
51.37000 276.000
51.38995 354.000
51.40989 306.000
51.42984 324.000
51.44979 307.000
51.46973 332.000
51.48968 318.000
51.50963 326.000
51.52957 297.000
51.54952 323.000
51.56947 293.000
51.58942 312.000
51.60936 289.000
51.62931 329.000
51.64926 323.000
51.66920 288.000
51.68915 315.000
51.70910 315.000
51.72904 331.000
51.74899 329.000
51.76894 330.000
51.78888 283.000
51.80883 307.000
51.82878 329.000
51.84873 324.000
51.86867 289.000
51.88862 282.000
51.90857 315.000
51.92851 312.000
51.94846 321.000
51.96841 326.000
51.98835 337.000
52.00830 344.000
52.02825 368.000
52.04820 360.000
52.06814 388.000
52.08809 370.000
52.10804 355.000
52.12798 380.000
52.14793 398.000
52.16788 412.000
52.18782 429.000
52.20777 379.000
52.22772 379.000
52.24767 355.000
52.26761 333.000
52.28756 386.000
52.30751 336.000
52.32745 363.000
52.34740 336.000
52.36735 311.000
52.38729 337.000
52.40724 319.000
52.42719 298.000
52.44713 339.000
52.46708 296.000
52.48703 320.000
52.50698 293.000
52.52692 301.000
52.54687 301.000
52.56682 318.000
52.58676 321.000
52.60671 317.000
52.62666 275.000
52.64660 296.000
52.66655 308.000
52.68650 304.000
52.70645 325.000
52.72639 291.000
52.74634 328.000
52.76629 294.000
52.78623 316.000
52.80618 308.000
52.82613 279.000
52.84607 335.000
52.86602 305.000
52.88597 317.000
52.90591 350.000
52.92586 339.000
52.94581 310.000
52.96576 336.000
52.98570 300.000
53.00565 315.000
53.02560 308.000
53.04554 330.000
53.06549 318.000
53.08544 296.000
53.10538 331.000
53.12533 306.000
53.14528 359.000
53.16523 358.000
53.18517 346.000
53.20512 336.000
53.22507 355.000
53.24501 379.000
53.26496 329.000
53.28491 368.000
53.30485 344.000
53.32480 338.000
53.34475 408.000
53.36469 388.000
53.38464 348.000
53.40459 347.000
53.42454 342.000
53.44448 404.000
53.46443 360.000
53.48438 355.000
53.50432 341.000
53.52427 351.000
53.54422 353.000
53.56416 344.000
53.58411 343.000
53.60406 332.000
53.62401 350.000
53.64395 329.000
53.66390 309.000
53.68385 341.000
53.70379 332.000
53.72374 345.000
53.74369 314.000
53.76363 344.000
53.78358 320.000
53.80353 313.000
53.82348 308.000
53.84342 302.000
53.86337 315.000
53.88332 286.000
53.90326 277.000
53.92321 305.000
53.94316 342.000
53.96310 326.000
53.98305 320.000
54.00300 345.000
54.02294 323.000
54.04289 319.000
54.06284 291.000
54.08279 328.000
54.10273 276.000
54.12268 308.000
54.14263 306.000
54.16257 296.000
54.18252 343.000
54.20247 303.000
54.22241 314.000
54.24236 299.000
54.26231 308.000
54.28226 315.000
54.30220 296.000
54.32215 294.000
54.34210 302.000
54.36204 287.000
54.38199 308.000
54.40194 274.000
54.42188 304.000
54.44183 330.000
54.46178 322.000
54.48172 326.000
54.50167 298.000
54.52162 329.000
54.54157 303.000
54.56151 297.000
54.58146 284.000
54.60141 309.000
54.62135 271.000
54.64130 283.000
54.66125 289.000
54.68119 283.000
54.70114 283.000
54.72109 298.000
54.74104 330.000
54.76098 300.000
54.78093 316.000
54.80088 318.000
54.82082 293.000
54.84077 292.000
54.86072 283.000
54.88066 286.000
54.90061 318.000
54.92056 333.000
54.94050 305.000
54.96045 292.000
54.98040 294.000
55.00035 286.000
55.02029 285.000
55.04024 302.000
55.06019 272.000
55.08013 295.000
55.10008 291.000
55.12003 323.000
55.13997 300.000
55.15992 317.000
55.17987 304.000
55.19982 292.000
55.21976 293.000
55.23971 270.000
55.25966 320.000
55.27960 305.000
55.29955 282.000
55.31950 295.000
55.33944 335.000
55.35939 308.000
55.37934 298.000
55.39929 339.000
55.41923 295.000
55.43918 317.000
55.45913 289.000
55.47907 303.000
55.49902 313.000
55.51897 295.000
55.53891 323.000
55.55886 315.000
55.57881 281.000
55.59875 281.000
55.61870 321.000
55.63865 318.000
55.65860 298.000
55.67854 325.000
55.69849 294.000
55.71844 307.000
55.73838 323.000
55.75833 315.000
55.77828 308.000
55.79822 325.000
55.81817 331.000
55.83812 325.000
55.85807 331.000
55.87801 335.000
55.89796 284.000
55.91791 297.000
55.93785 319.000
55.95780 313.000
55.97775 314.000
55.99769 341.000
56.01764 307.000
56.03759 321.000
56.05753 297.000
56.07748 296.000
56.09743 301.000
56.11738 316.000
56.13732 297.000
56.15727 315.000
56.17722 261.000
56.19716 308.000
56.21711 292.000
56.23706 288.000
56.25700 325.000
56.27695 298.000
56.29690 317.000
56.31685 346.000
56.33679 319.000
56.35674 312.000
56.37669 295.000
56.39663 297.000
56.41658 321.000
56.43653 299.000
56.45647 297.000
56.47642 328.000
56.49637 316.000
56.51631 291.000
56.53626 314.000
56.55621 325.000
56.57616 323.000
56.59610 288.000
56.61605 323.000
56.63600 317.000
56.65594 288.000
56.67589 293.000
56.69584 311.000
56.71578 328.000
56.73573 286.000
56.75568 305.000
56.77563 286.000
56.79557 325.000
56.81552 351.000
56.83547 315.000
56.85541 324.000
56.87536 293.000
56.89531 322.000
56.91525 345.000
56.93520 319.000
56.95515 291.000
56.97510 308.000
56.99504 334.000
57.01499 292.000
57.03494 295.000
57.05488 310.000
57.07483 314.000
57.09478 323.000
57.11472 308.000
57.13467 345.000
57.15462 319.000
57.17456 334.000
57.19451 273.000
57.21446 297.000
57.23441 298.000
57.25435 313.000
57.27430 290.000
57.29425 318.000
57.31419 342.000
57.33414 316.000
57.35409 307.000
57.37403 308.000
57.39398 306.000
57.41393 296.000
57.43388 319.000
57.45382 326.000
57.47377 311.000
57.49372 311.000
57.51366 337.000
57.53361 336.000
57.55356 348.000
57.57350 335.000
57.59345 314.000
57.61340 317.000
57.63334 328.000
57.65329 315.000
57.67324 341.000
57.69319 351.000
57.71313 306.000
57.73308 300.000
57.75303 316.000
57.77297 313.000
57.79292 286.000
57.81287 312.000
57.83281 320.000
57.85276 344.000
57.87271 311.000
57.89266 296.000
57.91260 320.000
57.93255 323.000
57.95250 330.000
57.97244 333.000
57.99239 323.000
58.01234 308.000
58.03228 332.000
58.05223 366.000
58.07218 326.000
58.09212 331.000
58.11207 385.000
58.13202 356.000
58.15197 387.000
58.17191 379.000
58.19186 413.000
58.21181 424.000
58.23175 411.000
58.25170 380.000
58.27165 496.000
58.29159 404.000
58.31154 406.000
58.33149 393.000
58.35144 417.000
58.37138 433.000
58.39133 412.000
58.41128 347.000
58.43122 399.000
58.45117 417.000
58.47112 355.000
58.49106 331.000
58.51101 355.000
58.53096 333.000
58.55090 358.000
58.57085 348.000
58.59080 323.000
58.61075 356.000
58.63069 326.000
58.65064 355.000
58.67059 321.000
58.69053 295.000
58.71048 315.000
58.73043 306.000
58.75037 297.000
58.77032 324.000
58.79027 329.000
58.81022 353.000
58.83016 315.000
58.85011 303.000
58.87006 285.000
58.89000 309.000
58.90995 284.000
58.92990 295.000
58.94984 302.000
58.96979 344.000
58.98974 302.000
59.00969 292.000
59.02963 293.000
59.04958 296.000
59.06953 301.000
59.08947 305.000
59.10942 327.000
59.12937 345.000
59.14931 304.000
59.16926 357.000
59.18921 330.000
59.20915 287.000
59.22910 312.000
59.24905 319.000
59.26900 323.000
59.28894 326.000
59.30889 297.000
59.32884 291.000
59.34878 310.000
59.36873 319.000
59.38868 303.000
59.40862 317.000
59.42857 326.000
59.44852 318.000
59.46847 328.000
59.48841 326.000
59.50836 318.000
59.52831 313.000
59.54825 312.000
59.56820 328.000
59.58815 283.000
59.60809 286.000
59.62804 297.000
59.64799 283.000
59.66793 313.000
59.68788 310.000
59.70783 308.000
59.72778 305.000
59.74772 286.000
59.76767 308.000
59.78762 287.000
59.80756 335.000
59.82751 316.000
59.84746 308.000
59.86740 317.000
59.88735 300.000
59.90730 310.000
59.92725 304.000
59.94719 326.000
59.96714 343.000
59.98709 306.000
60.00703 310.000
60.02698 289.000
60.04693 298.000
60.06687 337.000
60.08682 260.000
60.10677 321.000
60.12671 350.000
60.14666 300.000
60.16661 341.000
60.18656 319.000
60.20650 306.000
60.22645 316.000
60.24640 319.000
60.26634 318.000
60.28629 307.000
60.30624 302.000
60.32618 279.000
60.34613 331.000
60.36608 318.000
60.38603 339.000
60.40597 305.000
60.42592 286.000
60.44587 329.000
60.46581 314.000
60.48576 321.000
60.50571 298.000
60.52565 312.000
60.54560 309.000
60.56555 322.000
60.58550 318.000
60.60544 303.000
60.62539 300.000
60.64534 311.000
60.66528 292.000
60.68523 353.000
60.70518 317.000
60.72512 320.000
60.74507 316.000
60.76502 350.000
60.78496 301.000
60.80491 325.000
60.82486 322.000
60.84481 313.000
60.86475 350.000
60.88470 325.000
60.90465 347.000
60.92459 322.000
60.94454 318.000
60.96449 323.000
60.98443 337.000
61.00438 324.000
61.02433 331.000
61.04428 343.000
61.06422 302.000
61.08417 322.000
61.10412 296.000
61.12406 332.000
61.14401 320.000
61.16396 328.000
61.18390 360.000
61.20385 329.000
61.22380 359.000
61.24374 320.000
61.26369 355.000
61.28364 347.000
61.30359 289.000
61.32353 322.000
61.34348 355.000
61.36343 382.000
61.38337 386.000
61.40332 382.000
61.42327 416.000
61.44321 375.000
61.46316 402.000
61.48311 397.000
61.50306 496.000
61.52300 496.000
61.54295 491.000
61.56290 563.000
61.58284 537.000
61.60279 472.000
61.62274 501.000
61.64268 482.000
61.66263 483.000
61.68258 488.000
61.70252 497.000
61.72247 507.000
61.74242 491.000
61.76237 502.000
61.78231 481.000
61.80226 485.000
61.82221 466.000
61.84215 422.000
61.86210 454.000
61.88205 439.000
61.90199 459.000
61.92194 460.000
61.94189 449.000
61.96184 503.000
61.98178 492.000
62.00173 546.000
62.02168 533.000
62.04162 615.000
62.06157 666.000
62.08152 707.000
62.10146 755.000
62.12141 797.000
62.14136 819.000
62.16131 763.000
62.18125 755.000
62.20120 749.000
62.22115 682.000
62.24109 682.000
62.26104 655.000
62.28099 707.000
62.30093 707.000
62.32088 658.000
62.34083 650.000
62.36077 600.000
62.38072 601.000
62.40067 619.000
62.42062 576.000
62.44056 586.000
62.46051 578.000
62.48046 575.000
62.50040 598.000
62.52035 600.000
62.54030 660.000
62.56024 736.000
62.58019 683.000
62.60014 763.000
62.62009 790.000
62.64003 872.000
62.65998 847.000
62.67993 852.000
62.69987 861.000
62.71982 864.000
62.73977 841.000
62.75971 819.000
62.77966 804.000
62.79961 838.000
62.81955 712.000
62.83950 720.000
62.85945 716.000
62.87940 653.000
62.89934 671.000
62.91929 627.000
62.93924 535.000
62.95918 547.000
62.97913 530.000
62.99908 448.000
63.01902 457.000
63.03897 463.000
63.05892 414.000
63.07887 373.000
63.09881 393.000
63.11876 387.000
63.13871 370.000
63.15865 372.000
63.17860 314.000
63.19855 377.000
63.21849 370.000
63.23844 390.000
63.25839 335.000
63.27833 330.000
63.29828 344.000
63.31823 357.000
63.33818 368.000
63.35812 349.000
63.37807 352.000
63.39802 350.000
63.41796 340.000
63.43791 342.000
63.45786 333.000
63.47780 334.000
63.49775 290.000
63.51770 338.000
63.53765 320.000
63.55759 312.000
63.57754 345.000
63.59749 306.000
63.61743 299.000
63.63738 313.000
63.65733 337.000
63.67727 333.000
63.69722 336.000
63.71717 341.000
63.73712 283.000
63.75706 303.000
63.77701 324.000
63.79696 329.000
63.81690 336.000
63.83685 316.000
63.85680 355.000
63.87674 370.000
63.89669 327.000
63.91664 337.000
63.93658 337.000
63.95653 363.000
63.97648 334.000
63.99643 338.000
64.01637 360.000
64.03632 328.000
64.05627 304.000
64.07621 329.000
64.09616 349.000
64.11611 366.000
64.13605 388.000
64.15600 336.000
64.17595 343.000
64.19590 368.000
64.21584 383.000
64.23579 373.000
64.25574 386.000
64.27568 410.000
64.29563 410.000
64.31558 410.000
64.33552 435.000
64.35547 414.000
64.37542 443.000
64.39536 510.000
64.41531 529.000
64.43526 607.000
64.45521 619.000
64.47515 678.000
64.49510 624.000
64.51505 701.000
64.53499 565.000
64.55494 594.000
64.57489 577.000
64.59483 649.000
64.61478 678.000
64.63473 634.000
64.65468 596.000
64.67462 561.000
64.69457 517.000
64.71452 497.000
64.73446 450.000
64.75441 455.000
64.77436 450.000
64.79430 494.000
64.81425 460.000
64.83420 375.000
64.85414 370.000
64.87409 383.000
64.89404 327.000
64.91399 360.000
64.93393 362.000
64.95388 365.000
64.97383 330.000
64.99377 374.000
65.01372 311.000
65.03367 332.000
65.05361 361.000
65.07356 337.000
65.09351 323.000
65.11346 311.000
65.13340 359.000
65.15335 357.000
65.17330 348.000
65.19324 344.000
65.21319 335.000
65.23314 342.000
65.25308 374.000
65.27303 353.000
65.29298 336.000
65.31293 330.000
65.33287 349.000
65.35282 380.000
65.37277 353.000
65.39271 417.000
65.41266 355.000
65.43261 382.000
65.45255 380.000
65.47250 389.000
65.49245 369.000
65.51239 383.000
65.53234 377.000
65.55229 400.000
65.57224 422.000
65.59218 439.000
65.61213 407.000
65.63208 412.000
65.65202 448.000
65.67197 457.000
65.69192 453.000
65.71186 453.000
65.73181 475.000
65.75176 445.000
65.77171 484.000
65.79165 459.000
65.81160 427.000
65.83155 472.000
65.85149 452.000
65.87144 407.000
65.89139 448.000
65.91133 420.000
65.93128 435.000
65.95123 437.000
65.97117 458.000
65.99112 384.000
66.01107 401.000
66.03102 400.000
66.05096 392.000
66.07091 385.000
66.09086 383.000
66.11080 384.000
66.13075 396.000
66.15070 389.000
66.17064 354.000
66.19059 379.000
66.21054 381.000
66.23049 413.000
66.25043 425.000
66.27038 411.000
66.29033 465.000
66.31027 445.000
66.33022 456.000
66.35017 497.000
66.37011 453.000
66.39006 486.000
66.41001 440.000
66.42995 485.000
66.44990 436.000
66.46985 435.000
66.48980 417.000
66.50974 457.000
66.52969 404.000
66.54964 427.000
66.56958 448.000
66.58953 440.000
66.60948 430.000
66.62942 412.000
66.64937 415.000
66.66932 388.000
66.68927 392.000
66.70921 408.000
66.72916 457.000
66.74911 439.000
66.76905 421.000
66.78900 462.000
66.80895 499.000
66.82889 533.000
66.84884 564.000
66.86879 546.000
66.88874 537.000
66.90868 564.000
66.92863 608.000
66.94858 592.000
66.96852 586.000
66.98847 558.000
67.00842 620.000
67.02836 574.000
67.04831 607.000
67.06826 534.000
67.08820 499.000
67.10815 533.000
67.12810 494.000
67.14805 444.000
67.16799 490.000
67.18794 460.000
67.20789 488.000
67.22783 433.000
67.24778 450.000
67.26773 416.000
67.28767 369.000
67.30762 360.000
67.32757 354.000
67.34752 355.000
67.36746 351.000
67.38741 386.000
67.40736 340.000
67.42730 337.000
67.44725 358.000
67.46720 367.000
67.48714 331.000
67.50709 351.000
67.52704 321.000
67.54698 344.000
67.56693 358.000
67.58688 355.000
67.60683 333.000
67.62677 329.000
67.64672 360.000
67.66667 381.000
67.68661 356.000
67.70656 380.000
67.72651 361.000
67.74645 369.000
67.76640 378.000
67.78635 382.000
67.80630 443.000
67.82624 403.000
67.84619 399.000
67.86614 385.000
67.88608 349.000
67.90603 425.000
67.92598 411.000
67.94592 451.000
67.96587 442.000
67.98582 456.000
68.00576 495.000
68.02571 443.000
68.04566 420.000
68.06561 463.000
68.08555 437.000
68.10550 458.000
68.12545 427.000
68.14539 445.000
68.16534 354.000
68.18529 431.000
68.20523 446.000
68.22518 395.000
68.24513 343.000
68.26508 423.000
68.28502 352.000
68.30497 364.000
68.32492 354.000
68.34486 326.000
68.36481 356.000
68.38476 371.000
68.40470 385.000
68.42465 350.000
68.44460 367.000
68.46455 360.000
68.48449 334.000
68.50444 337.000
68.52439 320.000
68.54433 353.000
68.56428 318.000
68.58423 305.000
68.60417 318.000
68.62412 299.000
68.64407 318.000
68.66401 294.000
68.68396 314.000
68.70391 326.000
68.72386 323.000
68.74380 279.000
68.76375 317.000
68.78370 324.000
68.80364 313.000
68.82359 339.000
68.84354 323.000
68.86348 313.000
68.88343 329.000
68.90338 320.000
68.92333 320.000
68.94327 301.000
68.96322 269.000
68.98317 332.000
69.00311 313.000
69.02306 307.000
69.04301 315.000
69.06295 320.000
69.08290 301.000
69.10285 301.000
69.12279 276.000
69.14274 290.000
69.16269 295.000
69.18264 286.000
69.20258 293.000
69.22253 330.000
69.24248 297.000
69.26242 331.000
69.28237 291.000
69.30232 319.000
69.32226 305.000
69.34221 303.000
69.36216 265.000
69.38211 291.000
69.40205 332.000
69.42200 328.000
69.44195 313.000
69.46189 278.000
69.48184 306.000
69.50179 334.000
69.52173 293.000
69.54168 291.000
69.56163 303.000
69.58157 310.000
69.60152 302.000
69.62147 329.000
69.64142 318.000
69.66136 286.000
69.68131 297.000
69.70126 267.000
69.72120 312.000
69.74115 295.000
69.76110 297.000
69.78104 311.000
69.80099 300.000
69.82094 315.000
69.84089 276.000
69.86083 323.000
69.88078 314.000
69.90073 304.000
69.92067 318.000
69.94062 310.000
69.96057 329.000
69.98051 309.000
70.00046 295.000
70.02041 335.000
70.04035 302.000
70.06030 310.000
70.08025 274.000
70.10020 291.000
70.12014 261.000
70.14009 317.000
70.16004 311.000
70.17998 308.000
70.19993 314.000
70.21988 322.000
70.23982 303.000
70.25977 273.000
70.27972 325.000
70.29967 324.000
70.31961 307.000
70.33956 296.000
70.35951 292.000
70.37945 296.000
70.39940 294.000
70.41935 327.000
70.43929 285.000
70.45924 308.000
70.47919 278.000
70.49914 338.000
70.51908 306.000
70.53903 313.000
70.55898 281.000
70.57892 334.000
70.59887 301.000
70.61882 315.000
70.63876 296.000
70.65871 312.000
70.67866 307.000
70.69860 319.000
70.71855 298.000
70.73850 295.000
70.75845 329.000
70.77839 295.000
70.79834 277.000
70.81829 305.000
70.83823 308.000
70.85818 305.000
70.87813 314.000
70.89807 287.000
70.91802 308.000
70.93797 297.000
70.95792 322.000
70.97786 316.000
70.99781 291.000
71.01776 281.000
71.03770 290.000
71.05765 302.000
71.07760 312.000
71.09754 325.000
71.11749 319.000
71.13744 306.000
71.15738 310.000
71.17733 281.000
71.19728 303.000
71.21723 301.000
71.23717 311.000
71.25712 325.000
71.27707 326.000
71.29701 320.000
71.31696 270.000
71.33691 264.000
71.35685 317.000
71.37680 301.000
71.39675 275.000
71.41670 269.000
71.43664 298.000
71.45659 314.000
71.47654 305.000
71.49648 319.000
71.51643 264.000
71.53638 342.000
71.55632 263.000
71.57627 285.000
71.59622 290.000
71.61616 335.000
71.63611 335.000
71.65606 278.000
71.67601 321.000
71.69595 314.000
71.71590 269.000
71.73585 338.000
71.75579 297.000
71.77574 259.000
71.79569 322.000
71.81563 306.000
71.83558 314.000
71.85553 308.000
71.87548 274.000
71.89542 307.000
71.91537 306.000
71.93532 285.000
71.95526 310.000
71.97521 307.000
71.99516 320.000
72.01510 308.000
72.03505 301.000
72.05500 314.000
72.07495 291.000
72.09489 305.000
72.11484 295.000
72.13479 317.000
72.15473 299.000
72.17468 311.000
72.19463 325.000
72.21457 331.000
72.23452 326.000
72.25447 369.000
72.27441 338.000
72.29436 327.000
72.31431 303.000
72.33426 331.000
72.35420 363.000
72.37415 337.000
72.39410 368.000
72.41404 343.000
72.43399 392.000
72.45394 359.000
72.47388 373.000
72.49383 360.000
72.51378 366.000
72.53373 343.000
72.55367 352.000
72.57362 323.000
72.59357 349.000
72.61351 354.000
72.63346 306.000
72.65341 344.000
72.67335 341.000
72.69330 310.000
72.71325 329.000
72.73319 340.000
72.75314 350.000
72.77309 317.000
72.79304 340.000
72.81298 304.000
72.83293 299.000
72.85288 336.000
72.87282 304.000
72.89277 270.000
72.91272 300.000
72.93266 286.000
72.95261 297.000
72.97256 309.000
72.99251 284.000
73.01245 304.000
73.03240 321.000
73.05235 289.000
73.07229 281.000
73.09224 284.000
73.11219 305.000
73.13213 301.000
73.15208 336.000
73.17203 310.000
73.19197 321.000
73.21192 304.000
73.23187 298.000
73.25182 329.000
73.27176 312.000
73.29171 327.000
73.31166 323.000
73.33160 284.000
73.35155 289.000
73.37150 347.000
73.39144 334.000
73.41139 318.000
73.43134 323.000
73.45129 312.000
73.47123 322.000
73.49118 312.000
73.51113 299.000
73.53107 295.000
73.55102 344.000
73.57097 311.000
73.59091 362.000
73.61086 328.000
73.63081 335.000
73.65076 323.000
73.67070 334.000
73.69065 357.000
73.71060 363.000
73.73054 402.000
73.75049 364.000
73.77044 366.000
73.79038 384.000
73.81033 409.000
73.83028 367.000
73.85022 443.000
73.87017 429.000
73.89012 416.000
73.91007 368.000
73.93001 393.000
73.94996 394.000
73.96991 380.000
73.98985 318.000
74.00980 401.000
74.02975 374.000
74.04969 355.000
74.06964 383.000
74.08959 369.000
74.10954 361.000
74.12948 310.000
74.14943 358.000
74.16938 345.000
74.18932 338.000
74.20927 322.000
74.22922 324.000
74.24916 306.000
74.26911 330.000
74.28906 312.000
74.30900 309.000
74.32895 307.000
74.34890 304.000
74.36885 321.000
74.38879 331.000
74.40874 347.000
74.42869 303.000
74.44863 307.000
74.46858 307.000
74.48853 297.000
74.50847 338.000
74.52842 305.000
74.54837 285.000
74.56832 314.000
74.58826 370.000
74.60821 317.000
74.62816 336.000
74.64810 338.000
74.66805 341.000
74.68800 284.000
74.70794 331.000
74.72789 315.000
74.74784 368.000
74.76778 335.000
74.78773 385.000
74.80768 373.000
74.82763 362.000
74.84757 387.000
74.86752 366.000
74.88747 372.000
74.90741 418.000
74.92736 422.000
74.94731 457.000
74.96725 443.000
74.98720 483.000
75.00715 472.000
75.02710 438.000
75.04704 462.000
75.06699 450.000
75.08694 462.000
75.10688 456.000
75.12683 521.000
75.14678 544.000
75.16672 534.000
75.18667 548.000
75.20662 501.000
75.22657 505.000
75.24651 496.000
75.26646 528.000
75.28641 500.000
75.30635 483.000
75.32630 501.000
75.34625 535.000
75.36619 511.000
75.38614 483.000
75.40609 432.000
75.42603 400.000
75.44598 440.000
75.46593 438.000
75.48588 385.000
75.50582 442.000
75.52577 383.000
75.54572 406.000
75.56566 375.000
75.58561 372.000
75.60556 346.000
75.62550 349.000
75.64545 351.000
75.66540 368.000
75.68535 349.000
75.70529 301.000
75.72524 371.000
75.74519 329.000
75.76513 357.000
75.78508 329.000
75.80503 342.000
75.82497 293.000
75.84492 301.000
75.86487 347.000
75.88481 327.000
75.90476 350.000
75.92471 335.000
75.94466 320.000
75.96460 304.000
75.98455 339.000
76.00450 334.000
76.02444 335.000
76.04439 357.000
76.06434 319.000
76.08428 326.000
76.10423 364.000
76.12418 346.000
76.14413 359.000
76.16407 346.000
76.18402 378.000
76.20397 323.000
76.22391 348.000
76.24386 335.000
76.26381 333.000
76.28375 320.000
76.30370 306.000
76.32365 343.000
76.34359 335.000
76.36354 332.000
76.38349 336.000
76.40344 325.000
76.42338 332.000
76.44333 327.000
76.46328 307.000
76.48322 314.000
76.50317 309.000
76.52312 300.000
76.54306 278.000
76.56301 345.000
76.58296 299.000
76.60291 354.000
76.62285 319.000
76.64280 296.000
76.66275 319.000
76.68269 333.000
76.70264 322.000
76.72259 316.000
76.74253 303.000
76.76248 313.000
76.78243 304.000
76.80238 306.000
76.82232 310.000
76.84227 317.000
76.86222 273.000
76.88216 302.000
76.90211 307.000
76.92206 273.000
76.94200 316.000
76.96195 301.000
76.98190 318.000
77.00184 300.000
77.02179 306.000
77.04174 306.000
77.06169 275.000
77.08163 270.000
77.10158 288.000
77.12153 297.000
77.14147 315.000
77.16142 320.000
77.18137 305.000
77.20131 278.000
77.22126 298.000
77.24121 313.000
77.26116 301.000
77.28110 325.000
77.30105 349.000
77.32100 296.000
77.34094 316.000
77.36089 309.000
77.38084 309.000
77.40078 313.000
77.42073 287.000
77.44068 276.000
77.46062 302.000
77.48057 278.000
77.50052 301.000
77.52047 300.000
77.54041 324.000
77.56036 323.000
77.58031 276.000
77.60025 291.000
77.62020 299.000
77.64015 322.000
77.66009 343.000
77.68004 298.000
77.69999 307.000
77.71994 302.000
77.73988 322.000
77.75983 339.000
77.77978 320.000
77.79972 322.000
77.81967 317.000
77.83962 305.000
77.85956 296.000
77.87951 309.000
77.89946 276.000
77.91940 309.000
77.93935 300.000
77.95930 310.000
77.97925 296.000
77.99919 330.000
78.01914 323.000
78.03909 321.000
78.05903 347.000
78.07898 368.000
78.09893 338.000
78.11887 317.000
78.13882 339.000
78.15877 387.000
78.17872 374.000
78.19866 363.000
78.21861 382.000
78.23856 387.000
78.25850 392.000
78.27845 428.000
78.29840 441.000
78.31834 446.000
78.33829 450.000
78.35824 460.000
78.37819 485.000
78.39813 483.000
78.41808 540.000
78.43803 489.000
78.45797 517.000
78.47792 421.000
78.49787 470.000
78.51781 426.000
78.53776 430.000
78.55771 430.000
78.57765 378.000
78.59760 414.000
78.61755 415.000
78.63750 435.000
78.65744 431.000
78.67739 420.000
78.69734 375.000
78.71728 407.000
78.73723 353.000
78.75718 377.000
78.77712 343.000
78.79707 351.000
78.81702 337.000
78.83697 376.000
78.85691 340.000
78.87686 335.000
78.89681 374.000
78.91675 341.000
78.93670 355.000
78.95665 367.000
78.97659 368.000
78.99654 389.000
79.01649 367.000
79.03643 393.000
79.05638 471.000
79.07633 415.000
79.09628 416.000
79.11622 442.000
79.13617 431.000
79.15612 434.000
79.17606 411.000
79.19601 435.000
79.21596 389.000
79.23590 444.000
79.25585 373.000
79.27580 420.000
79.29575 364.000
79.31569 362.000
79.33564 420.000
79.35559 374.000
79.37553 391.000
79.39548 346.000
79.41543 380.000
79.43537 398.000
79.45532 346.000
79.47527 355.000
79.49521 377.000
79.51516 341.000
79.53511 303.000
79.55506 357.000
79.57500 337.000
79.59495 335.000
79.61490 335.000
79.63484 300.000
79.65479 342.000
79.67474 312.000
79.69468 306.000
79.71463 300.000
79.73458 313.000
79.75453 278.000
79.77447 326.000
79.79442 302.000
79.81437 316.000
79.83431 318.000
79.85426 280.000
79.87421 315.000
79.89415 312.000
79.91410 289.000
79.93405 326.000
79.95399 286.000
79.97394 301.000
79.99389 311.000
80.01384 293.000
80.03378 272.000
80.05373 293.000
80.07368 310.000
80.09362 303.000
80.11357 297.000
80.13352 296.000
80.15346 327.000
80.17341 290.000
80.19336 283.000
80.21331 322.000
80.23325 280.000
80.25320 371.000
80.27315 319.000
80.29309 288.000
80.31304 331.000
80.33299 313.000
80.35293 325.000
80.37288 337.000
80.39283 340.000
80.41278 315.000
80.43272 317.000
80.45267 312.000
80.47262 282.000
80.49256 292.000
80.51251 292.000
80.53246 309.000
80.55240 372.000
80.57235 330.000
80.59230 310.000
80.61224 337.000
80.63219 320.000
80.65214 301.000
80.67209 310.000
80.69203 343.000
80.71198 274.000
80.73193 300.000
80.75187 286.000
80.77182 326.000
80.79177 292.000
80.81171 299.000
80.83166 287.000
80.85161 282.000
80.87156 313.000
80.89150 331.000
80.91145 289.000
80.93140 310.000
80.95134 333.000
80.97129 291.000
80.99124 324.000
81.01118 290.000
81.03113 308.000
81.05108 304.000
81.07102 323.000
81.09097 307.000
81.11092 316.000
81.13087 341.000
81.15081 321.000
81.17076 301.000
81.19071 354.000
81.21065 310.000
81.23060 351.000
81.25055 323.000
81.27049 316.000
81.29044 299.000
81.31039 312.000
81.33034 333.000
81.35028 291.000
81.37023 302.000
81.39018 322.000
81.41012 272.000
81.43007 326.000
81.45002 301.000
81.46996 309.000
81.48991 299.000
81.50986 282.000
81.52980 311.000
81.54975 300.000
81.56970 286.000
81.58965 279.000
81.60959 307.000
81.62954 304.000
81.64949 330.000
81.66943 286.000
81.68938 298.000
81.70933 273.000
81.72927 327.000
81.74922 284.000
81.76917 296.000
81.78912 318.000
81.80906 269.000
81.82901 314.000
81.84896 300.000
81.86890 311.000
81.88885 315.000
81.90880 317.000
81.92874 305.000
81.94869 294.000
81.96864 323.000
81.98859 284.000
82.00853 291.000
82.02848 312.000
82.04843 290.000
82.06837 321.000
82.08832 289.000
82.10827 320.000
82.12821 285.000
82.14816 320.000
82.16811 318.000
82.18805 296.000
82.20800 302.000
82.22795 306.000
82.24790 281.000
82.26784 281.000
82.28779 308.000
82.30774 318.000
82.32768 302.000
82.34763 310.000
82.36758 314.000
82.38752 292.000
82.40747 317.000
82.42742 313.000
82.44737 325.000
82.46731 315.000
82.48726 340.000
82.50721 306.000
82.52715 337.000
82.54710 339.000
82.56705 341.000
82.58699 341.000
82.60694 322.000
82.62689 336.000
82.64683 329.000
82.66678 329.000
82.68673 347.000
82.70668 328.000
82.72662 349.000
82.74657 321.000
82.76652 309.000
82.78646 305.000
82.80641 324.000
82.82636 320.000
82.84630 364.000
82.86625 363.000
82.88620 333.000
82.90615 302.000
82.92609 322.000
82.94604 342.000
82.96599 345.000
82.98593 327.000
83.00588 307.000
83.02583 330.000
83.04577 346.000
83.06572 335.000
83.08567 302.000
83.10561 304.000
83.12556 280.000
83.14551 322.000
83.16546 323.000
83.18540 284.000
83.20535 314.000
83.22530 323.000
83.24524 281.000
83.26519 308.000
83.28514 313.000
83.30508 311.000
83.32503 316.000
83.34498 324.000
83.36493 283.000
83.38487 280.000
83.40482 322.000
83.42477 297.000
83.44471 319.000
83.46466 306.000
83.48461 338.000
83.50455 302.000
83.52450 285.000
83.54445 263.000
83.56440 326.000
83.58434 298.000
83.60429 322.000
83.62424 326.000
83.64418 323.000
83.66413 293.000
83.68408 301.000
83.70402 297.000
83.72397 303.000
83.74392 324.000
83.76386 300.000
83.78381 342.000
83.80376 295.000
83.82371 311.000
83.84365 294.000
83.86360 327.000
83.88355 327.000
83.90349 326.000
83.92344 347.000
83.94339 330.000
83.96333 305.000
83.98328 326.000
84.00323 296.000
84.02318 324.000
84.04312 342.000
84.06307 287.000
84.08302 315.000
84.10296 321.000
84.12291 335.000
84.14286 333.000
84.16280 320.000
84.18275 317.000
84.20270 336.000
84.22264 292.000
84.24259 313.000
84.26254 315.000
84.28249 310.000
84.30243 290.000
84.32238 273.000
84.34233 322.000
84.36227 328.000
84.38222 293.000
84.40217 320.000
84.42211 313.000
84.44206 313.000
84.46201 295.000
84.48196 311.000
84.50190 299.000
84.52185 349.000
84.54180 326.000
84.56174 339.000
84.58169 307.000
84.60164 295.000
84.62158 305.000
84.64153 290.000
84.66148 284.000
84.68142 334.000
84.70137 348.000
84.72132 315.000
84.74127 350.000
84.76121 346.000
84.78116 336.000
84.80111 373.000
84.82105 341.000
84.84100 345.000
84.86095 361.000
84.88089 376.000
84.90084 378.000
84.92079 400.000
84.94074 408.000
84.96068 377.000
84.98063 402.000
85.00058 362.000
85.02052 422.000
85.04047 392.000
85.06042 388.000
85.08036 372.000
85.10031 368.000
85.12026 407.000
85.14021 347.000
85.16015 374.000
85.18010 366.000
85.20005 357.000
85.21999 382.000
85.23994 380.000
85.25989 355.000
85.27983 366.000
85.29978 311.000
85.31973 339.000
85.33967 360.000
85.35962 293.000
85.37957 318.000
85.39952 332.000
85.41946 315.000
85.43941 329.000
85.45936 320.000
85.47930 325.000
85.49925 303.000
85.51920 327.000
85.53914 301.000
85.55909 343.000
85.57904 280.000
85.59899 289.000
85.61893 283.000
85.63888 318.000
85.65883 281.000
85.67877 308.000
85.69872 287.000
85.71867 327.000
85.73861 264.000
85.75856 308.000
85.77851 302.000
85.79845 311.000
85.81840 306.000
85.83835 288.000
85.85830 268.000
85.87824 297.000
85.89819 294.000
85.91814 307.000
85.93808 286.000
85.95803 260.000
85.97798 279.000
85.99792 297.000
86.01787 292.000
86.03782 273.000
86.05777 281.000
86.07771 305.000
86.09766 300.000
86.11761 299.000
86.13755 276.000
86.15750 279.000
86.17745 321.000
86.19739 290.000
86.21734 315.000
86.23729 275.000
86.25723 305.000
86.27718 284.000
86.29713 295.000
86.31708 299.000
86.33702 298.000
86.35697 320.000
86.37692 298.000
86.39686 314.000
86.41681 324.000
86.43676 288.000
86.45670 300.000
86.47665 283.000
86.49660 289.000
86.51655 287.000
86.53649 303.000
86.55644 308.000
86.57639 304.000
86.59633 287.000
86.61628 307.000
86.63623 300.000
86.65617 295.000
86.67612 296.000
86.69607 328.000
86.71602 317.000
86.73596 288.000
86.75591 312.000
86.77586 306.000
86.79580 280.000
86.81575 329.000
86.83570 306.000
86.85564 307.000
86.87559 305.000
86.89554 308.000
86.91548 318.000
86.93543 311.000
86.95538 320.000
86.97533 330.000
86.99527 318.000
87.01522 355.000
87.03517 335.000
87.05511 275.000
87.07506 325.000
87.09501 372.000
87.11495 350.000
87.13490 294.000
87.15485 354.000
87.17480 347.000
87.19474 361.000
87.21469 321.000
87.23464 338.000
87.25458 365.000
87.27453 341.000
87.29448 323.000
87.31442 361.000
87.33437 338.000
87.35432 353.000
87.37426 314.000
87.39421 337.000
87.41416 357.000
87.43411 310.000
87.45405 307.000
87.47400 298.000
87.49395 344.000
87.51389 345.000
87.53384 303.000
87.55379 301.000
87.57373 320.000
87.59368 329.000
87.61363 333.000
87.63358 317.000
87.65352 324.000
87.67347 306.000
87.69342 302.000
87.71336 322.000
87.73331 342.000
87.75326 328.000
87.77320 285.000
87.79315 318.000
87.81310 319.000
87.83304 316.000
87.85299 314.000
87.87294 326.000
87.89289 312.000
87.91283 301.000
87.93278 311.000
87.95273 307.000
87.97267 303.000
87.99262 321.000
88.01257 301.000
88.03251 290.000
88.05246 345.000
88.07241 295.000
88.09236 294.000
88.11230 285.000
88.13225 286.000
88.15220 297.000
88.17214 306.000
88.19209 311.000
88.21204 296.000
88.23198 303.000
88.25193 305.000
88.27188 307.000
88.29183 332.000
88.31177 282.000
88.33172 305.000
88.35167 290.000
88.37161 275.000
88.39156 282.000
88.41151 294.000
88.43145 292.000
88.45140 280.000
88.47135 326.000
88.49129 298.000
88.51124 316.000
88.53119 301.000
88.55114 306.000
88.57108 318.000
88.59103 268.000
88.61098 331.000
88.63092 305.000
88.65087 309.000
88.67082 293.000
88.69076 283.000
88.71071 329.000
88.73066 278.000
88.75061 296.000
88.77055 304.000
88.79050 305.000
88.81045 276.000
88.83039 292.000
88.85034 279.000
88.87029 276.000
88.89023 324.000
88.91018 298.000
88.93013 261.000
88.95007 310.000
88.97002 302.000
88.98997 295.000
89.00992 320.000
89.02986 287.000
89.04981 292.000
89.06976 291.000
89.08970 288.000
89.10965 322.000
89.12960 296.000
89.14954 301.000
89.16949 310.000
89.18944 301.000
89.20939 283.000
89.22933 298.000
89.24928 337.000
89.26923 301.000
89.28917 313.000
89.30912 309.000
89.32907 315.000
89.34901 319.000
89.36896 317.000
89.38891 305.000
89.40885 309.000
89.42880 334.000
89.44875 323.000
89.46870 308.000
89.48864 330.000
89.50859 319.000
89.52854 313.000
89.54848 318.000
89.56843 315.000
89.58838 315.000
89.60832 330.000
89.62827 321.000
89.64822 301.000
89.66817 303.000
89.68811 312.000
89.70806 306.000
89.72801 322.000
89.74795 314.000
89.76790 333.000
89.78785 319.000
89.80779 300.000
89.82774 315.000
89.84769 313.000
89.86764 320.000
89.88758 288.000
89.90753 304.000
89.92748 309.000
89.94742 283.000
89.96737 333.000
89.98732 299.000
90.00726 314.000
