10.00000 110.000
10.01995 86.000
10.03989 94.000
10.05984 109.000
10.07979 98.000
10.09973 101.000
10.11968 106.000
10.13963 100.000
10.15958 105.000
10.17952 94.000
10.19947 93.000
10.21942 102.000
10.23936 113.000
10.25931 93.000
10.27926 97.000
10.29920 88.000
10.31915 104.000
10.33910 106.000
10.35905 88.000
10.37899 93.000
10.39894 80.000
10.41889 90.000
10.43883 109.000
10.45878 95.000
10.47873 90.000
10.49867 98.000
10.51862 81.000
10.53857 89.000
10.55851 106.000
10.57846 101.000
10.59841 89.000
10.61836 90.000
10.63830 104.000
10.65825 91.000
10.67820 97.000
10.69814 91.000
10.71809 121.000
10.73804 100.000
10.75798 85.000
10.77793 94.000
10.79788 77.000
10.81783 91.000
10.83777 103.000
10.85772 107.000
10.87767 107.000
10.89761 87.000
10.91756 90.000
10.93751 115.000
10.95745 103.000
10.97740 97.000
10.99735 118.000
11.01730 85.000
11.03724 106.000
11.05719 93.000
11.07714 97.000
11.09708 69.000
11.11703 94.000
11.13698 88.000
11.15692 95.000
11.17687 92.000
11.19682 90.000
11.21676 93.000
11.23671 104.000
11.25666 102.000
11.27661 107.000
11.29655 97.000
11.31650 97.000
11.33645 105.000
11.35639 82.000
11.37634 93.000
11.39629 108.000
11.41623 103.000
11.43618 88.000
11.45613 95.000
11.47608 78.000
11.49602 97.000
11.51597 104.000
11.53592 89.000
11.55586 87.000
11.57581 83.000
11.59576 102.000
11.61570 95.000
11.63565 88.000
11.65560 81.000
11.67554 94.000
11.69549 94.000
11.71544 88.000
11.73539 99.000
11.75533 89.000
11.77528 102.000
11.79523 99.000
11.81517 106.000
11.83512 103.000
11.85507 84.000
11.87501 97.000
11.89496 93.000
11.91491 114.000
11.93486 106.000
11.95480 103.000
11.97475 109.000
11.99470 98.000
12.01464 96.000
12.03459 87.000
12.05454 79.000
12.07448 89.000
12.09443 97.000
12.11438 96.000
12.13432 92.000
12.15427 95.000
12.17422 97.000
12.19417 77.000
12.21411 90.000
12.23406 118.000
12.25401 90.000
12.27395 111.000
12.29390 106.000
12.31385 92.000
12.33379 97.000
12.35374 99.000
12.37369 107.000
12.39364 72.000
12.41358 120.000
12.43353 72.000
12.45348 93.000
12.47342 93.000
12.49337 86.000
12.51332 97.000
12.53326 91.000
12.55321 78.000
12.57316 99.000
12.59311 98.000
12.61305 109.000
12.63300 88.000
12.65295 103.000
12.67289 90.000
12.69284 103.000
12.71279 92.000
12.73273 109.000
12.75268 101.000
12.77263 81.000
12.79257 99.000
12.81252 98.000
12.83247 86.000
12.85242 104.000
12.87236 103.000
12.89231 103.000
12.91226 78.000
12.93220 73.000
12.95215 106.000
12.97210 107.000
12.99204 87.000
13.01199 104.000
13.03194 108.000
13.05189 91.000
13.07183 85.000
13.09178 101.000
13.11173 93.000
13.13167 101.000
13.15162 96.000
13.17157 84.000
13.19151 106.000
13.21146 114.000
13.23141 76.000
13.25135 109.000
13.27130 100.000
13.29125 98.000
13.31120 101.000
13.33114 101.000
13.35109 84.000
13.37104 94.000
13.39098 110.000
13.41093 109.000
13.43088 92.000
13.45082 76.000
13.47077 117.000
13.49072 101.000
13.51067 96.000
13.53061 87.000
13.55056 103.000
13.57051 95.000
13.59045 85.000
13.61040 120.000
13.63035 95.000
13.65029 93.000
13.67024 109.000
13.69019 97.000
13.71013 110.000
13.73008 107.000
13.75003 116.000
13.76998 97.000
13.78992 93.000
13.80987 120.000
13.82982 101.000
13.84976 90.000
13.86971 124.000
13.88966 98.000
13.90960 115.000
13.92955 101.000
13.94950 98.000
13.96945 101.000
13.98939 96.000
14.00934 110.000
14.02929 101.000
14.04923 109.000
14.06918 114.000
14.08913 102.000
14.10907 109.000
14.12902 105.000
14.14897 105.000
14.16892 112.000
14.18886 132.000
14.20881 107.000
14.22876 114.000
14.24870 135.000
14.26865 117.000
14.28860 157.000
14.30854 143.000
14.32849 148.000
14.34844 129.000
14.36838 158.000
14.38833 162.000
14.40828 147.000
14.42823 152.000
14.44817 141.000
14.46812 148.000
14.48807 154.000
14.50801 176.000
14.52796 159.000
14.54791 153.000
14.56785 162.000
14.58780 133.000
14.60775 130.000
14.62770 135.000
14.64764 124.000
14.66759 127.000
14.68754 129.000
14.70748 128.000
14.72743 131.000
14.74738 125.000
14.76732 126.000
14.78727 105.000
14.80722 118.000
14.82716 103.000
14.84711 119.000
14.86706 116.000
14.88701 129.000
14.90695 118.000
14.92690 116.000
14.94685 120.000
14.96679 107.000
14.98674 113.000
15.00669 110.000
15.02663 119.000
15.04658 117.000
15.06653 120.000
15.08648 96.000
15.10642 117.000
15.12637 96.000
15.14632 117.000
15.16626 106.000
15.18621 115.000
15.20616 106.000
15.22610 105.000
15.24605 121.000
15.26600 113.000
15.28594 117.000
15.30589 120.000
15.32584 117.000
15.34579 102.000
15.36573 99.000
15.38568 109.000
15.40563 99.000
15.42557 119.000
15.44552 117.000
15.46547 116.000
15.48541 111.000
15.50536 113.000
15.52531 114.000
15.54526 104.000
15.56520 96.000
15.58515 105.000
15.60510 98.000
15.62504 126.000
15.64499 116.000
15.66494 123.000
15.68488 90.000
15.70483 136.000
15.72478 110.000
15.74472 99.000
15.76467 105.000
15.78462 94.000
15.80457 113.000
15.82451 93.000
15.84446 107.000
15.86441 112.000
15.88435 79.000
15.90430 100.000
15.92425 98.000
15.94419 100.000
15.96414 115.000
15.98409 101.000
16.00404 104.000
16.02398 111.000
16.04393 106.000
16.06388 116.000
16.08382 114.000
16.10377 125.000
16.12372 122.000
16.14366 118.000
16.16361 125.000
16.18356 113.000
16.20351 91.000
16.22345 96.000
16.24340 112.000
16.26335 111.000
16.28329 111.000
16.30324 132.000
16.32319 103.000
16.34313 97.000
16.36308 132.000
16.38303 105.000
16.40297 120.000
16.42292 135.000
16.44287 99.000
16.46282 99.000
16.48276 109.000
16.50271 121.000
16.52266 103.000
16.54260 126.000
16.56255 108.000
16.58250 102.000
16.60244 130.000
16.62239 120.000
16.64234 118.000
16.66229 121.000
16.68223 129.000
16.70218 108.000
16.72213 114.000
16.74207 124.000
16.76202 101.000
16.78197 110.000
16.80191 106.000
16.82186 118.000
16.84181 101.000
16.86175 123.000
16.88170 108.000
16.90165 99.000
16.92160 103.000
16.94154 113.000
16.96149 127.000
16.98144 93.000
17.00138 107.000
17.02133 99.000
17.04128 103.000
17.06122 110.000
17.08117 106.000
17.10112 108.000
17.12107 113.000
17.14101 124.000
17.16096 121.000
17.18091 107.000
17.20085 82.000
17.22080 116.000
17.24075 111.000
17.26069 114.000
17.28064 118.000
17.30059 84.000
17.32053 118.000
17.34048 107.000
17.36043 113.000
17.38038 124.000
17.40032 118.000
17.42027 110.000
17.44022 105.000
17.46016 127.000
17.48011 115.000
17.50006 103.000
17.52000 132.000
17.53995 118.000
17.55990 121.000
17.57985 91.000
17.59979 91.000
17.61974 117.000
17.63969 111.000
17.65963 92.000
17.67958 127.000
17.69953 111.000
17.71947 125.000
17.73942 118.000
17.75937 129.000
17.77932 118.000
17.79926 117.000
17.81921 113.000
17.83916 131.000
17.85910 117.000
17.87905 137.000
17.89900 158.000
17.91894 119.000
17.93889 154.000
17.95884 153.000
17.97878 161.000
17.99873 150.000
18.01868 201.000
18.03863 199.000
18.05857 210.000
18.07852 189.000
18.09847 202.000
18.11841 217.000
18.13836 209.000
18.15831 211.000
18.17825 232.000
18.19820 219.000
18.21815 231.000
18.23810 226.000
18.25804 198.000
18.27799 201.000
18.29794 162.000
18.31788 174.000
18.33783 173.000
18.35778 137.000
18.37772 130.000
18.39767 118.000
18.41762 128.000
18.43756 123.000
18.45751 124.000
18.47746 115.000
18.49741 112.000
18.51735 111.000
18.53730 113.000
18.55725 115.000
18.57719 119.000
18.59714 111.000
18.61709 120.000
18.63703 106.000
18.65698 131.000
18.67693 127.000
18.69688 124.000
18.71682 110.000
18.73677 97.000
18.75672 97.000
18.77666 123.000
18.79661 105.000
18.81656 106.000
18.83650 118.000
18.85645 133.000
18.87640 108.000
18.89634 116.000
18.91629 117.000
18.93624 118.000
18.95619 98.000
18.97613 105.000
18.99608 116.000
19.01603 129.000
19.03597 107.000
19.05592 110.000
19.07587 95.000
19.09581 90.000
19.11576 126.000
19.13571 114.000
19.15566 98.000
19.17560 98.000
19.19555 107.000
19.21550 107.000
19.23544 117.000
19.25539 102.000
19.27534 106.000
19.29528 109.000
19.31523 114.000
19.33518 126.000
19.35513 123.000
19.37507 131.000
19.39502 127.000
19.41497 118.000
19.43491 109.000
19.45486 101.000
19.47481 125.000
19.49475 119.000
19.51470 114.000
19.53465 116.000
19.55459 106.000
19.57454 109.000
19.59449 125.000
19.61444 118.000
19.63438 125.000
19.65433 122.000
19.67428 115.000
19.69422 118.000
19.71417 106.000
19.73412 102.000
19.75406 107.000
19.77401 116.000
19.79396 119.000
19.81391 127.000
19.83385 111.000
19.85380 111.000
19.87375 104.000
19.89369 112.000
19.91364 106.000
19.93359 116.000
19.95353 102.000
19.97348 125.000
19.99343 92.000
20.01337 112.000
20.03332 119.000
20.05327 127.000
20.07322 131.000
20.09316 108.000
20.11311 114.000
20.13306 115.000
20.15300 122.000
20.17295 114.000
20.19290 113.000
20.21284 102.000
20.23279 117.000
20.25274 111.000
20.27269 126.000
20.29263 100.000
20.31258 126.000
20.33253 120.000
20.35247 129.000
20.37242 111.000
20.39237 102.000
20.41231 93.000
20.43226 89.000
20.45221 123.000
20.47215 123.000
20.49210 109.000
20.51205 109.000
20.53200 110.000
20.55194 122.000
20.57189 102.000
20.59184 125.000
20.61178 118.000
20.63173 123.000
20.65168 111.000
20.67162 118.000
20.69157 128.000
20.71152 99.000
20.73147 138.000
20.75141 120.000
20.77136 135.000
20.79131 121.000
20.81125 136.000
20.83120 132.000
20.85115 132.000
20.87109 136.000
20.89104 133.000
20.91099 141.000
20.93094 120.000
20.95088 138.000
20.97083 129.000
20.99078 129.000
21.01072 109.000
21.03067 114.000
21.05062 111.000
21.07056 111.000
21.09051 125.000
21.11046 127.000
21.13040 115.000
21.15035 131.000
21.17030 107.000
21.19025 131.000
21.21019 117.000
21.23014 116.000
21.25009 114.000
21.27003 125.000
21.28998 101.000
21.30993 136.000
21.32987 106.000
21.34982 128.000
21.36977 124.000
21.38972 105.000
21.40966 117.000
21.42961 109.000
21.44956 122.000
21.46950 140.000
21.48945 105.000
21.50940 121.000
21.52934 131.000
21.54929 116.000
21.56924 125.000
21.58918 124.000
21.60913 117.000
21.62908 113.000
21.64903 116.000
21.66897 129.000
21.68892 116.000
21.70887 122.000
21.72881 108.000
21.74876 123.000
21.76871 124.000
21.78865 133.000
21.80860 118.000
21.82855 118.000
21.84850 127.000
21.86844 136.000
21.88839 134.000
21.90834 119.000
21.92828 125.000
21.94823 123.000
21.96818 123.000
21.98812 138.000
22.00807 128.000
22.02802 134.000
22.04796 105.000
22.06791 142.000
22.08786 129.000
22.10781 123.000
22.12775 116.000
22.14770 105.000
22.16765 131.000
22.18759 113.000
22.20754 131.000
22.22749 99.000
22.24743 140.000
22.26738 107.000
22.28733 117.000
22.30728 105.000
22.32722 108.000
22.34717 133.000
22.36712 102.000
22.38706 127.000
22.40701 106.000
22.42696 116.000
22.44690 121.000
22.46685 109.000
22.48680 117.000
22.50675 107.000
22.52669 120.000
22.54664 116.000
22.56659 111.000
22.58653 127.000
22.60648 109.000
22.62643 111.000
22.64637 103.000
22.66632 141.000
22.68627 115.000
22.70621 110.000
22.72616 143.000
22.74611 127.000
22.76606 120.000
22.78600 135.000
22.80595 99.000
22.82590 117.000
22.84584 105.000
22.86579 127.000
22.88574 121.000
22.90568 117.000
22.92563 131.000
22.94558 107.000
22.96553 116.000
22.98547 114.000
23.00542 113.000
23.02537 101.000
23.04531 108.000
23.06526 107.000
23.08521 109.000
23.10515 100.000
23.12510 115.000
23.14505 118.000
23.16499 116.000
23.18494 115.000
23.20489 108.000
23.22484 115.000
23.24478 132.000
23.26473 121.000
23.28468 103.000
23.30462 102.000
23.32457 131.000
23.34452 113.000
23.36446 139.000
23.38441 113.000
23.40436 112.000
23.42431 116.000
23.44425 122.000
23.46420 133.000
23.48415 131.000
23.50409 133.000
23.52404 123.000
23.54399 100.000
23.56393 106.000
23.58388 124.000
23.60383 115.000
23.62377 129.000
23.64372 131.000
23.66367 105.000
23.68362 101.000
23.70356 143.000
23.72351 117.000
23.74346 114.000
23.76340 119.000
23.78335 133.000
23.80330 119.000
23.82324 133.000
23.84319 109.000
23.86314 91.000
23.88309 112.000
23.90303 124.000
23.92298 126.000
23.94293 115.000
23.96287 114.000
23.98282 129.000
24.00277 128.000
24.02271 100.000
24.04266 98.000
24.06261 110.000
24.08256 133.000
24.10250 96.000
24.12245 116.000
24.14240 123.000
24.16234 131.000
24.18229 113.000
24.20224 112.000
24.22218 120.000
24.24213 114.000
24.26208 112.000
24.28202 109.000
24.30197 108.000
24.32192 113.000
24.34187 134.000
24.36181 110.000
24.38176 115.000
24.40171 118.000
24.42165 113.000
24.44160 127.000
24.46155 113.000
24.48149 113.000
24.50144 111.000
24.52139 117.000
24.54134 113.000
24.56128 125.000
24.58123 122.000
24.60118 104.000
24.62112 136.000
24.64107 126.000
24.66102 122.000
24.68096 126.000
24.70091 107.000
24.72086 121.000
24.74080 132.000
24.76075 123.000
24.78070 127.000
24.80065 117.000
24.82059 118.000
24.84054 119.000
24.86049 108.000
24.88043 140.000
24.90038 113.000
24.92033 122.000
24.94027 121.000
24.96022 89.000
24.98017 117.000
25.00012 117.000
25.02006 112.000
25.04001 111.000
25.05996 112.000
25.07990 116.000
25.09985 127.000
25.11980 113.000
25.13974 118.000
25.15969 98.000
25.17964 124.000
25.19958 104.000
25.21953 100.000
25.23948 138.000
25.25943 129.000
25.27937 113.000
25.29932 121.000
25.31927 116.000
25.33921 116.000
25.35916 112.000
25.37911 109.000
25.39905 122.000
25.41900 115.000
25.43895 128.000
25.45890 122.000
25.47884 129.000
25.49879 112.000
25.51874 150.000
25.53868 135.000
25.55863 113.000
25.57858 115.000
25.59852 121.000
25.61847 103.000
25.63842 109.000
25.65837 121.000
25.67831 131.000
25.69826 119.000
25.71821 122.000
25.73815 105.000
25.75810 138.000
25.77805 110.000
25.79799 107.000
25.81794 114.000
25.83789 129.000
25.85783 104.000
25.87778 134.000
25.89773 115.000
25.91768 114.000
25.93762 95.000
25.95757 95.000
25.97752 116.000
25.99746 116.000
26.01741 157.000
26.03736 131.000
26.05730 99.000
26.07725 137.000
26.09720 132.000
26.11715 121.000
26.13709 120.000
26.15704 148.000
26.17699 120.000
26.19693 128.000
26.21688 122.000
26.23683 122.000
26.25677 132.000
26.27672 112.000
26.29667 135.000
26.31661 120.000
26.33656 147.000
26.35651 110.000
26.37646 117.000
26.39640 123.000
26.41635 131.000
26.43630 106.000
26.45624 141.000
26.47619 129.000
26.49614 117.000
26.51608 138.000
26.53603 128.000
26.55598 105.000
26.57593 125.000
26.59587 99.000
26.61582 128.000
26.63577 130.000
26.65571 121.000
26.67566 113.000
26.69561 120.000
26.71555 138.000
26.73550 133.000
26.75545 114.000
26.77539 125.000
26.79534 111.000
26.81529 147.000
26.83524 134.000
26.85518 113.000
26.87513 116.000
26.89508 116.000
26.91502 129.000
26.93497 125.000
26.95492 129.000
26.97486 130.000
26.99481 131.000
27.01476 136.000
27.03471 123.000
27.05465 137.000
27.07460 120.000
27.09455 122.000
27.11449 117.000
27.13444 125.000
27.15439 137.000
27.17433 146.000
27.19428 128.000
27.21423 128.000
27.23417 118.000
27.25412 133.000
27.27407 111.000
27.29402 120.000
27.31396 118.000
27.33391 131.000
27.35386 135.000
27.37380 136.000
27.39375 121.000
27.41370 143.000
27.43364 125.000
27.45359 155.000
27.47354 135.000
27.49349 140.000
27.51343 126.000
27.53338 129.000
27.55333 126.000
27.57327 125.000
27.59322 127.000
27.61317 125.000
27.63311 137.000
27.65306 132.000
27.67301 127.000
27.69296 117.000
27.71290 127.000
27.73285 150.000
27.75280 137.000
27.77274 144.000
27.79269 132.000
27.81264 125.000
27.83258 131.000
27.85253 140.000
27.87248 146.000
27.89242 134.000
27.91237 130.000
27.93232 144.000
27.95227 128.000
27.97221 124.000
27.99216 144.000
28.01211 140.000
28.03205 140.000
28.05200 137.000
28.07195 129.000
28.09189 138.000
28.11184 131.000
28.13179 139.000
28.15174 125.000
28.17168 133.000
28.19163 131.000
28.21158 135.000
28.23152 137.000
28.25147 143.000
28.27142 138.000
28.29136 135.000
28.31131 143.000
28.33126 128.000
28.35120 135.000
28.37115 122.000
28.39110 135.000
28.41105 129.000
28.43099 135.000
28.45094 139.000
28.47089 123.000
28.49083 126.000
28.51078 168.000
28.53073 152.000
28.55067 133.000
28.57062 153.000
28.59057 141.000
28.61052 131.000
28.63046 139.000
28.65041 147.000
28.67036 146.000
28.69030 137.000
28.71025 152.000
28.73020 137.000
28.75014 125.000
28.77009 130.000
28.79004 136.000
28.80998 134.000
28.82993 171.000
28.84988 146.000
28.86983 139.000
28.88977 149.000
28.90972 149.000
28.92967 149.000
28.94961 137.000
28.96956 146.000
28.98951 151.000
29.00945 142.000
29.02940 159.000
29.04935 176.000
29.06930 165.000
29.08924 169.000
29.10919 203.000
29.12914 168.000
29.14908 168.000
29.16903 182.000
29.18898 183.000
29.20892 190.000
29.22887 203.000
29.24882 191.000
29.26877 208.000
29.28871 247.000
29.30866 258.000
29.32861 234.000
29.34855 229.000
29.36850 225.000
29.38845 261.000
29.40839 247.000
29.42834 244.000
29.44829 251.000
29.46823 228.000
29.48818 225.000
29.50813 238.000
29.52808 218.000
29.54802 191.000
29.56797 200.000
29.58792 197.000
29.60786 219.000
29.62781 177.000
29.64776 174.000
29.66770 205.000
29.68765 190.000
29.70760 173.000
29.72755 179.000
29.74749 194.000
29.76744 206.000
29.78739 220.000
29.80733 193.000
29.82728 238.000
29.84723 232.000
29.86717 277.000
29.88712 286.000
29.90707 301.000
29.92701 327.000
29.94696 396.000
29.96691 388.000
29.98686 437.000
30.00680 511.000
30.02675 522.000
30.04670 601.000
30.06664 544.000
30.08659 646.000
30.10654 634.000
30.12648 606.000
30.14643 547.000
30.16638 608.000
30.18633 489.000
30.20627 431.000
30.22622 378.000
30.24617 317.000
30.26611 298.000
30.28606 228.000
30.30601 232.000
30.32595 186.000
30.34590 188.000
30.36585 146.000
30.38579 154.000
30.40574 150.000
30.42569 165.000
30.44564 153.000
30.46558 152.000
30.48553 157.000
30.50548 146.000
30.52542 170.000
30.54537 152.000
30.56532 151.000
30.58526 140.000
30.60521 139.000
30.62516 147.000
30.64511 143.000
30.66505 154.000
30.68500 140.000
30.70495 143.000
30.72489 142.000
30.74484 182.000
30.76479 137.000
30.78473 150.000
30.80468 128.000
30.82463 148.000
30.84458 134.000
30.86452 138.000
30.88447 140.000
30.90442 116.000
30.92436 156.000
30.94431 145.000
30.96426 145.000
30.98420 131.000
31.00415 125.000
31.02410 135.000
31.04404 161.000
31.06399 152.000
31.08394 145.000
31.10389 128.000
31.12383 122.000
31.14378 151.000
31.16373 114.000
31.18367 149.000
31.20362 145.000
31.22357 140.000
31.24351 145.000
31.26346 128.000
31.28341 119.000
31.30336 134.000
31.32330 151.000
31.34325 124.000
31.36320 134.000
31.38314 150.000
31.40309 125.000
31.42304 169.000
31.44298 150.000
31.46293 133.000
31.48288 160.000
31.50282 124.000
31.52277 134.000
31.54272 133.000
31.56267 144.000
31.58261 147.000
31.60256 134.000
31.62251 142.000
31.64245 128.000
31.66240 136.000
31.68235 154.000
31.70229 137.000
31.72224 138.000
31.74219 136.000
31.76214 130.000
31.78208 142.000
31.80203 139.000
31.82198 138.000
31.84192 136.000
31.86187 134.000
31.88182 153.000
31.90176 137.000
31.92171 139.000
31.94166 155.000
31.96160 141.000
31.98155 148.000
32.00150 151.000
32.02145 158.000
32.04139 169.000
32.06134 154.000
32.08129 163.000
32.10123 177.000
32.12118 200.000
32.14113 160.000
32.16107 151.000
32.18102 163.000
32.20097 162.000
32.22092 152.000
32.24086 161.000
32.26081 151.000
32.28076 138.000
32.30070 144.000
32.32065 144.000
32.34060 137.000
32.36054 161.000
32.38049 141.000
32.40044 140.000
32.42039 160.000
32.44033 131.000
32.46028 117.000
32.48023 148.000
32.50017 136.000
32.52012 127.000
32.54007 130.000
32.56001 132.000
32.57996 142.000
32.59991 125.000
32.61985 147.000
32.63980 135.000
32.65975 123.000
32.67970 138.000
32.69964 156.000
32.71959 120.000
32.73954 117.000
32.75948 130.000
32.77943 141.000
32.79938 141.000
32.81932 147.000
32.83927 131.000
32.85922 146.000
32.87917 132.000
32.89911 146.000
32.91906 131.000
32.93901 133.000
32.95895 122.000
32.97890 138.000
32.99885 144.000
33.01879 139.000
33.03874 139.000
33.05869 140.000
33.07863 147.000
33.09858 147.000
33.11853 153.000
33.13848 158.000
33.15842 135.000
33.17837 163.000
33.19832 155.000
33.21826 169.000
33.23821 151.000
33.25816 141.000
33.27810 164.000
33.29805 147.000
33.31800 138.000
33.33795 148.000
33.35789 149.000
33.37784 167.000
33.39779 166.000
33.41773 170.000
33.43768 151.000
33.45763 156.000
33.47757 156.000
33.49752 144.000
33.51747 145.000
33.53741 167.000
33.55736 152.000
33.57731 144.000
33.59726 113.000
33.61720 150.000
33.63715 152.000
33.65710 107.000
33.67704 139.000
33.69699 127.000
33.71694 135.000
33.73688 134.000
33.75683 146.000
33.77678 133.000
33.79673 133.000
33.81667 145.000
33.83662 156.000
33.85657 146.000
33.87651 144.000
33.89646 150.000
33.91641 154.000
33.93635 143.000
33.95630 162.000
33.97625 162.000
33.99620 138.000
34.01614 151.000
34.03609 148.000
34.05604 150.000
34.07598 141.000
34.09593 159.000
34.11588 167.000
34.13582 157.000
34.15577 159.000
34.17572 175.000
34.19566 162.000
34.21561 182.000
34.23556 204.000
34.25551 176.000
34.27545 210.000
34.29540 172.000
34.31535 193.000
34.33529 187.000
34.35524 188.000
34.37519 173.000
34.39513 154.000
34.41508 206.000
34.43503 179.000
34.45498 163.000
34.47492 163.000
34.49487 178.000
34.51482 186.000
34.53476 196.000
34.55471 197.000
34.57466 163.000
34.59460 207.000
34.61455 185.000
34.63450 173.000
34.65444 217.000
34.67439 212.000
34.69434 190.000
34.71429 219.000
34.73423 217.000
34.75418 228.000
34.77413 265.000
34.79407 248.000
34.81402 289.000
34.83397 317.000
34.85391 335.000
34.87386 370.000
34.89381 390.000
34.91376 364.000
34.93370 406.000
34.95365 427.000
34.97360 450.000
34.99354 433.000
35.01349 445.000
35.03344 531.000
35.05338 501.000
35.07333 490.000
35.09328 505.000
35.11322 537.000
35.13317 514.000
35.15312 483.000
35.17307 513.000
35.19301 508.000
35.21296 536.000
35.23291 571.000
35.25285 566.000
35.27280 664.000
35.29275 721.000
35.31269 798.000
35.33264 842.000
35.35259 1036.000
35.37254 1086.000
35.39248 1268.000
35.41243 1370.000
35.43238 1487.000
35.45232 1601.000
35.47227 1757.000
35.49222 1736.000
35.51216 1856.000
35.53211 1727.000
35.55206 1641.000
35.57201 1529.000
35.59195 1370.000
35.61190 1273.000
35.63185 1001.000
35.65179 836.000
35.67174 668.000
35.69169 565.000
35.71163 452.000
35.73158 393.000
35.75153 284.000
35.77147 267.000
35.79142 223.000
35.81137 221.000
35.83132 203.000
35.85126 203.000
35.87121 212.000
35.89116 181.000
35.91110 194.000
35.93105 186.000
35.95100 175.000
35.97094 174.000
35.99089 181.000
36.01084 166.000
36.03079 179.000
36.05073 185.000
36.07068 149.000
36.09063 194.000
36.11057 186.000
36.13052 160.000
36.15047 187.000
36.17041 174.000
36.19036 168.000
36.21031 153.000
36.23025 173.000
36.25020 143.000
36.27015 186.000
36.29010 146.000
36.31004 171.000
36.32999 162.000
36.34994 161.000
36.36988 204.000
36.38983 169.000
36.40978 169.000
36.42972 179.000
36.44967 183.000
36.46962 181.000
36.48957 168.000
36.50951 157.000
36.52946 154.000
36.54941 152.000
36.56935 164.000
36.58930 172.000
36.60925 148.000
36.62919 155.000
36.64914 195.000
36.66909 176.000
36.68903 209.000
36.70898 182.000
36.72893 174.000
36.74888 227.000
36.76882 218.000
36.78877 196.000
36.80872 260.000
36.82866 264.000
36.84861 293.000
36.86856 284.000
36.88850 305.000
36.90845 308.000
36.92840 351.000
36.94835 363.000
36.96829 359.000
36.98824 401.000
37.00819 424.000
37.02813 406.000
37.04808 459.000
37.06803 474.000
37.08797 472.000
37.10792 499.000
37.12787 462.000
37.14781 479.000
37.16776 474.000
37.18771 429.000
37.20766 422.000
37.22760 401.000
37.24755 389.000
37.26750 356.000
37.28744 302.000
37.30739 312.000
37.32734 339.000
37.34728 323.000
37.36723 311.000
37.38718 324.000
37.40713 320.000
37.42707 303.000
37.44702 298.000
37.46697 273.000
37.48691 287.000
37.50686 274.000
37.52681 233.000
37.54675 274.000
37.56670 248.000
37.58665 257.000
37.60660 225.000
37.62654 220.000
37.64649 221.000
37.66644 215.000
37.68638 197.000
37.70633 199.000
37.72628 183.000
37.74622 183.000
37.76617 172.000
37.78612 163.000
37.80606 166.000
37.82601 143.000
37.84596 141.000
37.86591 166.000
37.88585 151.000
37.90580 151.000
37.92575 148.000
37.94569 138.000
37.96564 140.000
37.98559 145.000
38.00553 149.000
38.02548 124.000
38.04543 128.000
38.06538 133.000
38.08532 121.000
38.10527 122.000
38.12522 116.000
38.14516 135.000
38.16511 122.000
38.18506 112.000
38.20500 112.000
38.22495 127.000
38.24490 137.000
38.26484 109.000
38.28479 104.000
38.30474 120.000
38.32469 130.000
38.34463 123.000
38.36458 121.000
38.38453 125.000
38.40447 108.000
38.42442 114.000
38.44437 101.000
38.46431 118.000
38.48426 113.000
38.50421 105.000
38.52416 109.000
38.54410 121.000
38.56405 123.000
38.58400 120.000
38.60394 148.000
38.62389 114.000
38.64384 117.000
38.66378 128.000
38.68373 125.000
38.70368 129.000
38.72362 130.000
38.74357 106.000
38.76352 123.000
38.78347 118.000
38.80341 122.000
38.82336 105.000
38.84331 120.000
38.86325 131.000
38.88320 150.000
38.90315 104.000
38.92309 131.000
38.94304 118.000
38.96299 105.000
38.98294 126.000
39.00288 116.000
39.02283 121.000
39.04278 140.000
39.06272 120.000
39.08267 139.000
39.10262 128.000
39.12256 137.000
39.14251 121.000
39.16246 130.000
39.18241 133.000
39.20235 143.000
39.22230 117.000
39.24225 130.000
39.26219 114.000
39.28214 133.000
39.30209 130.000
39.32203 124.000
39.34198 124.000
39.36193 114.000
39.38187 110.000
39.40182 102.000
39.42177 122.000
39.44172 123.000
39.46166 144.000
39.48161 128.000
39.50156 126.000
39.52150 103.000
39.54145 102.000
39.56140 123.000
39.58134 114.000
39.60129 134.000
39.62124 126.000
39.64119 129.000
39.66113 130.000
39.68108 121.000
39.70103 133.000
39.72097 132.000
39.74092 136.000
39.76087 147.000
39.78081 138.000
39.80076 113.000
39.82071 139.000
39.84065 139.000
39.86060 114.000
39.88055 128.000
39.90050 125.000
39.92044 133.000
39.94039 122.000
39.96034 123.000
39.98028 132.000
40.00023 147.000
40.02018 125.000
40.04012 146.000
40.06007 127.000
40.08002 147.000
40.09997 139.000
40.11991 136.000
40.13986 131.000
40.15981 133.000
40.17975 137.000
40.19970 145.000
40.21965 118.000
40.23959 148.000
40.25954 134.000
40.27949 143.000
40.29943 135.000
40.31938 155.000
40.33933 162.000
40.35928 149.000
40.37922 140.000
40.39917 146.000
40.41912 169.000
40.43906 158.000
40.45901 151.000
40.47896 169.000
40.49890 168.000
40.51885 208.000
40.53880 200.000
40.55875 176.000
40.57869 185.000
40.59864 231.000
40.61859 243.000
40.63853 215.000
40.65848 218.000
40.67843 256.000
40.69837 302.000
40.71832 278.000
40.73827 272.000
40.75822 309.000
40.77816 347.000
40.79811 338.000
40.81806 372.000
40.83800 434.000
40.85795 391.000
40.87790 421.000
40.89784 458.000
40.91779 511.000
40.93774 522.000
40.95768 567.000
40.97763 557.000
40.99758 611.000
41.01753 611.000
41.03747 605.000
41.05742 614.000
41.07737 644.000
41.09731 627.000
41.11726 629.000
41.13721 631.000
41.15715 628.000
41.17710 542.000
41.19705 540.000
41.21700 552.000
41.23694 507.000
41.25689 484.000
41.27684 464.000
41.29678 434.000
41.31673 374.000
41.33668 382.000
41.35662 362.000
41.37657 285.000
41.39652 319.000
41.41646 300.000
41.43641 293.000
41.45636 271.000
41.47631 259.000
41.49625 233.000
41.51620 219.000
41.53615 182.000
41.55609 214.000
41.57604 211.000
41.59599 205.000
41.61593 198.000
41.63588 191.000
41.65583 183.000
41.67578 179.000
41.69572 183.000
41.71567 164.000
41.73562 181.000
41.75556 172.000
41.77551 184.000
41.79546 168.000
41.81540 165.000
41.83535 158.000
41.85530 160.000
41.87524 162.000
41.89519 130.000
41.91514 149.000
41.93509 144.000
41.95503 129.000
41.97498 128.000
41.99493 145.000
42.01487 139.000
42.03482 138.000
42.05477 127.000
42.07471 127.000
42.09466 138.000
42.11461 136.000
42.13456 135.000
42.15450 140.000
42.17445 138.000
42.19440 129.000
42.21434 140.000
42.23429 153.000
42.25424 122.000
42.27418 150.000
42.29413 133.000
42.31408 137.000
42.33403 130.000
42.35397 115.000
42.37392 129.000
42.39387 145.000
42.41381 140.000
42.43376 137.000
42.45371 146.000
42.47365 130.000
42.49360 115.000
42.51355 145.000
42.53349 152.000
42.55344 141.000
42.57339 132.000
42.59334 143.000
42.61328 150.000
42.63323 165.000
42.65318 168.000
42.67312 148.000
42.69307 166.000
42.71302 168.000
42.73296 173.000
42.75291 176.000
42.77286 204.000
42.79281 220.000
42.81275 237.000
42.83270 252.000
42.85265 271.000
42.87259 299.000
42.89254 319.000
42.91249 372.000
42.93243 366.000
42.95238 418.000
42.97233 422.000
42.99227 465.000
43.01222 550.000
43.03217 545.000
43.05212 578.000
43.07206 586.000
43.09201 610.000
43.11196 680.000
43.13190 717.000
43.15185 674.000
43.17180 699.000
43.19174 712.000
43.21169 615.000
43.23164 594.000
43.25159 598.000
43.27153 522.000
43.29148 464.000
43.31143 386.000
43.33137 352.000
43.35132 327.000
43.37127 292.000
43.39121 240.000
43.41116 212.000
43.43111 204.000
43.45105 197.000
43.47100 184.000
43.49095 170.000
43.51090 148.000
43.53084 149.000
43.55079 144.000
43.57074 153.000
43.59068 131.000
43.61063 133.000
43.63058 126.000
43.65052 123.000
43.67047 131.000
43.69042 107.000
43.71037 146.000
43.73031 143.000
43.75026 123.000
43.77021 116.000
43.79015 129.000
43.81010 137.000
43.83005 127.000
43.84999 137.000
43.86994 125.000
43.88989 125.000
43.90984 111.000
43.92978 112.000
43.94973 129.000
43.96968 138.000
43.98962 122.000
44.00957 135.000
44.02952 106.000
44.04946 114.000
44.06941 106.000
44.08936 133.000
44.10930 141.000
44.12925 106.000
44.14920 125.000
44.16915 112.000
44.18909 128.000
44.20904 118.000
44.22899 112.000
44.24893 104.000
44.26888 133.000
44.28883 120.000
44.30877 107.000
44.32872 134.000
44.34867 133.000
44.36862 115.000
44.38856 126.000
44.40851 128.000
44.42846 118.000
44.44840 126.000
44.46835 121.000
44.48830 113.000
44.50824 121.000
44.52819 130.000
44.54814 133.000
44.56808 129.000
44.58803 117.000
44.60798 136.000
44.62793 101.000
44.64787 113.000
44.66782 131.000
44.68777 114.000
44.70771 136.000
44.72766 119.000
44.74761 140.000
44.76755 145.000
44.78750 133.000
44.80745 129.000
44.82740 142.000
44.84734 150.000
44.86729 125.000
44.88724 140.000
44.90718 150.000
44.92713 147.000
44.94708 131.000
44.96702 141.000
44.98697 154.000
45.00692 145.000
45.02686 137.000
45.04681 129.000
45.06676 148.000
45.08671 126.000
45.10665 131.000
45.12660 128.000
45.14655 121.000
45.16649 117.000
45.18644 126.000
45.20639 128.000
45.22633 145.000
45.24628 148.000
45.26623 143.000
45.28618 150.000
45.30612 144.000
45.32607 151.000
45.34602 154.000
45.36596 146.000
45.38591 166.000
45.40586 156.000
45.42580 156.000
45.44575 177.000
45.46570 165.000
45.48565 172.000
45.50559 188.000
45.52554 170.000
45.54549 197.000
45.56543 208.000
45.58538 194.000
45.60533 199.000
45.62527 225.000
45.64522 232.000
45.66517 251.000
45.68511 217.000
45.70506 250.000
45.72501 267.000
45.74496 270.000
45.76490 267.000
45.78485 312.000
45.80480 272.000
45.82474 306.000
45.84469 282.000
45.86464 262.000
45.88458 272.000
45.90453 276.000
45.92448 263.000
45.94443 279.000
45.96437 273.000
45.98432 314.000
46.00427 242.000
46.02421 269.000
46.04416 254.000
46.06411 254.000
46.08405 251.000
46.10400 226.000
46.12395 244.000
46.14389 227.000
46.16384 232.000
46.18379 193.000
46.20374 188.000
46.22368 199.000
46.24363 163.000
46.26358 148.000
46.28352 189.000
46.30347 162.000
46.32342 141.000
46.34336 168.000
46.36331 147.000
46.38326 164.000
46.40321 137.000
46.42315 126.000
46.44310 162.000
46.46305 182.000
46.48299 126.000
46.50294 143.000
46.52289 138.000
46.54283 160.000
46.56278 142.000
46.58273 128.000
46.60267 137.000
46.62262 130.000
46.64257 129.000
46.66252 146.000
46.68246 127.000
46.70241 119.000
46.72236 130.000
46.74230 115.000
46.76225 127.000
46.78220 129.000
46.80214 132.000
46.82209 134.000
46.84204 124.000
46.86199 127.000
46.88193 108.000
46.90188 122.000
46.92183 116.000
46.94177 112.000
46.96172 134.000
46.98167 124.000
47.00161 106.000
47.02156 121.000
47.04151 133.000
47.06146 147.000
47.08140 115.000
47.10135 121.000
47.12130 132.000
47.14124 122.000
47.16119 107.000
47.18114 135.000
47.20108 114.000
47.22103 91.000
47.24098 111.000
47.26092 121.000
47.28087 119.000
47.30082 115.000
47.32077 136.000
47.34071 123.000
47.36066 110.000
47.38061 115.000
47.40055 130.000
47.42050 131.000
47.44045 115.000
47.46039 108.000
47.48034 120.000
47.50029 113.000
47.52024 100.000
47.54018 99.000
47.56013 98.000
47.58008 117.000
47.60002 114.000
47.61997 102.000
47.63992 122.000
47.65986 108.000
47.67981 112.000
47.69976 98.000
47.71970 118.000
47.73965 120.000
47.75960 126.000
47.77955 103.000
47.79949 104.000
47.81944 112.000
47.83939 109.000
47.85933 120.000
47.87928 116.000
47.89923 107.000
47.91917 121.000
47.93912 97.000
47.95907 110.000
47.97902 114.000
47.99896 111.000
48.01891 97.000
48.03886 113.000
48.05880 115.000
48.07875 121.000
48.09870 122.000
48.11864 125.000
48.13859 99.000
48.15854 104.000
48.17848 119.000
48.19843 99.000
48.21838 108.000
48.23833 111.000
48.25827 99.000
48.27822 88.000
48.29817 101.000
48.31811 107.000
48.33806 105.000
48.35801 105.000
48.37795 94.000
48.39790 104.000
48.41785 115.000
48.43780 101.000
48.45774 102.000
48.47769 111.000
48.49764 111.000
48.51758 110.000
48.53753 125.000
48.55748 89.000
48.57742 107.000
48.59737 90.000
48.61732 107.000
48.63726 108.000
48.65721 85.000
48.67716 100.000
48.69711 110.000
48.71705 105.000
48.73700 99.000
48.75695 116.000
48.77689 111.000
48.79684 103.000
48.81679 103.000
48.83673 110.000
48.85668 112.000
48.87663 102.000
48.89658 105.000
48.91652 120.000
48.93647 102.000
48.95642 110.000
48.97636 107.000
48.99631 91.000
49.01626 101.000
49.03620 107.000
49.05615 109.000
49.07610 92.000
49.09605 92.000
49.11599 93.000
49.13594 98.000
49.15589 117.000
49.17583 90.000
49.19578 86.000
49.21573 104.000
49.23567 99.000
49.25562 107.000
49.27557 121.000
49.29551 109.000
49.31546 91.000
49.33541 116.000
49.35536 111.000
49.37530 107.000
49.39525 112.000
49.41520 85.000
49.43514 100.000
49.45509 93.000
49.47504 97.000
49.49498 121.000
49.51493 110.000
49.53488 111.000
49.55483 110.000
49.57477 101.000
49.59472 110.000
49.61467 119.000
49.63461 120.000
49.65456 100.000
49.67451 102.000
49.69445 124.000
49.71440 109.000
49.73435 100.000
49.75429 89.000
49.77424 99.000
49.79419 94.000
49.81414 106.000
49.83408 110.000
49.85403 108.000
49.87398 89.000
49.89392 108.000
49.91387 98.000
49.93382 94.000
49.95376 106.000
49.97371 105.000
49.99366 85.000
50.01361 102.000
50.03355 107.000
50.05350 103.000
50.07345 92.000
50.09339 78.000
50.11334 116.000
50.13329 98.000
50.15323 112.000
50.17318 96.000
50.19313 92.000
50.21307 135.000
50.23302 92.000
50.25297 101.000
50.27292 119.000
50.29286 105.000
50.31281 113.000
50.33276 113.000
50.35270 100.000
50.37265 108.000
50.39260 96.000
50.41254 111.000
50.43249 105.000
50.45244 95.000
50.47239 104.000
50.49233 102.000
50.51228 89.000
50.53223 112.000
50.55217 104.000
50.57212 95.000
50.59207 115.000
50.61201 115.000
50.63196 89.000
50.65191 106.000
50.67186 122.000
50.69180 96.000
50.71175 108.000
50.73170 103.000
50.75164 99.000
50.77159 121.000
50.79154 97.000
50.81148 112.000
50.83143 109.000
50.85138 116.000
50.87132 99.000
50.89127 108.000
50.91122 93.000
50.93117 115.000
50.95111 113.000
50.97106 112.000
50.99101 108.000
51.01095 101.000
51.03090 104.000
51.05085 119.000
51.07079 122.000
51.09074 92.000
51.11069 106.000
51.13064 110.000
51.15058 110.000
51.17053 92.000
51.19048 103.000
51.21042 100.000
51.23037 112.000
51.25032 111.000
51.27026 96.000
51.29021 118.000
51.31016 116.000
51.33010 95.000
51.35005 113.000
51.37000 91.000
51.38995 97.000
51.40989 109.000
51.42984 105.000
51.44979 104.000
51.46973 115.000
51.48968 92.000
51.50963 88.000
51.52957 117.000
51.54952 87.000
51.56947 92.000
51.58942 111.000
51.60936 121.000
51.62931 102.000
51.64926 111.000
51.66920 92.000
51.68915 107.000
51.70910 121.000
51.72904 95.000
51.74899 93.000
51.76894 104.000
51.78888 75.000
51.80883 105.000
51.82878 118.000
51.84873 95.000
51.86867 95.000
51.88862 90.000
51.90857 108.000
51.92851 88.000
51.94846 106.000
51.96841 105.000
51.98835 109.000
52.00830 117.000
52.02825 99.000
52.04820 116.000
52.06814 85.000
52.08809 107.000
52.10804 105.000
52.12798 121.000
52.14793 112.000
52.16788 100.000
52.18782 110.000
52.20777 102.000
52.22772 110.000
52.24767 103.000
52.26761 122.000
52.28756 110.000
52.30751 109.000
52.32745 110.000
52.34740 108.000
52.36735 107.000
52.38729 114.000
52.40724 106.000
52.42719 88.000
52.44713 103.000
52.46708 96.000
52.48703 111.000
52.50698 91.000
52.52692 113.000
52.54687 111.000
52.56682 103.000
52.58676 96.000
52.60671 92.000
52.62666 97.000
52.64660 104.000
52.66655 108.000
52.68650 102.000
52.70645 104.000
52.72639 96.000
52.74634 107.000
52.76629 108.000
52.78623 104.000
52.80618 95.000
52.82613 110.000
52.84607 105.000
52.86602 100.000
52.88597 106.000
52.90591 112.000
52.92586 120.000
52.94581 103.000
52.96576 116.000
52.98570 113.000
53.00565 102.000
53.02560 120.000
53.04554 104.000
53.06549 86.000
53.08544 102.000
53.10538 113.000
53.12533 110.000
53.14528 128.000
53.16523 93.000
53.18517 105.000
53.20512 127.000
53.22507 120.000
53.24501 117.000
53.26496 115.000
53.28491 120.000
53.30485 118.000
53.32480 126.000
53.34475 124.000
53.36469 131.000
53.38464 132.000
53.40459 132.000
53.42454 143.000
53.44448 151.000
53.46443 145.000
53.48438 168.000
53.50432 153.000
53.52427 212.000
53.54422 203.000
53.56416 192.000
53.58411 230.000
53.60406 216.000
53.62401 220.000
53.64395 262.000
53.66390 243.000
53.68385 257.000
53.70379 238.000
53.72374 233.000
53.74369 210.000
53.76363 207.000
53.78358 188.000
53.80353 189.000
53.82348 190.000
53.84342 147.000
53.86337 157.000
53.88332 166.000
53.90326 129.000
53.92321 108.000
53.94316 108.000
53.96310 109.000
53.98305 122.000
54.00300 106.000
54.02294 109.000
54.04289 105.000
54.06284 119.000
54.08279 118.000
54.10273 99.000
54.12268 96.000
54.14263 113.000
54.16257 95.000
54.18252 124.000
54.20247 104.000
54.22241 95.000
54.24236 103.000
54.26231 94.000
54.28226 106.000
54.30220 102.000
54.32215 109.000
54.34210 102.000
54.36204 116.000
54.38199 111.000
54.40194 116.000
54.42188 129.000
54.44183 114.000
54.46178 118.000
54.48172 104.000
54.50167 127.000
54.52162 100.000
54.54157 121.000
54.56151 112.000
54.58146 129.000
54.60141 108.000
54.62135 127.000
54.64130 116.000
54.66125 116.000
54.68119 108.000
54.70114 102.000
54.72109 99.000
54.74104 106.000
54.76098 106.000
54.78093 111.000
54.80088 91.000
54.82082 104.000
54.84077 97.000
54.86072 87.000
54.88066 100.000
54.90061 98.000
54.92056 115.000
54.94050 111.000
54.96045 99.000
54.98040 112.000
55.00035 110.000
55.02029 93.000
55.04024 96.000
55.06019 114.000
55.08013 90.000
55.10008 104.000
55.12003 126.000
55.13997 115.000
55.15992 112.000
55.17987 100.000
55.19982 101.000
55.21976 96.000
55.23971 108.000
55.25966 108.000
55.27960 105.000
55.29955 100.000
55.31950 116.000
55.33944 125.000
55.35939 83.000
55.37934 113.000
55.39929 106.000
55.41923 107.000
55.43918 107.000
55.45913 99.000
55.47907 90.000
55.49902 127.000
55.51897 128.000
55.53891 103.000
55.55886 80.000
55.57881 117.000
55.59875 124.000
55.61870 108.000
55.63865 112.000
55.65860 115.000
55.67854 112.000
55.69849 102.000
55.71844 120.000
55.73838 112.000
55.75833 118.000
55.77828 95.000
55.79822 128.000
55.81817 125.000
55.83812 97.000
55.85807 100.000
55.87801 106.000
55.89796 99.000
55.91791 104.000
55.93785 108.000
55.95780 109.000
55.97775 102.000
55.99769 109.000
56.01764 129.000
56.03759 107.000
56.05753 116.000
56.07748 129.000
56.09743 121.000
56.11738 113.000
56.13732 110.000
56.15727 112.000
56.17722 106.000
56.19716 114.000
56.21711 117.000
56.23706 105.000
56.25700 106.000
56.27695 126.000
56.29690 89.000
56.31685 115.000
56.33679 111.000
56.35674 116.000
56.37669 114.000
56.39663 129.000
56.41658 133.000
56.43653 118.000
56.45647 108.000
56.47642 116.000
56.49637 126.000
56.51631 103.000
56.53626 110.000
56.55621 141.000
56.57616 111.000
56.59610 142.000
56.61605 115.000
56.63600 130.000
56.65594 138.000
56.67589 129.000
56.69584 126.000
56.71578 144.000
56.73573 128.000
56.75568 138.000
56.77563 156.000
56.79557 159.000
56.81552 155.000
56.83547 168.000
56.85541 187.000
56.87536 191.000
56.89531 210.000
56.91525 225.000
56.93520 244.000
56.95515 258.000
56.97510 255.000
56.99504 252.000
57.01499 301.000
57.03494 339.000
57.05488 339.000
57.07483 373.000
57.09478 429.000
57.11472 458.000
57.13467 517.000
57.15462 479.000
57.17456 541.000
57.19451 580.000
57.21446 567.000
57.23441 533.000
57.25435 553.000
57.27430 518.000
57.29425 506.000
57.31419 480.000
57.33414 478.000
57.35409 468.000
57.37403 393.000
57.39398 412.000
57.41393 374.000
57.43388 333.000
57.45382 299.000
57.47377 265.000
57.49372 256.000
57.51366 238.000
57.53361 225.000
57.55356 234.000
57.57350 191.000
57.59345 231.000
57.61340 187.000
57.63334 215.000
57.65329 205.000
57.67324 221.000
57.69319 177.000
57.71313 201.000
57.73308 194.000
57.75303 195.000
57.77297 195.000
57.79292 167.000
57.81287 173.000
57.83281 183.000
57.85276 184.000
57.87271 163.000
57.89266 191.000
57.91260 177.000
57.93255 193.000
57.95250 171.000
57.97244 175.000
57.99239 183.000
58.01234 159.000
58.03228 163.000
58.05223 173.000
58.07218 146.000
58.09212 150.000
58.11207 137.000
58.13202 164.000
58.15197 140.000
58.17191 138.000
58.19186 139.000
58.21181 141.000
58.23175 159.000
58.25170 127.000
58.27165 136.000
58.29159 115.000
58.31154 125.000
58.33149 145.000
58.35144 110.000
58.37138 150.000
58.39133 134.000
58.41128 128.000
58.43122 126.000
58.45117 116.000
58.47112 106.000
58.49106 142.000
58.51101 114.000
58.53096 118.000
58.55090 124.000
58.57085 120.000
58.59080 109.000
58.61075 113.000
58.63069 99.000
58.65064 119.000
58.67059 118.000
58.69053 119.000
58.71048 128.000
58.73043 118.000
58.75037 126.000
58.77032 129.000
58.79027 107.000
58.81022 129.000
58.83016 113.000
58.85011 130.000
58.87006 109.000
58.89000 121.000
58.90995 115.000
58.92990 113.000
58.94984 108.000
58.96979 108.000
58.98974 113.000
59.00969 118.000
59.02963 147.000
59.04958 105.000
59.06953 123.000
59.08947 101.000
59.10942 136.000
59.12937 115.000
59.14931 112.000
59.16926 150.000
59.18921 98.000
59.20915 113.000
59.22910 105.000
59.24905 107.000
59.26900 124.000
59.28894 106.000
59.30889 129.000
59.32884 109.000
59.34878 112.000
59.36873 119.000
59.38868 115.000
59.40862 129.000
59.42857 114.000
59.44852 137.000
59.46847 115.000
59.48841 111.000
59.50836 127.000
59.52831 129.000
59.54825 112.000
59.56820 107.000
59.58815 122.000
59.60809 122.000
59.62804 109.000
59.64799 116.000
59.66793 99.000
59.68788 120.000
59.70783 114.000
59.72778 126.000
59.74772 114.000
59.76767 115.000
59.78762 96.000
59.80756 86.000
59.82751 98.000
59.84746 115.000
59.86740 110.000
59.88735 105.000
59.90730 128.000
59.92725 130.000
59.94719 107.000
59.96714 101.000
59.98709 113.000
60.00703 108.000
60.02698 104.000
60.04693 122.000
60.06687 128.000
60.08682 100.000
60.10677 113.000
60.12671 119.000
60.14666 114.000
60.16661 102.000
60.18656 117.000
60.20650 101.000
60.22645 112.000
60.24640 114.000
60.26634 118.000
60.28629 94.000
60.30624 109.000
60.32618 121.000
60.34613 95.000
60.36608 110.000
60.38603 118.000
60.40597 130.000
60.42592 112.000
60.44587 118.000
60.46581 111.000
60.48576 102.000
60.50571 93.000
60.52565 135.000
60.54560 121.000
60.56555 137.000
60.58550 141.000
60.60544 94.000
60.62539 134.000
60.64534 95.000
60.66528 122.000
60.68523 127.000
60.70518 91.000
60.72512 110.000
60.74507 134.000
60.76502 104.000
60.78496 103.000
60.80491 122.000
60.82486 113.000
60.84481 120.000
60.86475 123.000
60.88470 119.000
60.90465 119.000
60.92459 124.000
60.94454 115.000
60.96449 125.000
60.98443 129.000
61.00438 116.000
61.02433 140.000
61.04428 137.000
61.06422 156.000
61.08417 131.000
61.10412 146.000
61.12406 174.000
61.14401 145.000
61.16396 174.000
61.18390 170.000
61.20385 185.000
61.22380 206.000
61.24374 212.000
61.26369 233.000
61.28364 227.000
61.30359 210.000
61.32353 265.000
61.34348 276.000
61.36343 282.000
61.38337 308.000
61.40332 319.000
61.42327 322.000
61.44321 327.000
61.46316 315.000
61.48311 322.000
61.50306 349.000
61.52300 336.000
61.54295 316.000
61.56290 310.000
61.58284 305.000
61.60279 300.000
61.62274 276.000
61.64268 281.000
61.66263 283.000
61.68258 282.000
61.70252 246.000
61.72247 233.000
61.74242 221.000
61.76237 209.000
61.78231 238.000
61.80226 197.000
61.82221 207.000
61.84215 204.000
61.86210 176.000
61.88205 182.000
61.90199 192.000
61.92194 196.000
61.94189 220.000
61.96184 170.000
61.98178 183.000
62.00173 199.000
62.02168 189.000
62.04162 199.000
62.06157 184.000
62.08152 187.000
62.10146 181.000
62.12141 197.000
62.14136 176.000
62.16131 184.000
62.18125 183.000
62.20120 181.000
62.22115 158.000
62.24109 168.000
62.26104 177.000
62.28099 174.000
62.30093 184.000
62.32088 178.000
62.34083 177.000
62.36077 222.000
62.38072 196.000
62.40067 202.000
62.42062 224.000
62.44056 221.000
62.46051 255.000
62.48046 238.000
62.50040 280.000
62.52035 293.000
62.54030 296.000
62.56024 336.000
62.58019 369.000
62.60014 379.000
62.62009 412.000
62.64003 433.000
62.65998 424.000
62.67993 496.000
62.69987 565.000
62.71982 609.000
62.73977 645.000
62.75971 634.000
62.77966 740.000
62.79961 757.000
62.81955 790.000
62.83950 793.000
62.85945 821.000
62.87940 707.000
62.89934 707.000
62.91929 655.000
62.93924 633.000
62.95918 581.000
62.97913 589.000
62.99908 483.000
63.01902 535.000
63.03897 438.000
63.05892 427.000
63.07887 431.000
63.09881 337.000
63.11876 281.000
63.13871 273.000
63.15865 249.000
63.17860 208.000
63.19855 205.000
63.21849 208.000
63.23844 166.000
63.25839 145.000
63.27833 141.000
63.29828 155.000
63.31823 160.000
63.33818 137.000
63.35812 134.000
63.37807 118.000
63.39802 165.000
63.41796 128.000
63.43791 122.000
63.45786 121.000
63.47780 131.000
63.49775 128.000
63.51770 129.000
63.53765 151.000
63.55759 117.000
63.57754 142.000
63.59749 129.000
63.61743 132.000
63.63738 121.000
63.65733 127.000
63.67727 133.000
63.69722 119.000
63.71717 134.000
63.73712 133.000
63.75706 137.000
63.77701 124.000
63.79696 129.000
63.81690 130.000
63.83685 126.000
63.85680 136.000
63.87674 133.000
63.89669 141.000
63.91664 137.000
63.93658 115.000
63.95653 104.000
63.97648 128.000
63.99643 133.000
64.01637 113.000
64.03632 111.000
64.05627 124.000
64.07621 128.000
64.09616 114.000
64.11611 139.000
64.13605 120.000
64.15600 124.000
64.17595 124.000
64.19590 129.000
64.21584 121.000
64.23579 134.000
64.25574 133.000
64.27568 120.000
64.29563 123.000
64.31558 151.000
64.33552 123.000
64.35547 115.000
64.37542 135.000
64.39536 144.000
64.41531 140.000
64.43526 136.000
64.45521 146.000
64.47515 171.000
64.49510 146.000
64.51505 141.000
64.53499 143.000
64.55494 139.000
64.57489 162.000
64.59483 166.000
64.61478 161.000
64.63473 159.000
64.65468 164.000
64.67462 147.000
64.69457 165.000
64.71452 150.000
64.73446 169.000
64.75441 152.000
64.77436 168.000
64.79430 171.000
64.81425 158.000
64.83420 182.000
64.85414 150.000
64.87409 146.000
64.89404 171.000
64.91399 161.000
64.93393 156.000
64.95388 155.000
64.97383 156.000
64.99377 150.000
65.01372 133.000
65.03367 149.000
65.05361 146.000
65.07356 153.000
65.09351 134.000
65.11346 120.000
65.13340 154.000
65.15335 150.000
65.17330 129.000
65.19324 156.000
65.21319 138.000
65.23314 153.000
65.25308 106.000
65.27303 121.000
65.29298 105.000
65.31293 132.000
65.33287 122.000
65.35282 115.000
65.37277 136.000
65.39271 144.000
65.41266 107.000
65.43261 116.000
65.45255 102.000
65.47250 130.000
65.49245 128.000
65.51239 111.000
65.53234 90.000
65.55229 125.000
65.57224 106.000
65.59218 116.000
65.61213 121.000
65.63208 134.000
65.65202 128.000
65.67197 110.000
65.69192 88.000
65.71186 113.000
65.73181 109.000
65.75176 112.000
65.77171 109.000
65.79165 118.000
65.81160 87.000
65.83155 127.000
65.85149 125.000
65.87144 103.000
65.89139 92.000
65.91133 102.000
65.93128 103.000
65.95123 120.000
65.97117 112.000
65.99112 119.000
66.01107 121.000
66.03102 109.000
66.05096 116.000
66.07091 118.000
66.09086 117.000
66.11080 120.000
66.13075 122.000
66.15070 110.000
66.17064 133.000
66.19059 104.000
66.21054 111.000
66.23049 96.000
66.25043 106.000
66.27038 104.000
66.29033 104.000
66.31027 112.000
66.33022 109.000
66.35017 113.000
66.37011 97.000
66.39006 104.000
66.41001 105.000
66.42995 115.000
66.44990 107.000
66.46985 108.000
66.48980 105.000
66.50974 108.000
66.52969 96.000
66.54964 112.000
66.56958 101.000
66.58953 110.000
66.60948 87.000
66.62942 94.000
66.64937 107.000
66.66932 121.000
66.68927 97.000
66.70921 83.000
66.72916 117.000
66.74911 83.000
66.76905 106.000
66.78900 116.000
66.80895 95.000
66.82889 126.000
66.84884 119.000
66.86879 85.000
66.88874 101.000
66.90868 106.000
66.92863 79.000
66.94858 94.000
66.96852 91.000
66.98847 93.000
67.00842 122.000
67.02836 104.000
67.04831 120.000
67.06826 116.000
67.08820 92.000
67.10815 99.000
67.12810 106.000
67.14805 100.000
67.16799 89.000
67.18794 86.000
67.20789 95.000
67.22783 105.000
67.24778 110.000
67.26773 95.000
67.28767 97.000
67.30762 116.000
67.32757 95.000
67.34752 88.000
67.36746 101.000
67.38741 98.000
67.40736 105.000
67.42730 84.000
67.44725 106.000
67.46720 105.000
67.48714 89.000
67.50709 110.000
67.52704 96.000
67.54698 94.000
67.56693 104.000
67.58688 116.000
67.60683 92.000
67.62677 92.000
67.64672 91.000
67.66667 110.000
67.68661 108.000
67.70656 116.000
67.72651 105.000
67.74645 103.000
67.76640 105.000
67.78635 97.000
67.80630 94.000
67.82624 92.000
67.84619 106.000
67.86614 110.000
67.88608 90.000
67.90603 93.000
67.92598 98.000
67.94592 108.000
67.96587 93.000
67.98582 115.000
68.00576 95.000
68.02571 97.000
68.04566 95.000
68.06561 91.000
68.08555 92.000
68.10550 101.000
68.12545 104.000
68.14539 106.000
68.16534 101.000
68.18529 101.000
68.20523 105.000
68.22518 98.000
68.24513 106.000
68.26508 98.000
68.28502 86.000
68.30497 94.000
68.32492 92.000
68.34486 119.000
68.36481 102.000
68.38476 95.000
68.40470 99.000
68.42465 99.000
68.44460 91.000
68.46455 99.000
68.48449 89.000
68.50444 112.000
68.52439 109.000
68.54433 111.000
68.56428 98.000
68.58423 119.000
68.60417 116.000
68.62412 99.000
68.64407 87.000
68.66401 104.000
68.68396 92.000
68.70391 123.000
68.72386 99.000
68.74380 92.000
68.76375 90.000
68.78370 98.000
68.80364 99.000
68.82359 111.000
68.84354 91.000
68.86348 94.000
68.88343 90.000
68.90338 98.000
68.92333 96.000
68.94327 90.000
68.96322 129.000
68.98317 120.000
69.00311 109.000
69.02306 112.000
69.04301 104.000
69.06295 106.000
69.08290 113.000
69.10285 116.000
69.12279 122.000
69.14274 91.000
69.16269 110.000
69.18264 123.000
69.20258 92.000
69.22253 104.000
69.24248 108.000
69.26242 121.000
69.28237 106.000
69.30232 103.000
69.32226 111.000
69.34221 101.000
69.36216 125.000
69.38211 104.000
69.40205 103.000
69.42200 116.000
69.44195 121.000
69.46189 113.000
69.48184 101.000
69.50179 121.000
69.52173 113.000
69.54168 115.000
69.56163 109.000
69.58157 127.000
69.60152 116.000
69.62147 87.000
69.64142 113.000
69.66136 108.000
69.68131 129.000
69.70126 107.000
69.72120 111.000
69.74115 114.000
69.76110 104.000
69.78104 141.000
69.80099 110.000
69.82094 91.000
69.84089 122.000
69.86083 134.000
69.88078 99.000
69.90073 145.000
69.92067 106.000
69.94062 124.000
69.96057 101.000
69.98051 118.000
70.00046 131.000
70.02041 128.000
70.04035 123.000
70.06030 114.000
70.08025 128.000
70.10020 117.000
70.12014 105.000
70.14009 125.000
70.16004 107.000
70.17998 115.000
70.19993 122.000
70.21988 132.000
70.23982 117.000
70.25977 114.000
70.27972 115.000
70.29967 110.000
70.31961 113.000
70.33956 92.000
70.35951 113.000
70.37945 105.000
70.39940 96.000
70.41935 129.000
70.43929 96.000
70.45924 108.000
70.47919 93.000
70.49914 112.000
70.51908 96.000
70.53903 103.000
70.55898 117.000
70.57892 103.000
70.59887 95.000
70.61882 84.000
70.63876 113.000
70.65871 93.000
70.67866 108.000
70.69860 102.000
70.71855 103.000
70.73850 98.000
70.75845 104.000
70.77839 108.000
70.79834 86.000
70.81829 103.000
70.83823 106.000
70.85818 113.000
70.87813 94.000
70.89807 95.000
70.91802 98.000
70.93797 135.000
70.95792 100.000
70.97786 110.000
70.99781 102.000
71.01776 96.000
71.03770 120.000
71.05765 154.000
71.07760 118.000
71.09754 118.000
71.11749 123.000
71.13744 122.000
71.15738 115.000
71.17733 127.000
71.19728 135.000
71.21723 134.000
71.23717 138.000
71.25712 155.000
71.27707 144.000
71.29701 129.000
71.31696 150.000
71.33691 136.000
71.35685 141.000
71.37680 149.000
71.39675 142.000
71.41670 133.000
71.43664 126.000
71.45659 145.000
71.47654 142.000
71.49648 120.000
71.51643 127.000
71.53638 105.000
71.55632 114.000
71.57627 137.000
71.59622 124.000
71.61616 117.000
71.63611 117.000
71.65606 130.000
71.67601 128.000
71.69595 128.000
71.71590 116.000
71.73585 100.000
71.75579 96.000
71.77574 128.000
71.79569 109.000
71.81563 121.000
71.83558 112.000
71.85553 102.000
71.87548 113.000
71.89542 109.000
71.91537 113.000
71.93532 109.000
71.95526 119.000
71.97521 99.000
71.99516 112.000
72.01510 107.000
72.03505 129.000
72.05500 113.000
72.07495 129.000
72.09489 105.000
72.11484 114.000
72.13479 129.000
72.15473 93.000
72.17468 126.000
72.19463 115.000
72.21457 117.000
72.23452 90.000
72.25447 131.000
72.27441 133.000
72.29436 135.000
72.31431 119.000
72.33426 121.000
72.35420 105.000
72.37415 121.000
72.39410 125.000
72.41404 137.000
72.43399 128.000
72.45394 125.000
72.47388 110.000
72.49383 130.000
72.51378 129.000
72.53373 127.000
72.55367 102.000
72.57362 109.000
72.59357 119.000
72.61351 138.000
72.63346 122.000
72.65341 97.000
72.67335 125.000
72.69330 132.000
72.71325 137.000
72.73319 121.000
72.75314 121.000
72.77309 139.000
72.79304 138.000
72.81298 130.000
72.83293 114.000
72.85288 116.000
72.87282 124.000
72.89277 139.000
72.91272 126.000
72.93266 137.000
72.95261 150.000
72.97256 134.000
72.99251 106.000
73.01245 117.000
73.03240 109.000
73.05235 119.000
73.07229 135.000
73.09224 110.000
73.11219 132.000
73.13213 128.000
73.15208 126.000
73.17203 101.000
73.19197 135.000
73.21192 91.000
73.23187 107.000
73.25182 105.000
73.27176 119.000
73.29171 108.000
73.31166 99.000
73.33160 103.000
73.35155 96.000
73.37150 103.000
73.39144 115.000
73.41139 115.000
73.43134 91.000
73.45129 127.000
73.47123 116.000
73.49118 114.000
73.51113 113.000
73.53107 131.000
73.55102 111.000
73.57097 93.000
73.59091 127.000
73.61086 101.000
73.63081 136.000
73.65076 106.000
73.67070 110.000
73.69065 116.000
73.71060 115.000
73.73054 137.000
73.75049 120.000
73.77044 109.000
73.79038 124.000
73.81033 115.000
73.83028 111.000
73.85022 128.000
73.87017 119.000
73.89012 133.000
73.91007 162.000
73.93001 95.000
73.94996 133.000
73.96991 121.000
73.98985 129.000
74.00980 126.000
74.02975 134.000
74.04969 147.000
74.06964 154.000
74.08959 141.000
74.10954 156.000
74.12948 133.000
74.14943 172.000
74.16938 169.000
74.18932 186.000
74.20927 153.000
74.22922 189.000
74.24916 165.000
74.26911 241.000
74.28906 188.000
74.30900 212.000
74.32895 223.000
74.34890 224.000
74.36885 224.000
74.38879 265.000
74.40874 226.000
74.42869 209.000
74.44863 228.000
74.46858 238.000
74.48853 207.000
74.50847 211.000
74.52842 216.000
74.54837 197.000
74.56832 187.000
74.58826 201.000
74.60821 201.000
74.62816 178.000
74.64810 177.000
74.66805 172.000
74.68800 169.000
74.70794 157.000
74.72789 160.000
74.74784 134.000
74.76778 154.000
74.78773 128.000
74.80768 127.000
74.82763 116.000
74.84757 151.000
74.86752 124.000
74.88747 120.000
74.90741 151.000
74.92736 132.000
74.94731 124.000
74.96725 123.000
74.98720 145.000
75.00715 149.000
75.02710 133.000
75.04704 129.000
75.06699 139.000
75.08694 120.000
75.10688 152.000
75.12683 134.000
75.14678 143.000
75.16672 147.000
75.18667 151.000
75.20662 154.000
75.22657 174.000
75.24651 162.000
75.26646 157.000
75.28641 151.000
75.30635 164.000
75.32630 183.000
75.34625 172.000
75.36619 167.000
75.38614 165.000
75.40609 143.000
75.42603 171.000
75.44598 176.000
75.46593 153.000
75.48588 162.000
75.50582 161.000
75.52577 147.000
75.54572 157.000
75.56566 148.000
75.58561 144.000
75.60556 137.000
75.62550 147.000
75.64545 119.000
75.66540 141.000
75.68535 122.000
75.70529 129.000
75.72524 125.000
75.74519 108.000
75.76513 108.000
75.78508 118.000
75.80503 117.000
75.82497 114.000
75.84492 96.000
75.86487 116.000
75.88481 106.000
75.90476 107.000
75.92471 82.000
75.94466 99.000
75.96460 104.000
75.98455 122.000
76.00450 93.000
76.02444 95.000
76.04439 107.000
76.06434 101.000
76.08428 114.000
76.10423 93.000
76.12418 111.000
76.14413 106.000
76.16407 102.000
76.18402 135.000
76.20397 132.000
76.22391 120.000
76.24386 98.000
76.26381 113.000
76.28375 107.000
76.30370 118.000
76.32365 116.000
76.34359 109.000
76.36354 105.000
76.38349 124.000
76.40344 115.000
76.42338 87.000
76.44333 125.000
76.46328 129.000
76.48322 130.000
76.50317 121.000
76.52312 102.000
76.54306 116.000
76.56301 120.000
76.58296 128.000
76.60291 148.000
76.62285 124.000
76.64280 143.000
76.66275 128.000
76.68269 141.000
76.70264 143.000
76.72259 145.000
76.74253 132.000
76.76248 135.000
76.78243 149.000
76.80238 157.000
76.82232 129.000
76.84227 135.000
76.86222 169.000
76.88216 124.000
76.90211 128.000
76.92206 138.000
76.94200 135.000
76.96195 123.000
76.98190 129.000
77.00184 134.000
77.02179 118.000
77.04174 136.000
77.06169 137.000
77.08163 134.000
77.10158 123.000
77.12153 123.000
77.14147 118.000
77.16142 139.000
77.18137 133.000
77.20131 108.000
77.22126 129.000
77.24121 119.000
77.26116 119.000
77.28110 108.000
77.30105 90.000
77.32100 103.000
77.34094 108.000
77.36089 108.000
77.38084 99.000
77.40078 138.000
77.42073 118.000
77.44068 104.000
77.46062 95.000
77.48057 97.000
77.50052 119.000
77.52047 106.000
77.54041 94.000
77.56036 97.000
77.58031 107.000
77.60025 107.000
77.62020 99.000
77.64015 110.000
77.66009 90.000
77.68004 76.000
77.69999 86.000
77.71994 103.000
77.73988 115.000
77.75983 96.000
77.77978 91.000
77.79972 85.000
77.81967 115.000
77.83962 92.000
77.85956 105.000
77.87951 121.000
77.89946 110.000
77.91940 117.000
77.93935 103.000
77.95930 86.000
77.97925 101.000
77.99919 98.000
78.01914 79.000
78.03909 108.000
78.05903 93.000
78.07898 92.000
78.09893 114.000
78.11887 98.000
78.13882 108.000
78.15877 95.000
78.17872 98.000
78.19866 78.000
78.21861 111.000
78.23856 87.000
78.25850 109.000
78.27845 87.000
78.29840 110.000
78.31834 90.000
78.33829 86.000
78.35824 99.000
78.37819 102.000
78.39813 95.000
78.41808 102.000
78.43803 108.000
78.45797 106.000
78.47792 88.000
78.49787 104.000
78.51781 97.000
78.53776 105.000
78.55771 91.000
78.57765 92.000
78.59760 89.000
78.61755 115.000
78.63750 112.000
78.65744 96.000
78.67739 97.000
78.69734 102.000
78.71728 91.000
78.73723 92.000
78.75718 128.000
78.77712 108.000
78.79707 120.000
78.81702 105.000
78.83697 104.000
78.85691 119.000
78.87686 120.000
78.89681 102.000
78.91675 127.000
78.93670 121.000
78.95665 110.000
78.97659 116.000
78.99654 121.000
79.01649 110.000
79.03643 135.000
79.05638 145.000
79.07633 134.000
79.09628 146.000
79.11622 113.000
79.13617 146.000
79.15612 142.000
79.17606 135.000
79.19601 153.000
79.21596 147.000
79.23590 154.000
79.25585 150.000
79.27580 143.000
79.29575 163.000
79.31569 177.000
79.33564 161.000
79.35559 163.000
79.37553 156.000
79.39548 154.000
79.41543 162.000
79.43537 170.000
79.45532 175.000
79.47527 157.000
79.49521 159.000
79.51516 141.000
79.53511 167.000
79.55506 134.000
79.57500 148.000
79.59495 162.000
79.61490 145.000
79.63484 140.000
79.65479 137.000
79.67474 137.000
79.69468 153.000
79.71463 133.000
79.73458 135.000
79.75453 139.000
79.77447 134.000
79.79442 127.000
79.81437 114.000
79.83431 118.000
79.85426 104.000
79.87421 131.000
79.89415 123.000
79.91410 124.000
79.93405 129.000
79.95399 122.000
79.97394 95.000
79.99389 127.000
80.01384 113.000
80.03378 103.000
80.05373 135.000
80.07368 113.000
80.09362 106.000
80.11357 105.000
80.13352 109.000
80.15346 132.000
80.17341 106.000
80.19336 104.000
80.21331 120.000
80.23325 117.000
80.25320 107.000
80.27315 133.000
80.29309 115.000
80.31304 111.000
80.33299 111.000
80.35293 123.000
80.37288 125.000
80.39283 93.000
80.41278 118.000
80.43272 99.000
80.45267 112.000
80.47262 103.000
80.49256 108.000
80.51251 107.000
80.53246 117.000
80.55240 114.000
80.57235 115.000
80.59230 115.000
80.61224 93.000
80.63219 104.000
80.65214 111.000
80.67209 90.000
80.69203 84.000
80.71198 89.000
80.73193 117.000
80.75187 114.000
80.77182 92.000
80.79177 92.000
80.81171 115.000
80.83166 112.000
80.85161 88.000
80.87156 100.000
80.89150 96.000
80.91145 83.000
80.93140 112.000
80.95134 108.000
80.97129 117.000
80.99124 130.000
81.01118 120.000
81.03113 85.000
81.05108 104.000
81.07102 96.000
81.09097 106.000
81.11092 87.000
81.13087 111.000
81.15081 97.000
81.17076 92.000
81.19071 97.000
81.21065 98.000
81.23060 96.000
81.25055 111.000
81.27049 102.000
81.29044 98.000
81.31039 98.000
81.33034 86.000
81.35028 94.000
81.37023 83.000
81.39018 89.000
81.41012 90.000
81.43007 85.000
81.45002 96.000
81.46996 96.000
81.48991 110.000
81.50986 81.000
81.52980 99.000
81.54975 86.000
81.56970 100.000
81.58965 93.000
81.60959 86.000
81.62954 88.000
81.64949 94.000
81.66943 92.000
81.68938 102.000
81.70933 100.000
81.72927 87.000
81.74922 80.000
81.76917 93.000
81.78912 102.000
81.80906 87.000
81.82901 92.000
81.84896 100.000
81.86890 101.000
81.88885 88.000
81.90880 100.000
81.92874 82.000
81.94869 97.000
81.96864 111.000
81.98859 84.000
82.00853 94.000
82.02848 103.000
82.04843 100.000
82.06837 107.000
82.08832 86.000
82.10827 83.000
82.12821 87.000
82.14816 88.000
82.16811 90.000
82.18805 89.000
82.20800 102.000
82.22795 114.000
82.24790 106.000
82.26784 117.000
82.28779 110.000
82.30774 100.000
82.32768 81.000
82.34763 112.000
82.36758 98.000
82.38752 80.000
82.40747 105.000
82.42742 117.000
82.44737 93.000
82.46731 106.000
82.48726 95.000
82.50721 106.000
82.52715 94.000
82.54710 110.000
82.56705 105.000
82.58699 83.000
82.60694 89.000
82.62689 101.000
82.64683 105.000
82.66678 96.000
82.68673 92.000
82.70668 95.000
82.72662 84.000
82.74657 92.000
82.76652 81.000
82.78646 87.000
82.80641 91.000
82.82636 102.000
82.84630 113.000
82.86625 96.000
82.88620 86.000
82.90615 111.000
82.92609 101.000
82.94604 104.000
82.96599 87.000
82.98593 88.000
83.00588 110.000
83.02583 106.000
83.04577 102.000
83.06572 94.000
83.08567 79.000
83.10561 82.000
83.12556 78.000
83.14551 92.000
83.16546 95.000
83.18540 104.000
83.20535 105.000
83.22530 96.000
83.24524 88.000
83.26519 88.000
83.28514 102.000
83.30508 87.000
83.32503 81.000
83.34498 96.000
83.36493 92.000
83.38487 98.000
83.40482 114.000
83.42477 102.000
83.44471 89.000
83.46466 87.000
83.48461 88.000
83.50455 91.000
83.52450 97.000
83.54445 94.000
83.56440 77.000
83.58434 105.000
83.60429 90.000
83.62424 99.000
83.64418 106.000
83.66413 98.000
83.68408 97.000
83.70402 104.000
83.72397 102.000
83.74392 108.000
83.76386 94.000
83.78381 94.000
83.80376 107.000
83.82371 95.000
83.84365 101.000
83.86360 86.000
83.88355 115.000
83.90349 97.000
83.92344 84.000
83.94339 81.000
83.96333 109.000
83.98328 88.000
84.00323 102.000
84.02318 95.000
84.04312 84.000
84.06307 105.000
84.08302 101.000
84.10296 90.000
84.12291 86.000
84.14286 108.000
84.16280 86.000
84.18275 94.000
84.20270 94.000
84.22264 96.000
84.24259 75.000
84.26254 93.000
84.28249 96.000
84.30243 88.000
84.32238 78.000
84.34233 89.000
84.36227 98.000
84.38222 76.000
84.40217 91.000
84.42211 79.000
84.44206 82.000
84.46201 90.000
84.48196 108.000
84.50190 95.000
84.52185 89.000
84.54180 86.000
84.56174 82.000
84.58169 119.000
84.60164 90.000
84.62158 99.000
84.64153 94.000
84.66148 86.000
84.68142 82.000
84.70137 98.000
84.72132 86.000
84.74127 105.000
84.76121 101.000
84.78116 80.000
84.80111 107.000
84.82105 90.000
84.84100 97.000
84.86095 93.000
84.88089 94.000
84.90084 74.000
84.92079 113.000
84.94074 83.000
84.96068 91.000
84.98063 94.000
85.00058 101.000
85.02052 101.000
85.04047 94.000
85.06042 88.000
85.08036 102.000
85.10031 87.000
85.12026 79.000
85.14021 87.000
85.16015 79.000
85.18010 91.000
85.20005 82.000
85.21999 79.000
85.23994 92.000
85.25989 93.000
85.27983 97.000
85.29978 95.000
85.31973 89.000
85.33967 92.000
85.35962 102.000
85.37957 94.000
85.39952 109.000
85.41946 101.000
85.43941 94.000
85.45936 111.000
85.47930 88.000
85.49925 95.000
85.51920 115.000
85.53914 92.000
85.55909 99.000
85.57904 111.000
85.59899 89.000
85.61893 113.000
85.63888 101.000
85.65883 78.000
85.67877 96.000
85.69872 89.000
85.71867 109.000
85.73861 114.000
85.75856 101.000
85.77851 91.000
85.79845 88.000
85.81840 89.000
85.83835 92.000
85.85830 100.000
85.87824 86.000
85.89819 86.000
85.91814 99.000
85.93808 91.000
85.95803 76.000
85.97798 103.000
85.99792 91.000
86.01787 99.000
86.03782 95.000
86.05777 83.000
86.07771 76.000
86.09766 117.000
86.11761 109.000
86.13755 83.000
86.15750 104.000
86.17745 92.000
86.19739 106.000
86.21734 95.000
86.23729 118.000
86.25723 96.000
86.27718 95.000
86.29713 109.000
86.31708 103.000
86.33702 96.000
86.35697 101.000
86.37692 85.000
86.39686 78.000
86.41681 110.000
86.43676 86.000
86.45670 81.000
86.47665 87.000
86.49660 104.000
86.51655 100.000
86.53649 99.000
86.55644 94.000
86.57639 98.000
86.59633 95.000
86.61628 98.000
86.63623 100.000
86.65617 83.000
86.67612 90.000
86.69607 86.000
86.71602 95.000
86.73596 69.000
86.75591 83.000
86.77586 108.000
86.79580 112.000
86.81575 78.000
86.83570 73.000
86.85564 101.000
86.87559 91.000
86.89554 92.000
86.91548 90.000
86.93543 91.000
86.95538 88.000
86.97533 111.000
86.99527 97.000
87.01522 90.000
87.03517 96.000
87.05511 98.000
87.07506 109.000
87.09501 89.000
87.11495 93.000
87.13490 105.000
87.15485 115.000
87.17480 116.000
87.19474 110.000
87.21469 114.000
87.23464 138.000
87.25458 130.000
87.27453 133.000
87.29448 136.000
87.31442 149.000
87.33437 140.000
87.35432 142.000
87.37426 138.000
87.39421 139.000
87.41416 119.000
87.43411 148.000
87.45405 129.000
87.47400 108.000
87.49395 118.000
87.51389 132.000
87.53384 123.000
87.55379 125.000
87.57373 123.000
87.59368 127.000
87.61363 105.000
87.63358 126.000
87.65352 106.000
87.67347 124.000
87.69342 121.000
87.71336 123.000
87.73331 122.000
87.75326 115.000
87.77320 100.000
87.79315 90.000
87.81310 111.000
87.83304 108.000
87.85299 112.000
87.87294 99.000
87.89289 98.000
87.91283 88.000
87.93278 80.000
87.95273 95.000
87.97267 108.000
87.99262 113.000
88.01257 82.000
88.03251 94.000
88.05246 118.000
88.07241 77.000
88.09236 85.000
88.11230 88.000
88.13225 83.000
88.15220 94.000
88.17214 86.000
88.19209 101.000
88.21204 88.000
88.23198 94.000
88.25193 102.000
88.27188 83.000
88.29183 89.000
88.31177 101.000
88.33172 97.000
88.35167 105.000
88.37161 98.000
88.39156 108.000
88.41151 86.000
88.43145 100.000
88.45140 99.000
88.47135 95.000
88.49129 102.000
88.51124 94.000
88.53119 102.000
88.55114 108.000
88.57108 105.000
88.59103 103.000
88.61098 98.000
88.63092 124.000
88.65087 104.000
88.67082 96.000
88.69076 83.000
88.71071 101.000
88.73066 102.000
88.75061 104.000
88.77055 103.000
88.79050 108.000
88.81045 102.000
88.83039 93.000
88.85034 116.000
88.87029 94.000
88.89023 105.000
88.91018 98.000
88.93013 102.000
88.95007 94.000
88.97002 102.000
88.98997 84.000
89.00992 103.000
89.02986 119.000
89.04981 92.000
89.06976 113.000
89.08970 97.000
89.10965 114.000
89.12960 119.000
89.14954 88.000
89.16949 107.000
89.18944 93.000
89.20939 105.000
89.22933 109.000
89.24928 107.000
89.26923 118.000
89.28917 106.000
89.30912 109.000
89.32907 93.000
89.34901 126.000
89.36896 86.000
89.38891 100.000
89.40885 123.000
89.42880 122.000
89.44875 94.000
89.46870 113.000
89.48864 105.000
89.50859 116.000
89.52854 100.000
89.54848 120.000
89.56843 114.000
89.58838 113.000
89.60832 95.000
89.62827 109.000
89.64822 112.000
89.66817 119.000
89.68811 115.000
89.70806 114.000
89.72801 116.000
89.74795 100.000
89.76790 109.000
89.78785 119.000
89.80779 116.000
89.82774 115.000
89.84769 128.000
89.86764 116.000
89.88758 112.000
89.90753 138.000
89.92748 124.000
89.94742 160.000
89.96737 140.000
89.98732 132.000
90.00726 154.000
