10.00000 173.000
10.01995 191.000
10.03989 194.000
10.05984 195.000
10.07979 177.000
10.09973 180.000
10.11968 160.000
10.13963 179.000
10.15958 197.000
10.17952 187.000
10.19947 218.000
10.21942 170.000
10.23936 174.000
10.25931 164.000
10.27926 149.000
10.29920 192.000
10.31915 185.000
10.33910 157.000
10.35905 174.000
10.37899 183.000
10.39894 171.000
10.41889 178.000
10.43883 152.000
10.45878 183.000
10.47873 165.000
10.49867 212.000
10.51862 199.000
10.53857 194.000
10.55851 186.000
10.57846 171.000
10.59841 158.000
10.61836 188.000
10.63830 172.000
10.65825 182.000
10.67820 154.000
10.69814 168.000
10.71809 177.000
10.73804 165.000
10.75798 191.000
10.77793 175.000
10.79788 160.000
10.81783 199.000
10.83777 164.000
10.85772 183.000
10.87767 177.000
10.89761 172.000
10.91756 189.000
10.93751 202.000
10.95745 175.000
10.97740 176.000
10.99735 181.000
11.01730 176.000
11.03724 168.000
11.05719 164.000
11.07714 175.000
11.09708 174.000
11.11703 174.000
11.13698 190.000
11.15692 185.000
11.17687 190.000
11.19682 170.000
11.21676 194.000
11.23671 172.000
11.25666 180.000
11.27661 181.000
11.29655 168.000
11.31650 182.000
11.33645 205.000
11.35639 184.000
11.37634 179.000
11.39629 183.000
11.41623 197.000
11.43618 162.000
11.45613 185.000
11.47608 178.000
11.49602 188.000
11.51597 189.000
11.53592 178.000
11.55586 183.000
11.57581 178.000
11.59576 180.000
11.61570 173.000
11.63565 210.000
11.65560 163.000
11.67554 192.000
11.69549 181.000
11.71544 184.000
11.73539 191.000
11.75533 169.000
11.77528 171.000
11.79523 194.000
11.81517 187.000
11.83512 185.000
11.85507 170.000
11.87501 180.000
11.89496 177.000
11.91491 175.000
11.93486 179.000
11.95480 168.000
11.97475 187.000
11.99470 184.000
12.01464 182.000
12.03459 174.000
12.05454 181.000
12.07448 191.000
12.09443 195.000
12.11438 158.000
12.13432 178.000
12.15427 204.000
12.17422 188.000
12.19417 178.000
12.21411 170.000
12.23406 157.000
12.25401 169.000
12.27395 175.000
12.29390 170.000
12.31385 172.000
12.33379 185.000
12.35374 184.000
12.37369 168.000
12.39364 169.000
12.41358 187.000
12.43353 186.000
12.45348 181.000
12.47342 184.000
12.49337 173.000
12.51332 166.000
12.53326 183.000
12.55321 166.000
12.57316 183.000
12.59311 207.000
12.61305 198.000
12.63300 170.000
12.65295 184.000
12.67289 212.000
12.69284 203.000
12.71279 142.000
12.73273 185.000
12.75268 165.000
12.77263 205.000
12.79257 199.000
12.81252 205.000
12.83247 162.000
12.85242 183.000
12.87236 164.000
12.89231 213.000
12.91226 197.000
12.93220 186.000
12.95215 167.000
12.97210 191.000
12.99204 186.000
13.01199 175.000
13.03194 156.000
13.05189 177.000
13.07183 171.000
13.09178 194.000
13.11173 198.000
13.13167 189.000
13.15162 182.000
13.17157 157.000
13.19151 199.000
13.21146 208.000
13.23141 149.000
13.25135 173.000
13.27130 186.000
13.29125 168.000
13.31120 169.000
13.33114 174.000
13.35109 187.000
13.37104 182.000
13.39098 181.000
13.41093 168.000
13.43088 181.000
13.45082 174.000
13.47077 191.000
13.49072 155.000
13.51067 175.000
13.53061 143.000
13.55056 179.000
13.57051 190.000
13.59045 172.000
13.61040 171.000
13.63035 188.000
13.65029 199.000
13.67024 204.000
13.69019 185.000
13.71013 160.000
13.73008 173.000
13.75003 143.000
13.76998 177.000
13.78992 178.000
13.80987 169.000
13.82982 175.000
13.84976 176.000
13.86971 179.000
13.88966 199.000
13.90960 185.000
13.92955 187.000
13.94950 173.000
13.96945 162.000
13.98939 170.000
14.00934 168.000
14.02929 170.000
14.04923 193.000
14.06918 151.000
14.08913 169.000
14.10907 193.000
14.12902 166.000
14.14897 195.000
14.16892 194.000
14.18886 197.000
14.20881 170.000
14.22876 160.000
14.24870 191.000
14.26865 183.000
14.28860 199.000
14.30854 190.000
14.32849 194.000
14.34844 185.000
14.36838 190.000
14.38833 178.000
14.40828 198.000
14.42823 178.000
14.44817 176.000
14.46812 198.000
14.48807 184.000
14.50801 188.000
14.52796 158.000
14.54791 164.000
14.56785 181.000
14.58780 180.000
14.60775 171.000
14.62770 186.000
14.64764 206.000
14.66759 213.000
14.68754 162.000
14.70748 150.000
14.72743 192.000
14.74738 145.000
14.76732 179.000
14.78727 210.000
14.80722 192.000
14.82716 184.000
14.84711 191.000
14.86706 178.000
14.88701 196.000
14.90695 183.000
14.92690 175.000
14.94685 188.000
14.96679 183.000
14.98674 162.000
15.00669 177.000
15.02663 181.000
15.04658 188.000
15.06653 187.000
15.08648 193.000
15.10642 170.000
15.12637 204.000
15.14632 219.000
15.16626 182.000
15.18621 216.000
15.20616 250.000
15.22610 197.000
15.24605 198.000
15.26600 193.000
15.28594 219.000
15.30589 217.000
15.32584 201.000
15.34579 186.000
15.36573 215.000
15.38568 204.000
15.40563 207.000
15.42557 211.000
15.44552 242.000
15.46547 241.000
15.48541 241.000
15.50536 220.000
15.52531 233.000
15.54526 256.000
15.56520 245.000
15.58515 256.000
15.60510 280.000
15.62504 290.000
15.64499 273.000
15.66494 331.000
15.68488 345.000
15.70483 394.000
15.72478 451.000
15.74472 562.000
15.76467 672.000
15.78462 1044.000
15.80457 1501.000
15.82451 2435.000
15.84446 3730.000
15.86441 5999.000
15.88435 7628.000
15.90430 7482.000
15.92425 5657.000
15.94419 3717.000
15.96414 2025.000
15.98409 1042.000
16.00404 689.000
16.02398 513.000
16.04393 464.000
16.06388 376.000
16.08382 362.000
16.10377 368.000
16.12372 317.000
16.14366 302.000
16.16361 320.000
16.18356 332.000
16.20351 317.000
16.22345 345.000
16.24340 375.000
16.26335 351.000
16.28329 348.000
16.30324 353.000
16.32319 345.000
16.34313 333.000
16.36308 343.000
16.38303 310.000
16.40297 286.000
16.42292 253.000
16.44287 252.000
16.46282 234.000
16.48276 226.000
16.50271 231.000
16.52266 235.000
16.54260 221.000
16.56255 236.000
16.58250 238.000
16.60244 195.000
16.62239 222.000
16.64234 202.000
16.66229 218.000
16.68223 219.000
16.70218 216.000
16.72213 224.000
16.74207 210.000
16.76202 184.000
16.78197 195.000
16.80191 197.000
16.82186 202.000
16.84181 203.000
16.86175 193.000
16.88170 200.000
16.90165 175.000
16.92160 182.000
16.94154 190.000
16.96149 180.000
16.98144 169.000
17.00138 191.000
17.02133 207.000
17.04128 190.000
17.06122 187.000
17.08117 182.000
17.10112 186.000
17.12107 174.000
17.14101 190.000
17.16096 179.000
17.18091 171.000
17.20085 193.000
17.22080 172.000
17.24075 176.000
17.26069 166.000
17.28064 182.000
17.30059 192.000
17.32053 186.000
17.34048 196.000
17.36043 183.000
17.38038 179.000
17.40032 183.000
17.42027 198.000
17.44022 173.000
17.46016 195.000
17.48011 175.000
17.50006 182.000
17.52000 153.000
17.53995 200.000
17.55990 181.000
17.57985 192.000
17.59979 179.000
17.61974 192.000
17.63969 163.000
17.65963 212.000
17.67958 180.000
17.69953 207.000
17.71947 174.000
17.73942 188.000
17.75937 192.000
17.77932 165.000
17.79926 193.000
17.81921 191.000
17.83916 194.000
17.85910 190.000
17.87905 166.000
17.89900 193.000
17.91894 176.000
17.93889 166.000
17.95884 196.000
17.97878 173.000
17.99873 178.000
18.01868 191.000
18.03863 200.000
18.05857 160.000
18.07852 163.000
18.09847 164.000
18.11841 189.000
18.13836 166.000
18.15831 163.000
18.17825 172.000
18.19820 188.000
18.21815 211.000
18.23810 176.000
18.25804 164.000
18.27799 170.000
18.29794 178.000
18.31788 214.000
18.33783 249.000
18.35778 272.000
18.37772 324.000
18.39767 371.000
18.41762 299.000
18.43756 291.000
18.45751 264.000
18.47746 211.000
18.49741 182.000
18.51735 185.000
18.53730 217.000
18.55725 195.000
18.57719 194.000
18.59714 186.000
18.61709 200.000
18.63703 183.000
18.65698 204.000
18.67693 171.000
18.69688 200.000
18.71682 195.000
18.73677 166.000
18.75672 185.000
18.77666 173.000
18.79661 178.000
18.81656 195.000
18.83650 185.000
18.85645 166.000
18.87640 175.000
18.89634 160.000
18.91629 167.000
18.93624 216.000
18.95619 183.000
18.97613 194.000
18.99608 187.000
19.01603 178.000
19.03597 191.000
19.05592 193.000
19.07587 154.000
19.09581 173.000
19.11576 192.000
19.13571 184.000
19.15566 176.000
19.17560 175.000
19.19555 169.000
19.21550 165.000
19.23544 199.000
19.25539 182.000
19.27534 152.000
19.29528 188.000
19.31523 151.000
19.33518 158.000
19.35513 157.000
19.37507 185.000
19.39502 170.000
19.41497 178.000
19.43491 196.000
19.45486 175.000
19.47481 170.000
19.49475 177.000
19.51470 184.000
19.53465 181.000
19.55459 170.000
19.57454 168.000
19.59449 194.000
19.61444 172.000
19.63438 173.000
19.65433 196.000
19.67428 187.000
19.69422 169.000
19.71417 165.000
19.73412 189.000
19.75406 183.000
19.77401 184.000
19.79396 196.000
19.81391 177.000
19.83385 189.000
19.85380 170.000
19.87375 188.000
19.89369 194.000
19.91364 184.000
19.93359 178.000
19.95353 199.000
19.97348 170.000
19.99343 183.000
20.01337 188.000
20.03332 179.000
20.05327 162.000
20.07322 173.000
20.09316 178.000
20.11311 170.000
20.13306 162.000
20.15300 174.000
20.17295 177.000
20.19290 173.000
20.21284 146.000
20.23279 167.000
20.25274 190.000
20.27269 176.000
20.29263 192.000
20.31258 167.000
20.33253 207.000
20.35247 172.000
20.37242 162.000
20.39237 172.000
20.41231 196.000
20.43226 180.000
20.45221 181.000
20.47215 203.000
20.49210 197.000
20.51205 181.000
20.53200 203.000
20.55194 202.000
20.57189 186.000
20.59184 170.000
20.61178 173.000
20.63173 185.000
20.65168 192.000
20.67162 184.000
20.69157 174.000
20.71152 202.000
20.73147 204.000
20.75141 194.000
20.77136 215.000
20.79131 198.000
20.81125 217.000
20.83120 209.000
20.85115 221.000
20.87109 246.000
20.89104 237.000
20.91099 230.000
20.93094 211.000
20.95088 243.000
20.97083 237.000
20.99078 227.000
21.01072 234.000
21.03067 229.000
21.05062 217.000
21.07056 188.000
21.09051 195.000
21.11046 215.000
21.13040 186.000
21.15035 216.000
21.17030 184.000
21.19025 183.000
21.21019 203.000
21.23014 187.000
21.25009 202.000
21.27003 190.000
21.28998 176.000
21.30993 187.000
21.32987 164.000
21.34982 179.000
21.36977 169.000
21.38972 184.000
21.40966 206.000
21.42961 175.000
21.44956 151.000
21.46950 186.000
21.48945 157.000
21.50940 166.000
21.52934 155.000
21.54929 213.000
21.56924 186.000
21.58918 192.000
21.60913 185.000
21.62908 166.000
21.64903 186.000
21.66897 185.000
21.68892 175.000
21.70887 193.000
21.72881 200.000
21.74876 193.000
21.76871 177.000
21.78865 173.000
21.80860 163.000
21.82855 178.000
21.84850 168.000
21.86844 178.000
21.88839 167.000
21.90834 185.000
21.92828 174.000
21.94823 172.000
21.96818 188.000
21.98812 158.000
22.00807 187.000
22.02802 180.000
22.04796 154.000
22.06791 168.000
22.08786 171.000
22.10781 171.000
22.12775 186.000
22.14770 160.000
22.16765 170.000
22.18759 142.000
22.20754 184.000
22.22749 174.000
22.24743 201.000
22.26738 168.000
22.28733 179.000
22.30728 173.000
22.32722 182.000
22.34717 173.000
22.36712 185.000
22.38706 170.000
22.40701 180.000
22.42696 186.000
22.44690 192.000
22.46685 173.000
22.48680 181.000
22.50675 173.000
22.52669 183.000
22.54664 166.000
22.56659 185.000
22.58653 184.000
22.60648 151.000
22.62643 183.000
22.64637 182.000
22.66632 197.000
22.68627 186.000
22.70621 161.000
22.72616 179.000
22.74611 197.000
22.76606 188.000
22.78600 168.000
22.80595 207.000
22.82590 192.000
22.84584 149.000
22.86579 175.000
22.88574 191.000
22.90568 187.000
22.92563 204.000
22.94558 209.000
22.96553 207.000
22.98547 155.000
23.00542 172.000
23.02537 171.000
23.04531 163.000
23.06526 201.000
23.08521 176.000
23.10515 162.000
23.12510 184.000
23.14505 186.000
23.16499 163.000
23.18494 177.000
23.20489 178.000
23.22484 181.000
23.24478 169.000
23.26473 210.000
23.28468 161.000
23.30462 187.000
23.32457 166.000
23.34452 168.000
23.36446 183.000
23.38441 179.000
23.40436 185.000
23.42431 188.000
23.44425 182.000
23.46420 204.000
23.48415 207.000
23.50409 166.000
23.52404 193.000
23.54399 180.000
23.56393 176.000
23.58388 189.000
23.60383 199.000
23.62377 166.000
23.64372 163.000
23.66367 178.000
23.68362 155.000
23.70356 168.000
23.72351 208.000
23.74346 173.000
23.76340 227.000
23.78335 194.000
23.80330 202.000
23.82324 179.000
23.84319 185.000
23.86314 190.000
23.88309 202.000
23.90303 179.000
23.92298 182.000
23.94293 185.000
23.96287 186.000
23.98282 200.000
24.00277 191.000
24.02271 198.000
24.04266 198.000
24.06261 180.000
24.08256 182.000
24.10250 169.000
24.12245 187.000
24.14240 162.000
24.16234 194.000
24.18229 169.000
24.20224 177.000
24.22218 191.000
24.24213 160.000
24.26208 165.000
24.28202 178.000
24.30197 183.000
24.32192 166.000
24.34187 194.000
24.36181 182.000
24.38176 211.000
24.40171 187.000
24.42165 198.000
24.44160 195.000
24.46155 191.000
24.48149 188.000
24.50144 197.000
24.52139 185.000
24.54134 187.000
24.56128 153.000
24.58123 172.000
24.60118 184.000
24.62112 189.000
24.64107 216.000
24.66102 178.000
24.68096 186.000
24.70091 207.000
24.72086 187.000
24.74080 188.000
24.76075 163.000
24.78070 175.000
24.80065 177.000
24.82059 190.000
24.84054 172.000
24.86049 182.000
24.88043 183.000
24.90038 206.000
24.92033 186.000
24.94027 191.000
24.96022 188.000
24.98017 201.000
25.00012 196.000
25.02006 181.000
25.04001 200.000
25.05996 174.000
25.07990 198.000
25.09985 189.000
25.11980 193.000
25.13974 157.000
25.15969 192.000
25.17964 217.000
25.19958 187.000
25.21953 188.000
25.23948 185.000
25.25943 192.000
25.27937 162.000
25.29932 187.000
25.31927 174.000
25.33921 199.000
25.35916 189.000
25.37911 175.000
25.39905 193.000
25.41900 168.000
25.43895 184.000
25.45890 190.000
25.47884 152.000
25.49879 197.000
25.51874 190.000
25.53868 203.000
25.55863 195.000
25.57858 214.000
25.59852 205.000
25.61847 188.000
25.63842 194.000
25.65837 197.000
25.67831 186.000
25.69826 196.000
25.71821 204.000
25.73815 196.000
25.75810 184.000
25.77805 190.000
25.79799 209.000
25.81794 169.000
25.83789 209.000
25.85783 185.000
25.87778 196.000
25.89773 193.000
25.91768 209.000
25.93762 175.000
25.95757 170.000
25.97752 189.000
25.99746 184.000
26.01741 211.000
26.03736 188.000
26.05730 175.000
26.07725 202.000
26.09720 206.000
26.11715 176.000
26.13709 210.000
26.15704 171.000
26.17699 193.000
26.19693 193.000
26.21688 178.000
26.23683 190.000
26.25677 179.000
26.27672 214.000
26.29667 201.000
26.31661 177.000
26.33656 194.000
26.35651 189.000
26.37646 184.000
26.39640 177.000
26.41635 181.000
26.43630 177.000
26.45624 176.000
26.47619 196.000
26.49614 173.000
26.51608 227.000
26.53603 197.000
26.55598 203.000
26.57593 194.000
26.59587 192.000
26.61582 213.000
26.63577 201.000
26.65571 205.000
26.67566 191.000
26.69561 211.000
26.71555 215.000
26.73550 212.000
26.75545 207.000
26.77539 215.000
26.79534 176.000
26.81529 183.000
26.83524 215.000
26.85518 207.000
26.87513 182.000
26.89508 181.000
26.91502 196.000
26.93497 206.000
26.95492 202.000
26.97486 197.000
26.99481 176.000
27.01476 177.000
27.03471 219.000
27.05465 182.000
27.07460 198.000
27.09455 203.000
27.11449 187.000
27.13444 212.000
27.15439 200.000
27.17433 199.000
27.19428 190.000
27.21423 206.000
27.23417 178.000
27.25412 196.000
27.27407 196.000
27.29402 186.000
27.31396 236.000
27.33391 196.000
27.35386 187.000
27.37380 191.000
27.39375 198.000
27.41370 180.000
27.43364 194.000
27.45359 217.000
27.47354 223.000
27.49349 205.000
27.51343 170.000
27.53338 208.000
27.55333 186.000
27.57327 186.000
27.59322 179.000
27.61317 194.000
27.63311 192.000
27.65306 191.000
27.67301 213.000
27.69296 188.000
27.71290 195.000
27.73285 212.000
27.75280 192.000
27.77274 187.000
27.79269 189.000
27.81264 203.000
27.83258 201.000
27.85253 171.000
27.87248 196.000
27.89242 184.000
27.91237 217.000
27.93232 195.000
27.95227 205.000
27.97221 179.000
27.99216 215.000
28.01211 208.000
28.03205 231.000
28.05200 212.000
28.07195 204.000
28.09189 184.000
28.11184 204.000
28.13179 180.000
28.15174 198.000
28.17168 205.000
28.19163 185.000
28.21158 171.000
28.23152 182.000
28.25147 201.000
28.27142 181.000
28.29136 195.000
28.31131 222.000
28.33126 179.000
28.35120 211.000
28.37115 200.000
28.39110 199.000
28.41105 213.000
28.43099 206.000
28.45094 230.000
28.47089 189.000
28.49083 191.000
28.51078 178.000
28.53073 191.000
28.55067 198.000
28.57062 214.000
28.59057 196.000
28.61052 211.000
28.63046 199.000
28.65041 182.000
28.67036 235.000
28.69030 185.000
28.71025 181.000
28.73020 222.000
28.75014 203.000
28.77009 198.000
28.79004 194.000
28.80998 217.000
28.82993 230.000
28.84988 198.000
28.86983 214.000
28.88977 198.000
28.90972 209.000
28.92967 203.000
28.94961 190.000
28.96956 202.000
28.98951 216.000
29.00945 182.000
29.02940 199.000
29.04935 196.000
29.06930 211.000
29.08924 213.000
29.10919 186.000
29.12914 221.000
29.14908 240.000
29.16903 199.000
29.18898 197.000
29.20892 187.000
29.22887 212.000
29.24882 243.000
29.26877 225.000
29.28871 197.000
29.30866 214.000
29.32861 223.000
29.34855 211.000
29.36850 223.000
29.38845 240.000
29.40839 201.000
29.42834 212.000
29.44829 232.000
29.46823 208.000
29.48818 217.000
29.50813 193.000
29.52808 227.000
29.54802 200.000
29.56797 204.000
29.58792 207.000
29.60786 208.000
29.62781 237.000
29.64776 215.000
29.66770 191.000
29.68765 223.000
29.70760 206.000
29.72755 210.000
29.74749 192.000
29.76744 196.000
29.78739 186.000
29.80733 205.000
29.82728 179.000
29.84723 233.000
29.86717 212.000
29.88712 215.000
29.90707 217.000
29.92701 204.000
29.94696 201.000
29.96691 203.000
29.98686 247.000
30.00680 217.000
30.02675 222.000
30.04670 231.000
30.06664 232.000
30.08659 246.000
30.10654 232.000
30.12648 247.000
30.14643 257.000
30.16638 260.000
30.18633 279.000
30.20627 295.000
30.22622 426.000
30.24617 509.000
30.26611 599.000
30.28606 500.000
30.30601 435.000
30.32595 448.000
30.34590 457.000
30.36585 406.000
30.38579 342.000
30.40574 246.000
30.42569 229.000
30.44564 220.000
30.46558 234.000
30.48553 228.000
30.50548 227.000
30.52542 206.000
30.54537 199.000
30.56532 218.000
30.58526 215.000
30.60521 202.000
30.62516 223.000
30.64511 186.000
30.66505 223.000
30.68500 230.000
30.70495 217.000
30.72489 225.000
30.74484 207.000
30.76479 182.000
30.78473 213.000
30.80468 200.000
30.82463 212.000
30.84458 209.000
30.86452 216.000
30.88447 205.000
30.90442 199.000
30.92436 187.000
30.94431 206.000
30.96426 205.000
30.98420 183.000
31.00415 242.000
31.02410 224.000
31.04404 186.000
31.06399 214.000
31.08394 205.000
31.10389 218.000
31.12383 197.000
31.14378 202.000
31.16373 193.000
31.18367 193.000
31.20362 197.000
31.22357 240.000
31.24351 223.000
31.26346 197.000
31.28341 193.000
31.30336 200.000
31.32330 204.000
31.34325 215.000
31.36320 237.000
31.38314 205.000
31.40309 194.000
31.42304 218.000
31.44298 192.000
31.46293 213.000
31.48288 237.000
31.50282 196.000
31.52277 217.000
31.54272 226.000
31.56267 218.000
31.58261 219.000
31.60256 181.000
31.62251 207.000
31.64245 202.000
31.66240 209.000
31.68235 201.000
31.70229 239.000
31.72224 222.000
31.74219 220.000
31.76214 212.000
31.78208 194.000
31.80203 194.000
31.82198 237.000
31.84192 282.000
31.86187 213.000
31.88182 239.000
31.90176 243.000
31.92171 250.000
31.94166 246.000
31.96160 291.000
31.98155 303.000
32.00150 328.000
32.02145 393.000
32.04139 503.000
32.06134 651.000
32.08129 774.000
32.10123 801.000
32.12118 846.000
32.14113 740.000
32.16107 643.000
32.18102 574.000
32.20097 513.000
32.22092 433.000
32.24086 335.000
32.26081 329.000
32.28076 260.000
32.30070 239.000
32.32065 237.000
32.34060 235.000
32.36054 251.000
32.38049 239.000
32.40044 252.000
32.42039 256.000
32.44033 268.000
32.46028 274.000
32.48023 268.000
32.50017 289.000
32.52012 279.000
32.54007 276.000
32.56001 260.000
32.57996 264.000
32.59991 269.000
32.61985 281.000
32.63980 265.000
32.65975 253.000
32.67970 245.000
32.69964 231.000
32.71959 256.000
32.73954 220.000
32.75948 210.000
32.77943 248.000
32.79938 226.000
32.81932 229.000
32.83927 236.000
32.85922 229.000
32.87917 190.000
32.89911 217.000
32.91906 206.000
32.93901 222.000
32.95895 237.000
32.97890 222.000
32.99885 209.000
33.01879 203.000
33.03874 204.000
33.05869 208.000
33.07863 227.000
33.09858 196.000
33.11853 205.000
33.13848 185.000
33.15842 221.000
33.17837 204.000
33.19832 229.000
33.21826 193.000
33.23821 207.000
33.25816 248.000
33.27810 205.000
33.29805 209.000
33.31800 235.000
33.33795 197.000
33.35789 184.000
33.37784 236.000
33.39779 217.000
33.41773 228.000
33.43768 208.000
33.45763 214.000
33.47757 213.000
33.49752 211.000
33.51747 192.000
33.53741 209.000
33.55736 198.000
33.57731 218.000
33.59726 213.000
33.61720 213.000
33.63715 218.000
33.65710 218.000
33.67704 205.000
33.69699 215.000
33.71694 234.000
33.73688 193.000
33.75683 197.000
33.77678 199.000
33.79673 237.000
33.81667 205.000
33.83662 208.000
33.85657 191.000
33.87651 220.000
33.89646 207.000
33.91641 233.000
33.93635 206.000
33.95630 191.000
33.97625 204.000
33.99620 212.000
34.01614 213.000
34.03609 209.000
34.05604 237.000
34.07598 217.000
34.09593 206.000
34.11588 184.000
34.13582 191.000
34.15577 228.000
34.17572 240.000
34.19566 222.000
34.21561 245.000
34.23556 226.000
34.25551 224.000
34.27545 248.000
34.29540 216.000
34.31535 209.000
34.33529 251.000
34.35524 230.000
34.37519 273.000
34.39513 259.000
34.41508 244.000
34.43503 286.000
34.45498 275.000
34.47492 271.000
34.49487 244.000
34.51482 249.000
34.53476 260.000
34.55471 289.000
34.57466 259.000
34.59460 257.000
34.61455 265.000
34.63450 251.000
34.65444 262.000
34.67439 221.000
34.69434 254.000
34.71429 257.000
34.73423 278.000
34.75418 259.000
34.77413 236.000
34.79407 248.000
34.81402 229.000
34.83397 240.000
34.85391 249.000
34.87386 252.000
34.89381 231.000
34.91376 238.000
34.93370 236.000
34.95365 211.000
34.97360 258.000
34.99354 216.000
35.01349 229.000
35.03344 238.000
35.05338 237.000
35.07333 230.000
35.09328 266.000
35.11322 249.000
35.13317 270.000
35.15312 270.000
35.17307 276.000
35.19301 296.000
35.21296 307.000
35.23291 304.000
35.25285 346.000
35.27280 336.000
35.29275 353.000
35.31269 388.000
35.33264 422.000
35.35259 448.000
35.37254 623.000
35.39248 719.000
35.41243 898.000
35.43238 1007.000
35.45232 1164.000
35.47227 1195.000
35.49222 1301.000
35.51216 1475.000
35.53211 1405.000
35.55206 1467.000
35.57201 1562.000
35.59195 1562.000
35.61190 1790.000
35.63185 2201.000
35.65179 2191.000
35.67174 1687.000
35.69169 1535.000
35.71163 1367.000
35.73158 1387.000
35.75153 1197.000
35.77147 937.000
35.79142 757.000
35.81137 577.000
35.83132 500.000
35.85126 402.000
35.87121 433.000
35.89116 362.000
35.91110 314.000
35.93105 308.000
35.95100 337.000
35.97094 261.000
35.99089 273.000
36.01084 238.000
36.03079 258.000
36.05073 284.000
36.07068 269.000
36.09063 254.000
36.11057 238.000
36.13052 250.000
36.15047 243.000
36.17041 275.000
36.19036 271.000
36.21031 249.000
36.23025 229.000
36.25020 242.000
36.27015 235.000
36.29010 261.000
36.31004 263.000
36.32999 239.000
36.34994 228.000
36.36988 229.000
36.38983 276.000
36.40978 246.000
36.42972 253.000
36.44967 244.000
36.46962 262.000
36.48957 254.000
36.50951 233.000
36.52946 238.000
36.54941 276.000
36.56935 250.000
36.58930 265.000
36.60925 256.000
36.62919 256.000
36.64914 264.000
36.66909 258.000
36.68903 261.000
36.70898 239.000
36.72893 257.000
36.74888 283.000
36.76882 278.000
36.78877 295.000
36.80872 302.000
36.82866 304.000
36.84861 339.000
36.86856 327.000
36.88850 348.000
36.90845 402.000
36.92840 477.000
36.94835 481.000
36.96829 549.000
36.98824 618.000
37.00819 619.000
37.02813 669.000
37.04808 672.000
37.06803 704.000
37.08797 717.000
37.10792 672.000
37.12787 640.000
37.14781 575.000
37.16776 554.000
37.18771 467.000
37.20766 461.000
37.22760 413.000
37.24755 423.000
37.26750 398.000
37.28744 388.000
37.30739 331.000
37.32734 326.000
37.34728 303.000
37.36723 289.000
37.38718 251.000
37.40713 270.000
37.42707 262.000
37.44702 238.000
37.46697 241.000
37.48691 232.000
37.50686 234.000
37.52681 233.000
37.54675 208.000
37.56670 229.000
37.58665 214.000
37.60660 217.000
37.62654 218.000
37.64649 227.000
37.66644 224.000
37.68638 219.000
37.70633 204.000
37.72628 236.000
37.74622 232.000
37.76617 233.000
37.78612 194.000
37.80606 216.000
37.82601 229.000
37.84596 247.000
37.86591 205.000
37.88585 220.000
37.90580 187.000
37.92575 216.000
37.94569 263.000
37.96564 227.000
37.98559 226.000
38.00553 250.000
38.02548 233.000
38.04543 251.000
38.06538 234.000
38.08532 239.000
38.10527 248.000
38.12522 258.000
38.14516 244.000
38.16511 225.000
38.18506 252.000
38.20500 226.000
38.22495 244.000
38.24490 238.000
38.26484 254.000
38.28479 276.000
38.30474 227.000
38.32469 280.000
38.34463 250.000
38.36458 265.000
38.38453 271.000
38.40447 283.000
38.42442 313.000
38.44437 305.000
38.46431 294.000
38.48426 325.000
38.50421 390.000
38.52416 415.000
38.54410 446.000
38.56405 472.000
38.58400 509.000
38.60394 597.000
38.62389 647.000
38.64384 724.000
38.66378 791.000
38.68373 808.000
38.70368 882.000
38.72362 881.000
38.74357 885.000
38.76352 810.000
38.78347 816.000
38.80341 836.000
38.82336 807.000
38.84331 728.000
38.86325 763.000
38.88320 757.000
38.90315 731.000
38.92309 639.000
38.94304 682.000
38.96299 710.000
38.98294 737.000
39.00288 849.000
39.02283 970.000
39.04278 1157.000
39.06272 1257.000
39.08267 1394.000
39.10262 1287.000
39.12256 1279.000
39.14251 1286.000
39.16246 1326.000
39.18241 1288.000
39.20235 1128.000
39.22230 963.000
39.24225 842.000
39.26219 792.000
39.28214 790.000
39.30209 662.000
39.32203 577.000
39.34198 510.000
39.36193 452.000
39.38187 395.000
39.40182 365.000
39.42177 357.000
39.44172 301.000
39.46166 314.000
39.48161 259.000
39.50156 269.000
39.52150 239.000
39.54145 249.000
39.56140 210.000
39.58134 230.000
39.60129 225.000
39.62124 241.000
39.64119 237.000
39.66113 237.000
39.68108 237.000
39.70103 182.000
39.72097 206.000
39.74092 217.000
39.76087 219.000
39.78081 254.000
39.80076 189.000
39.82071 214.000
39.84065 229.000
39.86060 214.000
39.88055 211.000
39.90050 234.000
39.92044 222.000
39.94039 227.000
39.96034 192.000
39.98028 222.000
40.00023 205.000
40.02018 190.000
40.04012 235.000
40.06007 212.000
40.08002 211.000
40.09997 223.000
40.11991 209.000
40.13986 233.000
40.15981 224.000
40.17975 180.000
40.19970 244.000
40.21965 195.000
40.23959 208.000
40.25954 228.000
40.27949 206.000
40.29943 212.000
40.31938 200.000
40.33933 185.000
40.35928 195.000
40.37922 199.000
40.39917 202.000
40.41912 193.000
40.43906 196.000
40.45901 198.000
40.47896 196.000
40.49890 203.000
40.51885 215.000
40.53880 220.000
40.55875 180.000
40.57869 208.000
40.59864 231.000
40.61859 211.000
40.63853 210.000
40.65848 218.000
40.67843 178.000
40.69837 193.000
40.71832 208.000
40.73827 203.000
40.75822 217.000
40.77816 204.000
40.79811 197.000
40.81806 206.000
40.83800 239.000
40.85795 199.000
40.87790 191.000
40.89784 205.000
40.91779 215.000
40.93774 217.000
40.95768 204.000
40.97763 232.000
40.99758 215.000
41.01753 200.000
41.03747 200.000
41.05742 214.000
41.07737 201.000
41.09731 213.000
41.11726 216.000
41.13721 211.000
41.15715 188.000
41.17710 198.000
41.19705 202.000
41.21700 212.000
41.23694 206.000
41.25689 220.000
41.27684 231.000
41.29678 196.000
41.31673 231.000
41.33668 209.000
41.35662 240.000
41.37657 213.000
41.39652 212.000
41.41646 241.000
41.43641 265.000
41.45636 258.000
41.47631 256.000
41.49625 263.000
41.51620 307.000
41.53615 314.000
41.55609 312.000
41.57604 304.000
41.59599 321.000
41.61593 315.000
41.63588 296.000
41.65583 330.000
41.67578 339.000
41.69572 288.000
41.71567 289.000
41.73562 288.000
41.75556 309.000
41.77551 273.000
41.79546 265.000
41.81540 279.000
41.83535 248.000
41.85530 238.000
41.87524 243.000
41.89519 275.000
41.91514 228.000
41.93509 225.000
41.95503 229.000
41.97498 227.000
41.99493 234.000
42.01487 227.000
42.03482 213.000
42.05477 217.000
42.07471 215.000
42.09466 214.000
42.11461 228.000
42.13456 233.000
42.15450 217.000
42.17445 215.000
42.19440 193.000
42.21434 206.000
42.23429 226.000
42.25424 227.000
42.27418 227.000
42.29413 226.000
42.31408 242.000
42.33403 219.000
42.35397 239.000
42.37392 246.000
42.39387 249.000
42.41381 222.000
42.43376 225.000
42.45371 229.000
42.47365 232.000
42.49360 225.000
42.51355 254.000
42.53349 239.000
42.55344 241.000
42.57339 249.000
42.59334 276.000
42.61328 270.000
42.63323 256.000
42.65318 250.000
42.67312 252.000
42.69307 269.000
42.71302 255.000
42.73296 315.000
42.75291 319.000
42.77286 325.000
42.79281 347.000
42.81275 353.000
42.83270 384.000
42.85265 414.000
42.87259 431.000
42.89254 434.000
42.91249 515.000
42.93243 561.000
42.95238 627.000
42.97233 629.000
42.99227 630.000
43.01222 727.000
43.03217 699.000
43.05212 743.000
43.07206 794.000
43.09201 826.000
43.11196 817.000
43.13190 808.000
43.15185 842.000
43.17180 889.000
43.19174 890.000
43.21169 958.000
43.23164 902.000
43.25159 970.000
43.27153 945.000
43.29148 885.000
43.31143 946.000
43.33137 953.000
43.35132 907.000
43.37127 764.000
43.39121 719.000
43.41116 687.000
43.43111 599.000
43.45105 569.000
43.47100 465.000
43.49095 406.000
43.51090 373.000
43.53084 362.000
43.55079 335.000
43.57074 324.000
43.59068 312.000
43.61063 265.000
43.63058 251.000
43.65052 256.000
43.67047 242.000
43.69042 254.000
43.71037 250.000
43.73031 230.000
43.75026 214.000
43.77021 251.000
43.79015 223.000
43.81010 218.000
43.83005 199.000
43.84999 214.000
43.86994 223.000
43.88989 210.000
43.90984 210.000
43.92978 217.000
43.94973 195.000
43.96968 217.000
43.98962 206.000
44.00957 221.000
44.02952 201.000
44.04946 209.000
44.06941 189.000
44.08936 218.000
44.10930 205.000
44.12925 200.000
44.14920 206.000
44.16915 199.000
44.18909 225.000
44.20904 217.000
44.22899 214.000
44.24893 207.000
44.26888 198.000
44.28883 213.000
44.30877 195.000
44.32872 219.000
44.34867 209.000
44.36862 199.000
44.38856 193.000
44.40851 208.000
44.42846 225.000
44.44840 178.000
44.46835 187.000
44.48830 219.000
44.50824 169.000
44.52819 173.000
44.54814 194.000
44.56808 183.000
44.58803 191.000
44.60798 207.000
44.62793 214.000
44.64787 193.000
44.66782 219.000
44.68777 202.000
44.70771 226.000
44.72766 213.000
44.74761 218.000
44.76755 202.000
44.78750 196.000
44.80745 206.000
44.82740 213.000
44.84734 196.000
44.86729 201.000
44.88724 200.000
44.90718 214.000
44.92713 223.000
44.94708 183.000
44.96702 218.000
44.98697 223.000
45.00692 195.000
45.02686 209.000
45.04681 208.000
45.06676 187.000
45.08671 195.000
45.10665 195.000
45.12660 193.000
45.14655 195.000
45.16649 209.000
45.18644 182.000
45.20639 222.000
45.22633 194.000
45.24628 196.000
45.26623 219.000
45.28618 198.000
45.30612 204.000
45.32607 188.000
45.34602 220.000
45.36596 219.000
45.38591 189.000
45.40586 203.000
45.42580 187.000
45.44575 196.000
45.46570 202.000
45.48565 208.000
45.50559 228.000
45.52554 195.000
45.54549 199.000
45.56543 225.000
45.58538 202.000
45.60533 196.000
45.62527 220.000
45.64522 177.000
45.66517 195.000
45.68511 208.000
45.70506 228.000
45.72501 212.000
45.74496 190.000
45.76490 210.000
45.78485 201.000
45.80480 213.000
45.82474 209.000
45.84469 207.000
45.86464 204.000
45.88458 211.000
45.90453 180.000
45.92448 177.000
45.94443 198.000
45.96437 216.000
45.98432 178.000
46.00427 190.000
46.02421 194.000
46.04416 183.000
46.06411 198.000
46.08405 213.000
46.10400 217.000
46.12395 197.000
46.14389 210.000
46.16384 164.000
46.18379 216.000
46.20374 213.000
46.22368 212.000
46.24363 196.000
46.26358 215.000
46.28352 216.000
46.30347 204.000
46.32342 231.000
46.34336 183.000
46.36331 191.000
46.38326 196.000
46.40321 192.000
46.42315 235.000
46.44310 212.000
46.46305 185.000
46.48299 218.000
46.50294 191.000
46.52289 189.000
46.54283 214.000
46.56278 200.000
46.58273 230.000
46.60267 222.000
46.62262 195.000
46.64257 163.000
46.66252 206.000
46.68246 180.000
46.70241 195.000
46.72236 222.000
46.74230 187.000
46.76225 183.000
46.78220 217.000
46.80214 199.000
46.82209 204.000
46.84204 187.000
46.86199 196.000
46.88193 189.000
46.90188 201.000
46.92183 180.000
46.94177 209.000
46.96172 214.000
46.98167 212.000
47.00161 201.000
47.02156 193.000
47.04151 215.000
47.06146 190.000
47.08140 213.000
47.10135 204.000
47.12130 225.000
47.14124 196.000
47.16119 198.000
47.18114 179.000
47.20108 209.000
47.22103 220.000
47.24098 178.000
47.26092 217.000
47.28087 194.000
47.30082 201.000
47.32077 199.000
47.34071 201.000
47.36066 197.000
47.38061 199.000
47.40055 196.000
47.42050 213.000
47.44045 202.000
47.46039 186.000
47.48034 198.000
47.50029 206.000
47.52024 191.000
47.54018 221.000
47.56013 194.000
47.58008 207.000
47.60002 208.000
47.61997 200.000
47.63992 204.000
47.65986 196.000
47.67981 218.000
47.69976 205.000
47.71970 203.000
47.73965 195.000
47.75960 196.000
47.77955 223.000
47.79949 221.000
47.81944 206.000
47.83939 221.000
47.85933 221.000
47.87928 189.000
47.89923 223.000
47.91917 207.000
47.93912 210.000
47.95907 231.000
47.97902 211.000
47.99896 234.000
48.01891 260.000
48.03886 192.000
48.05880 221.000
48.07875 243.000
48.09870 239.000
48.11864 219.000
48.13859 242.000
48.15854 226.000
48.17848 232.000
48.19843 240.000
48.21838 249.000
48.23833 260.000
48.25827 227.000
48.27822 237.000
48.29817 276.000
48.31811 297.000
48.33806 275.000
48.35801 276.000
48.37795 300.000
48.39790 326.000
48.41785 345.000
48.43780 363.000
48.45774 383.000
48.47769 498.000
48.49764 550.000
48.51758 632.000
48.53753 784.000
48.55748 893.000
48.57742 1010.000
48.59737 1046.000
48.61732 1121.000
48.63726 1147.000
48.65721 1143.000
48.67716 1102.000
48.69711 1123.000
48.71705 1053.000
48.73700 972.000
48.75695 970.000
48.77689 888.000
48.79684 833.000
48.81679 687.000
48.83673 636.000
48.85668 600.000
48.87663 532.000
48.89658 490.000
48.91652 459.000
48.93647 469.000
48.95642 425.000
48.97636 362.000
48.99631 355.000
49.01626 337.000
49.03620 335.000
49.05615 289.000
49.07610 305.000
49.09605 271.000
49.11599 235.000
49.13594 263.000
49.15589 250.000
49.17583 268.000
49.19578 254.000
49.21573 238.000
49.23567 240.000
49.25562 230.000
49.27557 220.000
49.29551 203.000
49.31546 216.000
49.33541 218.000
49.35536 207.000
49.37530 246.000
49.39525 201.000
49.41520 200.000
49.43514 221.000
49.45509 237.000
49.47504 234.000
49.49498 216.000
49.51493 213.000
49.53488 190.000
49.55483 220.000
49.57477 247.000
49.59472 207.000
49.61467 226.000
49.63461 219.000
49.65456 211.000
49.67451 180.000
49.69445 190.000
49.71440 217.000
49.73435 195.000
49.75429 188.000
49.77424 210.000
49.79419 205.000
49.81414 202.000
49.83408 205.000
49.85403 217.000
49.87398 188.000
49.89392 207.000
49.91387 216.000
49.93382 201.000
49.95376 189.000
49.97371 223.000
49.99366 204.000
50.01361 207.000
50.03355 194.000
50.05350 214.000
50.07345 199.000
50.09339 220.000
50.11334 218.000
50.13329 203.000
50.15323 230.000
50.17318 208.000
50.19313 199.000
50.21307 222.000
50.23302 207.000
50.25297 207.000
50.27292 211.000
50.29286 206.000
50.31281 192.000
50.33276 184.000
50.35270 196.000
50.37265 178.000
50.39260 177.000
50.41254 187.000
50.43249 191.000
50.45244 202.000
50.47239 179.000
50.49233 187.000
50.51228 194.000
50.53223 193.000
50.55217 172.000
50.57212 172.000
50.59207 185.000
50.61201 168.000
50.63196 188.000
50.65191 175.000
50.67186 192.000
50.69180 194.000
50.71175 200.000
50.73170 202.000
50.75164 195.000
50.77159 203.000
50.79154 185.000
50.81148 178.000
50.83143 195.000
50.85138 185.000
50.87132 223.000
50.89127 188.000
50.91122 217.000
50.93117 200.000
50.95111 203.000
50.97106 197.000
50.99101 215.000
51.01095 199.000
51.03090 210.000
51.05085 226.000
51.07079 207.000
51.09074 186.000
51.11069 182.000
51.13064 193.000
51.15058 179.000
51.17053 180.000
51.19048 210.000
51.21042 183.000
51.23037 247.000
51.25032 191.000
51.27026 185.000
51.29021 217.000
51.31016 215.000
51.33010 205.000
51.35005 209.000
51.37000 204.000
51.38995 183.000
51.40989 197.000
51.42984 197.000
51.44979 200.000
51.46973 181.000
51.48968 213.000
51.50963 196.000
51.52957 226.000
51.54952 175.000
51.56947 215.000
51.58942 181.000
51.60936 211.000
51.62931 207.000
51.64926 234.000
51.66920 210.000
51.68915 205.000
51.70910 192.000
51.72904 209.000
51.74899 201.000
51.76894 196.000
51.78888 180.000
51.80883 213.000
51.82878 193.000
51.84873 196.000
51.86867 183.000
51.88862 216.000
51.90857 217.000
51.92851 206.000
51.94846 184.000
51.96841 189.000
51.98835 180.000
52.00830 180.000
52.02825 187.000
52.04820 178.000
52.06814 193.000
52.08809 205.000
52.10804 199.000
52.12798 199.000
52.14793 170.000
52.16788 182.000
52.18782 185.000
52.20777 214.000
52.22772 216.000
52.24767 211.000
52.26761 217.000
52.28756 197.000
52.30751 206.000
52.32745 191.000
52.34740 179.000
52.36735 178.000
52.38729 182.000
52.40724 211.000
52.42719 192.000
52.44713 175.000
52.46708 175.000
52.48703 193.000
52.50698 189.000
52.52692 190.000
52.54687 195.000
52.56682 196.000
52.58676 208.000
52.60671 185.000
52.62666 196.000
52.64660 196.000
52.66655 181.000
52.68650 227.000
52.70645 191.000
52.72639 203.000
52.74634 200.000
52.76629 184.000
52.78623 199.000
52.80618 220.000
52.82613 195.000
52.84607 200.000
52.86602 228.000
52.88597 206.000
52.90591 208.000
52.92586 215.000
52.94581 183.000
52.96576 190.000
52.98570 221.000
53.00565 204.000
53.02560 256.000
53.04554 235.000
53.06549 223.000
53.08544 206.000
53.10538 254.000
53.12533 201.000
53.14528 223.000
53.16523 217.000
53.18517 268.000
53.20512 232.000
53.22507 222.000
53.24501 193.000
53.26496 220.000
53.28491 228.000
53.30485 219.000
53.32480 212.000
53.34475 213.000
53.36469 227.000
53.38464 218.000
53.40459 261.000
53.42454 236.000
53.44448 242.000
53.46443 231.000
53.48438 243.000
53.50432 256.000
53.52427 262.000
53.54422 223.000
53.56416 241.000
53.58411 221.000
53.60406 229.000
53.62401 246.000
53.64395 267.000
53.66390 232.000
53.68385 256.000
53.70379 249.000
53.72374 278.000
53.74369 306.000
53.76363 297.000
53.78358 280.000
53.80353 306.000
53.82348 258.000
53.84342 255.000
53.86337 253.000
53.88332 241.000
53.90326 279.000
53.92321 264.000
53.94316 285.000
53.96310 253.000
53.98305 219.000
54.00300 205.000
54.02294 202.000
54.04289 223.000
54.06284 213.000
54.08279 219.000
54.10273 214.000
54.12268 195.000
54.14263 175.000
54.16257 198.000
54.18252 211.000
54.20247 169.000
54.22241 203.000
54.24236 214.000
54.26231 210.000
54.28226 192.000
54.30220 197.000
54.32215 209.000
54.34210 170.000
54.36204 190.000
54.38199 201.000
54.40194 202.000
54.42188 194.000
54.44183 189.000
54.46178 179.000
54.48172 165.000
54.50167 215.000
54.52162 186.000
54.54157 214.000
54.56151 197.000
54.58146 194.000
54.60141 199.000
54.62135 219.000
54.64130 203.000
54.66125 210.000
54.68119 186.000
54.70114 175.000
54.72109 200.000
54.74104 183.000
54.76098 184.000
54.78093 187.000
54.80088 182.000
54.82082 198.000
54.84077 201.000
54.86072 185.000
54.88066 224.000
54.90061 198.000
54.92056 203.000
54.94050 195.000
54.96045 216.000
54.98040 215.000
55.00035 202.000
55.02029 198.000
55.04024 183.000
55.06019 179.000
55.08013 185.000
55.10008 211.000
55.12003 203.000
55.13997 188.000
55.15992 187.000
55.17987 203.000
55.19982 188.000
55.21976 198.000
55.23971 184.000
55.25966 168.000
55.27960 187.000
55.29955 193.000
55.31950 193.000
55.33944 202.000
55.35939 187.000
55.37934 174.000
55.39929 192.000
55.41923 194.000
55.43918 205.000
55.45913 171.000
55.47907 166.000
55.49902 218.000
55.51897 170.000
55.53891 195.000
55.55886 198.000
55.57881 222.000
55.59875 212.000
55.61870 233.000
55.63865 193.000
55.65860 204.000
55.67854 201.000
55.69849 199.000
55.71844 200.000
55.73838 190.000
55.75833 184.000
55.77828 188.000
55.79822 196.000
55.81817 192.000
55.83812 196.000
55.85807 203.000
55.87801 199.000
55.89796 214.000
55.91791 192.000
55.93785 204.000
55.95780 163.000
55.97775 196.000
55.99769 202.000
56.01764 201.000
56.03759 227.000
56.05753 200.000
56.07748 179.000
56.09743 179.000
56.11738 198.000
56.13732 203.000
56.15727 179.000
56.17722 206.000
56.19716 183.000
56.21711 197.000
56.23706 219.000
56.25700 192.000
56.27695 217.000
56.29690 199.000
56.31685 180.000
56.33679 201.000
56.35674 180.000
56.37669 177.000
56.39663 191.000
56.41658 183.000
56.43653 221.000
56.45647 219.000
56.47642 182.000
56.49637 186.000
56.51631 197.000
56.53626 233.000
56.55621 230.000
56.57616 198.000
56.59610 181.000
56.61605 178.000
56.63600 224.000
56.65594 242.000
56.67589 212.000
56.69584 177.000
56.71578 198.000
56.73573 194.000
56.75568 195.000
56.77563 195.000
56.79557 192.000
56.81552 232.000
56.83547 227.000
56.85541 206.000
56.87536 198.000
56.89531 230.000
56.91525 200.000
56.93520 243.000
56.95515 220.000
56.97510 213.000
56.99504 185.000
57.01499 210.000
57.03494 193.000
57.05488 233.000
57.07483 221.000
57.09478 242.000
57.11472 220.000
57.13467 240.000
57.15462 215.000
57.17456 246.000
57.19451 276.000
57.21446 273.000
57.23441 293.000
57.25435 348.000
57.27430 384.000
57.29425 429.000
57.31419 444.000
57.33414 431.000
57.35409 412.000
57.37403 357.000
57.39398 347.000
57.41393 357.000
57.43388 362.000
57.45382 384.000
57.47377 405.000
57.49372 363.000
57.51366 356.000
57.53361 322.000
57.55356 267.000
57.57350 263.000
57.59345 225.000
57.61340 235.000
57.63334 253.000
57.65329 252.000
57.67324 224.000
57.69319 260.000
57.71313 214.000
57.73308 233.000
57.75303 255.000
57.77297 216.000
57.79292 228.000
57.81287 230.000
57.83281 217.000
57.85276 225.000
57.87271 216.000
57.89266 216.000
57.91260 228.000
57.93255 223.000
57.95250 262.000
57.97244 225.000
57.99239 246.000
58.01234 221.000
58.03228 234.000
58.05223 249.000
58.07218 260.000
58.09212 226.000
58.11207 252.000
58.13202 241.000
58.15197 241.000
58.17191 250.000
58.19186 278.000
58.21181 250.000
58.23175 293.000
58.25170 290.000
58.27165 314.000
58.29159 304.000
58.31154 299.000
58.33149 258.000
58.35144 259.000
58.37138 240.000
58.39133 249.000
58.41128 246.000
58.43122 246.000
58.45117 245.000
58.47112 208.000
58.49106 251.000
58.51101 252.000
58.53096 236.000
58.55090 227.000
58.57085 215.000
58.59080 233.000
58.61075 214.000
58.63069 185.000
58.65064 205.000
58.67059 182.000
58.69053 182.000
58.71048 204.000
58.73043 220.000
58.75037 198.000
58.77032 218.000
58.79027 201.000
58.81022 204.000
58.83016 210.000
58.85011 216.000
58.87006 233.000
58.89000 219.000
58.90995 184.000
58.92990 209.000
58.94984 197.000
58.96979 187.000
58.98974 219.000
59.00969 199.000
59.02963 191.000
59.04958 214.000
59.06953 170.000
59.08947 214.000
59.10942 200.000
59.12937 183.000
59.14931 215.000
59.16926 187.000
59.18921 227.000
59.20915 195.000
59.22910 189.000
59.24905 229.000
59.26900 190.000
59.28894 166.000
59.30889 206.000
59.32884 211.000
59.34878 195.000
59.36873 187.000
59.38868 201.000
59.40862 225.000
59.42857 198.000
59.44852 196.000
59.46847 179.000
59.48841 222.000
59.50836 208.000
59.52831 174.000
59.54825 234.000
59.56820 195.000
59.58815 178.000
59.60809 180.000
59.62804 206.000
59.64799 189.000
59.66793 193.000
59.68788 183.000
59.70783 214.000
59.72778 224.000
59.74772 205.000
59.76767 189.000
59.78762 198.000
59.80756 219.000
59.82751 193.000
59.84746 216.000
59.86740 192.000
59.88735 218.000
59.90730 207.000
59.92725 211.000
59.94719 199.000
59.96714 200.000
59.98709 192.000
60.00703 214.000
60.02698 187.000
60.04693 198.000
60.06687 201.000
60.08682 230.000
60.10677 187.000
60.12671 218.000
60.14666 204.000
60.16661 213.000
60.18656 206.000
60.20650 209.000
60.22645 203.000
60.24640 200.000
60.26634 213.000
60.28629 209.000
60.30624 194.000
60.32618 214.000
60.34613 176.000
60.36608 222.000
60.38603 207.000
60.40597 200.000
60.42592 205.000
60.44587 178.000
60.46581 203.000
60.48576 190.000
60.50571 219.000
60.52565 194.000
60.54560 209.000
60.56555 208.000
60.58550 230.000
60.60544 194.000
60.62539 187.000
60.64534 213.000
60.66528 203.000
60.68523 201.000
60.70518 188.000
60.72512 194.000
60.74507 201.000
60.76502 213.000
60.78496 197.000
60.80491 227.000
60.82486 201.000
60.84481 229.000
60.86475 198.000
60.88470 198.000
60.90465 207.000
60.92459 211.000
60.94454 207.000
60.96449 199.000
60.98443 206.000
61.00438 229.000
61.02433 221.000
61.04428 205.000
61.06422 176.000
61.08417 211.000
61.10412 214.000
61.12406 208.000
61.14401 187.000
61.16396 195.000
61.18390 221.000
61.20385 217.000
61.22380 238.000
61.24374 202.000
61.26369 250.000
61.28364 207.000
61.30359 197.000
61.32353 232.000
61.34348 228.000
61.36343 237.000
61.38337 272.000
61.40332 255.000
61.42327 282.000
61.44321 257.000
61.46316 273.000
61.48311 298.000
61.50306 334.000
61.52300 310.000
61.54295 324.000
61.56290 316.000
61.58284 330.000
61.60279 324.000
61.62274 337.000
61.64268 339.000
61.66263 332.000
61.68258 353.000
61.70252 391.000
61.72247 339.000
61.74242 360.000
61.76237 367.000
61.78231 363.000
61.80226 375.000
61.82221 394.000
61.84215 444.000
61.86210 453.000
61.88205 485.000
61.90199 477.000
61.92194 564.000
61.94189 560.000
61.96184 581.000
61.98178 617.000
62.00173 582.000
62.02168 547.000
62.04162 548.000
62.06157 586.000
62.08152 547.000
62.10146 538.000
62.12141 474.000
62.14136 502.000
62.16131 468.000
62.18125 449.000
62.20120 463.000
62.22115 445.000
62.24109 396.000
62.26104 389.000
62.28099 361.000
62.30093 359.000
62.32088 358.000
62.34083 368.000
62.36077 378.000
62.38072 423.000
62.40067 402.000
62.42062 413.000
62.44056 446.000
62.46051 447.000
62.48046 439.000
62.50040 459.000
62.52035 428.000
62.54030 431.000
62.56024 469.000
62.58019 461.000
62.60014 455.000
62.62009 443.000
62.64003 451.000
62.65998 468.000
62.67993 460.000
62.69987 393.000
62.71982 397.000
62.73977 398.000
62.75971 391.000
62.77966 440.000
62.79961 405.000
62.81955 379.000
62.83950 415.000
62.85945 423.000
62.87940 467.000
62.89934 475.000
62.91929 557.000
62.93924 576.000
62.95918 571.000
62.97913 546.000
62.99908 495.000
63.01902 409.000
63.03897 421.000
63.05892 433.000
63.07887 431.000
63.09881 441.000
63.11876 436.000
63.13871 416.000
63.15865 389.000
63.17860 338.000
63.19855 292.000
63.21849 274.000
63.23844 290.000
63.25839 272.000
63.27833 287.000
63.29828 278.000
63.31823 273.000
63.33818 261.000
63.35812 232.000
63.37807 214.000
63.39802 230.000
63.41796 249.000
63.43791 248.000
63.45786 254.000
63.47780 246.000
63.49775 271.000
63.51770 248.000
63.53765 297.000
63.55759 287.000
63.57754 339.000
63.59749 362.000
63.61743 395.000
63.63738 380.000
63.65733 359.000
63.67727 416.000
63.69722 408.000
63.71717 382.000
63.73712 417.000
63.75706 399.000
63.77701 413.000
63.79696 407.000
63.81690 409.000
63.83685 405.000
63.85680 368.000
63.87674 429.000
63.89669 348.000
63.91664 415.000
63.93658 361.000
63.95653 357.000
63.97648 349.000
63.99643 305.000
64.01637 315.000
64.03632 315.000
64.05627 303.000
64.07621 294.000
64.09616 278.000
64.11611 244.000
64.13605 286.000
64.15600 261.000
64.17595 284.000
64.19590 298.000
64.21584 230.000
64.23579 237.000
64.25574 224.000
64.27568 234.000
64.29563 247.000
64.31558 225.000
64.33552 214.000
64.35547 222.000
64.37542 205.000
64.39536 220.000
64.41531 248.000
64.43526 247.000
64.45521 206.000
64.47515 221.000
64.49510 219.000
64.51505 196.000
64.53499 240.000
64.55494 237.000
64.57489 212.000
64.59483 226.000
64.61478 227.000
64.63473 194.000
64.65468 213.000
64.67462 229.000
64.69457 190.000
64.71452 222.000
64.73446 218.000
64.75441 203.000
64.77436 202.000
64.79430 222.000
64.81425 201.000
64.83420 216.000
64.85414 233.000
64.87409 212.000
64.89404 197.000
64.91399 206.000
64.93393 185.000
64.95388 196.000
64.97383 212.000
64.99377 194.000
65.01372 206.000
65.03367 198.000
65.05361 197.000
65.07356 209.000
65.09351 196.000
65.11346 193.000
65.13340 211.000
65.15335 231.000
65.17330 218.000
65.19324 205.000
65.21319 207.000
65.23314 243.000
65.25308 234.000
65.27303 229.000
65.29298 214.000
65.31293 222.000
65.33287 229.000
65.35282 220.000
65.37277 234.000
65.39271 230.000
65.41266 194.000
65.43261 226.000
65.45255 213.000
65.47250 206.000
65.49245 238.000
65.51239 229.000
65.53234 249.000
65.55229 221.000
65.57224 240.000
65.59218 247.000
65.61213 239.000
65.63208 263.000
65.65202 242.000
65.67197 245.000
65.69192 255.000
65.71186 235.000
65.73181 254.000
65.75176 269.000
65.77171 258.000
65.79165 284.000
65.81160 266.000
65.83155 263.000
65.85149 243.000
65.87144 286.000
65.89139 260.000
65.91133 263.000
65.93128 287.000
65.95123 291.000
65.97117 307.000
65.99112 332.000
66.01107 312.000
66.03102 337.000
66.05096 381.000
66.07091 388.000
66.09086 385.000
66.11080 392.000
66.13075 392.000
66.15070 391.000
66.17064 395.000
66.19059 443.000
66.21054 414.000
66.23049 402.000
66.25043 432.000
66.27038 440.000
66.29033 417.000
66.31027 394.000
66.33022 373.000
66.35017 402.000
66.37011 370.000
66.39006 356.000
66.41001 370.000
66.42995 347.000
66.44990 344.000
66.46985 368.000
66.48980 350.000
66.50974 310.000
66.52969 296.000
66.54964 293.000
66.56958 273.000
66.58953 307.000
66.60948 256.000
66.62942 258.000
66.64937 251.000
66.66932 268.000
66.68927 252.000
66.70921 220.000
66.72916 234.000
66.74911 225.000
66.76905 242.000
66.78900 228.000
66.80895 217.000
66.82889 239.000
66.84884 237.000
66.86879 222.000
66.88874 202.000
66.90868 192.000
66.92863 218.000
66.94858 218.000
66.96852 264.000
66.98847 217.000
67.00842 214.000
67.02836 211.000
67.04831 254.000
67.06826 256.000
67.08820 242.000
67.10815 244.000
67.12810 287.000
67.14805 296.000
67.16799 243.000
67.18794 261.000
67.20789 271.000
67.22783 278.000
67.24778 272.000
67.26773 232.000
67.28767 262.000
67.30762 263.000
67.32757 238.000
67.34752 258.000
67.36746 235.000
67.38741 230.000
67.40736 227.000
67.42730 223.000
67.44725 225.000
67.46720 213.000
67.48714 234.000
67.50709 212.000
67.52704 238.000
67.54698 237.000
67.56693 212.000
67.58688 189.000
67.60683 207.000
67.62677 222.000
67.64672 223.000
67.66667 255.000
67.68661 246.000
67.70656 206.000
67.72651 248.000
67.74645 215.000
67.76640 254.000
67.78635 246.000
67.80630 227.000
67.82624 241.000
67.84619 235.000
67.86614 249.000
67.88608 298.000
67.90603 258.000
67.92598 253.000
67.94592 276.000
67.96587 257.000
67.98582 308.000
68.00576 272.000
68.02571 279.000
68.04566 263.000
68.06561 266.000
68.08555 262.000
68.10550 280.000
68.12545 278.000
68.14539 288.000
68.16534 291.000
68.18529 244.000
68.20523 260.000
68.22518 294.000
68.24513 264.000
68.26508 241.000
68.28502 237.000
68.30497 267.000
68.32492 257.000
68.34486 259.000
68.36481 236.000
68.38476 248.000
68.40470 236.000
68.42465 239.000
68.44460 233.000
68.46455 236.000
68.48449 232.000
68.50444 205.000
68.52439 208.000
68.54433 222.000
68.56428 239.000
68.58423 235.000
68.60417 220.000
68.62412 208.000
68.64407 200.000
68.66401 202.000
68.68396 180.000
68.70391 198.000
68.72386 233.000
68.74380 210.000
68.76375 192.000
68.78370 216.000
68.80364 203.000
68.82359 207.000
68.84354 180.000
68.86348 212.000
68.88343 201.000
68.90338 199.000
68.92333 212.000
68.94327 188.000
68.96322 206.000
68.98317 188.000
69.00311 197.000
69.02306 199.000
69.04301 218.000
69.06295 176.000
69.08290 198.000
69.10285 191.000
69.12279 203.000
69.14274 214.000
69.16269 194.000
69.18264 181.000
69.20258 193.000
69.22253 181.000
69.24248 218.000
69.26242 218.000
69.28237 208.000
69.30232 209.000
69.32226 187.000
69.34221 192.000
69.36216 224.000
69.38211 195.000
69.40205 196.000
69.42200 186.000
69.44195 208.000
69.46189 195.000
69.48184 224.000
69.50179 180.000
69.52173 220.000
69.54168 210.000
69.56163 196.000
69.58157 176.000
69.60152 199.000
69.62147 218.000
69.64142 188.000
69.66136 202.000
69.68131 187.000
69.70126 212.000
69.72120 199.000
69.74115 195.000
69.76110 211.000
69.78104 181.000
69.80099 178.000
69.82094 232.000
69.84089 194.000
69.86083 200.000
69.88078 191.000
69.90073 206.000
69.92067 211.000
69.94062 195.000
69.96057 184.000
69.98051 184.000
70.00046 194.000
70.02041 185.000
70.04035 189.000
70.06030 202.000
70.08025 194.000
70.10020 213.000
70.12014 204.000
70.14009 164.000
70.16004 199.000
70.17998 180.000
70.19993 192.000
70.21988 195.000
70.23982 181.000
70.25977 187.000
70.27972 196.000
70.29967 177.000
70.31961 189.000
70.33956 190.000
70.35951 199.000
70.37945 207.000
70.39940 186.000
70.41935 210.000
70.43929 163.000
70.45924 188.000
70.47919 176.000
70.49914 198.000
70.51908 197.000
70.53903 194.000
70.55898 200.000
70.57892 208.000
70.59887 177.000
70.61882 201.000
70.63876 198.000
70.65871 211.000
70.67866 217.000
70.69860 190.000
70.71855 207.000
70.73850 206.000
70.75845 181.000
70.77839 179.000
70.79834 210.000
70.81829 195.000
70.83823 180.000
70.85818 203.000
70.87813 194.000
70.89807 185.000
70.91802 178.000
70.93797 214.000
70.95792 181.000
70.97786 199.000
70.99781 190.000
71.01776 175.000
71.03770 179.000
71.05765 199.000
71.07760 181.000
71.09754 176.000
71.11749 215.000
71.13744 180.000
71.15738 186.000
71.17733 192.000
71.19728 200.000
71.21723 201.000
71.23717 208.000
71.25712 184.000
71.27707 195.000
71.29701 219.000
71.31696 191.000
71.33691 202.000
71.35685 217.000
71.37680 237.000
71.39675 202.000
71.41670 207.000
71.43664 208.000
71.45659 211.000
71.47654 231.000
71.49648 209.000
71.51643 180.000
71.53638 214.000
71.55632 214.000
71.57627 207.000
71.59622 203.000
71.61616 199.000
71.63611 198.000
71.65606 208.000
71.67601 214.000
71.69595 197.000
71.71590 212.000
71.73585 198.000
71.75579 191.000
71.77574 193.000
71.79569 219.000
71.81563 214.000
71.83558 199.000
71.85553 181.000
71.87548 221.000
71.89542 182.000
71.91537 233.000
71.93532 189.000
71.95526 205.000
71.97521 216.000
71.99516 201.000
72.01510 206.000
72.03505 200.000
72.05500 221.000
72.07495 212.000
72.09489 215.000
72.11484 197.000
72.13479 209.000
72.15473 225.000
72.17468 220.000
72.19463 194.000
72.21457 217.000
72.23452 222.000
72.25447 193.000
72.27441 216.000
72.29436 229.000
72.31431 213.000
72.33426 242.000
72.35420 209.000
72.37415 227.000
72.39410 217.000
72.41404 200.000
72.43399 222.000
72.45394 224.000
72.47388 217.000
72.49383 247.000
72.51378 241.000
72.53373 196.000
72.55367 236.000
72.57362 226.000
72.59357 223.000
72.61351 208.000
72.63346 217.000
72.65341 233.000
72.67335 212.000
72.69330 222.000
72.71325 204.000
72.73319 192.000
72.75314 222.000
72.77309 229.000
72.79304 212.000
72.81298 190.000
72.83293 227.000
72.85288 232.000
72.87282 208.000
72.89277 216.000
72.91272 227.000
72.93266 230.000
72.95261 219.000
72.97256 241.000
72.99251 232.000
73.01245 244.000
73.03240 217.000
73.05235 264.000
73.07229 292.000
73.09224 286.000
73.11219 297.000
73.13213 269.000
73.15208 269.000
73.17203 241.000
73.19197 262.000
73.21192 255.000
73.23187 264.000
73.25182 280.000
73.27176 251.000
73.29171 278.000
73.31166 275.000
73.33160 261.000
73.35155 275.000
73.37150 274.000
73.39144 241.000
73.41139 253.000
73.43134 244.000
73.45129 238.000
73.47123 233.000
73.49118 225.000
73.51113 237.000
73.53107 255.000
73.55102 249.000
73.57097 207.000
73.59091 222.000
73.61086 218.000
73.63081 226.000
73.65076 205.000
73.67070 210.000
73.69065 206.000
73.71060 205.000
73.73054 200.000
73.75049 193.000
73.77044 242.000
73.79038 215.000
73.81033 211.000
73.83028 228.000
73.85022 192.000
73.87017 211.000
73.89012 206.000
73.91007 203.000
73.93001 212.000
73.94996 191.000
73.96991 213.000
73.98985 206.000
74.00980 189.000
74.02975 230.000
74.04969 205.000
74.06964 206.000
74.08959 215.000
74.10954 215.000
74.12948 211.000
74.14943 209.000
74.16938 204.000
74.18932 226.000
74.20927 217.000
74.22922 218.000
74.24916 201.000
74.26911 229.000
74.28906 195.000
74.30900 221.000
74.32895 212.000
74.34890 225.000
74.36885 208.000
74.38879 233.000
74.40874 215.000
74.42869 235.000
74.44863 237.000
74.46858 263.000
74.48853 299.000
74.50847 262.000
74.52842 266.000
74.54837 261.000
74.56832 224.000
74.58826 253.000
74.60821 244.000
74.62816 261.000
74.64810 254.000
74.66805 270.000
74.68800 262.000
74.70794 263.000
74.72789 244.000
74.74784 260.000
74.76778 275.000
74.78773 276.000
74.80768 298.000
74.82763 284.000
74.84757 288.000
74.86752 280.000
74.88747 285.000
74.90741 292.000
74.92736 302.000
74.94731 338.000
74.96725 275.000
74.98720 306.000
75.00715 342.000
75.02710 310.000
75.04704 294.000
75.06699 334.000
75.08694 351.000
75.10688 341.000
75.12683 333.000
75.14678 325.000
75.16672 293.000
75.18667 316.000
75.20662 311.000
75.22657 302.000
75.24651 272.000
75.26646 287.000
75.28641 296.000
75.30635 321.000
75.32630 264.000
75.34625 286.000
75.36619 269.000
75.38614 263.000
75.40609 241.000
75.42603 237.000
75.44598 268.000
75.46593 261.000
75.48588 284.000
75.50582 260.000
75.52577 257.000
75.54572 261.000
75.56566 245.000
75.58561 228.000
75.60556 282.000
75.62550 216.000
75.64545 235.000
75.66540 248.000
75.68535 216.000
75.70529 228.000
75.72524 221.000
75.74519 229.000
75.76513 221.000
75.78508 224.000
75.80503 200.000
75.82497 220.000
75.84492 212.000
75.86487 219.000
75.88481 199.000
75.90476 208.000
75.92471 210.000
75.94466 181.000
75.96460 203.000
75.98455 210.000
76.00450 193.000
76.02444 206.000
76.04439 189.000
76.06434 221.000
76.08428 197.000
76.10423 171.000
76.12418 184.000
76.14413 198.000
76.16407 198.000
76.18402 200.000
76.20397 195.000
76.22391 208.000
76.24386 186.000
76.26381 208.000
76.28375 193.000
76.30370 234.000
76.32365 195.000
76.34359 176.000
76.36354 190.000
76.38349 184.000
76.40344 179.000
76.42338 192.000
76.44333 240.000
76.46328 189.000
76.48322 222.000
76.50317 197.000
76.52312 176.000
76.54306 184.000
76.56301 207.000
76.58296 209.000
76.60291 174.000
76.62285 190.000
76.64280 179.000
76.66275 173.000
76.68269 202.000
76.70264 183.000
76.72259 206.000
76.74253 203.000
76.76248 186.000
76.78243 179.000
76.80238 203.000
76.82232 199.000
76.84227 203.000
76.86222 193.000
76.88216 191.000
76.90211 207.000
76.92206 185.000
76.94200 216.000
76.96195 224.000
76.98190 211.000
77.00184 189.000
77.02179 180.000
77.04174 176.000
77.06169 208.000
77.08163 194.000
77.10158 218.000
77.12153 219.000
77.14147 201.000
77.16142 235.000
77.18137 212.000
77.20131 210.000
77.22126 247.000
77.24121 242.000
77.26116 228.000
77.28110 233.000
77.30105 223.000
77.32100 269.000
77.34094 245.000
77.36089 259.000
77.38084 239.000
77.40078 257.000
77.42073 241.000
77.44068 242.000
77.46062 272.000
77.48057 230.000
77.50052 267.000
77.52047 243.000
77.54041 220.000
77.56036 224.000
77.58031 254.000
77.60025 227.000
77.62020 260.000
77.64015 225.000
77.66009 230.000
77.68004 237.000
77.69999 209.000
77.71994 224.000
77.73988 210.000
77.75983 256.000
77.77978 233.000
77.79972 255.000
77.81967 226.000
77.83962 237.000
77.85956 226.000
77.87951 219.000
77.89946 238.000
77.91940 213.000
77.93935 224.000
77.95930 230.000
77.97925 221.000
77.99919 205.000
78.01914 240.000
78.03909 213.000
78.05903 222.000
78.07898 222.000
78.09893 223.000
78.11887 225.000
78.13882 227.000
78.15877 248.000
78.17872 253.000
78.19866 263.000
78.21861 240.000
78.23856 289.000
78.25850 279.000
78.27845 274.000
78.29840 264.000
78.31834 326.000
78.33829 272.000
78.35824 272.000
78.37819 277.000
78.39813 276.000
78.41808 283.000
78.43803 266.000
78.45797 285.000
78.47792 298.000
78.49787 285.000
78.51781 279.000
78.53776 270.000
78.55771 280.000
78.57765 271.000
78.59760 261.000
78.61755 272.000
78.63750 252.000
78.65744 268.000
78.67739 252.000
78.69734 245.000
78.71728 250.000
78.73723 259.000
78.75718 242.000
78.77712 253.000
78.79707 232.000
78.81702 230.000
78.83697 231.000
78.85691 244.000
78.87686 241.000
78.89681 261.000
78.91675 253.000
78.93670 239.000
78.95665 248.000
78.97659 280.000
78.99654 245.000
79.01649 231.000
79.03643 271.000
79.05638 256.000
79.07633 252.000
79.09628 234.000
79.11622 235.000
79.13617 230.000
79.15612 270.000
79.17606 247.000
79.19601 245.000
79.21596 247.000
79.23590 223.000
79.25585 230.000
79.27580 243.000
79.29575 233.000
79.31569 209.000
79.33564 219.000
79.35559 245.000
79.37553 217.000
79.39548 186.000
79.41543 219.000
79.43537 222.000
79.45532 210.000
79.47527 221.000
79.49521 208.000
79.51516 211.000
79.53511 200.000
79.55506 203.000
79.57500 203.000
79.59495 197.000
79.61490 209.000
79.63484 214.000
79.65479 214.000
79.67474 210.000
79.69468 196.000
79.71463 208.000
79.73458 186.000
79.75453 225.000
79.77447 182.000
79.79442 196.000
79.81437 207.000
79.83431 203.000
79.85426 203.000
79.87421 188.000
79.89415 195.000
79.91410 191.000
79.93405 204.000
79.95399 193.000
79.97394 198.000
79.99389 208.000
80.01384 189.000
80.03378 236.000
80.05373 191.000
80.07368 197.000
80.09362 211.000
80.11357 226.000
80.13352 217.000
80.15346 209.000
80.17341 222.000
80.19336 208.000
80.21331 227.000
80.23325 233.000
80.25320 246.000
80.27315 212.000
80.29309 194.000
80.31304 225.000
80.33299 219.000
80.35293 209.000
80.37288 231.000
80.39283 219.000
80.41278 216.000
80.43272 216.000
80.45267 184.000
80.47262 202.000
80.49256 235.000
80.51251 195.000
80.53246 187.000
80.55240 188.000
80.57235 177.000
80.59230 194.000
80.61224 220.000
80.63219 184.000
80.65214 194.000
80.67209 206.000
80.69203 216.000
80.71198 210.000
80.73193 189.000
80.75187 187.000
80.77182 207.000
80.79177 219.000
80.81171 178.000
80.83166 184.000
80.85161 196.000
80.87156 197.000
80.89150 193.000
80.91145 187.000
80.93140 231.000
80.95134 211.000
80.97129 190.000
80.99124 203.000
81.01118 212.000
81.03113 185.000
81.05108 189.000
81.07102 193.000
81.09097 181.000
81.11092 186.000
81.13087 184.000
81.15081 168.000
81.17076 206.000
81.19071 187.000
81.21065 189.000
81.23060 223.000
81.25055 203.000
81.27049 179.000
81.29044 190.000
81.31039 164.000
81.33034 186.000
81.35028 186.000
81.37023 204.000
81.39018 186.000
81.41012 189.000
81.43007 179.000
81.45002 186.000
81.46996 178.000
81.48991 199.000
81.50986 208.000
81.52980 203.000
81.54975 191.000
81.56970 177.000
81.58965 186.000
81.60959 180.000
81.62954 195.000
81.64949 197.000
81.66943 214.000
81.68938 190.000
81.70933 161.000
81.72927 170.000
81.74922 185.000
81.76917 192.000
81.78912 201.000
81.80906 197.000
81.82901 207.000
81.84896 207.000
81.86890 218.000
81.88885 183.000
81.90880 177.000
81.92874 200.000
81.94869 167.000
81.96864 198.000
81.98859 175.000
82.00853 212.000
82.02848 211.000
82.04843 196.000
82.06837 191.000
82.08832 193.000
82.10827 186.000
82.12821 185.000
82.14816 219.000
82.16811 220.000
82.18805 221.000
82.20800 187.000
82.22795 210.000
82.24790 201.000
82.26784 208.000
82.28779 208.000
82.30774 204.000
82.32768 219.000
82.34763 207.000
82.36758 236.000
82.38752 197.000
82.40747 215.000
82.42742 187.000
82.44737 221.000
82.46731 230.000
82.48726 228.000
82.50721 202.000
82.52715 194.000
82.54710 218.000
82.56705 229.000
82.58699 200.000
82.60694 220.000
82.62689 187.000
82.64683 215.000
82.66678 229.000
82.68673 221.000
82.70668 235.000
82.72662 213.000
82.74657 221.000
82.76652 251.000
82.78646 215.000
82.80641 224.000
82.82636 207.000
82.84630 200.000
82.86625 231.000
82.88620 194.000
82.90615 211.000
82.92609 229.000
82.94604 241.000
82.96599 220.000
82.98593 185.000
83.00588 186.000
83.02583 227.000
83.04577 211.000
83.06572 214.000
83.08567 204.000
83.10561 200.000
83.12556 195.000
83.14551 247.000
83.16546 199.000
83.18540 237.000
83.20535 198.000
83.22530 211.000
83.24524 212.000
83.26519 221.000
83.28514 218.000
83.30508 211.000
83.32503 225.000
83.34498 217.000
83.36493 215.000
83.38487 190.000
83.40482 207.000
83.42477 195.000
83.44471 227.000
83.46466 207.000
83.48461 179.000
83.50455 201.000
83.52450 233.000
83.54445 203.000
83.56440 193.000
83.58434 217.000
83.60429 202.000
83.62424 231.000
83.64418 250.000
83.66413 219.000
83.68408 229.000
83.70402 231.000
83.72397 217.000
83.74392 223.000
83.76386 263.000
83.78381 220.000
83.80376 224.000
83.82371 264.000
83.84365 242.000
83.86360 228.000
83.88355 271.000
83.90349 248.000
83.92344 267.000
83.94339 278.000
83.96333 270.000
83.98328 235.000
84.00323 257.000
84.02318 289.000
84.04312 251.000
84.06307 243.000
84.08302 243.000
84.10296 256.000
84.12291 265.000
84.14286 246.000
84.16280 259.000
84.18275 262.000
84.20270 296.000
84.22264 257.000
84.24259 254.000
84.26254 264.000
84.28249 258.000
84.30243 223.000
84.32238 257.000
84.34233 251.000
84.36227 216.000
84.38222 254.000
84.40217 241.000
84.42211 272.000
84.44206 234.000
84.46201 229.000
84.48196 225.000
84.50190 238.000
84.52185 220.000
84.54180 212.000
84.56174 207.000
84.58169 245.000
84.60164 226.000
84.62158 200.000
84.64153 261.000
84.66148 218.000
84.68142 205.000
84.70137 198.000
84.72132 211.000
84.74127 201.000
84.76121 213.000
84.78116 206.000
84.80111 211.000
84.82105 192.000
84.84100 222.000
84.86095 222.000
84.88089 200.000
84.90084 233.000
84.92079 199.000
84.94074 189.000
84.96068 188.000
84.98063 217.000
85.00058 180.000
85.02052 219.000
85.04047 171.000
85.06042 186.000
85.08036 181.000
85.10031 206.000
85.12026 203.000
85.14021 192.000
85.16015 182.000
85.18010 196.000
85.20005 190.000
85.21999 228.000
85.23994 194.000
85.25989 187.000
85.27983 204.000
85.29978 177.000
85.31973 196.000
85.33967 183.000
85.35962 196.000
85.37957 199.000
85.39952 209.000
85.41946 188.000
85.43941 217.000
85.45936 189.000
85.47930 186.000
85.49925 210.000
85.51920 177.000
85.53914 165.000
85.55909 183.000
85.57904 174.000
85.59899 186.000
85.61893 205.000
85.63888 190.000
85.65883 207.000
85.67877 181.000
85.69872 195.000
85.71867 199.000
85.73861 193.000
85.75856 201.000
85.77851 191.000
85.79845 205.000
85.81840 195.000
85.83835 188.000
85.85830 204.000
85.87824 186.000
85.89819 192.000
85.91814 197.000
85.93808 193.000
85.95803 207.000
85.97798 197.000
85.99792 201.000
86.01787 165.000
86.03782 203.000
86.05777 193.000
86.07771 189.000
86.09766 194.000
86.11761 198.000
86.13755 204.000
86.15750 182.000
86.17745 191.000
86.19739 194.000
86.21734 193.000
86.23729 188.000
86.25723 186.000
86.27718 222.000
86.29713 202.000
86.31708 182.000
86.33702 187.000
86.35697 220.000
86.37692 223.000
86.39686 185.000
86.41681 190.000
86.43676 187.000
86.45670 197.000
86.47665 202.000
86.49660 219.000
86.51655 192.000
86.53649 198.000
86.55644 222.000
86.57639 210.000
86.59633 197.000
86.61628 188.000
86.63623 185.000
86.65617 207.000
86.67612 166.000
86.69607 218.000
86.71602 202.000
86.73596 188.000
86.75591 204.000
86.77586 194.000
86.79580 188.000
86.81575 201.000
86.83570 172.000
86.85564 181.000
86.87559 195.000
86.89554 199.000
86.91548 198.000
86.93543 182.000
86.95538 215.000
86.97533 182.000
86.99527 212.000
87.01522 225.000
87.03517 190.000
87.05511 190.000
87.07506 210.000
87.09501 195.000
87.11495 203.000
87.13490 226.000
87.15485 196.000
87.17480 205.000
87.19474 210.000
87.21469 198.000
87.23464 217.000
87.25458 211.000
87.27453 230.000
87.29448 221.000
87.31442 209.000
87.33437 234.000
87.35432 221.000
87.37426 243.000
87.39421 225.000
87.41416 219.000
87.43411 213.000
87.45405 234.000
87.47400 235.000
87.49395 238.000
87.51389 207.000
87.53384 216.000
87.55379 227.000
87.57373 224.000
87.59368 197.000
87.61363 217.000
87.63358 212.000
87.65352 232.000
87.67347 210.000
87.69342 222.000
87.71336 224.000
87.73331 206.000
87.75326 218.000
87.77320 227.000
87.79315 222.000
87.81310 202.000
87.83304 227.000
87.85299 215.000
87.87294 228.000
87.89289 209.000
87.91283 202.000
87.93278 204.000
87.95273 213.000
87.97267 214.000
87.99262 167.000
88.01257 213.000
88.03251 192.000
88.05246 190.000
88.07241 192.000
88.09236 187.000
88.11230 201.000
88.13225 193.000
88.15220 186.000
88.17214 176.000
88.19209 202.000
88.21204 194.000
88.23198 189.000
88.25193 209.000
88.27188 209.000
88.29183 200.000
88.31177 201.000
88.33172 206.000
88.35167 212.000
88.37161 171.000
88.39156 189.000
88.41151 199.000
88.43145 209.000
88.45140 210.000
88.47135 197.000
88.49129 207.000
88.51124 196.000
88.53119 178.000
88.55114 198.000
88.57108 193.000
88.59103 190.000
88.61098 208.000
88.63092 181.000
88.65087 200.000
88.67082 184.000
88.69076 206.000
88.71071 187.000
88.73066 174.000
88.75061 185.000
88.77055 178.000
88.79050 198.000
88.81045 198.000
88.83039 206.000
88.85034 203.000
88.87029 197.000
88.89023 190.000
88.91018 206.000
88.93013 191.000
88.95007 197.000
88.97002 194.000
88.98997 189.000
89.00992 196.000
89.02986 164.000
89.04981 211.000
89.06976 184.000
89.08970 208.000
89.10965 197.000
89.12960 191.000
89.14954 197.000
89.16949 204.000
89.18944 215.000
89.20939 191.000
89.22933 195.000
89.24928 214.000
89.26923 228.000
89.28917 208.000
89.30912 193.000
89.32907 205.000
89.34901 178.000
89.36896 197.000
89.38891 184.000
89.40885 183.000
89.42880 218.000
89.44875 205.000
89.46870 197.000
89.48864 185.000
89.50859 205.000
89.52854 192.000
89.54848 212.000
89.56843 200.000
89.58838 228.000
89.60832 207.000
89.62827 232.000
89.64822 192.000
89.66817 215.000
89.68811 224.000
89.70806 191.000
89.72801 234.000
89.74795 206.000
89.76790 222.000
89.78785 207.000
89.80779 209.000
89.82774 202.000
89.84769 210.000
89.86764 219.000
89.88758 201.000
89.90753 213.000
89.92748 218.000
89.94742 220.000
89.96737 195.000
89.98732 216.000
90.00726 201.000
