10.00000 242.000
10.01995 199.000
10.03989 215.000
10.05984 210.000
10.07979 204.000
10.09973 238.000
10.11968 207.000
10.13963 230.000
10.15958 202.000
10.17952 231.000
10.19947 247.000
10.21942 223.000
10.23936 248.000
10.25931 239.000
10.27926 211.000
10.29920 230.000
10.31915 217.000
10.33910 221.000
10.35905 229.000
10.37899 219.000
10.39894 219.000
10.41889 208.000
10.43883 201.000
10.45878 242.000
10.47873 210.000
10.49867 215.000
10.51862 223.000
10.53857 192.000
10.55851 233.000
10.57846 213.000
10.59841 246.000
10.61836 208.000
10.63830 215.000
10.65825 213.000
10.67820 221.000
10.69814 240.000
10.71809 222.000
10.73804 217.000
10.75798 235.000
10.77793 218.000
10.79788 208.000
10.81783 222.000
10.83777 233.000
10.85772 208.000
10.87767 248.000
10.89761 206.000
10.91756 203.000
10.93751 206.000
10.95745 231.000
10.97740 207.000
10.99735 230.000
11.01730 232.000
11.03724 235.000
11.05719 220.000
11.07714 232.000
11.09708 253.000
11.11703 214.000
11.13698 236.000
11.15692 229.000
11.17687 197.000
11.19682 227.000
11.21676 209.000
11.23671 217.000
11.25666 229.000
11.27661 235.000
11.29655 219.000
11.31650 229.000
11.33645 226.000
11.35639 188.000
11.37634 224.000
11.39629 195.000
11.41623 205.000
11.43618 239.000
11.45613 198.000
11.47608 239.000
11.49602 206.000
11.51597 224.000
11.53592 230.000
11.55586 223.000
11.57581 211.000
11.59576 218.000
11.61570 214.000
11.63565 190.000
11.65560 214.000
11.67554 188.000
11.69549 210.000
11.71544 202.000
11.73539 256.000
11.75533 206.000
11.77528 224.000
11.79523 222.000
11.81517 216.000
11.83512 215.000
11.85507 222.000
11.87501 226.000
11.89496 233.000
11.91491 207.000
11.93486 251.000
11.95480 229.000
11.97475 224.000
11.99470 230.000
12.01464 235.000
12.03459 225.000
12.05454 208.000
12.07448 233.000
12.09443 229.000
12.11438 194.000
12.13432 237.000
12.15427 190.000
12.17422 206.000
12.19417 244.000
12.21411 206.000
12.23406 205.000
12.25401 207.000
12.27395 215.000
12.29390 197.000
12.31385 232.000
12.33379 213.000
12.35374 199.000
12.37369 211.000
12.39364 224.000
12.41358 225.000
12.43353 230.000
12.45348 212.000
12.47342 222.000
12.49337 213.000
12.51332 221.000
12.53326 227.000
12.55321 217.000
12.57316 211.000
12.59311 245.000
12.61305 196.000
12.63300 211.000
12.65295 217.000
12.67289 191.000
12.69284 226.000
12.71279 203.000
12.73273 222.000
12.75268 217.000
12.77263 221.000
12.79257 214.000
12.81252 207.000
12.83247 221.000
12.85242 214.000
12.87236 204.000
12.89231 216.000
12.91226 230.000
12.93220 221.000
12.95215 220.000
12.97210 223.000
12.99204 220.000
13.01199 189.000
13.03194 215.000
13.05189 205.000
13.07183 204.000
13.09178 229.000
13.11173 228.000
13.13167 193.000
13.15162 211.000
13.17157 200.000
13.19151 235.000
13.21146 212.000
13.23141 215.000
13.25135 212.000
13.27130 219.000
13.29125 224.000
13.31120 237.000
13.33114 201.000
13.35109 211.000
13.37104 210.000
13.39098 197.000
13.41093 218.000
13.43088 223.000
13.45082 233.000
13.47077 208.000
13.49072 239.000
13.51067 214.000
13.53061 216.000
13.55056 219.000
13.57051 218.000
13.59045 215.000
13.61040 190.000
13.63035 214.000
13.65029 211.000
13.67024 196.000
13.69019 228.000
13.71013 221.000
13.73008 233.000
13.75003 207.000
13.76998 198.000
13.78992 231.000
13.80987 223.000
13.82982 242.000
13.84976 232.000
13.86971 241.000
13.88966 206.000
13.90960 218.000
13.92955 219.000
13.94950 213.000
13.96945 187.000
13.98939 207.000
14.00934 247.000
14.02929 218.000
14.04923 214.000
14.06918 203.000
14.08913 235.000
14.10907 219.000
14.12902 206.000
14.14897 212.000
14.16892 207.000
14.18886 220.000
14.20881 226.000
14.22876 203.000
14.24870 209.000
14.26865 200.000
14.28860 212.000
14.30854 195.000
14.32849 188.000
14.34844 207.000
14.36838 200.000
14.38833 197.000
14.40828 207.000
14.42823 217.000
14.44817 190.000
14.46812 225.000
14.48807 214.000
14.50801 206.000
14.52796 217.000
14.54791 233.000
14.56785 188.000
14.58780 228.000
14.60775 218.000
14.62770 238.000
14.64764 229.000
14.66759 206.000
14.68754 212.000
14.70748 223.000
14.72743 209.000
14.74738 214.000
14.76732 213.000
14.78727 223.000
14.80722 211.000
14.82716 201.000
14.84711 217.000
14.86706 230.000
14.88701 212.000
14.90695 225.000
14.92690 254.000
14.94685 243.000
14.96679 232.000
14.98674 221.000
15.00669 224.000
15.02663 208.000
15.04658 247.000
15.06653 217.000
15.08648 216.000
15.10642 199.000
15.12637 208.000
15.14632 221.000
15.16626 234.000
15.18621 220.000
15.20616 230.000
15.22610 203.000
15.24605 215.000
15.26600 237.000
15.28594 203.000
15.30589 214.000
15.32584 211.000
15.34579 240.000
15.36573 221.000
15.38568 207.000
15.40563 230.000
15.42557 221.000
15.44552 220.000
15.46547 198.000
15.48541 203.000
15.50536 236.000
15.52531 206.000
15.54526 217.000
15.56520 228.000
15.58515 239.000
15.60510 224.000
15.62504 212.000
15.64499 198.000
15.66494 199.000
15.68488 214.000
15.70483 212.000
15.72478 189.000
15.74472 228.000
15.76467 192.000
15.78462 229.000
15.80457 237.000
15.82451 220.000
15.84446 214.000
15.86441 235.000
15.88435 237.000
15.90430 200.000
15.92425 231.000
15.94419 215.000
15.96414 186.000
15.98409 213.000
16.00404 228.000
16.02398 234.000
16.04393 208.000
16.06388 210.000
16.08382 211.000
16.10377 229.000
16.12372 227.000
16.14366 202.000
16.16361 217.000
16.18356 209.000
16.20351 217.000
16.22345 222.000
16.24340 210.000
16.26335 249.000
16.28329 202.000
16.30324 235.000
16.32319 214.000
16.34313 188.000
16.36308 215.000
16.38303 226.000
16.40297 204.000
16.42292 215.000
16.44287 218.000
16.46282 190.000
16.48276 250.000
16.50271 246.000
16.52266 223.000
16.54260 229.000
16.56255 236.000
16.58250 233.000
16.60244 225.000
16.62239 233.000
16.64234 223.000
16.66229 218.000
16.68223 243.000
16.70218 228.000
16.72213 223.000
16.74207 231.000
16.76202 222.000
16.78197 227.000
16.80191 207.000
16.82186 226.000
16.84181 227.000
16.86175 226.000
16.88170 222.000
16.90165 212.000
16.92160 222.000
16.94154 213.000
16.96149 210.000
16.98144 214.000
17.00138 218.000
17.02133 197.000
17.04128 234.000
17.06122 226.000
17.08117 227.000
17.10112 229.000
17.12107 231.000
17.14101 218.000
17.16096 217.000
17.18091 226.000
17.20085 221.000
17.22080 230.000
17.24075 193.000
17.26069 247.000
17.28064 224.000
17.30059 223.000
17.32053 199.000
17.34048 232.000
17.36043 212.000
17.38038 213.000
17.40032 249.000
17.42027 250.000
17.44022 241.000
17.46016 248.000
17.48011 264.000
17.50006 219.000
17.52000 233.000
17.53995 252.000
17.55990 219.000
17.57985 224.000
17.59979 215.000
17.61974 243.000
17.63969 235.000
17.65963 196.000
17.67958 260.000
17.69953 243.000
17.71947 235.000
17.73942 214.000
17.75937 230.000
17.77932 228.000
17.79926 193.000
17.81921 224.000
17.83916 217.000
17.85910 230.000
17.87905 202.000
17.89900 220.000
17.91894 220.000
17.93889 242.000
17.95884 218.000
17.97878 219.000
17.99873 243.000
18.01868 232.000
18.03863 222.000
18.05857 221.000
18.07852 218.000
18.09847 237.000
18.11841 230.000
18.13836 202.000
18.15831 235.000
18.17825 227.000
18.19820 231.000
18.21815 287.000
18.23810 325.000
18.25804 355.000
18.27799 380.000
18.29794 358.000
18.31788 336.000
18.33783 313.000
18.35778 240.000
18.37772 211.000
18.39767 239.000
18.41762 224.000
18.43756 205.000
18.45751 223.000
18.47746 256.000
18.49741 218.000
18.51735 225.000
18.53730 224.000
18.55725 250.000
18.57719 231.000
18.59714 222.000
18.61709 217.000
18.63703 241.000
18.65698 240.000
18.67693 236.000
18.69688 208.000
18.71682 205.000
18.73677 248.000
18.75672 202.000
18.77666 209.000
18.79661 207.000
18.81656 217.000
18.83650 226.000
18.85645 217.000
18.87640 222.000
18.89634 220.000
18.91629 222.000
18.93624 240.000
18.95619 206.000
18.97613 227.000
18.99608 209.000
19.01603 220.000
19.03597 203.000
19.05592 226.000
19.07587 213.000
19.09581 224.000
19.11576 209.000
19.13571 224.000
19.15566 222.000
19.17560 232.000
19.19555 243.000
19.21550 207.000
19.23544 206.000
19.25539 254.000
19.27534 230.000
19.29528 236.000
19.31523 198.000
19.33518 203.000
19.35513 234.000
19.37507 230.000
19.39502 240.000
19.41497 235.000
19.43491 254.000
19.45486 233.000
19.47481 221.000
19.49475 246.000
19.51470 219.000
19.53465 212.000
19.55459 230.000
19.57454 257.000
19.59449 205.000
19.61444 242.000
19.63438 233.000
19.65433 261.000
19.67428 224.000
19.69422 208.000
19.71417 230.000
19.73412 227.000
19.75406 256.000
19.77401 215.000
19.79396 244.000
19.81391 226.000
19.83385 248.000
19.85380 256.000
19.87375 230.000
19.89369 260.000
19.91364 282.000
19.93359 342.000
19.95353 440.000
19.97348 459.000
19.99343 400.000
20.01337 391.000
20.03332 325.000
20.05327 306.000
20.07322 283.000
20.09316 293.000
20.11311 304.000
20.13306 282.000
20.15300 290.000
20.17295 297.000
20.19290 317.000
20.21284 317.000
20.23279 298.000
20.25274 269.000
20.27269 278.000
20.29263 272.000
20.31258 264.000
20.33253 300.000
20.35247 311.000
20.37242 340.000
20.39237 400.000
20.41231 548.000
20.43226 649.000
20.45221 754.000
20.47215 911.000
20.49210 1085.000
20.51205 1165.000
20.53200 1083.000
20.55194 1032.000
20.57189 962.000
20.59184 975.000
20.61178 1040.000
20.63173 1038.000
20.65168 996.000
20.67162 882.000
20.69157 825.000
20.71152 736.000
20.73147 670.000
20.75141 611.000
20.77136 606.000
20.79131 613.000
20.81125 574.000
20.83120 496.000
20.85115 463.000
20.87109 430.000
20.89104 401.000
20.91099 348.000
20.93094 347.000
20.95088 321.000
20.97083 333.000
20.99078 296.000
21.01072 315.000
21.03067 306.000
21.05062 272.000
21.07056 289.000
21.09051 315.000
21.11046 274.000
21.13040 240.000
21.15035 262.000
21.17030 269.000
21.19025 246.000
21.21019 227.000
21.23014 252.000
21.25009 242.000
21.27003 250.000
21.28998 219.000
21.30993 235.000
21.32987 221.000
21.34982 241.000
21.36977 196.000
21.38972 246.000
21.40966 238.000
21.42961 240.000
21.44956 240.000
21.46950 255.000
21.48945 274.000
21.50940 260.000
21.52934 220.000
21.54929 243.000
21.56924 207.000
21.58918 257.000
21.60913 250.000
21.62908 230.000
21.64903 209.000
21.66897 264.000
21.68892 243.000
21.70887 245.000
21.72881 245.000
21.74876 223.000
21.76871 215.000
21.78865 209.000
21.80860 219.000
21.82855 229.000
21.84850 237.000
21.86844 235.000
21.88839 242.000
21.90834 244.000
21.92828 263.000
21.94823 218.000
21.96818 224.000
21.98812 236.000
22.00807 248.000
22.02802 267.000
22.04796 247.000
22.06791 225.000
22.08786 259.000
22.10781 211.000
22.12775 229.000
22.14770 274.000
22.16765 226.000
22.18759 238.000
22.20754 226.000
22.22749 253.000
22.24743 234.000
22.26738 248.000
22.28733 247.000
22.30728 246.000
22.32722 242.000
22.34717 237.000
22.36712 254.000
22.38706 211.000
22.40701 235.000
22.42696 232.000
22.44690 251.000
22.46685 217.000
22.48680 230.000
22.50675 242.000
22.52669 251.000
22.54664 276.000
22.56659 253.000
22.58653 224.000
22.60648 264.000
22.62643 208.000
22.64637 225.000
22.66632 221.000
22.68627 220.000
22.70621 227.000
22.72616 229.000
22.74611 242.000
22.76606 242.000
22.78600 214.000
22.80595 231.000
22.82590 227.000
22.84584 243.000
22.86579 247.000
22.88574 228.000
22.90568 245.000
22.92563 248.000
22.94558 234.000
22.96553 220.000
22.98547 215.000
23.00542 260.000
23.02537 233.000
23.04531 261.000
23.06526 235.000
23.08521 228.000
23.10515 225.000
23.12510 248.000
23.14505 240.000
23.16499 219.000
23.18494 233.000
23.20489 237.000
23.22484 241.000
23.24478 239.000
23.26473 243.000
23.28468 243.000
23.30462 230.000
23.32457 233.000
23.34452 242.000
23.36446 233.000
23.38441 238.000
23.40436 257.000
23.42431 240.000
23.44425 289.000
23.46420 212.000
23.48415 226.000
23.50409 228.000
23.52404 246.000
23.54399 226.000
23.56393 243.000
23.58388 225.000
23.60383 241.000
23.62377 236.000
23.64372 247.000
23.66367 240.000
23.68362 234.000
23.70356 224.000
23.72351 235.000
23.74346 260.000
23.76340 242.000
23.78335 245.000
23.80330 260.000
23.82324 233.000
23.84319 250.000
23.86314 291.000
23.88309 269.000
23.90303 243.000
23.92298 250.000
23.94293 223.000
23.96287 231.000
23.98282 261.000
24.00277 220.000
24.02271 254.000
24.04266 245.000
24.06261 270.000
24.08256 251.000
24.10250 253.000
24.12245 227.000
24.14240 270.000
24.16234 272.000
24.18229 227.000
24.20224 239.000
24.22218 248.000
24.24213 266.000
24.26208 238.000
24.28202 243.000
24.30197 226.000
24.32192 226.000
24.34187 198.000
24.36181 254.000
24.38176 241.000
24.40171 256.000
24.42165 269.000
24.44160 234.000
24.46155 277.000
24.48149 258.000
24.50144 258.000
24.52139 285.000
24.54134 263.000
24.56128 260.000
24.58123 256.000
24.60118 280.000
24.62112 295.000
24.64107 280.000
24.66102 285.000
24.68096 289.000
24.70091 279.000
24.72086 341.000
24.74080 296.000
24.76075 282.000
24.78070 310.000
24.80065 278.000
24.82059 249.000
24.84054 257.000
24.86049 275.000
24.88043 268.000
24.90038 250.000
24.92033 252.000
24.94027 271.000
24.96022 252.000
24.98017 263.000
25.00012 268.000
25.02006 262.000
25.04001 257.000
25.05996 241.000
25.07990 272.000
25.09985 235.000
25.11980 246.000
25.13974 274.000
25.15969 281.000
25.17964 273.000
25.19958 239.000
25.21953 241.000
25.23948 261.000
25.25943 265.000
25.27937 239.000
25.29932 227.000
25.31927 245.000
25.33921 246.000
25.35916 226.000
25.37911 293.000
25.39905 258.000
25.41900 254.000
25.43895 274.000
25.45890 235.000
25.47884 295.000
25.49879 259.000
25.51874 262.000
25.53868 242.000
25.55863 267.000
25.57858 269.000
25.59852 252.000
25.61847 261.000
25.63842 237.000
25.65837 248.000
25.67831 272.000
25.69826 284.000
25.71821 278.000
25.73815 299.000
25.75810 272.000
25.77805 272.000
25.79799 291.000
25.81794 248.000
25.83789 272.000
25.85783 261.000
25.87778 298.000
25.89773 302.000
25.91768 266.000
25.93762 293.000
25.95757 312.000
25.97752 353.000
25.99746 307.000
26.01741 329.000
26.03736 282.000
26.05730 308.000
26.07725 329.000
26.09720 320.000
26.11715 306.000
26.13709 262.000
26.15704 304.000
26.17699 259.000
26.19693 293.000
26.21688 272.000
26.23683 285.000
26.25677 266.000
26.27672 295.000
26.29667 305.000
26.31661 278.000
26.33656 278.000
26.35651 267.000
26.37646 242.000
26.39640 306.000
26.41635 269.000
26.43630 280.000
26.45624 259.000
26.47619 254.000
26.49614 316.000
26.51608 265.000
26.53603 269.000
26.55598 258.000
26.57593 257.000
26.59587 264.000
26.61582 241.000
26.63577 258.000
26.65571 262.000
26.67566 244.000
26.69561 251.000
26.71555 245.000
26.73550 281.000
26.75545 252.000
26.77539 262.000
26.79534 258.000
26.81529 281.000
26.83524 254.000
26.85518 276.000
26.87513 292.000
26.89508 301.000
26.91502 268.000
26.93497 292.000
26.95492 271.000
26.97486 271.000
26.99481 269.000
27.01476 248.000
27.03471 280.000
27.05465 266.000
27.07460 263.000
27.09455 276.000
27.11449 315.000
27.13444 280.000
27.15439 264.000
27.17433 284.000
27.19428 265.000
27.21423 260.000
27.23417 255.000
27.25412 264.000
27.27407 275.000
27.29402 285.000
27.31396 289.000
27.33391 256.000
27.35386 272.000
27.37380 257.000
27.39375 284.000
27.41370 271.000
27.43364 268.000
27.45359 305.000
27.47354 275.000
27.49349 278.000
27.51343 268.000
27.53338 299.000
27.55333 261.000
27.57327 289.000
27.59322 274.000
27.61317 290.000
27.63311 269.000
27.65306 291.000
27.67301 282.000
27.69296 294.000
27.71290 286.000
27.73285 261.000
27.75280 324.000
27.77274 257.000
27.79269 259.000
27.81264 284.000
27.83258 255.000
27.85253 287.000
27.87248 317.000
27.89242 270.000
27.91237 278.000
27.93232 274.000
27.95227 261.000
27.97221 286.000
27.99216 257.000
28.01211 278.000
28.03205 290.000
28.05200 272.000
28.07195 270.000
28.09189 270.000
28.11184 298.000
28.13179 279.000
28.15174 294.000
28.17168 253.000
28.19163 276.000
28.21158 265.000
28.23152 298.000
28.25147 270.000
28.27142 275.000
28.29136 270.000
28.31131 265.000
28.33126 294.000
28.35120 280.000
28.37115 285.000
28.39110 285.000
28.41105 275.000
28.43099 299.000
28.45094 288.000
28.47089 290.000
28.49083 284.000
28.51078 261.000
28.53073 292.000
28.55067 273.000
28.57062 288.000
28.59057 270.000
28.61052 286.000
28.63046 270.000
28.65041 279.000
28.67036 275.000
28.69030 280.000
28.71025 277.000
28.73020 286.000
28.75014 261.000
28.77009 308.000
28.79004 267.000
28.80998 277.000
28.82993 250.000
28.84988 297.000
28.86983 284.000
28.88977 299.000
28.90972 293.000
28.92967 265.000
28.94961 294.000
28.96956 269.000
28.98951 343.000
29.00945 276.000
29.02940 286.000
29.04935 312.000
29.06930 298.000
29.08924 290.000
29.10919 298.000
29.12914 282.000
29.14908 259.000
29.16903 260.000
29.18898 256.000
29.20892 239.000
29.22887 307.000
29.24882 274.000
29.26877 298.000
29.28871 293.000
29.30866 286.000
29.32861 279.000
29.34855 300.000
29.36850 341.000
29.38845 323.000
29.40839 283.000
29.42834 300.000
29.44829 300.000
29.46823 347.000
29.48818 405.000
29.50813 472.000
29.52808 553.000
29.54802 539.000
29.56797 449.000
29.58792 443.000
29.60786 420.000
29.62781 399.000
29.64776 298.000
29.66770 331.000
29.68765 366.000
29.70760 310.000
29.72755 316.000
29.74749 339.000
29.76744 355.000
29.78739 354.000
29.80733 327.000
29.82728 345.000
29.84723 339.000
29.86717 337.000
29.88712 331.000
29.90707 313.000
29.92701 349.000
29.94696 343.000
29.96691 351.000
29.98686 405.000
30.00680 457.000
30.02675 517.000
30.04670 553.000
30.06664 535.000
30.08659 556.000
30.10654 532.000
30.12648 513.000
30.14643 488.000
30.16638 440.000
30.18633 358.000
30.20627 352.000
30.22622 328.000
30.24617 305.000
30.26611 290.000
30.28606 328.000
30.30601 288.000
30.32595 301.000
30.34590 303.000
30.36585 286.000
30.38579 301.000
30.40574 296.000
30.42569 303.000
30.44564 315.000
30.46558 249.000
30.48553 288.000
30.50548 338.000
30.52542 314.000
30.54537 309.000
30.56532 335.000
30.58526 307.000
30.60521 301.000
30.62516 325.000
30.64511 311.000
30.66505 312.000
30.68500 351.000
30.70495 358.000
30.72489 362.000
30.74484 329.000
30.76479 346.000
30.78473 312.000
30.80468 357.000
30.82463 339.000
30.84458 334.000
30.86452 316.000
30.88447 339.000
30.90442 313.000
30.92436 307.000
30.94431 335.000
30.96426 310.000
30.98420 335.000
31.00415 277.000
31.02410 301.000
31.04404 308.000
31.06399 300.000
31.08394 293.000
31.10389 310.000
31.12383 271.000
31.14378 327.000
31.16373 295.000
31.18367 274.000
31.20362 301.000
31.22357 298.000
31.24351 299.000
31.26346 287.000
31.28341 274.000
31.30336 314.000
31.32330 340.000
31.34325 289.000
31.36320 305.000
31.38314 311.000
31.40309 309.000
31.42304 279.000
31.44298 310.000
31.46293 339.000
31.48288 377.000
31.50282 430.000
31.52277 393.000
31.54272 365.000
31.56267 392.000
31.58261 403.000
31.60256 366.000
31.62251 308.000
31.64245 321.000
31.66240 354.000
31.68235 277.000
31.70229 331.000
31.72224 317.000
31.74219 313.000
31.76214 281.000
31.78208 300.000
31.80203 332.000
31.82198 312.000
31.84192 301.000
31.86187 265.000
31.88182 292.000
31.90176 347.000
31.92171 284.000
31.94166 328.000
31.96160 295.000
31.98155 327.000
32.00150 306.000
32.02145 292.000
32.04139 294.000
32.06134 282.000
32.08129 318.000
32.10123 341.000
32.12118 294.000
32.14113 304.000
32.16107 328.000
32.18102 311.000
32.20097 314.000
32.22092 336.000
32.24086 334.000
32.26081 318.000
32.28076 300.000
32.30070 322.000
32.32065 306.000
32.34060 289.000
32.36054 343.000
32.38049 344.000
32.40044 314.000
32.42039 384.000
32.44033 362.000
32.46028 411.000
32.48023 498.000
32.50017 484.000
32.52012 526.000
32.54007 520.000
32.56001 439.000
32.57996 462.000
32.59991 422.000
32.61985 411.000
32.63980 375.000
32.65975 354.000
32.67970 293.000
32.69964 333.000
32.71959 324.000
32.73954 294.000
32.75948 294.000
32.77943 303.000
32.79938 299.000
32.81932 311.000
32.83927 290.000
32.85922 303.000
32.87917 281.000
32.89911 316.000
32.91906 284.000
32.93901 330.000
32.95895 325.000
32.97890 331.000
32.99885 275.000
33.01879 317.000
33.03874 298.000
33.05869 307.000
33.07863 290.000
33.09858 346.000
33.11853 339.000
33.13848 336.000
33.15842 388.000
33.17837 396.000
33.19832 449.000
33.21826 543.000
33.23821 681.000
33.25816 611.000
33.27810 584.000
33.29805 592.000
33.31800 615.000
33.33795 700.000
33.35789 640.000
33.37784 635.000
33.39779 637.000
33.41773 586.000
33.43768 542.000
33.45763 533.000
33.47757 489.000
33.49752 538.000
33.51747 520.000
33.53741 526.000
33.55736 491.000
33.57731 513.000
33.59726 522.000
33.61720 513.000
33.63715 502.000
33.65710 594.000
33.67704 621.000
33.69699 611.000
33.71694 635.000
33.73688 661.000
33.75683 723.000
33.77678 639.000
33.79673 670.000
33.81667 723.000
33.83662 714.000
33.85657 697.000
33.87651 728.000
33.89646 762.000
33.91641 804.000
33.93635 865.000
33.95630 1002.000
33.97625 1059.000
33.99620 1204.000
34.01614 1054.000
34.03609 1013.000
34.05604 984.000
34.07598 995.000
34.09593 953.000
34.11588 819.000
34.13582 725.000
34.15577 743.000
34.17572 725.000
34.19566 634.000
34.21561 626.000
34.23556 590.000
34.25551 569.000
34.27545 599.000
34.29540 566.000
34.31535 536.000
34.33529 553.000
34.35524 485.000
34.37519 514.000
34.39513 525.000
34.41508 482.000
34.43503 437.000
34.45498 446.000
34.47492 410.000
34.49487 364.000
34.51482 420.000
34.53476 392.000
34.55471 388.000
34.57466 367.000
34.59460 340.000
34.61455 353.000
34.63450 313.000
34.65444 336.000
34.67439 357.000
34.69434 328.000
34.71429 364.000
34.73423 312.000
34.75418 319.000
34.77413 323.000
34.79407 332.000
34.81402 328.000
34.83397 332.000
34.85391 333.000
34.87386 350.000
34.89381 365.000
34.91376 365.000
34.93370 381.000
34.95365 359.000
34.97360 394.000
34.99354 355.000
35.01349 381.000
35.03344 423.000
35.05338 354.000
35.07333 376.000
35.09328 398.000
35.11322 379.000
35.13317 369.000
35.15312 380.000
35.17307 431.000
35.19301 411.000
35.21296 476.000
35.23291 488.000
35.25285 566.000
35.27280 613.000
35.29275 678.000
35.31269 766.000
35.33264 851.000
35.35259 1107.000
35.37254 1346.000
35.39248 1673.000
35.41243 1940.000
35.43238 2294.000
35.45232 2219.000
35.47227 2166.000
35.49222 2240.000
35.51216 2830.000
35.53211 3210.000
35.55206 2913.000
35.57201 2137.000
35.59195 1743.000
35.61190 1780.000
35.63185 1741.000
35.65179 1308.000
35.67174 1023.000
35.69169 805.000
35.71163 717.000
35.73158 644.000
35.75153 584.000
35.77147 508.000
35.79142 468.000
35.81137 481.000
35.83132 478.000
35.85126 459.000
35.87121 407.000
35.89116 418.000
35.91110 394.000
35.93105 386.000
35.95100 393.000
35.97094 332.000
35.99089 346.000
36.01084 353.000
36.03079 367.000
36.05073 352.000
36.07068 304.000
36.09063 344.000
36.11057 314.000
36.13052 342.000
36.15047 341.000
36.17041 308.000
36.19036 307.000
36.21031 347.000
36.23025 327.000
36.25020 361.000
36.27015 359.000
36.29010 340.000
36.31004 323.000
36.32999 315.000
36.34994 328.000
36.36988 298.000
36.38983 290.000
36.40978 297.000
36.42972 308.000
36.44967 316.000
36.46962 298.000
36.48957 306.000
36.50951 323.000
36.52946 287.000
36.54941 299.000
36.56935 304.000
36.58930 290.000
36.60925 298.000
36.62919 264.000
36.64914 308.000
36.66909 284.000
36.68903 305.000
36.70898 317.000
36.72893 308.000
36.74888 299.000
36.76882 263.000
36.78877 318.000
36.80872 286.000
36.82866 281.000
36.84861 326.000
36.86856 279.000
36.88850 287.000
36.90845 321.000
36.92840 276.000
36.94835 323.000
36.96829 313.000
36.98824 336.000
37.00819 282.000
37.02813 331.000
37.04808 326.000
37.06803 306.000
37.08797 313.000
37.10792 341.000
37.12787 319.000
37.14781 289.000
37.16776 317.000
37.18771 285.000
37.20766 307.000
37.22760 313.000
37.24755 303.000
37.26750 299.000
37.28744 307.000
37.30739 297.000
37.32734 302.000
37.34728 280.000
37.36723 307.000
37.38718 278.000
37.40713 272.000
37.42707 296.000
37.44702 299.000
37.46697 304.000
37.48691 273.000
37.50686 283.000
37.52681 300.000
37.54675 263.000
37.56670 311.000
37.58665 291.000
37.60660 297.000
37.62654 295.000
37.64649 286.000
37.66644 309.000
37.68638 287.000
37.70633 310.000
37.72628 299.000
37.74622 313.000
37.76617 300.000
37.78612 288.000
37.80606 267.000
37.82601 276.000
37.84596 323.000
37.86591 330.000
37.88585 330.000
37.90580 303.000
37.92575 353.000
37.94569 340.000
37.96564 302.000
37.98559 340.000
38.00553 322.000
38.02548 356.000
38.04543 344.000
38.06538 298.000
38.08532 358.000
38.10527 291.000
38.12522 334.000
38.14516 305.000
38.16511 336.000
38.18506 342.000
38.20500 330.000
38.22495 342.000
38.24490 353.000
38.26484 355.000
38.28479 365.000
38.30474 362.000
38.32469 353.000
38.34463 363.000
38.36458 366.000
38.38453 389.000
38.40447 403.000
38.42442 432.000
38.44437 438.000
38.46431 441.000
38.48426 436.000
38.50421 470.000
38.52416 495.000
38.54410 542.000
38.56405 542.000
38.58400 605.000
38.60394 641.000
38.62389 787.000
38.64384 913.000
38.66378 1136.000
38.68373 1458.000
38.70368 1927.000
38.72362 2376.000
38.74357 2389.000
38.76352 2099.000
38.78347 1902.000
38.80341 1851.000
38.82336 1908.000
38.84331 1664.000
38.86325 1453.000
38.88320 1307.000
38.90315 1275.000
38.92309 1087.000
38.94304 986.000
38.96299 865.000
38.98294 773.000
39.00288 631.000
39.02283 699.000
39.04278 608.000
39.06272 558.000
39.08267 473.000
39.10262 453.000
39.12256 412.000
39.14251 381.000
39.16246 380.000
39.18241 379.000
39.20235 368.000
39.22230 353.000
39.24225 308.000
39.26219 350.000
39.28214 360.000
39.30209 335.000
39.32203 339.000
39.34198 321.000
39.36193 336.000
39.38187 319.000
39.40182 360.000
39.42177 323.000
39.44172 342.000
39.46166 321.000
39.48161 327.000
39.50156 320.000
39.52150 320.000
39.54145 289.000
39.56140 303.000
39.58134 307.000
39.60129 298.000
39.62124 296.000
39.64119 303.000
39.66113 295.000
39.68108 316.000
39.70103 304.000
39.72097 313.000
39.74092 315.000
39.76087 266.000
39.78081 289.000
39.80076 288.000
39.82071 326.000
39.84065 314.000
39.86060 305.000
39.88055 305.000
39.90050 298.000
39.92044 306.000
39.94039 295.000
39.96034 273.000
39.98028 305.000
40.00023 317.000
40.02018 302.000
40.04012 284.000
40.06007 268.000
40.08002 297.000
40.09997 289.000
40.11991 311.000
40.13986 277.000
40.15981 277.000
40.17975 288.000
40.19970 279.000
40.21965 289.000
40.23959 277.000
40.25954 269.000
40.27949 307.000
40.29943 270.000
40.31938 282.000
40.33933 310.000
40.35928 296.000
40.37922 283.000
40.39917 280.000
40.41912 265.000
40.43906 283.000
40.45901 285.000
40.47896 254.000
40.49890 272.000
40.51885 278.000
40.53880 287.000
40.55875 298.000
40.57869 286.000
40.59864 286.000
40.61859 275.000
40.63853 288.000
40.65848 296.000
40.67843 269.000
40.69837 275.000
40.71832 271.000
40.73827 299.000
40.75822 253.000
40.77816 302.000
40.79811 296.000
40.81806 273.000
40.83800 287.000
40.85795 266.000
40.87790 302.000
40.89784 261.000
40.91779 323.000
40.93774 266.000
40.95768 289.000
40.97763 276.000
40.99758 277.000
41.01753 274.000
41.03747 308.000
41.05742 288.000
41.07737 311.000
41.09731 288.000
41.11726 263.000
41.13721 269.000
41.15715 258.000
41.17710 269.000
41.19705 285.000
41.21700 264.000
41.23694 282.000
41.25689 267.000
41.27684 276.000
41.29678 299.000
41.31673 292.000
41.33668 260.000
41.35662 270.000
41.37657 307.000
41.39652 273.000
41.41646 284.000
41.43641 299.000
41.45636 311.000
41.47631 308.000
41.49625 285.000
41.51620 273.000
41.53615 253.000
41.55609 303.000
41.57604 303.000
41.59599 278.000
41.61593 263.000
41.63588 296.000
41.65583 295.000
41.67578 274.000
41.69572 282.000
41.71567 262.000
41.73562 291.000
41.75556 277.000
41.77551 294.000
41.79546 256.000
41.81540 306.000
41.83535 267.000
41.85530 283.000
41.87524 298.000
41.89519 270.000
41.91514 293.000
41.93509 306.000
41.95503 335.000
41.97498 292.000
41.99493 302.000
42.01487 306.000
42.03482 281.000
42.05477 316.000
42.07471 295.000
42.09466 275.000
42.11461 321.000
42.13456 314.000
42.15450 284.000
42.17445 292.000
42.19440 278.000
42.21434 308.000
42.23429 295.000
42.25424 261.000
42.27418 258.000
42.29413 269.000
42.31408 298.000
42.33403 272.000
42.35397 286.000
42.37392 288.000
42.39387 286.000
42.41381 286.000
42.43376 302.000
42.45371 267.000
42.47365 290.000
42.49360 304.000
42.51355 275.000
42.53349 303.000
42.55344 277.000
42.57339 262.000
42.59334 285.000
42.61328 250.000
42.63323 238.000
42.65318 290.000
42.67312 289.000
42.69307 298.000
42.71302 309.000
42.73296 306.000
42.75291 265.000
42.77286 242.000
42.79281 291.000
42.81275 280.000
42.83270 289.000
42.85265 292.000
42.87259 306.000
42.89254 331.000
42.91249 321.000
42.93243 372.000
42.95238 323.000
42.97233 386.000
42.99227 436.000
43.01222 504.000
43.03217 565.000
43.05212 505.000
43.07206 476.000
43.09201 429.000
43.11196 438.000
43.13190 493.000
43.15185 423.000
43.17180 425.000
43.19174 362.000
43.21169 365.000
43.23164 333.000
43.25159 302.000
43.27153 264.000
43.29148 320.000
43.31143 290.000
43.33137 319.000
43.35132 290.000
43.37127 291.000
43.39121 293.000
43.41116 279.000
43.43111 260.000
43.45105 266.000
43.47100 264.000
43.49095 276.000
43.51090 302.000
43.53084 284.000
43.55079 245.000
43.57074 271.000
43.59068 278.000
43.61063 271.000
43.63058 267.000
43.65052 283.000
43.67047 257.000
43.69042 256.000
43.71037 273.000
43.73031 263.000
43.75026 281.000
43.77021 275.000
43.79015 292.000
43.81010 285.000
43.83005 285.000
43.84999 270.000
43.86994 291.000
43.88989 268.000
43.90984 266.000
43.92978 260.000
43.94973 282.000
43.96968 266.000
43.98962 285.000
44.00957 245.000
44.02952 290.000
44.04946 293.000
44.06941 226.000
44.08936 279.000
44.10930 276.000
44.12925 287.000
44.14920 268.000
44.16915 271.000
44.18909 277.000
44.20904 253.000
44.22899 279.000
44.24893 291.000
44.26888 298.000
44.28883 266.000
44.30877 278.000
44.32872 250.000
44.34867 259.000
44.36862 278.000
44.38856 279.000
44.40851 310.000
44.42846 271.000
44.44840 254.000
44.46835 253.000
44.48830 346.000
44.50824 286.000
44.52819 301.000
44.54814 250.000
44.56808 270.000
44.58803 252.000
44.60798 284.000
44.62793 243.000
44.64787 290.000
44.66782 268.000
44.68777 280.000
44.70771 262.000
44.72766 292.000
44.74761 278.000
44.76755 259.000
44.78750 273.000
44.80745 259.000
44.82740 281.000
44.84734 274.000
44.86729 284.000
44.88724 231.000
44.90718 259.000
44.92713 286.000
44.94708 267.000
44.96702 292.000
44.98697 276.000
45.00692 296.000
45.02686 297.000
45.04681 340.000
45.06676 358.000
45.08671 330.000
45.10665 305.000
45.12660 285.000
45.14655 333.000
45.16649 290.000
45.18644 323.000
45.20639 315.000
45.22633 261.000
45.24628 271.000
45.26623 298.000
45.28618 278.000
45.30612 290.000
45.32607 275.000
45.34602 269.000
45.36596 266.000
45.38591 266.000
45.40586 231.000
45.42580 245.000
45.44575 260.000
45.46570 254.000
45.48565 259.000
45.50559 270.000
45.52554 238.000
45.54549 259.000
45.56543 319.000
45.58538 254.000
45.60533 251.000
45.62527 270.000
45.64522 265.000
45.66517 244.000
45.68511 251.000
45.70506 264.000
45.72501 255.000
45.74496 274.000
45.76490 282.000
45.78485 273.000
45.80480 273.000
45.82474 273.000
45.84469 255.000
45.86464 267.000
45.88458 264.000
45.90453 281.000
45.92448 263.000
45.94443 259.000
45.96437 274.000
45.98432 309.000
46.00427 261.000
46.02421 274.000
46.04416 271.000
46.06411 269.000
46.08405 270.000
46.10400 281.000
46.12395 273.000
46.14389 235.000
46.16384 298.000
46.18379 301.000
46.20374 274.000
46.22368 310.000
46.24363 312.000
46.26358 336.000
46.28352 311.000
46.30347 303.000
46.32342 312.000
46.34336 274.000
46.36331 286.000
46.38326 300.000
46.40321 276.000
46.42315 331.000
46.44310 261.000
46.46305 307.000
46.48299 291.000
46.50294 294.000
46.52289 303.000
46.54283 320.000
46.56278 284.000
46.58273 275.000
46.60267 269.000
46.62262 295.000
46.64257 265.000
46.66252 256.000
46.68246 292.000
46.70241 265.000
46.72236 254.000
46.74230 296.000
46.76225 285.000
46.78220 287.000
46.80214 250.000
46.82209 276.000
46.84204 244.000
46.86199 260.000
46.88193 263.000
46.90188 251.000
46.92183 259.000
46.94177 317.000
46.96172 267.000
46.98167 258.000
47.00161 247.000
47.02156 271.000
47.04151 281.000
47.06146 260.000
47.08140 287.000
47.10135 248.000
47.12130 283.000
47.14124 278.000
47.16119 277.000
47.18114 266.000
47.20108 265.000
47.22103 254.000
47.24098 299.000
47.26092 286.000
47.28087 256.000
47.30082 268.000
47.32077 288.000
47.34071 272.000
47.36066 261.000
47.38061 282.000
47.40055 252.000
47.42050 245.000
47.44045 286.000
47.46039 271.000
47.48034 256.000
47.50029 282.000
47.52024 281.000
47.54018 265.000
47.56013 240.000
47.58008 255.000
47.60002 244.000
47.61997 256.000
47.63992 268.000
47.65986 250.000
47.67981 264.000
47.69976 277.000
47.71970 265.000
47.73965 288.000
47.75960 250.000
47.77955 272.000
47.79949 308.000
47.81944 267.000
47.83939 269.000
47.85933 276.000
47.87928 296.000
47.89923 283.000
47.91917 284.000
47.93912 287.000
47.95907 312.000
47.97902 261.000
47.99896 280.000
48.01891 298.000
48.03886 282.000
48.05880 272.000
48.07875 274.000
48.09870 268.000
48.11864 292.000
48.13859 306.000
48.15854 269.000
48.17848 297.000
48.19843 270.000
48.21838 292.000
48.23833 283.000
48.25827 298.000
48.27822 289.000
48.29817 314.000
48.31811 313.000
48.33806 272.000
48.35801 307.000
48.37795 308.000
48.39790 308.000
48.41785 311.000
48.43780 332.000
48.45774 336.000
48.47769 361.000
48.49764 358.000
48.51758 380.000
48.53753 369.000
48.55748 382.000
48.57742 394.000
48.59737 408.000
48.61732 483.000
48.63726 498.000
48.65721 630.000
48.67716 730.000
48.69711 801.000
48.71705 803.000
48.73700 724.000
48.75695 635.000
48.77689 600.000
48.79684 588.000
48.81679 616.000
48.83673 623.000
48.85668 531.000
48.87663 482.000
48.89658 431.000
48.91652 416.000
48.93647 352.000
48.95642 313.000
48.97636 319.000
48.99631 289.000
49.01626 323.000
49.03620 302.000
49.05615 314.000
49.07610 302.000
49.09605 307.000
49.11599 322.000
49.13594 306.000
49.15589 332.000
49.17583 280.000
49.19578 284.000
49.21573 291.000
49.23567 306.000
49.25562 290.000
49.27557 310.000
49.29551 321.000
49.31546 279.000
49.33541 266.000
49.35536 287.000
49.37530 269.000
49.39525 286.000
49.41520 263.000
49.43514 274.000
49.45509 267.000
49.47504 281.000
49.49498 273.000
49.51493 301.000
49.53488 279.000
49.55483 283.000
49.57477 276.000
49.59472 258.000
49.61467 261.000
49.63461 268.000
49.65456 305.000
49.67451 277.000
49.69445 292.000
49.71440 261.000
49.73435 270.000
49.75429 285.000
49.77424 298.000
49.79419 279.000
49.81414 301.000
49.83408 278.000
49.85403 310.000
49.87398 307.000
49.89392 283.000
49.91387 308.000
49.93382 266.000
49.95376 315.000
49.97371 284.000
49.99366 308.000
50.01361 288.000
50.03355 297.000
50.05350 266.000
50.07345 274.000
50.09339 282.000
50.11334 268.000
50.13329 289.000
50.15323 290.000
50.17318 291.000
50.19313 273.000
50.21307 304.000
50.23302 290.000
50.25297 253.000
50.27292 245.000
50.29286 245.000
50.31281 313.000
50.33276 249.000
50.35270 257.000
50.37265 290.000
50.39260 274.000
50.41254 254.000
50.43249 276.000
50.45244 259.000
50.47239 284.000
50.49233 280.000
50.51228 286.000
50.53223 258.000
50.55217 265.000
50.57212 259.000
50.59207 269.000
50.61201 281.000
50.63196 274.000
50.65191 298.000
50.67186 265.000
50.69180 267.000
50.71175 275.000
50.73170 277.000
50.75164 266.000
50.77159 292.000
50.79154 288.000
50.81148 250.000
50.83143 291.000
50.85138 288.000
50.87132 268.000
50.89127 259.000
50.91122 236.000
50.93117 252.000
50.95111 279.000
50.97106 268.000
50.99101 260.000
51.01095 253.000
51.03090 325.000
51.05085 265.000
51.07079 268.000
51.09074 304.000
51.11069 301.000
51.13064 312.000
51.15058 306.000
51.17053 301.000
51.19048 279.000
51.21042 300.000
51.23037 280.000
51.25032 290.000
51.27026 278.000
51.29021 302.000
51.31016 264.000
51.33010 280.000
51.35005 266.000
51.37000 272.000
51.38995 269.000
51.40989 284.000
51.42984 267.000
51.44979 248.000
51.46973 277.000
51.48968 257.000
51.50963 295.000
51.52957 269.000
51.54952 300.000
51.56947 266.000
51.58942 265.000
51.60936 285.000
51.62931 243.000
51.64926 239.000
51.66920 266.000
51.68915 242.000
51.70910 231.000
51.72904 290.000
51.74899 234.000
51.76894 222.000
51.78888 255.000
51.80883 265.000
51.82878 243.000
51.84873 230.000
51.86867 244.000
51.88862 252.000
51.90857 278.000
51.92851 246.000
51.94846 240.000
51.96841 270.000
51.98835 259.000
52.00830 268.000
52.02825 255.000
52.04820 249.000
52.06814 244.000
52.08809 268.000
52.10804 262.000
52.12798 268.000
52.14793 258.000
52.16788 275.000
52.18782 258.000
52.20777 268.000
52.22772 258.000
52.24767 248.000
52.26761 268.000
52.28756 261.000
52.30751 266.000
52.32745 255.000
52.34740 303.000
52.36735 264.000
52.38729 257.000
52.40724 249.000
52.42719 248.000
52.44713 290.000
52.46708 254.000
52.48703 250.000
52.50698 268.000
52.52692 266.000
52.54687 270.000
52.56682 283.000
52.58676 284.000
52.60671 278.000
52.62666 291.000
52.64660 247.000
52.66655 310.000
52.68650 263.000
52.70645 281.000
52.72639 265.000
52.74634 259.000
52.76629 272.000
52.78623 248.000
52.80618 320.000
52.82613 279.000
52.84607 274.000
52.86602 317.000
52.88597 281.000
52.90591 298.000
52.92586 279.000
52.94581 272.000
52.96576 283.000
52.98570 274.000
53.00565 277.000
53.02560 293.000
53.04554 313.000
53.06549 292.000
53.08544 287.000
53.10538 255.000
53.12533 259.000
53.14528 292.000
53.16523 300.000
53.18517 293.000
53.20512 318.000
53.22507 327.000
53.24501 302.000
53.26496 352.000
53.28491 325.000
53.30485 295.000
53.32480 352.000
53.34475 369.000
53.36469 394.000
53.38464 369.000
53.40459 386.000
53.42454 413.000
53.44448 432.000
53.46443 457.000
53.48438 464.000
53.50432 436.000
53.52427 401.000
53.54422 425.000
53.56416 438.000
53.58411 399.000
53.60406 424.000
53.62401 378.000
53.64395 384.000
53.66390 357.000
53.68385 359.000
53.70379 377.000
53.72374 350.000
53.74369 279.000
53.76363 348.000
53.78358 303.000
53.80353 320.000
53.82348 307.000
53.84342 291.000
53.86337 305.000
53.88332 313.000
53.90326 277.000
53.92321 286.000
53.94316 291.000
53.96310 289.000
53.98305 274.000
54.00300 297.000
54.02294 261.000
54.04289 254.000
54.06284 250.000
54.08279 303.000
54.10273 294.000
54.12268 298.000
54.14263 281.000
54.16257 279.000
54.18252 301.000
54.20247 280.000
54.22241 264.000
54.24236 274.000
54.26231 281.000
54.28226 256.000
54.30220 255.000
54.32215 251.000
54.34210 273.000
54.36204 260.000
54.38199 290.000
54.40194 249.000
54.42188 271.000
54.44183 261.000
54.46178 256.000
54.48172 256.000
54.50167 262.000
54.52162 291.000
54.54157 283.000
54.56151 235.000
54.58146 268.000
54.60141 258.000
54.62135 273.000
54.64130 263.000
54.66125 298.000
54.68119 266.000
54.70114 285.000
54.72109 272.000
54.74104 278.000
54.76098 260.000
54.78093 280.000
54.80088 279.000
54.82082 270.000
54.84077 313.000
54.86072 313.000
54.88066 298.000
54.90061 302.000
54.92056 288.000
54.94050 310.000
54.96045 256.000
54.98040 308.000
55.00035 300.000
55.02029 300.000
55.04024 286.000
55.06019 280.000
55.08013 289.000
55.10008 265.000
55.12003 296.000
55.13997 293.000
55.15992 238.000
55.17987 267.000
55.19982 273.000
55.21976 287.000
55.23971 260.000
55.25966 262.000
55.27960 260.000
55.29955 266.000
55.31950 255.000
55.33944 263.000
55.35939 289.000
55.37934 293.000
55.39929 273.000
55.41923 220.000
55.43918 263.000
55.45913 270.000
55.47907 296.000
55.49902 287.000
55.51897 277.000
55.53891 293.000
55.55886 288.000
55.57881 250.000
55.59875 260.000
55.61870 278.000
55.63865 271.000
55.65860 244.000
55.67854 314.000
55.69849 262.000
55.71844 255.000
55.73838 298.000
55.75833 279.000
55.77828 285.000
55.79822 283.000
55.81817 277.000
55.83812 277.000
55.85807 269.000
55.87801 290.000
55.89796 263.000
55.91791 286.000
55.93785 286.000
55.95780 274.000
55.97775 296.000
55.99769 271.000
56.01764 277.000
56.03759 257.000
56.05753 301.000
56.07748 293.000
56.09743 255.000
56.11738 299.000
56.13732 299.000
56.15727 269.000
56.17722 280.000
56.19716 281.000
56.21711 269.000
56.23706 300.000
56.25700 259.000
56.27695 277.000
56.29690 252.000
56.31685 280.000
56.33679 272.000
56.35674 284.000
56.37669 247.000
56.39663 272.000
56.41658 261.000
56.43653 266.000
56.45647 262.000
56.47642 281.000
56.49637 292.000
56.51631 276.000
56.53626 280.000
56.55621 271.000
56.57616 262.000
56.59610 288.000
56.61605 296.000
56.63600 254.000
56.65594 293.000
56.67589 323.000
56.69584 311.000
56.71578 303.000
56.73573 328.000
56.75568 336.000
56.77563 329.000
56.79557 322.000
56.81552 377.000
56.83547 365.000
56.85541 398.000
56.87536 388.000
56.89531 437.000
56.91525 412.000
56.93520 488.000
56.95515 429.000
56.97510 376.000
56.99504 431.000
57.01499 365.000
57.03494 366.000
57.05488 334.000
57.07483 381.000
57.09478 354.000
57.11472 363.000
57.13467 375.000
57.15462 320.000
57.17456 321.000
57.19451 311.000
57.21446 314.000
57.23441 306.000
57.25435 272.000
57.27430 260.000
57.29425 293.000
57.31419 249.000
57.33414 290.000
57.35409 283.000
57.37403 289.000
57.39398 285.000
57.41393 307.000
57.43388 263.000
57.45382 294.000
57.47377 290.000
57.49372 275.000
57.51366 286.000
57.53361 281.000
57.55356 266.000
57.57350 268.000
57.59345 294.000
57.61340 262.000
57.63334 297.000
57.65329 265.000
57.67324 302.000
57.69319 265.000
57.71313 274.000
57.73308 297.000
57.75303 277.000
57.77297 271.000
57.79292 275.000
57.81287 287.000
57.83281 258.000
57.85276 249.000
57.87271 264.000
57.89266 285.000
57.91260 290.000
57.93255 291.000
57.95250 300.000
57.97244 318.000
57.99239 272.000
58.01234 302.000
58.03228 302.000
58.05223 300.000
58.07218 303.000
58.09212 304.000
58.11207 322.000
58.13202 321.000
58.15197 344.000
58.17191 342.000
58.19186 346.000
58.21181 391.000
58.23175 414.000
58.25170 394.000
58.27165 435.000
58.29159 486.000
58.31154 472.000
58.33149 464.000
58.35144 426.000
58.37138 408.000
58.39133 393.000
58.41128 378.000
58.43122 391.000
58.45117 381.000
58.47112 400.000
58.49106 370.000
58.51101 374.000
58.53096 343.000
58.55090 323.000
58.57085 292.000
58.59080 318.000
58.61075 288.000
58.63069 325.000
58.65064 287.000
58.67059 304.000
58.69053 294.000
58.71048 301.000
58.73043 295.000
58.75037 276.000
58.77032 267.000
58.79027 295.000
58.81022 271.000
58.83016 261.000
58.85011 269.000
58.87006 256.000
58.89000 270.000
58.90995 282.000
58.92990 257.000
58.94984 244.000
58.96979 269.000
58.98974 271.000
59.00969 284.000
59.02963 271.000
59.04958 245.000
59.06953 253.000
59.08947 269.000
59.10942 286.000
59.12937 280.000
59.14931 257.000
59.16926 265.000
59.18921 259.000
59.20915 286.000
59.22910 274.000
59.24905 243.000
59.26900 291.000
59.28894 277.000
59.30889 281.000
59.32884 246.000
59.34878 264.000
59.36873 277.000
59.38868 259.000
59.40862 263.000
59.42857 260.000
59.44852 258.000
59.46847 302.000
59.48841 291.000
59.50836 263.000
59.52831 251.000
59.54825 304.000
59.56820 221.000
59.58815 302.000
59.60809 279.000
59.62804 273.000
59.64799 281.000
59.66793 276.000
59.68788 282.000
59.70783 297.000
59.72778 295.000
59.74772 275.000
59.76767 275.000
59.78762 294.000
59.80756 290.000
59.82751 334.000
59.84746 296.000
59.86740 365.000
59.88735 396.000
59.90730 370.000
59.92725 321.000
59.94719 286.000
59.96714 358.000
59.98709 290.000
60.00703 285.000
60.02698 316.000
60.04693 345.000
60.06687 316.000
60.08682 324.000
60.10677 308.000
60.12671 338.000
60.14666 312.000
60.16661 313.000
60.18656 343.000
60.20650 331.000
60.22645 323.000
60.24640 338.000
60.26634 311.000
60.28629 289.000
60.30624 345.000
60.32618 363.000
60.34613 350.000
60.36608 338.000
60.38603 353.000
60.40597 308.000
60.42592 349.000
60.44587 355.000
60.46581 345.000
60.48576 347.000
60.50571 343.000
60.52565 349.000
60.54560 344.000
60.56555 318.000
60.58550 340.000
60.60544 373.000
60.62539 324.000
60.64534 339.000
60.66528 348.000
60.68523 365.000
60.70518 341.000
60.72512 336.000
60.74507 351.000
60.76502 318.000
60.78496 315.000
60.80491 329.000
60.82486 334.000
60.84481 329.000
60.86475 357.000
60.88470 323.000
60.90465 328.000
60.92459 328.000
60.94454 340.000
60.96449 350.000
60.98443 369.000
61.00438 319.000
61.02433 318.000
61.04428 344.000
61.06422 357.000
61.08417 389.000
61.10412 350.000
61.12406 366.000
61.14401 374.000
61.16396 359.000
61.18390 334.000
61.20385 355.000
61.22380 388.000
61.24374 382.000
61.26369 406.000
61.28364 403.000
61.30359 424.000
61.32353 400.000
61.34348 402.000
61.36343 398.000
61.38337 388.000
61.40332 489.000
61.42327 429.000
61.44321 468.000
61.46316 447.000
61.48311 557.000
61.50306 580.000
61.52300 679.000
61.54295 618.000
61.56290 587.000
61.58284 603.000
61.60279 553.000
61.62274 510.000
61.64268 512.000
61.66263 480.000
61.68258 497.000
61.70252 501.000
61.72247 512.000
61.74242 444.000
61.76237 418.000
61.78231 365.000
61.80226 407.000
61.82221 333.000
61.84215 359.000
61.86210 339.000
61.88205 372.000
61.90199 341.000
61.92194 318.000
61.94189 289.000
61.96184 324.000
61.98178 339.000
62.00173 299.000
62.02168 277.000
62.04162 300.000
62.06157 334.000
62.08152 290.000
62.10146 294.000
62.12141 332.000
62.14136 301.000
62.16131 325.000
62.18125 324.000
62.20120 270.000
62.22115 318.000
62.24109 309.000
62.26104 339.000
62.28099 332.000
62.30093 320.000
62.32088 339.000
62.34083 372.000
62.36077 326.000
62.38072 389.000
62.40067 416.000
62.42062 421.000
62.44056 411.000
62.46051 467.000
62.48046 443.000
62.50040 454.000
62.52035 467.000
62.54030 458.000
62.56024 448.000
62.58019 410.000
62.60014 444.000
62.62009 429.000
62.64003 430.000
62.65998 412.000
62.67993 386.000
62.69987 348.000
62.71982 351.000
62.73977 335.000
62.75971 341.000
62.77966 333.000
62.79961 286.000
62.81955 316.000
62.83950 298.000
62.85945 305.000
62.87940 313.000
62.89934 308.000
62.91929 258.000
62.93924 274.000
62.95918 252.000
62.97913 299.000
62.99908 259.000
63.01902 292.000
63.03897 289.000
63.05892 279.000
63.07887 259.000
63.09881 258.000
63.11876 268.000
63.13871 284.000
63.15865 275.000
63.17860 262.000
63.19855 287.000
63.21849 274.000
63.23844 262.000
63.25839 275.000
63.27833 271.000
63.29828 256.000
63.31823 260.000
63.33818 269.000
63.35812 273.000
63.37807 232.000
63.39802 261.000
63.41796 262.000
63.43791 263.000
63.45786 265.000
63.47780 289.000
63.49775 249.000
63.51770 254.000
63.53765 297.000
63.55759 256.000
63.57754 275.000
63.59749 257.000
63.61743 275.000
63.63738 267.000
63.65733 273.000
63.67727 235.000
63.69722 253.000
63.71717 263.000
63.73712 236.000
63.75706 280.000
63.77701 248.000
63.79696 254.000
63.81690 257.000
63.83685 285.000
63.85680 268.000
63.87674 266.000
63.89669 310.000
63.91664 260.000
63.93658 297.000
63.95653 297.000
63.97648 277.000
63.99643 265.000
64.01637 293.000
64.03632 309.000
64.05627 249.000
64.07621 286.000
64.09616 274.000
64.11611 316.000
64.13605 265.000
64.15600 279.000
64.17595 278.000
64.19590 297.000
64.21584 295.000
64.23579 278.000
64.25574 286.000
64.27568 260.000
64.29563 252.000
64.31558 265.000
64.33552 275.000
64.35547 264.000
64.37542 266.000
64.39536 280.000
64.41531 268.000
64.43526 280.000
64.45521 257.000
64.47515 284.000
64.49510 280.000
64.51505 293.000
64.53499 243.000
64.55494 288.000
64.57489 284.000
64.59483 258.000
64.61478 291.000
64.63473 275.000
64.65468 304.000
64.67462 253.000
64.69457 260.000
64.71452 296.000
64.73446 278.000
64.75441 292.000
64.77436 260.000
64.79430 267.000
64.81425 293.000
64.83420 303.000
64.85414 256.000
64.87409 280.000
64.89404 283.000
64.91399 266.000
64.93393 299.000
64.95388 230.000
64.97383 261.000
64.99377 291.000
65.01372 278.000
65.03367 294.000
65.05361 259.000
65.07356 266.000
65.09351 266.000
65.11346 285.000
65.13340 296.000
65.15335 284.000
65.17330 248.000
65.19324 288.000
65.21319 314.000
65.23314 258.000
65.25308 307.000
65.27303 290.000
65.29298 317.000
65.31293 309.000
65.33287 282.000
65.35282 266.000
65.37277 294.000
65.39271 288.000
65.41266 291.000
65.43261 300.000
65.45255 291.000
65.47250 310.000
65.49245 293.000
65.51239 290.000
65.53234 332.000
65.55229 288.000
65.57224 322.000
65.59218 345.000
65.61213 324.000
65.63208 343.000
65.65202 362.000
65.67197 391.000
65.69192 404.000
65.71186 387.000
65.73181 415.000
65.75176 375.000
65.77171 403.000
65.79165 428.000
65.81160 434.000
65.83155 462.000
65.85149 477.000
65.87144 415.000
65.89139 434.000
65.91133 457.000
65.93128 444.000
65.95123 382.000
65.97117 449.000
65.99112 403.000
66.01107 409.000
66.03102 386.000
66.05096 379.000
66.07091 406.000
66.09086 433.000
66.11080 390.000
66.13075 431.000
66.15070 466.000
66.17064 494.000
66.19059 468.000
66.21054 504.000
66.23049 533.000
66.25043 505.000
66.27038 451.000
66.29033 434.000
66.31027 430.000
66.33022 417.000
66.35017 441.000
66.37011 430.000
66.39006 411.000
66.41001 403.000
66.42995 430.000
66.44990 390.000
66.46985 375.000
66.48980 331.000
66.50974 336.000
66.52969 323.000
66.54964 287.000
66.56958 296.000
66.58953 279.000
66.60948 292.000
66.62942 298.000
66.64937 273.000
66.66932 307.000
66.68927 289.000
66.70921 290.000
66.72916 296.000
66.74911 296.000
66.76905 289.000
66.78900 285.000
66.80895 268.000
66.82889 297.000
66.84884 290.000
66.86879 282.000
66.88874 279.000
66.90868 265.000
66.92863 268.000
66.94858 301.000
66.96852 301.000
66.98847 264.000
67.00842 274.000
67.02836 266.000
67.04831 251.000
67.06826 259.000
67.08820 250.000
67.10815 272.000
67.12810 287.000
67.14805 281.000
67.16799 243.000
67.18794 311.000
67.20789 289.000
67.22783 262.000
67.24778 292.000
67.26773 275.000
67.28767 266.000
67.30762 251.000
67.32757 293.000
67.34752 287.000
67.36746 274.000
67.38741 288.000
67.40736 277.000
67.42730 277.000
67.44725 289.000
67.46720 302.000
67.48714 285.000
67.50709 272.000
67.52704 263.000
67.54698 289.000
67.56693 306.000
67.58688 277.000
67.60683 289.000
67.62677 302.000
67.64672 278.000
67.66667 281.000
67.68661 299.000
67.70656 325.000
67.72651 329.000
67.74645 322.000
67.76640 308.000
67.78635 314.000
67.80630 335.000
67.82624 319.000
67.84619 361.000
67.86614 385.000
67.88608 389.000
67.90603 400.000
67.92598 426.000
67.94592 361.000
67.96587 406.000
67.98582 405.000
68.00576 421.000
68.02571 428.000
68.04566 433.000
68.06561 482.000
68.08555 526.000
68.10550 502.000
68.12545 501.000
68.14539 483.000
68.16534 426.000
68.18529 424.000
68.20523 430.000
68.22518 358.000
68.24513 397.000
68.26508 397.000
68.28502 382.000
68.30497 415.000
68.32492 368.000
68.34486 352.000
68.36481 314.000
68.38476 353.000
68.40470 328.000
68.42465 280.000
68.44460 297.000
68.46455 287.000
68.48449 307.000
68.50444 297.000
68.52439 251.000
68.54433 292.000
68.56428 263.000
68.58423 263.000
68.60417 269.000
68.62412 252.000
68.64407 281.000
68.66401 260.000
68.68396 242.000
68.70391 248.000
68.72386 273.000
68.74380 266.000
68.76375 250.000
68.78370 260.000
68.80364 270.000
68.82359 281.000
68.84354 272.000
68.86348 235.000
68.88343 280.000
68.90338 270.000
68.92333 284.000
68.94327 271.000
68.96322 242.000
68.98317 248.000
69.00311 290.000
69.02306 245.000
69.04301 287.000
69.06295 275.000
69.08290 265.000
69.10285 252.000
69.12279 265.000
69.14274 280.000
69.16269 259.000
69.18264 238.000
69.20258 252.000
69.22253 240.000
69.24248 256.000
69.26242 252.000
69.28237 240.000
69.30232 254.000
69.32226 263.000
69.34221 262.000
69.36216 258.000
69.38211 257.000
69.40205 232.000
69.42200 279.000
69.44195 251.000
69.46189 267.000
69.48184 253.000
69.50179 265.000
69.52173 255.000
69.54168 235.000
69.56163 285.000
69.58157 268.000
69.60152 254.000
69.62147 241.000
69.64142 247.000
69.66136 242.000
69.68131 279.000
69.70126 286.000
69.72120 261.000
69.74115 258.000
69.76110 235.000
69.78104 261.000
69.80099 274.000
69.82094 244.000
69.84089 277.000
69.86083 272.000
69.88078 271.000
69.90073 257.000
69.92067 254.000
69.94062 270.000
69.96057 245.000
69.98051 297.000
70.00046 243.000
70.02041 242.000
70.04035 251.000
70.06030 273.000
70.08025 253.000
70.10020 250.000
70.12014 283.000
70.14009 267.000
70.16004 249.000
70.17998 215.000
70.19993 269.000
70.21988 243.000
70.23982 247.000
70.25977 267.000
70.27972 263.000
70.29967 261.000
70.31961 240.000
70.33956 271.000
70.35951 256.000
70.37945 252.000
70.39940 239.000
70.41935 260.000
70.43929 221.000
70.45924 245.000
70.47919 243.000
70.49914 268.000
70.51908 275.000
70.53903 264.000
70.55898 237.000
70.57892 283.000
70.59887 271.000
70.61882 287.000
70.63876 257.000
70.65871 265.000
70.67866 237.000
70.69860 237.000
70.71855 250.000
70.73850 277.000
70.75845 275.000
70.77839 266.000
70.79834 275.000
70.81829 295.000
70.83823 298.000
70.85818 272.000
70.87813 286.000
70.89807 307.000
70.91802 272.000
70.93797 273.000
70.95792 248.000
70.97786 256.000
70.99781 264.000
71.01776 286.000
71.03770 278.000
71.05765 295.000
71.07760 260.000
71.09754 271.000
71.11749 298.000
71.13744 271.000
71.15738 261.000
71.17733 281.000
71.19728 251.000
71.21723 274.000
71.23717 267.000
71.25712 291.000
71.27707 313.000
71.29701 255.000
71.31696 290.000
71.33691 262.000
71.35685 263.000
71.37680 272.000
71.39675 291.000
71.41670 272.000
71.43664 284.000
71.45659 289.000
71.47654 269.000
71.49648 315.000
71.51643 268.000
71.53638 282.000
71.55632 292.000
71.57627 279.000
71.59622 289.000
71.61616 277.000
71.63611 278.000
71.65606 289.000
71.67601 273.000
71.69595 288.000
71.71590 270.000
71.73585 284.000
71.75579 274.000
71.77574 289.000
71.79569 263.000
71.81563 251.000
71.83558 299.000
71.85553 274.000
71.87548 291.000
71.89542 270.000
71.91537 305.000
71.93532 270.000
71.95526 284.000
71.97521 252.000
71.99516 266.000
72.01510 259.000
72.03505 282.000
72.05500 243.000
72.07495 278.000
72.09489 278.000
72.11484 314.000
72.13479 308.000
72.15473 277.000
72.17468 284.000
72.19463 291.000
72.21457 278.000
72.23452 277.000
72.25447 316.000
72.27441 296.000
72.29436 284.000
72.31431 312.000
72.33426 306.000
72.35420 307.000
72.37415 332.000
72.39410 350.000
72.41404 380.000
72.43399 344.000
72.45394 321.000
72.47388 327.000
72.49383 288.000
72.51378 321.000
72.53373 313.000
72.55367 306.000
72.57362 291.000
72.59357 310.000
72.61351 312.000
72.63346 298.000
72.65341 295.000
72.67335 287.000
72.69330 256.000
72.71325 262.000
72.73319 271.000
72.75314 273.000
72.77309 297.000
72.79304 270.000
72.81298 251.000
72.83293 279.000
72.85288 263.000
72.87282 243.000
72.89277 249.000
72.91272 283.000
72.93266 264.000
72.95261 286.000
72.97256 295.000
72.99251 268.000
73.01245 259.000
73.03240 259.000
73.05235 229.000
73.07229 270.000
73.09224 243.000
73.11219 243.000
73.13213 244.000
73.15208 264.000
73.17203 254.000
73.19197 259.000
73.21192 264.000
73.23187 260.000
73.25182 255.000
73.27176 261.000
73.29171 252.000
73.31166 250.000
73.33160 243.000
73.35155 288.000
73.37150 274.000
73.39144 273.000
73.41139 246.000
73.43134 240.000
73.45129 220.000
73.47123 266.000
73.49118 246.000
73.51113 243.000
73.53107 244.000
73.55102 255.000
73.57097 251.000
73.59091 261.000
73.61086 236.000
73.63081 238.000
73.65076 274.000
73.67070 255.000
73.69065 280.000
73.71060 267.000
73.73054 274.000
73.75049 263.000
73.77044 254.000
73.79038 278.000
73.81033 255.000
73.83028 243.000
73.85022 287.000
73.87017 290.000
73.89012 271.000
73.91007 301.000
73.93001 301.000
73.94996 316.000
73.96991 299.000
73.98985 265.000
74.00980 302.000
74.02975 275.000
74.04969 284.000
74.06964 288.000
74.08959 327.000
74.10954 270.000
74.12948 297.000
74.14943 267.000
74.16938 266.000
74.18932 287.000
74.20927 264.000
74.22922 277.000
74.24916 276.000
74.26911 269.000
74.28906 267.000
74.30900 270.000
74.32895 256.000
74.34890 270.000
74.36885 249.000
74.38879 260.000
74.40874 269.000
74.42869 265.000
74.44863 263.000
74.46858 261.000
74.48853 283.000
74.50847 274.000
74.52842 262.000
74.54837 252.000
74.56832 280.000
74.58826 275.000
74.60821 255.000
74.62816 273.000
74.64810 275.000
74.66805 269.000
74.68800 286.000
74.70794 265.000
74.72789 258.000
74.74784 276.000
74.76778 297.000
74.78773 305.000
74.80768 272.000
74.82763 292.000
74.84757 277.000
74.86752 320.000
74.88747 297.000
74.90741 333.000
74.92736 318.000
74.94731 336.000
74.96725 358.000
74.98720 346.000
75.00715 410.000
75.02710 361.000
75.04704 400.000
75.06699 332.000
75.08694 349.000
75.10688 337.000
75.12683 307.000
75.14678 337.000
75.16672 336.000
75.18667 364.000
75.20662 392.000
75.22657 378.000
75.24651 399.000
75.26646 394.000
75.28641 343.000
75.30635 336.000
75.32630 367.000
75.34625 327.000
75.36619 318.000
75.38614 337.000
75.40609 339.000
75.42603 283.000
75.44598 332.000
75.46593 303.000
75.48588 293.000
75.50582 278.000
75.52577 292.000
75.54572 304.000
75.56566 308.000
75.58561 270.000
75.60556 266.000
75.62550 298.000
75.64545 250.000
75.66540 290.000
75.68535 273.000
75.70529 252.000
75.72524 264.000
75.74519 245.000
75.76513 240.000
75.78508 256.000
75.80503 249.000
75.82497 245.000
75.84492 275.000
75.86487 269.000
75.88481 264.000
75.90476 228.000
75.92471 272.000
75.94466 248.000
75.96460 274.000
75.98455 270.000
76.00450 291.000
76.02444 266.000
76.04439 234.000
76.06434 275.000
76.08428 273.000
76.10423 275.000
76.12418 226.000
76.14413 246.000
76.16407 209.000
76.18402 253.000
76.20397 247.000
76.22391 240.000
76.24386 265.000
76.26381 257.000
76.28375 265.000
76.30370 245.000
76.32365 265.000
76.34359 270.000
76.36354 264.000
76.38349 255.000
76.40344 231.000
76.42338 256.000
76.44333 243.000
76.46328 263.000
76.48322 275.000
76.50317 222.000
76.52312 232.000
76.54306 242.000
76.56301 233.000
76.58296 229.000
76.60291 281.000
76.62285 249.000
76.64280 247.000
76.66275 247.000
76.68269 238.000
76.70264 262.000
76.72259 264.000
76.74253 271.000
76.76248 252.000
76.78243 233.000
76.80238 254.000
76.82232 248.000
76.84227 258.000
76.86222 281.000
76.88216 273.000
76.90211 224.000
76.92206 248.000
76.94200 280.000
76.96195 240.000
76.98190 256.000
77.00184 265.000
77.02179 255.000
77.04174 242.000
77.06169 232.000
77.08163 226.000
77.10158 231.000
77.12153 255.000
77.14147 238.000
77.16142 247.000
77.18137 227.000
77.20131 262.000
77.22126 266.000
77.24121 245.000
77.26116 279.000
77.28110 251.000
77.30105 237.000
77.32100 244.000
77.34094 251.000
77.36089 242.000
77.38084 278.000
77.40078 242.000
77.42073 237.000
77.44068 259.000
77.46062 243.000
77.48057 220.000
77.50052 254.000
77.52047 262.000
77.54041 251.000
77.56036 234.000
77.58031 244.000
77.60025 272.000
77.62020 233.000
77.64015 264.000
77.66009 253.000
77.68004 229.000
77.69999 264.000
77.71994 238.000
77.73988 255.000
77.75983 246.000
77.77978 260.000
77.79972 259.000
77.81967 247.000
77.83962 247.000
77.85956 252.000
77.87951 251.000
77.89946 256.000
77.91940 243.000
77.93935 231.000
77.95930 210.000
77.97925 294.000
77.99919 238.000
78.01914 262.000
78.03909 226.000
78.05903 216.000
78.07898 261.000
78.09893 274.000
78.11887 241.000
78.13882 258.000
78.15877 259.000
78.17872 241.000
78.19866 246.000
78.21861 245.000
78.23856 225.000
78.25850 249.000
78.27845 248.000
78.29840 290.000
78.31834 239.000
78.33829 241.000
78.35824 240.000
78.37819 234.000
78.39813 270.000
78.41808 268.000
78.43803 249.000
78.45797 260.000
78.47792 247.000
78.49787 246.000
78.51781 236.000
78.53776 263.000
78.55771 250.000
78.57765 256.000
78.59760 249.000
78.61755 256.000
78.63750 275.000
78.65744 251.000
78.67739 257.000
78.69734 268.000
78.71728 237.000
78.73723 245.000
78.75718 269.000
78.77712 243.000
78.79707 258.000
78.81702 260.000
78.83697 242.000
78.85691 265.000
78.87686 269.000
78.89681 260.000
78.91675 261.000
78.93670 251.000
78.95665 255.000
78.97659 266.000
78.99654 249.000
79.01649 256.000
79.03643 250.000
79.05638 248.000
79.07633 256.000
79.09628 259.000
79.11622 241.000
79.13617 238.000
79.15612 260.000
79.17606 242.000
79.19601 256.000
79.21596 231.000
79.23590 246.000
79.25585 261.000
79.27580 240.000
79.29575 220.000
79.31569 253.000
79.33564 226.000
79.35559 230.000
79.37553 253.000
79.39548 254.000
79.41543 248.000
79.43537 249.000
79.45532 237.000
79.47527 237.000
79.49521 265.000
79.51516 244.000
79.53511 277.000
79.55506 271.000
79.57500 262.000
79.59495 290.000
79.61490 243.000
79.63484 254.000
79.65479 227.000
79.67474 246.000
79.69468 244.000
79.71463 257.000
79.73458 278.000
79.75453 275.000
79.77447 263.000
79.79442 277.000
79.81437 241.000
79.83431 284.000
79.85426 255.000
79.87421 239.000
79.89415 274.000
79.91410 244.000
79.93405 259.000
79.95399 275.000
79.97394 263.000
79.99389 252.000
80.01384 240.000
80.03378 266.000
80.05373 306.000
80.07368 238.000
80.09362 272.000
80.11357 277.000
80.13352 296.000
80.15346 295.000
80.17341 303.000
80.19336 280.000
80.21331 258.000
80.23325 237.000
80.25320 272.000
80.27315 262.000
80.29309 285.000
80.31304 314.000
80.33299 248.000
80.35293 258.000
80.37288 274.000
80.39283 265.000
80.41278 303.000
80.43272 302.000
80.45267 246.000
80.47262 288.000
80.49256 255.000
80.51251 257.000
80.53246 255.000
80.55240 239.000
80.57235 230.000
80.59230 233.000
80.61224 270.000
80.63219 271.000
80.65214 244.000
80.67209 233.000
80.69203 259.000
80.71198 247.000
80.73193 289.000
80.75187 270.000
80.77182 226.000
80.79177 278.000
80.81171 255.000
80.83166 266.000
80.85161 245.000
80.87156 247.000
80.89150 247.000
80.91145 262.000
80.93140 261.000
80.95134 242.000
80.97129 234.000
80.99124 263.000
81.01118 268.000
81.03113 242.000
81.05108 245.000
81.07102 245.000
81.09097 252.000
81.11092 248.000
81.13087 227.000
81.15081 222.000
81.17076 243.000
81.19071 266.000
81.21065 273.000
81.23060 278.000
81.25055 265.000
81.27049 249.000
81.29044 265.000
81.31039 226.000
81.33034 289.000
81.35028 240.000
81.37023 268.000
81.39018 246.000
81.41012 271.000
81.43007 250.000
81.45002 247.000
81.46996 249.000
81.48991 268.000
81.50986 257.000
81.52980 263.000
81.54975 255.000
81.56970 245.000
81.58965 254.000
81.60959 257.000
81.62954 251.000
81.64949 242.000
81.66943 300.000
81.68938 276.000
81.70933 269.000
81.72927 264.000
81.74922 240.000
81.76917 255.000
81.78912 223.000
81.80906 266.000
81.82901 249.000
81.84896 268.000
81.86890 281.000
81.88885 247.000
81.90880 233.000
81.92874 254.000
81.94869 257.000
81.96864 270.000
81.98859 258.000
82.00853 260.000
82.02848 244.000
82.04843 292.000
82.06837 260.000
82.08832 237.000
82.10827 279.000
82.12821 266.000
82.14816 281.000
82.16811 275.000
82.18805 276.000
82.20800 290.000
82.22795 277.000
82.24790 299.000
82.26784 295.000
82.28779 310.000
82.30774 324.000
82.32768 331.000
82.34763 340.000
82.36758 288.000
82.38752 314.000
82.40747 282.000
82.42742 296.000
82.44737 294.000
82.46731 285.000
82.48726 293.000
82.50721 296.000
82.52715 277.000
82.54710 292.000
82.56705 280.000
82.58699 272.000
82.60694 295.000
82.62689 330.000
82.64683 279.000
82.66678 297.000
82.68673 275.000
82.70668 253.000
82.72662 253.000
82.74657 264.000
82.76652 256.000
82.78646 307.000
82.80641 279.000
82.82636 285.000
82.84630 309.000
82.86625 262.000
82.88620 285.000
82.90615 260.000
82.92609 269.000
82.94604 286.000
82.96599 282.000
82.98593 314.000
83.00588 289.000
83.02583 294.000
83.04577 297.000
83.06572 307.000
83.08567 325.000
83.10561 304.000
83.12556 291.000
83.14551 300.000
83.16546 301.000
83.18540 306.000
83.20535 295.000
83.22530 295.000
83.24524 318.000
83.26519 308.000
83.28514 291.000
83.30508 298.000
83.32503 283.000
83.34498 275.000
83.36493 296.000
83.38487 295.000
83.40482 297.000
83.42477 269.000
83.44471 317.000
83.46466 295.000
83.48461 313.000
83.50455 321.000
83.52450 338.000
83.54445 312.000
83.56440 287.000
83.58434 296.000
83.60429 327.000
83.62424 288.000
83.64418 327.000
83.66413 304.000
83.68408 263.000
83.70402 304.000
83.72397 259.000
83.74392 290.000
83.76386 293.000
83.78381 277.000
83.80376 275.000
83.82371 300.000
83.84365 271.000
83.86360 283.000
83.88355 247.000
83.90349 280.000
83.92344 280.000
83.94339 269.000
83.96333 280.000
83.98328 265.000
84.00323 272.000
84.02318 253.000
84.04312 282.000
84.06307 280.000
84.08302 285.000
84.10296 276.000
84.12291 283.000
84.14286 264.000
84.16280 266.000
84.18275 238.000
84.20270 265.000
84.22264 259.000
84.24259 247.000
84.26254 246.000
84.28249 277.000
84.30243 295.000
84.32238 252.000
84.34233 251.000
84.36227 261.000
84.38222 276.000
84.40217 259.000
84.42211 260.000
84.44206 245.000
84.46201 208.000
84.48196 270.000
84.50190 253.000
84.52185 236.000
84.54180 249.000
84.56174 243.000
84.58169 270.000
84.60164 262.000
84.62158 266.000
84.64153 292.000
84.66148 273.000
84.68142 248.000
84.70137 242.000
84.72132 235.000
84.74127 254.000
84.76121 242.000
84.78116 257.000
84.80111 258.000
84.82105 250.000
84.84100 245.000
84.86095 241.000
84.88089 259.000
84.90084 242.000
84.92079 256.000
84.94074 277.000
84.96068 287.000
84.98063 240.000
85.00058 273.000
85.02052 259.000
85.04047 249.000
85.06042 250.000
85.08036 245.000
85.10031 264.000
85.12026 247.000
85.14021 287.000
85.16015 279.000
85.18010 239.000
85.20005 276.000
85.21999 258.000
85.23994 242.000
85.25989 239.000
85.27983 238.000
85.29978 257.000
85.31973 254.000
85.33967 209.000
85.35962 273.000
85.37957 285.000
85.39952 262.000
85.41946 259.000
85.43941 251.000
85.45936 270.000
85.47930 271.000
85.49925 248.000
85.51920 256.000
85.53914 284.000
85.55909 257.000
85.57904 237.000
85.59899 240.000
85.61893 299.000
85.63888 263.000
85.65883 263.000
85.67877 252.000
85.69872 275.000
85.71867 223.000
85.73861 244.000
85.75856 244.000
85.77851 259.000
85.79845 243.000
85.81840 245.000
85.83835 226.000
85.85830 248.000
85.87824 248.000
85.89819 240.000
85.91814 256.000
85.93808 260.000
85.95803 281.000
85.97798 271.000
85.99792 246.000
86.01787 277.000
86.03782 223.000
86.05777 239.000
86.07771 247.000
86.09766 254.000
86.11761 247.000
86.13755 270.000
86.15750 235.000
86.17745 260.000
86.19739 234.000
86.21734 267.000
86.23729 269.000
86.25723 258.000
86.27718 243.000
86.29713 280.000
86.31708 253.000
86.33702 247.000
86.35697 270.000
86.37692 253.000
86.39686 276.000
86.41681 289.000
86.43676 240.000
86.45670 268.000
86.47665 279.000
86.49660 249.000
86.51655 251.000
86.53649 270.000
86.55644 278.000
86.57639 285.000
86.59633 247.000
86.61628 301.000
86.63623 281.000
86.65617 271.000
86.67612 280.000
86.69607 259.000
86.71602 288.000
86.73596 282.000
86.75591 272.000
86.77586 246.000
86.79580 277.000
86.81575 279.000
86.83570 274.000
86.85564 258.000
86.87559 267.000
86.89554 266.000
86.91548 258.000
86.93543 258.000
86.95538 261.000
86.97533 247.000
86.99527 239.000
87.01522 262.000
87.03517 282.000
87.05511 253.000
87.07506 270.000
87.09501 253.000
87.11495 249.000
87.13490 269.000
87.15485 253.000
87.17480 267.000
87.19474 270.000
87.21469 259.000
87.23464 265.000
87.25458 265.000
87.27453 256.000
87.29448 219.000
87.31442 227.000
87.33437 281.000
87.35432 249.000
87.37426 256.000
87.39421 254.000
87.41416 260.000
87.43411 284.000
87.45405 277.000
87.47400 277.000
87.49395 239.000
87.51389 233.000
87.53384 250.000
87.55379 260.000
87.57373 253.000
87.59368 284.000
87.61363 262.000
87.63358 289.000
87.65352 258.000
87.67347 264.000
87.69342 222.000
87.71336 237.000
87.73331 246.000
87.75326 278.000
87.77320 253.000
87.79315 272.000
87.81310 235.000
87.83304 237.000
87.85299 266.000
87.87294 268.000
87.89289 240.000
87.91283 264.000
87.93278 264.000
87.95273 235.000
87.97267 243.000
87.99262 257.000
88.01257 213.000
88.03251 257.000
88.05246 247.000
88.07241 257.000
88.09236 239.000
88.11230 245.000
88.13225 250.000
88.15220 265.000
88.17214 238.000
88.19209 234.000
88.21204 244.000
88.23198 255.000
88.25193 249.000
88.27188 247.000
88.29183 233.000
88.31177 280.000
88.33172 268.000
88.35167 255.000
88.37161 267.000
88.39156 240.000
88.41151 282.000
88.43145 241.000
88.45140 234.000
88.47135 246.000
88.49129 242.000
88.51124 239.000
88.53119 247.000
88.55114 276.000
88.57108 250.000
88.59103 257.000
88.61098 229.000
88.63092 249.000
88.65087 254.000
88.67082 241.000
88.69076 253.000
88.71071 271.000
88.73066 248.000
88.75061 245.000
88.77055 242.000
88.79050 275.000
88.81045 238.000
88.83039 274.000
88.85034 241.000
88.87029 232.000
88.89023 270.000
88.91018 241.000
88.93013 253.000
88.95007 263.000
88.97002 242.000
88.98997 229.000
89.00992 233.000
89.02986 287.000
89.04981 254.000
89.06976 262.000
89.08970 255.000
89.10965 272.000
89.12960 225.000
89.14954 265.000
89.16949 262.000
89.18944 259.000
89.20939 256.000
89.22933 282.000
89.24928 258.000
89.26923 297.000
89.28917 276.000
89.30912 276.000
89.32907 269.000
89.34901 272.000
89.36896 288.000
89.38891 278.000
89.40885 254.000
89.42880 318.000
89.44875 315.000
89.46870 296.000
89.48864 309.000
89.50859 308.000
89.52854 288.000
89.54848 345.000
89.56843 319.000
89.58838 331.000
89.60832 349.000
89.62827 307.000
89.64822 299.000
89.66817 334.000
89.68811 314.000
89.70806 325.000
89.72801 331.000
89.74795 328.000
89.76790 333.000
89.78785 314.000
89.80779 328.000
89.82774 308.000
89.84769 297.000
89.86764 326.000
89.88758 317.000
89.90753 301.000
89.92748 294.000
89.94742 286.000
89.96737 306.000
89.98732 306.000
90.00726 292.000
