10.00000 62.000
10.01995 46.000
10.03989 68.000
10.05984 51.000
10.07979 71.000
10.09973 66.000
10.11968 53.000
10.13963 60.000
10.15958 53.000
10.17952 64.000
10.19947 65.000
10.21942 56.000
10.23936 78.000
10.25931 64.000
10.27926 67.000
10.29920 58.000
10.31915 53.000
10.33910 66.000
10.35905 64.000
10.37899 63.000
10.39894 60.000
10.41889 65.000
10.43883 61.000
10.45878 61.000
10.47873 53.000
10.49867 67.000
10.51862 59.000
10.53857 58.000
10.55851 54.000
10.57846 56.000
10.59841 59.000
10.61836 57.000
10.63830 61.000
10.65825 68.000
10.67820 61.000
10.69814 69.000
10.71809 70.000
10.73804 59.000
10.75798 63.000
10.77793 52.000
10.79788 72.000
10.81783 70.000
10.83777 64.000
10.85772 66.000
10.87767 61.000
10.89761 46.000
10.91756 57.000
10.93751 63.000
10.95745 50.000
10.97740 53.000
10.99735 48.000
11.01730 62.000
11.03724 64.000
11.05719 56.000
11.07714 66.000
11.09708 69.000
11.11703 49.000
11.13698 71.000
11.15692 67.000
11.17687 54.000
11.19682 63.000
11.21676 57.000
11.23671 63.000
11.25666 53.000
11.27661 54.000
11.29655 72.000
11.31650 55.000
11.33645 68.000
11.35639 46.000
11.37634 46.000
11.39629 63.000
11.41623 64.000
11.43618 67.000
11.45613 60.000
11.47608 53.000
11.49602 58.000
11.51597 71.000
11.53592 44.000
11.55586 62.000
11.57581 45.000
11.59576 62.000
11.61570 72.000
11.63565 61.000
11.65560 64.000
11.67554 53.000
11.69549 60.000
11.71544 58.000
11.73539 60.000
11.75533 55.000
11.77528 62.000
11.79523 59.000
11.81517 53.000
11.83512 53.000
11.85507 60.000
11.87501 58.000
11.89496 70.000
11.91491 55.000
11.93486 52.000
11.95480 75.000
11.97475 52.000
11.99470 57.000
12.01464 55.000
12.03459 62.000
12.05454 62.000
12.07448 62.000
12.09443 54.000
12.11438 60.000
12.13432 69.000
12.15427 87.000
12.17422 62.000
12.19417 63.000
12.21411 52.000
12.23406 79.000
12.25401 51.000
12.27395 71.000
12.29390 74.000
12.31385 55.000
12.33379 59.000
12.35374 46.000
12.37369 58.000
12.39364 75.000
12.41358 72.000
12.43353 73.000
12.45348 69.000
12.47342 59.000
12.49337 71.000
12.51332 52.000
12.53326 53.000
12.55321 73.000
12.57316 64.000
12.59311 63.000
12.61305 57.000
12.63300 39.000
12.65295 58.000
12.67289 58.000
12.69284 59.000
12.71279 48.000
12.73273 63.000
12.75268 75.000
12.77263 59.000
12.79257 73.000
12.81252 51.000
12.83247 67.000
12.85242 68.000
12.87236 49.000
12.89231 62.000
12.91226 62.000
12.93220 58.000
12.95215 65.000
12.97210 74.000
12.99204 70.000
13.01199 71.000
13.03194 70.000
13.05189 51.000
13.07183 62.000
13.09178 56.000
13.11173 55.000
13.13167 63.000
13.15162 61.000
13.17157 63.000
13.19151 55.000
13.21146 66.000
13.23141 65.000
13.25135 60.000
13.27130 76.000
13.29125 64.000
13.31120 63.000
13.33114 59.000
13.35109 76.000
13.37104 70.000
13.39098 80.000
13.41093 65.000
13.43088 55.000
13.45082 75.000
13.47077 54.000
13.49072 70.000
13.51067 70.000
13.53061 89.000
13.55056 70.000
13.57051 72.000
13.59045 67.000
13.61040 74.000
13.63035 52.000
13.65029 70.000
13.67024 55.000
13.69019 77.000
13.71013 65.000
13.73008 63.000
13.75003 65.000
13.76998 75.000
13.78992 69.000
13.80987 66.000
13.82982 71.000
13.84976 83.000
13.86971 83.000
13.88966 75.000
13.90960 69.000
13.92955 56.000
13.94950 73.000
13.96945 66.000
13.98939 66.000
14.00934 77.000
14.02929 73.000
14.04923 54.000
14.06918 59.000
14.08913 56.000
14.10907 70.000
14.12902 66.000
14.14897 59.000
14.16892 67.000
14.18886 77.000
14.20881 71.000
14.22876 66.000
14.24870 81.000
14.26865 66.000
14.28860 67.000
14.30854 70.000
14.32849 75.000
14.34844 68.000
14.36838 86.000
14.38833 60.000
14.40828 80.000
14.42823 89.000
14.44817 63.000
14.46812 79.000
14.48807 61.000
14.50801 69.000
14.52796 69.000
14.54791 81.000
14.56785 76.000
14.58780 56.000
14.60775 71.000
14.62770 77.000
14.64764 85.000
14.66759 67.000
14.68754 64.000
14.70748 68.000
14.72743 72.000
14.74738 76.000
14.76732 92.000
14.78727 76.000
14.80722 59.000
14.82716 69.000
14.84711 77.000
14.86706 69.000
14.88701 78.000
14.90695 81.000
14.92690 72.000
14.94685 82.000
14.96679 71.000
14.98674 74.000
15.00669 75.000
15.02663 90.000
15.04658 81.000
15.06653 88.000
15.08648 75.000
15.10642 77.000
15.12637 84.000
15.14632 85.000
15.16626 88.000
15.18621 84.000
15.20616 106.000
15.22610 90.000
15.24605 104.000
15.26600 108.000
15.28594 100.000
15.30589 120.000
15.32584 105.000
15.34579 98.000
15.36573 101.000
15.38568 98.000
15.40563 104.000
15.42557 120.000
15.44552 119.000
15.46547 116.000
15.48541 149.000
15.50536 152.000
15.52531 146.000
15.54526 149.000
15.56520 168.000
15.58515 149.000
15.60510 164.000
15.62504 162.000
15.64499 178.000
15.66494 220.000
15.68488 198.000
15.70483 269.000
15.72478 276.000
15.74472 354.000
15.76467 401.000
15.78462 588.000
15.80457 792.000
15.82451 1123.000
15.84446 1581.000
15.86441 2232.000
15.88435 2917.000
15.90430 3843.000
15.92425 4888.000
15.94419 5833.000
15.96414 6272.000
15.98409 5373.000
16.00404 3656.000
16.02398 2265.000
16.04393 1203.000
16.06388 718.000
16.08382 616.000
16.10377 563.000
16.12372 604.000
16.14366 642.000
16.16361 727.000
16.18356 807.000
16.20351 992.000
16.22345 1091.000
16.24340 1199.000
16.26335 1368.000
16.28329 1317.000
16.30324 1088.000
16.32319 918.000
16.34313 672.000
16.36308 500.000
16.38303 329.000
16.40297 242.000
16.42292 212.000
16.44287 194.000
16.46282 158.000
16.48276 164.000
16.50271 162.000
16.52266 162.000
16.54260 160.000
16.56255 124.000
16.58250 123.000
16.60244 111.000
16.62239 110.000
16.64234 102.000
16.66229 119.000
16.68223 109.000
16.70218 118.000
16.72213 76.000
16.74207 79.000
16.76202 99.000
16.78197 99.000
16.80191 86.000
16.82186 104.000
16.84181 99.000
16.86175 120.000
16.88170 121.000
16.90165 133.000
16.92160 105.000
16.94154 118.000
16.96149 109.000
16.98144 94.000
17.00138 80.000
17.02133 82.000
17.04128 91.000
17.06122 70.000
17.08117 72.000
17.10112 68.000
17.12107 84.000
17.14101 67.000
17.16096 80.000
17.18091 80.000
17.20085 72.000
17.22080 82.000
17.24075 80.000
17.26069 68.000
17.28064 80.000
17.30059 78.000
17.32053 68.000
17.34048 68.000
17.36043 61.000
17.38038 71.000
17.40032 73.000
17.42027 70.000
17.44022 83.000
17.46016 66.000
17.48011 70.000
17.50006 68.000
17.52000 66.000
17.53995 65.000
17.55990 77.000
17.57985 62.000
17.59979 77.000
17.61974 61.000
17.63969 77.000
17.65963 62.000
17.67958 60.000
17.69953 73.000
17.71947 60.000
17.73942 61.000
17.75937 70.000
17.77932 62.000
17.79926 85.000
17.81921 75.000
17.83916 73.000
17.85910 68.000
17.87905 72.000
17.89900 65.000
17.91894 80.000
17.93889 77.000
17.95884 69.000
17.97878 70.000
17.99873 66.000
18.01868 77.000
18.03863 73.000
18.05857 58.000
18.07852 70.000
18.09847 70.000
18.11841 60.000
18.13836 86.000
18.15831 63.000
18.17825 67.000
18.19820 72.000
18.21815 71.000
18.23810 77.000
18.25804 69.000
18.27799 78.000
18.29794 56.000
18.31788 82.000
18.33783 79.000
18.35778 91.000
18.37772 109.000
18.39767 130.000
18.41762 140.000
18.43756 180.000
18.45751 195.000
18.47746 237.000
18.49741 239.000
18.51735 208.000
18.53730 175.000
18.55725 127.000
18.57719 105.000
18.59714 86.000
18.61709 76.000
18.63703 72.000
18.65698 60.000
18.67693 72.000
18.69688 68.000
18.71682 75.000
18.73677 82.000
18.75672 64.000
18.77666 69.000
18.79661 68.000
18.81656 83.000
18.83650 80.000
18.85645 68.000
18.87640 69.000
18.89634 67.000
18.91629 80.000
18.93624 63.000
18.95619 70.000
18.97613 57.000
18.99608 51.000
19.01603 73.000
19.03597 73.000
19.05592 73.000
19.07587 62.000
19.09581 56.000
19.11576 61.000
19.13571 64.000
19.15566 55.000
19.17560 59.000
19.19555 63.000
19.21550 68.000
19.23544 73.000
19.25539 68.000
19.27534 62.000
19.29528 76.000
19.31523 66.000
19.33518 70.000
19.35513 68.000
19.37507 54.000
19.39502 81.000
19.41497 60.000
19.43491 72.000
19.45486 76.000
19.47481 72.000
19.49475 59.000
19.51470 70.000
19.53465 72.000
19.55459 74.000
19.57454 70.000
19.59449 71.000
19.61444 61.000
19.63438 61.000
19.65433 65.000
19.67428 66.000
19.69422 63.000
19.71417 64.000
19.73412 65.000
19.75406 61.000
19.77401 60.000
19.79396 79.000
19.81391 63.000
19.83385 71.000
19.85380 70.000
19.87375 60.000
19.89369 58.000
19.91364 70.000
19.93359 77.000
19.95353 75.000
19.97348 56.000
19.99343 61.000
20.01337 70.000
20.03332 77.000
20.05327 58.000
20.07322 59.000
20.09316 54.000
20.11311 69.000
20.13306 80.000
20.15300 55.000
20.17295 71.000
20.19290 80.000
20.21284 64.000
20.23279 71.000
20.25274 71.000
20.27269 77.000
20.29263 77.000
20.31258 79.000
20.33253 74.000
20.35247 77.000
20.37242 79.000
20.39237 72.000
20.41231 73.000
20.43226 74.000
20.45221 77.000
20.47215 61.000
20.49210 58.000
20.51205 64.000
20.53200 79.000
20.55194 58.000
20.57189 77.000
20.59184 72.000
20.61178 66.000
20.63173 86.000
20.65168 67.000
20.67162 80.000
20.69157 63.000
20.71152 60.000
20.73147 88.000
20.75141 93.000
20.77136 82.000
20.79131 94.000
20.81125 88.000
20.83120 86.000
20.85115 96.000
20.87109 102.000
20.89104 127.000
20.91099 113.000
20.93094 120.000
20.95088 126.000
20.97083 126.000
20.99078 119.000
21.01072 133.000
21.03067 138.000
21.05062 130.000
21.07056 117.000
21.09051 114.000
21.11046 105.000
21.13040 100.000
21.15035 104.000
21.17030 90.000
21.19025 88.000
21.21019 88.000
21.23014 67.000
21.25009 61.000
21.27003 67.000
21.28998 73.000
21.30993 64.000
21.32987 75.000
21.34982 66.000
21.36977 61.000
21.38972 66.000
21.40966 64.000
21.42961 58.000
21.44956 50.000
21.46950 59.000
21.48945 73.000
21.50940 71.000
21.52934 76.000
21.54929 75.000
21.56924 67.000
21.58918 63.000
21.60913 62.000
21.62908 70.000
21.64903 73.000
21.66897 61.000
21.68892 67.000
21.70887 60.000
21.72881 62.000
21.74876 76.000
21.76871 58.000
21.78865 69.000
21.80860 81.000
21.82855 74.000
21.84850 79.000
21.86844 64.000
21.88839 70.000
21.90834 62.000
21.92828 52.000
21.94823 71.000
21.96818 58.000
21.98812 61.000
22.00807 86.000
22.02802 62.000
22.04796 54.000
22.06791 65.000
22.08786 86.000
22.10781 81.000
22.12775 66.000
22.14770 72.000
22.16765 75.000
22.18759 73.000
22.20754 66.000
22.22749 73.000
22.24743 65.000
22.26738 84.000
22.28733 61.000
22.30728 71.000
22.32722 58.000
22.34717 84.000
22.36712 62.000
22.38706 59.000
22.40701 76.000
22.42696 74.000
22.44690 59.000
22.46685 62.000
22.48680 67.000
22.50675 63.000
22.52669 60.000
22.54664 69.000
22.56659 61.000
22.58653 55.000
22.60648 77.000
22.62643 74.000
22.64637 63.000
22.66632 62.000
22.68627 83.000
22.70621 65.000
22.72616 68.000
22.74611 70.000
22.76606 71.000
22.78600 77.000
22.80595 68.000
22.82590 66.000
22.84584 86.000
22.86579 63.000
22.88574 77.000
22.90568 59.000
22.92563 60.000
22.94558 63.000
22.96553 70.000
22.98547 75.000
23.00542 59.000
23.02537 57.000
23.04531 74.000
23.06526 93.000
23.08521 87.000
23.10515 60.000
23.12510 81.000
23.14505 61.000
23.16499 69.000
23.18494 58.000
23.20489 61.000
23.22484 68.000
23.24478 63.000
23.26473 70.000
23.28468 76.000
23.30462 64.000
23.32457 76.000
23.34452 66.000
23.36446 82.000
23.38441 77.000
23.40436 80.000
23.42431 60.000
23.44425 57.000
23.46420 71.000
23.48415 69.000
23.50409 63.000
23.52404 67.000
23.54399 65.000
23.56393 50.000
23.58388 82.000
23.60383 68.000
23.62377 81.000
23.64372 75.000
23.66367 82.000
23.68362 71.000
23.70356 76.000
23.72351 80.000
23.74346 74.000
23.76340 75.000
23.78335 74.000
23.80330 75.000
23.82324 75.000
23.84319 62.000
23.86314 88.000
23.88309 50.000
23.90303 60.000
23.92298 80.000
23.94293 66.000
23.96287 70.000
23.98282 75.000
24.00277 62.000
24.02271 79.000
24.04266 71.000
24.06261 70.000
24.08256 71.000
24.10250 71.000
24.12245 70.000
24.14240 67.000
24.16234 83.000
24.18229 68.000
24.20224 62.000
24.22218 80.000
24.24213 82.000
24.26208 64.000
24.28202 74.000
24.30197 80.000
24.32192 79.000
24.34187 68.000
24.36181 85.000
24.38176 74.000
24.40171 65.000
24.42165 79.000
24.44160 75.000
24.46155 75.000
24.48149 63.000
24.50144 66.000
24.52139 71.000
24.54134 63.000
24.56128 70.000
24.58123 85.000
24.60118 75.000
24.62112 68.000
24.64107 66.000
24.66102 61.000
24.68096 80.000
24.70091 82.000
24.72086 83.000
24.74080 71.000
24.76075 76.000
24.78070 75.000
24.80065 56.000
24.82059 90.000
24.84054 62.000
24.86049 76.000
24.88043 72.000
24.90038 87.000
24.92033 80.000
24.94027 91.000
24.96022 88.000
24.98017 68.000
25.00012 93.000
25.02006 81.000
25.04001 79.000
25.05996 97.000
25.07990 93.000
25.09985 104.000
25.11980 85.000
25.13974 82.000
25.15969 74.000
25.17964 78.000
25.19958 69.000
25.21953 73.000
25.23948 69.000
25.25943 77.000
25.27937 69.000
25.29932 82.000
25.31927 78.000
25.33921 66.000
25.35916 83.000
25.37911 66.000
25.39905 81.000
25.41900 78.000
25.43895 74.000
25.45890 79.000
25.47884 81.000
25.49879 69.000
25.51874 74.000
25.53868 93.000
25.55863 77.000
25.57858 84.000
25.59852 92.000
25.61847 70.000
25.63842 76.000
25.65837 81.000
25.67831 72.000
25.69826 68.000
25.71821 66.000
25.73815 71.000
25.75810 72.000
25.77805 52.000
25.79799 78.000
25.81794 91.000
25.83789 73.000
25.85783 73.000
25.87778 63.000
25.89773 62.000
25.91768 79.000
25.93762 65.000
25.95757 78.000
25.97752 75.000
25.99746 80.000
26.01741 69.000
26.03736 72.000
26.05730 78.000
26.07725 82.000
26.09720 69.000
26.11715 88.000
26.13709 78.000
26.15704 60.000
26.17699 66.000
26.19693 77.000
26.21688 81.000
26.23683 80.000
26.25677 67.000
26.27672 88.000
26.29667 63.000
26.31661 79.000
26.33656 75.000
26.35651 68.000
26.37646 80.000
26.39640 89.000
26.41635 67.000
26.43630 85.000
26.45624 64.000
26.47619 65.000
26.49614 82.000
26.51608 86.000
26.53603 62.000
26.55598 81.000
26.57593 72.000
26.59587 67.000
26.61582 67.000
26.63577 70.000
26.65571 91.000
26.67566 82.000
26.69561 86.000
26.71555 71.000
26.73550 88.000
26.75545 72.000
26.77539 69.000
26.79534 80.000
26.81529 67.000
26.83524 81.000
26.85518 82.000
26.87513 71.000
26.89508 83.000
26.91502 69.000
26.93497 88.000
26.95492 71.000
26.97486 82.000
26.99481 80.000
27.01476 78.000
27.03471 81.000
27.05465 84.000
27.07460 72.000
27.09455 71.000
27.11449 72.000
27.13444 73.000
27.15439 65.000
27.17433 76.000
27.19428 82.000
27.21423 84.000
27.23417 83.000
27.25412 72.000
27.27407 64.000
27.29402 64.000
27.31396 81.000
27.33391 69.000
27.35386 74.000
27.37380 63.000
27.39375 61.000
27.41370 76.000
27.43364 82.000
27.45359 84.000
27.47354 83.000
27.49349 87.000
27.51343 65.000
27.53338 69.000
27.55333 77.000
27.57327 78.000
27.59322 69.000
27.61317 67.000
27.63311 62.000
27.65306 79.000
27.67301 82.000
27.69296 87.000
27.71290 93.000
27.73285 89.000
27.75280 80.000
27.77274 69.000
27.79269 71.000
27.81264 63.000
27.83258 79.000
27.85253 74.000
27.87248 90.000
27.89242 70.000
27.91237 82.000
27.93232 70.000
27.95227 82.000
27.97221 78.000
27.99216 76.000
28.01211 74.000
28.03205 83.000
28.05200 76.000
28.07195 76.000
28.09189 83.000
28.11184 69.000
28.13179 83.000
28.15174 94.000
28.17168 68.000
28.19163 83.000
28.21158 80.000
28.23152 64.000
28.25147 69.000
28.27142 81.000
28.29136 52.000
28.31131 83.000
28.33126 62.000
28.35120 90.000
28.37115 90.000
28.39110 75.000
28.41105 75.000
28.43099 78.000
28.45094 86.000
28.47089 93.000
28.49083 98.000
28.51078 108.000
28.53073 88.000
28.55067 90.000
28.57062 72.000
28.59057 82.000
28.61052 76.000
28.63046 73.000
28.65041 82.000
28.67036 83.000
28.69030 90.000
28.71025 73.000
28.73020 77.000
28.75014 86.000
28.77009 94.000
28.79004 76.000
28.80998 77.000
28.82993 97.000
28.84988 78.000
28.86983 97.000
28.88977 82.000
28.90972 68.000
28.92967 69.000
28.94961 95.000
28.96956 90.000
28.98951 81.000
29.00945 77.000
29.02940 78.000
29.04935 80.000
29.06930 75.000
29.08924 94.000
29.10919 82.000
29.12914 77.000
29.14908 77.000
29.16903 83.000
29.18898 78.000
29.20892 77.000
29.22887 88.000
29.24882 78.000
29.26877 102.000
29.28871 99.000
29.30866 99.000
29.32861 95.000
29.34855 125.000
29.36850 135.000
29.38845 131.000
29.40839 121.000
29.42834 153.000
29.44829 148.000
29.46823 165.000
29.48818 159.000
29.50813 125.000
29.52808 116.000
29.54802 122.000
29.56797 108.000
29.58792 112.000
29.60786 102.000
29.62781 96.000
29.64776 99.000
29.66770 95.000
29.68765 90.000
29.70760 70.000
29.72755 85.000
29.74749 80.000
29.76744 67.000
29.78739 85.000
29.80733 82.000
29.82728 89.000
29.84723 77.000
29.86717 70.000
29.88712 107.000
29.90707 94.000
29.92701 82.000
29.94696 91.000
29.96691 95.000
29.98686 92.000
30.00680 83.000
30.02675 85.000
30.04670 85.000
30.06664 80.000
30.08659 97.000
30.10654 88.000
30.12648 89.000
30.14643 113.000
30.16638 98.000
30.18633 116.000
30.20627 136.000
30.22622 151.000
30.24617 176.000
30.26611 206.000
30.28606 239.000
30.30601 299.000
30.32595 370.000
30.34590 449.000
30.36585 562.000
30.38579 540.000
30.40574 456.000
30.42569 390.000
30.44564 365.000
30.46558 299.000
30.48553 236.000
30.50548 146.000
30.52542 141.000
30.54537 111.000
30.56532 115.000
30.58526 104.000
30.60521 89.000
30.62516 83.000
30.64511 82.000
30.66505 78.000
30.68500 95.000
30.70495 83.000
30.72489 88.000
30.74484 90.000
30.76479 91.000
30.78473 81.000
30.80468 75.000
30.82463 68.000
30.84458 83.000
30.86452 86.000
30.88447 76.000
30.90442 68.000
30.92436 90.000
30.94431 72.000
30.96426 82.000
30.98420 96.000
31.00415 92.000
31.02410 87.000
31.04404 82.000
31.06399 92.000
31.08394 95.000
31.10389 74.000
31.12383 87.000
31.14378 95.000
31.16373 78.000
31.18367 71.000
31.20362 82.000
31.22357 88.000
31.24351 86.000
31.26346 83.000
31.28341 94.000
31.30336 79.000
31.32330 77.000
31.34325 85.000
31.36320 83.000
31.38314 72.000
31.40309 98.000
31.42304 78.000
31.44298 89.000
31.46293 79.000
31.48288 95.000
31.50282 81.000
31.52277 87.000
31.54272 73.000
31.56267 66.000
31.58261 91.000
31.60256 83.000
31.62251 80.000
31.64245 96.000
31.66240 73.000
31.68235 90.000
31.70229 103.000
31.72224 113.000
31.74219 96.000
31.76214 92.000
31.78208 79.000
31.80203 85.000
31.82198 103.000
31.84192 114.000
31.86187 107.000
31.88182 119.000
31.90176 100.000
31.92171 121.000
31.94166 133.000
31.96160 147.000
31.98155 151.000
32.00150 164.000
32.02145 206.000
32.04139 224.000
32.06134 347.000
32.08129 358.000
32.10123 472.000
32.12118 474.000
32.14113 529.000
32.16107 548.000
32.18102 609.000
32.20097 504.000
32.22092 420.000
32.24086 371.000
32.26081 299.000
32.28076 266.000
32.30070 213.000
32.32065 150.000
32.34060 123.000
32.36054 117.000
32.38049 128.000
32.40044 109.000
32.42039 132.000
32.44033 96.000
32.46028 98.000
32.48023 87.000
32.50017 104.000
32.52012 95.000
32.54007 103.000
32.56001 97.000
32.57996 125.000
32.59991 106.000
32.61985 108.000
32.63980 112.000
32.65975 129.000
32.67970 155.000
32.69964 140.000
32.71959 143.000
32.73954 161.000
32.75948 178.000
32.77943 165.000
32.79938 180.000
32.81932 198.000
32.83927 195.000
32.85922 193.000
32.87917 186.000
32.89911 149.000
32.91906 129.000
32.93901 148.000
32.95895 141.000
32.97890 150.000
32.99885 118.000
33.01879 122.000
33.03874 106.000
33.05869 105.000
33.07863 106.000
33.09858 90.000
33.11853 84.000
33.13848 103.000
33.15842 88.000
33.17837 83.000
33.19832 84.000
33.21826 76.000
33.23821 94.000
33.25816 82.000
33.27810 84.000
33.29805 97.000
33.31800 86.000
33.33795 77.000
33.35789 77.000
33.37784 91.000
33.39779 95.000
33.41773 80.000
33.43768 78.000
33.45763 84.000
33.47757 85.000
33.49752 71.000
33.51747 90.000
33.53741 88.000
33.55736 94.000
33.57731 93.000
33.59726 86.000
33.61720 79.000
33.63715 94.000
33.65710 73.000
33.67704 90.000
33.69699 103.000
33.71694 98.000
33.73688 80.000
33.75683 106.000
33.77678 96.000
33.79673 80.000
33.81667 81.000
33.83662 91.000
33.85657 78.000
33.87651 79.000
33.89646 74.000
33.91641 72.000
33.93635 72.000
33.95630 93.000
33.97625 94.000
33.99620 100.000
34.01614 80.000
34.03609 73.000
34.05604 69.000
34.07598 92.000
34.09593 95.000
34.11588 104.000
34.13582 99.000
34.15577 102.000
34.17572 124.000
34.19566 94.000
34.21561 98.000
34.23556 103.000
34.25551 104.000
34.27545 118.000
34.29540 117.000
34.31535 107.000
34.33529 107.000
34.35524 124.000
34.37519 117.000
34.39513 132.000
34.41508 138.000
34.43503 123.000
34.45498 142.000
34.47492 121.000
34.49487 115.000
34.51482 117.000
34.53476 147.000
34.55471 125.000
34.57466 154.000
34.59460 144.000
34.61455 122.000
34.63450 147.000
34.65444 170.000
34.67439 174.000
34.69434 136.000
34.71429 131.000
34.73423 131.000
34.75418 120.000
34.77413 121.000
34.79407 128.000
34.81402 111.000
34.83397 124.000
34.85391 124.000
34.87386 142.000
34.89381 124.000
34.91376 145.000
34.93370 123.000
34.95365 140.000
34.97360 115.000
34.99354 113.000
35.01349 109.000
35.03344 120.000
35.05338 110.000
35.07333 100.000
35.09328 96.000
35.11322 106.000
35.13317 94.000
35.15312 101.000
35.17307 99.000
35.19301 96.000
35.21296 129.000
35.23291 104.000
35.25285 109.000
35.27280 115.000
35.29275 112.000
35.31269 111.000
35.33264 117.000
35.35259 133.000
35.37254 122.000
35.39248 122.000
35.41243 147.000
35.43238 145.000
35.45232 183.000
35.47227 198.000
35.49222 202.000
35.51216 236.000
35.53211 298.000
35.55206 414.000
35.57201 483.000
35.59195 536.000
35.61190 668.000
35.63185 790.000
35.65179 929.000
35.67174 1103.000
35.69169 1255.000
35.71163 1531.000
35.73158 1656.000
35.75153 1887.000
35.77147 1842.000
35.79142 1539.000
35.81137 1329.000
35.83132 1275.000
35.85126 1158.000
35.87121 948.000
35.89116 641.000
35.91110 502.000
35.93105 355.000
35.95100 303.000
35.97094 228.000
35.99089 224.000
36.01084 195.000
36.03079 165.000
36.05073 139.000
36.07068 151.000
36.09063 137.000
36.11057 128.000
36.13052 111.000
36.15047 139.000
36.17041 119.000
36.19036 108.000
36.21031 97.000
36.23025 103.000
36.25020 117.000
36.27015 123.000
36.29010 127.000
36.31004 118.000
36.32999 93.000
36.34994 113.000
36.36988 128.000
36.38983 102.000
36.40978 100.000
36.42972 102.000
36.44967 100.000
36.46962 100.000
36.48957 102.000
36.50951 149.000
36.52946 107.000
36.54941 119.000
36.56935 112.000
36.58930 132.000
36.60925 114.000
36.62919 123.000
36.64914 125.000
36.66909 127.000
36.68903 114.000
36.70898 122.000
36.72893 128.000
36.74888 123.000
36.76882 139.000
36.78877 130.000
36.80872 169.000
36.82866 187.000
36.84861 161.000
36.86856 174.000
36.88850 212.000
36.90845 281.000
36.92840 243.000
36.94835 304.000
36.96829 270.000
36.98824 272.000
37.00819 280.000
37.02813 264.000
37.04808 239.000
37.06803 208.000
37.08797 182.000
37.10792 212.000
37.12787 169.000
37.14781 207.000
37.16776 209.000
37.18771 303.000
37.20766 299.000
37.22760 381.000
37.24755 523.000
37.26750 541.000
37.28744 617.000
37.30739 552.000
37.32734 587.000
37.34728 570.000
37.36723 502.000
37.38718 507.000
37.40713 449.000
37.42707 326.000
37.44702 268.000
37.46697 206.000
37.48691 192.000
37.50686 169.000
37.52681 159.000
37.54675 125.000
37.56670 114.000
37.58665 107.000
37.60660 112.000
37.62654 109.000
37.64649 110.000
37.66644 90.000
37.68638 79.000
37.70633 95.000
37.72628 111.000
37.74622 80.000
37.76617 90.000
37.78612 107.000
37.80606 92.000
37.82601 86.000
37.84596 88.000
37.86591 98.000
37.88585 95.000
37.90580 86.000
37.92575 77.000
37.94569 93.000
37.96564 92.000
37.98559 91.000
38.00553 85.000
38.02548 102.000
38.04543 90.000
38.06538 99.000
38.08532 94.000
38.10527 102.000
38.12522 81.000
38.14516 92.000
38.16511 89.000
38.18506 83.000
38.20500 88.000
38.22495 89.000
38.24490 101.000
38.26484 89.000
38.28479 91.000
38.30474 82.000
38.32469 83.000
38.34463 94.000
38.36458 84.000
38.38453 73.000
38.40447 81.000
38.42442 90.000
38.44437 112.000
38.46431 102.000
38.48426 83.000
38.50421 108.000
38.52416 89.000
38.54410 99.000
38.56405 91.000
38.58400 95.000
38.60394 90.000
38.62389 86.000
38.64384 109.000
38.66378 112.000
38.68373 93.000
38.70368 88.000
38.72362 108.000
38.74357 94.000
38.76352 84.000
38.78347 102.000
38.80341 109.000
38.82336 95.000
38.84331 115.000
38.86325 108.000
38.88320 104.000
38.90315 119.000
38.92309 106.000
38.94304 151.000
38.96299 131.000
38.98294 149.000
39.00288 175.000
39.02283 160.000
39.04278 200.000
39.06272 177.000
39.08267 237.000
39.10262 279.000
39.12256 314.000
39.14251 413.000
39.16246 507.000
39.18241 688.000
39.20235 767.000
39.22230 738.000
39.24225 800.000
39.26219 854.000
39.28214 870.000
39.30209 862.000
39.32203 834.000
39.34198 761.000
39.36193 717.000
39.38187 657.000
39.40182 576.000
39.42177 519.000
39.44172 456.000
39.46166 406.000
39.48161 330.000
39.50156 282.000
39.52150 242.000
39.54145 208.000
39.56140 171.000
39.58134 159.000
39.60129 160.000
39.62124 129.000
39.64119 133.000
39.66113 133.000
39.68108 120.000
39.70103 107.000
39.72097 113.000
39.74092 114.000
39.76087 94.000
39.78081 106.000
39.80076 87.000
39.82071 111.000
39.84065 98.000
39.86060 96.000
39.88055 110.000
39.90050 94.000
39.92044 115.000
39.94039 87.000
39.96034 120.000
39.98028 105.000
40.00023 90.000
40.02018 80.000
40.04012 97.000
40.06007 90.000
40.08002 91.000
40.09997 75.000
40.11991 89.000
40.13986 97.000
40.15981 108.000
40.17975 89.000
40.19970 87.000
40.21965 89.000
40.23959 87.000
40.25954 106.000
40.27949 80.000
40.29943 80.000
40.31938 76.000
40.33933 72.000
40.35928 96.000
40.37922 88.000
40.39917 89.000
40.41912 95.000
40.43906 94.000
40.45901 93.000
40.47896 85.000
40.49890 78.000
40.51885 80.000
40.53880 88.000
40.55875 85.000
40.57869 83.000
40.59864 68.000
40.61859 77.000
40.63853 82.000
40.65848 104.000
40.67843 81.000
40.69837 86.000
40.71832 101.000
40.73827 81.000
40.75822 79.000
40.77816 76.000
40.79811 79.000
40.81806 88.000
40.83800 93.000
40.85795 102.000
40.87790 100.000
40.89784 91.000
40.91779 99.000
40.93774 93.000
40.95768 63.000
40.97763 91.000
40.99758 87.000
41.01753 80.000
41.03747 100.000
41.05742 82.000
41.07737 93.000
41.09731 95.000
41.11726 94.000
41.13721 95.000
41.15715 96.000
41.17710 105.000
41.19705 93.000
41.21700 87.000
41.23694 99.000
41.25689 82.000
41.27684 102.000
41.29678 96.000
41.31673 96.000
41.33668 103.000
41.35662 96.000
41.37657 115.000
41.39652 97.000
41.41646 95.000
41.43641 132.000
41.45636 118.000
41.47631 124.000
41.49625 124.000
41.51620 138.000
41.53615 126.000
41.55609 168.000
41.57604 182.000
41.59599 233.000
41.61593 261.000
41.63588 352.000
41.65583 425.000
41.67578 516.000
41.69572 704.000
41.71567 859.000
41.73562 977.000
41.75556 984.000
41.77551 930.000
41.79546 774.000
41.81540 707.000
41.83535 699.000
41.85530 606.000
41.87524 551.000
41.89519 482.000
41.91514 363.000
41.93509 286.000
41.95503 246.000
41.97498 188.000
41.99493 147.000
42.01487 148.000
42.03482 146.000
42.05477 128.000
42.07471 136.000
42.09466 117.000
42.11461 113.000
42.13456 124.000
42.15450 104.000
42.17445 88.000
42.19440 115.000
42.21434 121.000
42.23429 109.000
42.25424 100.000
42.27418 104.000
42.29413 101.000
42.31408 99.000
42.33403 90.000
42.35397 108.000
42.37392 114.000
42.39387 96.000
42.41381 97.000
42.43376 100.000
42.45371 95.000
42.47365 109.000
42.49360 102.000
42.51355 85.000
42.53349 91.000
42.55344 98.000
42.57339 102.000
42.59334 118.000
42.61328 107.000
42.63323 89.000
42.65318 109.000
42.67312 91.000
42.69307 103.000
42.71302 109.000
42.73296 93.000
42.75291 105.000
42.77286 103.000
42.79281 80.000
42.81275 100.000
42.83270 104.000
42.85265 104.000
42.87259 98.000
42.89254 91.000
42.91249 102.000
42.93243 109.000
42.95238 103.000
42.97233 123.000
42.99227 108.000
43.01222 113.000
43.03217 131.000
43.05212 127.000
43.07206 120.000
43.09201 135.000
43.11196 171.000
43.13190 168.000
43.15185 224.000
43.17180 237.000
43.19174 290.000
43.21169 425.000
43.23164 504.000
43.25159 670.000
43.27153 858.000
43.29148 1005.000
43.31143 1082.000
43.33137 1100.000
43.35132 1146.000
43.37127 1064.000
43.39121 1103.000
43.41116 1066.000
43.43111 1105.000
43.45105 1021.000
43.47100 941.000
43.49095 825.000
43.51090 613.000
43.53084 570.000
43.55079 514.000
43.57074 463.000
43.59068 364.000
43.61063 287.000
43.63058 260.000
43.65052 208.000
43.67047 195.000
43.69042 186.000
43.71037 156.000
43.73031 143.000
43.75026 128.000
43.77021 130.000
43.79015 108.000
43.81010 116.000
43.83005 99.000
43.84999 108.000
43.86994 97.000
43.88989 79.000
43.90984 127.000
43.92978 94.000
43.94973 96.000
43.96968 84.000
43.98962 82.000
44.00957 83.000
44.02952 81.000
44.04946 100.000
44.06941 94.000
44.08936 87.000
44.10930 98.000
44.12925 98.000
44.14920 90.000
44.16915 81.000
44.18909 94.000
44.20904 76.000
44.22899 85.000
44.24893 86.000
44.26888 86.000
44.28883 68.000
44.30877 77.000
44.32872 81.000
44.34867 80.000
44.36862 90.000
44.38856 85.000
44.40851 97.000
44.42846 71.000
44.44840 94.000
44.46835 91.000
44.48830 76.000
44.50824 92.000
44.52819 89.000
44.54814 103.000
44.56808 93.000
44.58803 89.000
44.60798 80.000
44.62793 73.000
44.64787 85.000
44.66782 86.000
44.68777 92.000
44.70771 96.000
44.72766 91.000
44.74761 72.000
44.76755 80.000
44.78750 94.000
44.80745 73.000
44.82740 78.000
44.84734 80.000
44.86729 78.000
44.88724 90.000
44.90718 73.000
44.92713 85.000
44.94708 105.000
44.96702 76.000
44.98697 94.000
45.00692 88.000
45.02686 86.000
45.04681 104.000
45.06676 94.000
45.08671 100.000
45.10665 105.000
45.12660 110.000
45.14655 100.000
45.16649 86.000
45.18644 99.000
45.20639 107.000
45.22633 85.000
45.24628 79.000
45.26623 79.000
45.28618 83.000
45.30612 85.000
45.32607 86.000
45.34602 74.000
45.36596 77.000
45.38591 82.000
45.40586 94.000
45.42580 91.000
45.44575 61.000
45.46570 88.000
45.48565 68.000
45.50559 60.000
45.52554 72.000
45.54549 75.000
45.56543 86.000
45.58538 95.000
45.60533 77.000
45.62527 91.000
45.64522 84.000
45.66517 93.000
45.68511 82.000
45.70506 80.000
45.72501 73.000
45.74496 68.000
45.76490 86.000
45.78485 76.000
45.80480 88.000
45.82474 78.000
45.84469 77.000
45.86464 80.000
45.88458 74.000
45.90453 69.000
45.92448 73.000
45.94443 88.000
45.96437 74.000
45.98432 93.000
46.00427 79.000
46.02421 95.000
46.04416 94.000
46.06411 85.000
46.08405 78.000
46.10400 100.000
46.12395 89.000
46.14389 78.000
46.16384 81.000
46.18379 74.000
46.20374 88.000
46.22368 78.000
46.24363 70.000
46.26358 69.000
46.28352 104.000
46.30347 79.000
46.32342 85.000
46.34336 72.000
46.36331 70.000
46.38326 84.000
46.40321 85.000
46.42315 76.000
46.44310 77.000
46.46305 76.000
46.48299 82.000
46.50294 84.000
46.52289 62.000
46.54283 74.000
46.56278 86.000
46.58273 81.000
46.60267 97.000
46.62262 80.000
46.64257 91.000
46.66252 67.000
46.68246 82.000
46.70241 71.000
46.72236 67.000
46.74230 62.000
46.76225 93.000
46.78220 86.000
46.80214 72.000
46.82209 73.000
46.84204 81.000
46.86199 75.000
46.88193 84.000
46.90188 75.000
46.92183 75.000
46.94177 78.000
46.96172 68.000
46.98167 77.000
47.00161 79.000
47.02156 90.000
47.04151 67.000
47.06146 81.000
47.08140 64.000
47.10135 88.000
47.12130 66.000
47.14124 91.000
47.16119 74.000
47.18114 75.000
47.20108 76.000
47.22103 86.000
47.24098 74.000
47.26092 85.000
47.28087 83.000
47.30082 74.000
47.32077 80.000
47.34071 95.000
47.36066 77.000
47.38061 90.000
47.40055 75.000
47.42050 72.000
47.44045 73.000
47.46039 70.000
47.48034 87.000
47.50029 72.000
47.52024 80.000
47.54018 86.000
47.56013 98.000
47.58008 79.000
47.60002 102.000
47.61997 82.000
47.63992 80.000
47.65986 90.000
47.67981 74.000
47.69976 79.000
47.71970 73.000
47.73965 87.000
47.75960 73.000
47.77955 78.000
47.79949 81.000
47.81944 85.000
47.83939 84.000
47.85933 92.000
47.87928 80.000
47.89923 92.000
47.91917 80.000
47.93912 86.000
47.95907 106.000
47.97902 94.000
47.99896 85.000
48.01891 96.000
48.03886 89.000
48.05880 91.000
48.07875 91.000
48.09870 103.000
48.11864 105.000
48.13859 104.000
48.15854 88.000
48.17848 111.000
48.19843 101.000
48.21838 124.000
48.23833 112.000
48.25827 123.000
48.27822 117.000
48.29817 99.000
48.31811 119.000
48.33806 106.000
48.35801 121.000
48.37795 122.000
48.39790 139.000
48.41785 113.000
48.43780 140.000
48.45774 154.000
48.47769 170.000
48.49764 166.000
48.51758 201.000
48.53753 176.000
48.55748 217.000
48.57742 247.000
48.59737 320.000
48.61732 410.000
48.63726 448.000
48.65721 503.000
48.67716 716.000
48.69711 746.000
48.71705 816.000
48.73700 874.000
48.75695 823.000
48.77689 742.000
48.79684 771.000
48.81679 672.000
48.83673 590.000
48.85668 581.000
48.87663 549.000
48.89658 457.000
48.91652 449.000
48.93647 344.000
48.95642 312.000
48.97636 253.000
48.99631 230.000
49.01626 219.000
49.03620 201.000
49.05615 168.000
49.07610 158.000
49.09605 150.000
49.11599 143.000
49.13594 138.000
49.15589 142.000
49.17583 108.000
49.19578 125.000
49.21573 115.000
49.23567 108.000
49.25562 91.000
49.27557 118.000
49.29551 99.000
49.31546 103.000
49.33541 103.000
49.35536 97.000
49.37530 84.000
49.39525 96.000
49.41520 90.000
49.43514 80.000
49.45509 101.000
49.47504 90.000
49.49498 89.000
49.51493 91.000
49.53488 119.000
49.55483 77.000
49.57477 90.000
49.59472 98.000
49.61467 93.000
49.63461 95.000
49.65456 77.000
49.67451 99.000
49.69445 77.000
49.71440 96.000
49.73435 78.000
49.75429 85.000
49.77424 98.000
49.79419 83.000
49.81414 89.000
49.83408 87.000
49.85403 75.000
49.87398 79.000
49.89392 83.000
49.91387 82.000
49.93382 84.000
49.95376 79.000
49.97371 76.000
49.99366 89.000
50.01361 75.000
50.03355 78.000
50.05350 82.000
50.07345 92.000
50.09339 74.000
50.11334 80.000
50.13329 82.000
50.15323 81.000
50.17318 85.000
50.19313 66.000
50.21307 73.000
50.23302 73.000
50.25297 73.000
50.27292 75.000
50.29286 86.000
50.31281 69.000
50.33276 83.000
50.35270 75.000
50.37265 55.000
50.39260 84.000
50.41254 82.000
50.43249 96.000
50.45244 83.000
50.47239 87.000
50.49233 68.000
50.51228 89.000
50.53223 88.000
50.55217 74.000
50.57212 70.000
50.59207 74.000
50.61201 80.000
50.63196 80.000
50.65191 91.000
50.67186 68.000
50.69180 72.000
50.71175 77.000
50.73170 77.000
50.75164 80.000
50.77159 83.000
50.79154 82.000
50.81148 82.000
50.83143 68.000
50.85138 76.000
50.87132 87.000
50.89127 79.000
50.91122 71.000
50.93117 74.000
50.95111 75.000
50.97106 68.000
50.99101 80.000
51.01095 77.000
51.03090 79.000
51.05085 75.000
51.07079 69.000
51.09074 59.000
51.11069 78.000
51.13064 83.000
51.15058 86.000
51.17053 66.000
51.19048 77.000
51.21042 72.000
51.23037 71.000
51.25032 63.000
51.27026 72.000
51.29021 62.000
51.31016 67.000
51.33010 70.000
51.35005 64.000
51.37000 67.000
51.38995 72.000
51.40989 59.000
51.42984 77.000
51.44979 68.000
51.46973 75.000
51.48968 77.000
51.50963 72.000
51.52957 75.000
51.54952 85.000
51.56947 66.000
51.58942 77.000
51.60936 67.000
51.62931 80.000
51.64926 69.000
51.66920 85.000
51.68915 57.000
51.70910 70.000
51.72904 73.000
51.74899 83.000
51.76894 77.000
51.78888 75.000
51.80883 80.000
51.82878 71.000
51.84873 91.000
51.86867 77.000
51.88862 87.000
51.90857 67.000
51.92851 68.000
51.94846 78.000
51.96841 99.000
51.98835 98.000
52.00830 96.000
52.02825 99.000
52.04820 76.000
52.06814 72.000
52.08809 84.000
52.10804 82.000
52.12798 95.000
52.14793 92.000
52.16788 108.000
52.18782 109.000
52.20777 81.000
52.22772 76.000
52.24767 103.000
52.26761 90.000
52.28756 98.000
52.30751 79.000
52.32745 109.000
52.34740 95.000
52.36735 70.000
52.38729 95.000
52.40724 89.000
52.42719 78.000
52.44713 82.000
52.46708 79.000
52.48703 95.000
52.50698 70.000
52.52692 86.000
52.54687 75.000
52.56682 62.000
52.58676 87.000
52.60671 81.000
52.62666 65.000
52.64660 83.000
52.66655 78.000
52.68650 62.000
52.70645 71.000
52.72639 63.000
52.74634 82.000
52.76629 85.000
52.78623 76.000
52.80618 90.000
52.82613 94.000
52.84607 92.000
52.86602 93.000
52.88597 88.000
52.90591 86.000
52.92586 91.000
52.94581 115.000
52.96576 98.000
52.98570 114.000
53.00565 110.000
53.02560 148.000
53.04554 180.000
53.06549 178.000
53.08544 156.000
53.10538 171.000
53.12533 189.000
53.14528 179.000
53.16523 154.000
53.18517 163.000
53.20512 144.000
53.22507 155.000
53.24501 132.000
53.26496 159.000
53.28491 142.000
53.30485 128.000
53.32480 120.000
53.34475 104.000
53.36469 97.000
53.38464 106.000
53.40459 84.000
53.42454 92.000
53.44448 76.000
53.46443 90.000
53.48438 94.000
53.50432 76.000
53.52427 76.000
53.54422 89.000
53.56416 87.000
53.58411 107.000
53.60406 81.000
53.62401 97.000
53.64395 102.000
53.66390 92.000
53.68385 86.000
53.70379 91.000
53.72374 97.000
53.74369 87.000
53.76363 111.000
53.78358 92.000
53.80353 138.000
53.82348 136.000
53.84342 127.000
53.86337 163.000
53.88332 213.000
53.90326 183.000
53.92321 148.000
53.94316 133.000
53.96310 133.000
53.98305 153.000
54.00300 132.000
54.02294 123.000
54.04289 139.000
54.06284 121.000
54.08279 127.000
54.10273 85.000
54.12268 102.000
54.14263 88.000
54.16257 73.000
54.18252 90.000
54.20247 78.000
54.22241 69.000
54.24236 81.000
54.26231 89.000
54.28226 74.000
54.30220 74.000
54.32215 88.000
54.34210 78.000
54.36204 70.000
54.38199 73.000
54.40194 76.000
54.42188 70.000
54.44183 73.000
54.46178 61.000
54.48172 82.000
54.50167 77.000
54.52162 90.000
54.54157 78.000
54.56151 76.000
54.58146 71.000
54.60141 79.000
54.62135 88.000
54.64130 86.000
54.66125 71.000
54.68119 73.000
54.70114 78.000
54.72109 81.000
54.74104 84.000
54.76098 82.000
54.78093 71.000
54.80088 66.000
54.82082 83.000
54.84077 89.000
54.86072 94.000
54.88066 101.000
54.90061 69.000
54.92056 72.000
54.94050 68.000
54.96045 61.000
54.98040 90.000
55.00035 75.000
55.02029 70.000
55.04024 70.000
55.06019 78.000
55.08013 80.000
55.10008 66.000
55.12003 67.000
55.13997 68.000
55.15992 71.000
55.17987 78.000
55.19982 91.000
55.21976 67.000
55.23971 68.000
55.25966 73.000
55.27960 65.000
55.29955 72.000
55.31950 81.000
55.33944 81.000
55.35939 82.000
55.37934 94.000
55.39929 73.000
55.41923 86.000
55.43918 75.000
55.45913 78.000
55.47907 78.000
55.49902 76.000
55.51897 80.000
55.53891 85.000
55.55886 68.000
55.57881 62.000
55.59875 83.000
55.61870 82.000
55.63865 70.000
55.65860 78.000
55.67854 78.000
55.69849 80.000
55.71844 86.000
55.73838 61.000
55.75833 71.000
55.77828 79.000
55.79822 79.000
55.81817 82.000
55.83812 65.000
55.85807 88.000
55.87801 93.000
55.89796 67.000
55.91791 71.000
55.93785 80.000
55.95780 64.000
55.97775 81.000
55.99769 63.000
56.01764 65.000
56.03759 76.000
56.05753 78.000
56.07748 72.000
56.09743 70.000
56.11738 65.000
56.13732 77.000
56.15727 69.000
56.17722 75.000
56.19716 75.000
56.21711 67.000
56.23706 62.000
56.25700 70.000
56.27695 74.000
56.29690 99.000
56.31685 88.000
56.33679 81.000
56.35674 85.000
56.37669 66.000
56.39663 76.000
56.41658 76.000
56.43653 79.000
56.45647 66.000
56.47642 88.000
56.49637 81.000
56.51631 73.000
56.53626 62.000
56.55621 78.000
56.57616 78.000
56.59610 73.000
56.61605 82.000
56.63600 99.000
56.65594 71.000
56.67589 78.000
56.69584 89.000
56.71578 76.000
56.73573 73.000
56.75568 65.000
56.77563 87.000
56.79557 79.000
56.81552 89.000
56.83547 80.000
56.85541 80.000
56.87536 78.000
56.89531 81.000
56.91525 80.000
56.93520 91.000
56.95515 81.000
56.97510 74.000
56.99504 82.000
57.01499 81.000
57.03494 91.000
57.05488 73.000
57.07483 88.000
57.09478 96.000
57.11472 108.000
57.13467 93.000
57.15462 77.000
57.17456 102.000
57.19451 121.000
57.21446 118.000
57.23441 107.000
57.25435 116.000
57.27430 150.000
57.29425 129.000
57.31419 151.000
57.33414 183.000
57.35409 214.000
57.37403 247.000
57.39398 322.000
57.41393 378.000
57.43388 382.000
57.45382 420.000
57.47377 352.000
57.49372 363.000
57.51366 331.000
57.53361 332.000
57.55356 340.000
57.57350 297.000
57.59345 355.000
57.61340 316.000
57.63334 320.000
57.65329 306.000
57.67324 305.000
57.69319 300.000
57.71313 285.000
57.73308 263.000
57.75303 255.000
57.77297 248.000
57.79292 254.000
57.81287 221.000
57.83281 192.000
57.85276 189.000
57.87271 171.000
57.89266 196.000
57.91260 165.000
57.93255 151.000
57.95250 129.000
57.97244 146.000
57.99239 120.000
58.01234 109.000
58.03228 110.000
58.05223 90.000
58.07218 111.000
58.09212 95.000
58.11207 111.000
58.13202 79.000
58.15197 65.000
58.17191 89.000
58.19186 83.000
58.21181 87.000
58.23175 76.000
58.25170 78.000
58.27165 74.000
58.29159 78.000
58.31154 80.000
58.33149 84.000
58.35144 85.000
58.37138 94.000
58.39133 74.000
58.41128 74.000
58.43122 60.000
58.45117 62.000
58.47112 71.000
58.49106 94.000
58.51101 83.000
58.53096 90.000
58.55090 70.000
58.57085 96.000
58.59080 75.000
58.61075 75.000
58.63069 69.000
58.65064 76.000
58.67059 82.000
58.69053 77.000
58.71048 89.000
58.73043 93.000
58.75037 80.000
58.77032 70.000
58.79027 80.000
58.81022 95.000
58.83016 81.000
58.85011 75.000
58.87006 73.000
58.89000 63.000
58.90995 93.000
58.92990 89.000
58.94984 67.000
58.96979 70.000
58.98974 69.000
59.00969 80.000
59.02963 88.000
59.04958 77.000
59.06953 74.000
59.08947 80.000
59.10942 87.000
59.12937 72.000
59.14931 81.000
59.16926 81.000
59.18921 80.000
59.20915 81.000
59.22910 92.000
59.24905 81.000
59.26900 81.000
59.28894 60.000
59.30889 74.000
59.32884 65.000
59.34878 68.000
59.36873 69.000
59.38868 88.000
59.40862 83.000
59.42857 85.000
59.44852 90.000
59.46847 82.000
59.48841 82.000
59.50836 72.000
59.52831 81.000
59.54825 87.000
59.56820 61.000
59.58815 64.000
59.60809 75.000
59.62804 70.000
59.64799 52.000
59.66793 69.000
59.68788 77.000
59.70783 79.000
59.72778 78.000
59.74772 78.000
59.76767 87.000
59.78762 67.000
59.80756 83.000
59.82751 71.000
59.84746 73.000
59.86740 69.000
59.88735 78.000
59.90730 77.000
59.92725 63.000
59.94719 61.000
59.96714 83.000
59.98709 89.000
60.00703 74.000
60.02698 76.000
60.04693 78.000
60.06687 84.000
60.08682 87.000
60.10677 75.000
60.12671 80.000
60.14666 71.000
60.16661 91.000
60.18656 73.000
60.20650 89.000
60.22645 56.000
60.24640 77.000
60.26634 97.000
60.28629 70.000
60.30624 88.000
60.32618 61.000
60.34613 83.000
60.36608 59.000
60.38603 78.000
60.40597 71.000
60.42592 86.000
60.44587 76.000
60.46581 75.000
60.48576 79.000
60.50571 82.000
60.52565 77.000
60.54560 73.000
60.56555 106.000
60.58550 70.000
60.60544 76.000
60.62539 79.000
60.64534 72.000
60.66528 86.000
60.68523 75.000
60.70518 79.000
60.72512 63.000
60.74507 86.000
60.76502 88.000
60.78496 77.000
60.80491 70.000
60.82486 90.000
60.84481 85.000
60.86475 76.000
60.88470 74.000
60.90465 97.000
60.92459 90.000
60.94454 81.000
60.96449 83.000
60.98443 83.000
61.00438 92.000
61.02433 77.000
61.04428 80.000
61.06422 76.000
61.08417 83.000
61.10412 66.000
61.12406 74.000
61.14401 87.000
61.16396 83.000
61.18390 88.000
61.20385 76.000
61.22380 82.000
61.24374 83.000
61.26369 78.000
61.28364 85.000
61.30359 77.000
61.32353 86.000
61.34348 68.000
61.36343 81.000
61.38337 78.000
61.40332 85.000
61.42327 79.000
61.44321 75.000
61.46316 87.000
61.48311 79.000
61.50306 99.000
61.52300 101.000
61.54295 88.000
61.56290 98.000
61.58284 95.000
61.60279 91.000
61.62274 83.000
61.64268 107.000
61.66263 103.000
61.68258 99.000
61.70252 108.000
61.72247 122.000
61.74242 119.000
61.76237 98.000
61.78231 129.000
61.80226 137.000
61.82221 146.000
61.84215 163.000
61.86210 136.000
61.88205 156.000
61.90199 176.000
61.92194 184.000
61.94189 268.000
61.96184 267.000
61.98178 294.000
62.00173 338.000
62.02168 390.000
62.04162 348.000
62.06157 384.000
62.08152 397.000
62.10146 379.000
62.12141 380.000
62.14136 293.000
62.16131 327.000
62.18125 313.000
62.20120 321.000
62.22115 319.000
62.24109 277.000
62.26104 265.000
62.28099 239.000
62.30093 231.000
62.32088 215.000
62.34083 174.000
62.36077 138.000
62.38072 164.000
62.40067 152.000
62.42062 105.000
62.44056 141.000
62.46051 136.000
62.48046 116.000
62.50040 101.000
62.52035 120.000
62.54030 110.000
62.56024 126.000
62.58019 116.000
62.60014 129.000
62.62009 122.000
62.64003 116.000
62.65998 138.000
62.67993 119.000
62.69987 173.000
62.71982 177.000
62.73977 205.000
62.75971 227.000
62.77966 305.000
62.79961 300.000
62.81955 322.000
62.83950 397.000
62.85945 411.000
62.87940 429.000
62.89934 448.000
62.91929 428.000
62.93924 424.000
62.95918 466.000
62.97913 481.000
62.99908 515.000
63.01902 588.000
63.03897 680.000
63.05892 718.000
63.07887 725.000
63.09881 669.000
63.11876 683.000
63.13871 608.000
63.15865 515.000
63.17860 492.000
63.19855 502.000
63.21849 487.000
63.23844 484.000
63.25839 472.000
63.27833 427.000
63.29828 370.000
63.31823 346.000
63.33818 305.000
63.35812 273.000
63.37807 227.000
63.39802 223.000
63.41796 202.000
63.43791 165.000
63.45786 162.000
63.47780 152.000
63.49775 140.000
63.51770 121.000
63.53765 124.000
63.55759 124.000
63.57754 126.000
63.59749 109.000
63.61743 118.000
63.63738 146.000
63.65733 111.000
63.67727 115.000
63.69722 110.000
63.71717 138.000
63.73712 142.000
63.75706 138.000
63.77701 160.000
63.79696 154.000
63.81690 177.000
63.83685 215.000
63.85680 196.000
63.87674 206.000
63.89669 233.000
63.91664 236.000
63.93658 216.000
63.95653 206.000
63.97648 237.000
63.99643 254.000
64.01637 239.000
64.03632 222.000
64.05627 242.000
64.07621 242.000
64.09616 270.000
64.11611 230.000
64.13605 225.000
64.15600 231.000
64.17595 234.000
64.19590 214.000
64.21584 198.000
64.23579 207.000
64.25574 192.000
64.27568 190.000
64.29563 167.000
64.31558 180.000
64.33552 167.000
64.35547 141.000
64.37542 167.000
64.39536 167.000
64.41531 144.000
64.43526 133.000
64.45521 139.000
64.47515 114.000
64.49510 138.000
64.51505 108.000
64.53499 107.000
64.55494 98.000
64.57489 95.000
64.59483 96.000
64.61478 90.000
64.63473 87.000
64.65468 87.000
64.67462 86.000
64.69457 93.000
64.71452 85.000
64.73446 100.000
64.75441 81.000
64.77436 84.000
64.79430 87.000
64.81425 76.000
64.83420 87.000
64.85414 98.000
64.87409 91.000
64.89404 86.000
64.91399 88.000
64.93393 82.000
64.95388 82.000
64.97383 79.000
64.99377 73.000
65.01372 83.000
65.03367 69.000
65.05361 83.000
65.07356 83.000
65.09351 78.000
65.11346 80.000
65.13340 67.000
65.15335 71.000
65.17330 84.000
65.19324 90.000
65.21319 72.000
65.23314 72.000
65.25308 92.000
65.27303 88.000
65.29298 85.000
65.31293 78.000
65.33287 100.000
65.35282 87.000
65.37277 86.000
65.39271 76.000
65.41266 84.000
65.43261 89.000
65.45255 98.000
65.47250 102.000
65.49245 106.000
65.51239 127.000
65.53234 111.000
65.55229 103.000
65.57224 143.000
65.59218 155.000
65.61213 134.000
65.63208 144.000
65.65202 164.000
65.67197 147.000
65.69192 139.000
65.71186 153.000
65.73181 146.000
65.75176 152.000
65.77171 157.000
65.79165 126.000
65.81160 156.000
65.83155 125.000
65.85149 129.000
65.87144 135.000
65.89139 138.000
65.91133 138.000
65.93128 115.000
65.95123 88.000
65.97117 96.000
65.99112 123.000
66.01107 97.000
66.03102 100.000
66.05096 115.000
66.07091 116.000
66.09086 102.000
66.11080 110.000
66.13075 113.000
66.15070 127.000
66.17064 128.000
66.19059 120.000
66.21054 123.000
66.23049 153.000
66.25043 149.000
66.27038 153.000
66.29033 146.000
66.31027 170.000
66.33022 185.000
66.35017 169.000
66.37011 163.000
66.39006 199.000
66.41001 150.000
66.42995 183.000
66.44990 184.000
66.46985 192.000
66.48980 171.000
66.50974 199.000
66.52969 206.000
66.54964 185.000
66.56958 193.000
66.58953 169.000
66.60948 160.000
66.62942 158.000
66.64937 139.000
66.66932 144.000
66.68927 141.000
66.70921 119.000
66.72916 135.000
66.74911 125.000
66.76905 124.000
66.78900 130.000
66.80895 114.000
66.82889 101.000
66.84884 130.000
66.86879 101.000
66.88874 93.000
66.90868 122.000
66.92863 91.000
66.94858 130.000
66.96852 89.000
66.98847 116.000
67.00842 91.000
67.02836 134.000
67.04831 115.000
67.06826 128.000
67.08820 127.000
67.10815 120.000
67.12810 117.000
67.14805 117.000
67.16799 145.000
67.18794 128.000
67.20789 130.000
67.22783 130.000
67.24778 132.000
67.26773 126.000
67.28767 125.000
67.30762 136.000
67.32757 103.000
67.34752 129.000
67.36746 102.000
67.38741 90.000
67.40736 101.000
67.42730 84.000
67.44725 99.000
67.46720 92.000
67.48714 102.000
67.50709 81.000
67.52704 87.000
67.54698 91.000
67.56693 72.000
67.58688 80.000
67.60683 79.000
67.62677 62.000
67.64672 91.000
67.66667 78.000
67.68661 80.000
67.70656 87.000
67.72651 98.000
67.74645 76.000
67.76640 92.000
67.78635 82.000
67.80630 89.000
67.82624 77.000
67.84619 75.000
67.86614 87.000
67.88608 99.000
67.90603 106.000
67.92598 115.000
67.94592 110.000
67.96587 95.000
67.98582 99.000
68.00576 124.000
68.02571 106.000
68.04566 119.000
68.06561 93.000
68.08555 103.000
68.10550 103.000
68.12545 113.000
68.14539 95.000
68.16534 104.000
68.18529 90.000
68.20523 99.000
68.22518 104.000
68.24513 98.000
68.26508 80.000
68.28502 75.000
68.30497 74.000
68.32492 88.000
68.34486 85.000
68.36481 86.000
68.38476 77.000
68.40470 83.000
68.42465 87.000
68.44460 85.000
68.46455 81.000
68.48449 82.000
68.50444 69.000
68.52439 82.000
68.54433 81.000
68.56428 98.000
68.58423 67.000
68.60417 69.000
68.62412 85.000
68.64407 103.000
68.66401 88.000
68.68396 92.000
68.70391 77.000
68.72386 104.000
68.74380 95.000
68.76375 73.000
68.78370 101.000
68.80364 82.000
68.82359 93.000
68.84354 83.000
68.86348 84.000
68.88343 88.000
68.90338 95.000
68.92333 84.000
68.94327 80.000
68.96322 77.000
68.98317 75.000
69.00311 70.000
69.02306 81.000
69.04301 71.000
69.06295 76.000
69.08290 83.000
69.10285 69.000
69.12279 82.000
69.14274 75.000
69.16269 69.000
69.18264 82.000
69.20258 68.000
69.22253 66.000
69.24248 81.000
69.26242 76.000
69.28237 77.000
69.30232 76.000
69.32226 68.000
69.34221 75.000
69.36216 64.000
69.38211 68.000
69.40205 86.000
69.42200 70.000
69.44195 77.000
69.46189 62.000
69.48184 68.000
69.50179 73.000
69.52173 65.000
69.54168 75.000
69.56163 70.000
69.58157 76.000
69.60152 66.000
69.62147 60.000
69.64142 79.000
69.66136 85.000
69.68131 65.000
69.70126 77.000
69.72120 66.000
69.74115 82.000
69.76110 71.000
69.78104 88.000
69.80099 85.000
69.82094 72.000
69.84089 74.000
69.86083 65.000
69.88078 64.000
69.90073 76.000
69.92067 77.000
69.94062 89.000
69.96057 58.000
69.98051 75.000
70.00046 67.000
70.02041 62.000
70.04035 88.000
70.06030 77.000
70.08025 75.000
70.10020 81.000
70.12014 65.000
70.14009 78.000
70.16004 67.000
70.17998 71.000
70.19993 65.000
70.21988 82.000
70.23982 72.000
70.25977 79.000
70.27972 75.000
70.29967 53.000
70.31961 79.000
70.33956 72.000
70.35951 75.000
70.37945 70.000
70.39940 70.000
70.41935 71.000
70.43929 73.000
70.45924 59.000
70.47919 67.000
70.49914 69.000
70.51908 81.000
70.53903 73.000
70.55898 71.000
70.57892 71.000
70.59887 66.000
70.61882 70.000
70.63876 80.000
70.65871 79.000
70.67866 73.000
70.69860 83.000
70.71855 88.000
70.73850 76.000
70.75845 79.000
70.77839 58.000
70.79834 65.000
70.81829 65.000
70.83823 69.000
70.85818 70.000
70.87813 49.000
70.89807 51.000
70.91802 64.000
70.93797 63.000
70.95792 69.000
70.97786 66.000
70.99781 74.000
71.01776 79.000
71.03770 65.000
71.05765 69.000
71.07760 62.000
71.09754 87.000
71.11749 73.000
71.13744 82.000
71.15738 62.000
71.17733 83.000
71.19728 90.000
71.21723 69.000
71.23717 69.000
71.25712 56.000
71.27707 62.000
71.29701 65.000
71.31696 72.000
71.33691 78.000
71.35685 87.000
71.37680 78.000
71.39675 81.000
71.41670 89.000
71.43664 87.000
71.45659 80.000
71.47654 92.000
71.49648 96.000
71.51643 86.000
71.53638 111.000
71.55632 108.000
71.57627 112.000
71.59622 102.000
71.61616 103.000
71.63611 104.000
71.65606 94.000
71.67601 87.000
71.69595 97.000
71.71590 92.000
71.73585 86.000
71.75579 78.000
71.77574 93.000
71.79569 72.000
71.81563 86.000
71.83558 85.000
71.85553 89.000
71.87548 82.000
71.89542 89.000
71.91537 79.000
71.93532 78.000
71.95526 55.000
71.97521 88.000
71.99516 65.000
72.01510 70.000
72.03505 70.000
72.05500 77.000
72.07495 70.000
72.09489 91.000
72.11484 91.000
72.13479 68.000
72.15473 65.000
72.17468 75.000
72.19463 63.000
72.21457 80.000
72.23452 75.000
72.25447 77.000
72.27441 67.000
72.29436 63.000
72.31431 71.000
72.33426 81.000
72.35420 79.000
72.37415 79.000
72.39410 62.000
72.41404 82.000
72.43399 76.000
72.45394 74.000
72.47388 75.000
72.49383 70.000
72.51378 67.000
72.53373 78.000
72.55367 74.000
72.57362 75.000
72.59357 82.000
72.61351 72.000
72.63346 82.000
72.65341 79.000
72.67335 80.000
72.69330 91.000
72.71325 74.000
72.73319 93.000
72.75314 81.000
72.77309 83.000
72.79304 77.000
72.81298 99.000
72.83293 85.000
72.85288 88.000
72.87282 101.000
72.89277 103.000
72.91272 102.000
72.93266 101.000
72.95261 112.000
72.97256 131.000
72.99251 117.000
73.01245 117.000
73.03240 115.000
73.05235 121.000
73.07229 101.000
73.09224 123.000
73.11219 106.000
73.13213 131.000
73.15208 116.000
73.17203 99.000
73.19197 130.000
73.21192 134.000
73.23187 126.000
73.25182 131.000
73.27176 143.000
73.29171 130.000
73.31166 113.000
73.33160 120.000
73.35155 117.000
73.37150 136.000
73.39144 159.000
73.41139 133.000
73.43134 118.000
73.45129 148.000
73.47123 153.000
73.49118 173.000
73.51113 144.000
73.53107 126.000
73.55102 162.000
73.57097 128.000
73.59091 126.000
73.61086 143.000
73.63081 144.000
73.65076 144.000
73.67070 118.000
73.69065 133.000
73.71060 126.000
73.73054 127.000
73.75049 101.000
73.77044 120.000
73.79038 96.000
73.81033 114.000
73.83028 91.000
73.85022 110.000
73.87017 77.000
73.89012 81.000
73.91007 98.000
73.93001 90.000
73.94996 91.000
73.96991 79.000
73.98985 83.000
74.00980 85.000
74.02975 73.000
74.04969 93.000
74.06964 86.000
74.08959 81.000
74.10954 108.000
74.12948 65.000
74.14943 92.000
74.16938 65.000
74.18932 80.000
74.20927 75.000
74.22922 65.000
74.24916 76.000
74.26911 89.000
74.28906 90.000
74.30900 85.000
74.32895 72.000
74.34890 84.000
74.36885 97.000
74.38879 74.000
74.40874 87.000
74.42869 102.000
74.44863 81.000
74.46858 84.000
74.48853 111.000
74.50847 92.000
74.52842 115.000
74.54837 116.000
74.56832 116.000
74.58826 114.000
74.60821 132.000
74.62816 168.000
74.64810 169.000
74.66805 156.000
74.68800 141.000
74.70794 146.000
74.72789 121.000
74.74784 136.000
74.76778 127.000
74.78773 120.000
74.80768 119.000
74.82763 149.000
74.84757 114.000
74.86752 144.000
74.88747 108.000
74.90741 112.000
74.92736 117.000
74.94731 99.000
74.96725 87.000
74.98720 95.000
75.00715 94.000
75.02710 109.000
75.04704 86.000
75.06699 103.000
75.08694 90.000
75.10688 72.000
75.12683 85.000
75.14678 86.000
75.16672 85.000
75.18667 122.000
75.20662 99.000
75.22657 108.000
75.24651 130.000
75.26646 152.000
75.28641 129.000
75.30635 159.000
75.32630 149.000
75.34625 165.000
75.36619 172.000
75.38614 188.000
75.40609 185.000
75.42603 156.000
75.44598 154.000
75.46593 204.000
75.48588 190.000
75.50582 147.000
75.52577 167.000
75.54572 180.000
75.56566 176.000
75.58561 156.000
75.60556 142.000
75.62550 159.000
75.64545 165.000
75.66540 153.000
75.68535 141.000
75.70529 144.000
75.72524 122.000
75.74519 134.000
75.76513 114.000
75.78508 122.000
75.80503 113.000
75.82497 100.000
75.84492 112.000
75.86487 94.000
75.88481 100.000
75.90476 104.000
75.92471 94.000
75.94466 102.000
75.96460 87.000
75.98455 99.000
76.00450 94.000
76.02444 85.000
76.04439 80.000
76.06434 83.000
76.08428 70.000
76.10423 68.000
76.12418 89.000
76.14413 78.000
76.16407 68.000
76.18402 80.000
76.20397 83.000
76.22391 89.000
76.24386 81.000
76.26381 75.000
76.28375 84.000
76.30370 67.000
76.32365 77.000
76.34359 85.000
76.36354 69.000
76.38349 89.000
76.40344 65.000
76.42338 67.000
76.44333 73.000
76.46328 96.000
76.48322 73.000
76.50317 75.000
76.52312 77.000
76.54306 71.000
76.56301 74.000
76.58296 87.000
76.60291 69.000
76.62285 82.000
76.64280 60.000
76.66275 81.000
76.68269 73.000
76.70264 78.000
76.72259 66.000
76.74253 76.000
76.76248 81.000
76.78243 67.000
76.80238 88.000
76.82232 66.000
76.84227 69.000
76.86222 80.000
76.88216 68.000
76.90211 60.000
76.92206 78.000
76.94200 69.000
76.96195 80.000
76.98190 67.000
77.00184 76.000
77.02179 78.000
77.04174 49.000
77.06169 82.000
77.08163 78.000
77.10158 73.000
77.12153 74.000
77.14147 58.000
77.16142 83.000
77.18137 90.000
77.20131 59.000
77.22126 84.000
77.24121 75.000
77.26116 91.000
77.28110 52.000
77.30105 69.000
77.32100 78.000
77.34094 102.000
77.36089 94.000
77.38084 82.000
77.40078 89.000
77.42073 101.000
77.44068 93.000
77.46062 115.000
77.48057 99.000
77.50052 107.000
77.52047 101.000
77.54041 111.000
77.56036 104.000
77.58031 112.000
77.60025 113.000
77.62020 116.000
77.64015 110.000
77.66009 110.000
77.68004 99.000
77.69999 124.000
77.71994 127.000
77.73988 116.000
77.75983 133.000
77.77978 119.000
77.79972 126.000
77.81967 107.000
77.83962 110.000
77.85956 120.000
77.87951 95.000
77.89946 112.000
77.91940 108.000
77.93935 117.000
77.95930 135.000
77.97925 114.000
77.99919 120.000
78.01914 94.000
78.03909 103.000
78.05903 102.000
78.07898 104.000
78.09893 118.000
78.11887 100.000
78.13882 109.000
78.15877 118.000
78.17872 106.000
78.19866 118.000
78.21861 116.000
78.23856 133.000
78.25850 130.000
78.27845 144.000
78.29840 174.000
78.31834 152.000
78.33829 173.000
78.35824 168.000
78.37819 154.000
78.39813 169.000
78.41808 178.000
78.43803 181.000
78.45797 159.000
78.47792 172.000
78.49787 181.000
78.51781 175.000
78.53776 159.000
78.55771 154.000
78.57765 129.000
78.59760 154.000
78.61755 150.000
78.63750 146.000
78.65744 146.000
78.67739 151.000
78.69734 140.000
78.71728 124.000
78.73723 108.000
78.75718 126.000
78.77712 134.000
78.79707 108.000
78.81702 112.000
78.83697 92.000
78.85691 117.000
78.87686 84.000
78.89681 103.000
78.91675 92.000
78.93670 88.000
78.95665 91.000
78.97659 78.000
78.99654 100.000
79.01649 88.000
79.03643 84.000
79.05638 89.000
79.07633 80.000
79.09628 65.000
79.11622 68.000
79.13617 77.000
79.15612 98.000
79.17606 105.000
79.19601 118.000
79.21596 95.000
79.23590 116.000
79.25585 124.000
79.27580 122.000
79.29575 129.000
79.31569 128.000
79.33564 144.000
79.35559 108.000
79.37553 122.000
79.39548 131.000
79.41543 115.000
79.43537 126.000
79.45532 140.000
79.47527 136.000
79.49521 110.000
79.51516 112.000
79.53511 125.000
79.55506 130.000
79.57500 120.000
79.59495 128.000
79.61490 132.000
79.63484 115.000
79.65479 122.000
79.67474 121.000
79.69468 117.000
79.71463 100.000
79.73458 111.000
79.75453 98.000
79.77447 80.000
79.79442 82.000
79.81437 94.000
79.83431 94.000
79.85426 89.000
79.87421 104.000
79.89415 79.000
79.91410 89.000
79.93405 77.000
79.95399 65.000
79.97394 87.000
79.99389 71.000
80.01384 65.000
80.03378 67.000
80.05373 72.000
80.07368 67.000
80.09362 73.000
80.11357 73.000
80.13352 81.000
80.15346 72.000
80.17341 68.000
80.19336 63.000
80.21331 76.000
80.23325 78.000
80.25320 74.000
80.27315 70.000
80.29309 91.000
80.31304 59.000
80.33299 84.000
80.35293 86.000
80.37288 84.000
80.39283 83.000
80.41278 82.000
80.43272 88.000
80.45267 80.000
80.47262 92.000
80.49256 78.000
80.51251 77.000
80.53246 87.000
80.55240 65.000
80.57235 72.000
80.59230 85.000
80.61224 72.000
80.63219 68.000
80.65214 67.000
80.67209 71.000
80.69203 83.000
80.71198 82.000
80.73193 69.000
80.75187 87.000
80.77182 85.000
80.79177 93.000
80.81171 82.000
80.83166 72.000
80.85161 81.000
80.87156 78.000
80.89150 98.000
80.91145 66.000
80.93140 78.000
80.95134 73.000
80.97129 76.000
80.99124 82.000
81.01118 93.000
81.03113 70.000
81.05108 72.000
81.07102 77.000
81.09097 77.000
81.11092 87.000
81.13087 72.000
81.15081 65.000
81.17076 79.000
81.19071 67.000
81.21065 85.000
81.23060 84.000
81.25055 82.000
81.27049 82.000
81.29044 65.000
81.31039 56.000
81.33034 67.000
81.35028 79.000
81.37023 65.000
81.39018 69.000
81.41012 78.000
81.43007 61.000
81.45002 76.000
81.46996 54.000
81.48991 75.000
81.50986 77.000
81.52980 91.000
81.54975 70.000
81.56970 91.000
81.58965 66.000
81.60959 65.000
81.62954 73.000
81.64949 76.000
81.66943 57.000
81.68938 56.000
81.70933 58.000
81.72927 52.000
81.74922 74.000
81.76917 70.000
81.78912 65.000
81.80906 51.000
81.82901 63.000
81.84896 69.000
81.86890 92.000
81.88885 68.000
81.90880 60.000
81.92874 90.000
81.94869 58.000
81.96864 66.000
81.98859 77.000
82.00853 69.000
82.02848 65.000
82.04843 78.000
82.06837 71.000
82.08832 71.000
82.10827 62.000
82.12821 73.000
82.14816 56.000
82.16811 67.000
82.18805 73.000
82.20800 61.000
82.22795 47.000
82.24790 75.000
82.26784 80.000
82.28779 59.000
82.30774 81.000
82.32768 67.000
82.34763 61.000
82.36758 70.000
82.38752 80.000
82.40747 68.000
82.42742 79.000
82.44737 70.000
82.46731 75.000
82.48726 79.000
82.50721 66.000
82.52715 65.000
82.54710 65.000
82.56705 74.000
82.58699 56.000
82.60694 80.000
82.62689 69.000
82.64683 80.000
82.66678 65.000
82.68673 71.000
82.70668 72.000
82.72662 57.000
82.74657 70.000
82.76652 78.000
82.78646 77.000
82.80641 84.000
82.82636 78.000
82.84630 86.000
82.86625 68.000
82.88620 70.000
82.90615 59.000
82.92609 62.000
82.94604 80.000
82.96599 74.000
82.98593 74.000
83.00588 73.000
83.02583 57.000
83.04577 67.000
83.06572 66.000
83.08567 67.000
83.10561 85.000
83.12556 70.000
83.14551 76.000
83.16546 61.000
83.18540 67.000
83.20535 68.000
83.22530 67.000
83.24524 73.000
83.26519 75.000
83.28514 54.000
83.30508 79.000
83.32503 62.000
83.34498 70.000
83.36493 77.000
83.38487 86.000
83.40482 69.000
83.42477 75.000
83.44471 61.000
83.46466 63.000
83.48461 70.000
83.50455 77.000
83.52450 73.000
83.54445 74.000
83.56440 74.000
83.58434 67.000
83.60429 71.000
83.62424 77.000
83.64418 81.000
83.66413 77.000
83.68408 60.000
83.70402 76.000
83.72397 80.000
83.74392 60.000
83.76386 77.000
83.78381 63.000
83.80376 74.000
83.82371 79.000
83.84365 74.000
83.86360 70.000
83.88355 78.000
83.90349 74.000
83.92344 90.000
83.94339 90.000
83.96333 71.000
83.98328 75.000
84.00323 105.000
84.02318 84.000
84.04312 84.000
84.06307 90.000
84.08302 86.000
84.10296 97.000
84.12291 92.000
84.14286 100.000
84.16280 98.000
84.18275 122.000
84.20270 103.000
84.22264 94.000
84.24259 115.000
84.26254 103.000
84.28249 113.000
84.30243 112.000
84.32238 114.000
84.34233 117.000
84.36227 80.000
84.38222 140.000
84.40217 121.000
84.42211 137.000
84.44206 105.000
84.46201 114.000
84.48196 129.000
84.50190 134.000
84.52185 110.000
84.54180 131.000
84.56174 130.000
84.58169 104.000
84.60164 126.000
84.62158 101.000
84.64153 109.000
84.66148 94.000
84.68142 131.000
84.70137 94.000
84.72132 115.000
84.74127 112.000
84.76121 110.000
84.78116 110.000
84.80111 102.000
84.82105 99.000
84.84100 79.000
84.86095 89.000
84.88089 96.000
84.90084 92.000
84.92079 91.000
84.94074 90.000
84.96068 77.000
84.98063 65.000
85.00058 84.000
85.02052 87.000
85.04047 87.000
85.06042 80.000
85.08036 103.000
85.10031 73.000
85.12026 75.000
85.14021 67.000
85.16015 80.000
85.18010 64.000
85.20005 67.000
85.21999 66.000
85.23994 77.000
85.25989 53.000
85.27983 77.000
85.29978 82.000
85.31973 61.000
85.33967 65.000
85.35962 77.000
85.37957 81.000
85.39952 65.000
85.41946 69.000
85.43941 69.000
85.45936 62.000
85.47930 58.000
85.49925 74.000
85.51920 75.000
85.53914 79.000
85.55909 77.000
85.57904 65.000
85.59899 74.000
85.61893 75.000
85.63888 82.000
85.65883 65.000
85.67877 63.000
85.69872 67.000
85.71867 85.000
85.73861 59.000
85.75856 68.000
85.77851 84.000
85.79845 56.000
85.81840 73.000
85.83835 60.000
85.85830 61.000
85.87824 63.000
85.89819 68.000
85.91814 73.000
85.93808 82.000
85.95803 57.000
85.97798 79.000
85.99792 77.000
86.01787 79.000
86.03782 58.000
86.05777 67.000
86.07771 77.000
86.09766 67.000
86.11761 81.000
86.13755 70.000
86.15750 71.000
86.17745 77.000
86.19739 83.000
86.21734 67.000
86.23729 58.000
86.25723 68.000
86.27718 56.000
86.29713 63.000
86.31708 65.000
86.33702 55.000
86.35697 72.000
86.37692 66.000
86.39686 56.000
86.41681 84.000
86.43676 80.000
86.45670 74.000
86.47665 61.000
86.49660 69.000
86.51655 59.000
86.53649 55.000
86.55644 56.000
86.57639 76.000
86.59633 69.000
86.61628 70.000
86.63623 75.000
86.65617 75.000
86.67612 63.000
86.69607 63.000
86.71602 66.000
86.73596 84.000
86.75591 78.000
86.77586 88.000
86.79580 64.000
86.81575 81.000
86.83570 79.000
86.85564 76.000
86.87559 83.000
86.89554 81.000
86.91548 81.000
86.93543 83.000
86.95538 79.000
86.97533 92.000
86.99527 91.000
87.01522 69.000
87.03517 96.000
87.05511 87.000
87.07506 73.000
87.09501 87.000
87.11495 94.000
87.13490 88.000
87.15485 96.000
87.17480 72.000
87.19474 79.000
87.21469 93.000
87.23464 88.000
87.25458 101.000
87.27453 73.000
87.29448 100.000
87.31442 106.000
87.33437 96.000
87.35432 87.000
87.37426 88.000
87.39421 105.000
87.41416 92.000
87.43411 103.000
87.45405 121.000
87.47400 113.000
87.49395 114.000
87.51389 94.000
87.53384 108.000
87.55379 111.000
87.57373 122.000
87.59368 110.000
87.61363 107.000
87.63358 114.000
87.65352 91.000
87.67347 109.000
87.69342 111.000
87.71336 100.000
87.73331 107.000
87.75326 92.000
87.77320 84.000
87.79315 106.000
87.81310 113.000
87.83304 103.000
87.85299 100.000
87.87294 84.000
87.89289 100.000
87.91283 79.000
87.93278 96.000
87.95273 82.000
87.97267 84.000
87.99262 79.000
88.01257 87.000
88.03251 79.000
88.05246 85.000
88.07241 76.000
88.09236 75.000
88.11230 88.000
88.13225 59.000
88.15220 84.000
88.17214 92.000
88.19209 70.000
88.21204 81.000
88.23198 75.000
88.25193 63.000
88.27188 68.000
88.29183 82.000
88.31177 65.000
88.33172 71.000
88.35167 77.000
88.37161 70.000
88.39156 58.000
88.41151 64.000
88.43145 67.000
88.45140 78.000
88.47135 61.000
88.49129 59.000
88.51124 77.000
88.53119 54.000
88.55114 62.000
88.57108 71.000
88.59103 64.000
88.61098 75.000
88.63092 85.000
88.65087 73.000
88.67082 70.000
88.69076 75.000
88.71071 67.000
88.73066 70.000
88.75061 67.000
88.77055 67.000
88.79050 75.000
88.81045 67.000
88.83039 55.000
88.85034 98.000
88.87029 83.000
88.89023 72.000
88.91018 65.000
88.93013 77.000
88.95007 65.000
88.97002 68.000
88.98997 76.000
89.00992 50.000
89.02986 66.000
89.04981 62.000
89.06976 63.000
89.08970 58.000
89.10965 65.000
89.12960 63.000
89.14954 73.000
89.16949 78.000
89.18944 86.000
89.20939 75.000
89.22933 63.000
89.24928 65.000
89.26923 65.000
89.28917 60.000
89.30912 62.000
89.32907 71.000
89.34901 87.000
89.36896 69.000
89.38891 77.000
89.40885 76.000
89.42880 66.000
89.44875 75.000
89.46870 73.000
89.48864 72.000
89.50859 80.000
89.52854 66.000
89.54848 95.000
89.56843 62.000
89.58838 56.000
89.60832 77.000
89.62827 89.000
89.64822 66.000
89.66817 72.000
89.68811 72.000
89.70806 84.000
89.72801 66.000
89.74795 52.000
89.76790 71.000
89.78785 68.000
89.80779 65.000
89.82774 73.000
89.84769 84.000
89.86764 79.000
89.88758 75.000
89.90753 71.000
89.92748 73.000
89.94742 59.000
89.96737 65.000
89.98732 97.000
90.00726 70.000
