10.00000 46.000
10.01995 34.000
10.03989 52.000
10.05984 47.000
10.07979 39.000
10.09973 43.000
10.11968 41.000
10.13963 39.000
10.15958 32.000
10.17952 34.000
10.19947 31.000
10.21942 40.000
10.23936 27.000
10.25931 41.000
10.27926 51.000
10.29920 34.000
10.31915 45.000
10.33910 38.000
10.35905 36.000
10.37899 43.000
10.39894 35.000
10.41889 32.000
10.43883 35.000
10.45878 47.000
10.47873 41.000
10.49867 46.000
10.51862 37.000
10.53857 47.000
10.55851 29.000
10.57846 34.000
10.59841 25.000
10.61836 43.000
10.63830 36.000
10.65825 38.000
10.67820 38.000
10.69814 27.000
10.71809 30.000
10.73804 52.000
10.75798 46.000
10.77793 33.000
10.79788 41.000
10.81783 33.000
10.83777 36.000
10.85772 38.000
10.87767 54.000
10.89761 36.000
10.91756 34.000
10.93751 36.000
10.95745 33.000
10.97740 38.000
10.99735 42.000
11.01730 28.000
11.03724 31.000
11.05719 37.000
11.07714 33.000
11.09708 42.000
11.11703 48.000
11.13698 42.000
11.15692 52.000
11.17687 35.000
11.19682 42.000
11.21676 41.000
11.23671 42.000
11.25666 39.000
11.27661 44.000
11.29655 46.000
11.31650 51.000
11.33645 50.000
11.35639 66.000
11.37634 67.000
11.39629 57.000
11.41623 57.000
11.43618 67.000
11.45613 60.000
11.47608 64.000
11.49602 57.000
11.51597 46.000
11.53592 52.000
11.55586 53.000
11.57581 49.000
11.59576 49.000
11.61570 44.000
11.63565 43.000
11.65560 50.000
11.67554 39.000
11.69549 38.000
11.71544 54.000
11.73539 33.000
11.75533 44.000
11.77528 42.000
11.79523 53.000
11.81517 53.000
11.83512 41.000
11.85507 46.000
11.87501 48.000
11.89496 52.000
11.91491 42.000
11.93486 48.000
11.95480 44.000
11.97475 52.000
11.99470 58.000
12.01464 63.000
12.03459 67.000
12.05454 56.000
12.07448 44.000
12.09443 53.000
12.11438 47.000
12.13432 61.000
12.15427 63.000
12.17422 73.000
12.19417 82.000
12.21411 61.000
12.23406 87.000
12.25401 71.000
12.27395 69.000
12.29390 73.000
12.31385 90.000
12.33379 76.000
12.35374 98.000
12.37369 108.000
12.39364 123.000
12.41358 107.000
12.43353 133.000
12.45348 126.000
12.47342 155.000
12.49337 143.000
12.51332 189.000
12.53326 215.000
12.55321 250.000
12.57316 249.000
12.59311 326.000
12.61305 328.000
12.63300 308.000
12.65295 336.000
12.67289 327.000
12.69284 287.000
12.71279 306.000
12.73273 294.000
12.75268 247.000
12.77263 271.000
12.79257 221.000
12.81252 186.000
12.83247 208.000
12.85242 165.000
12.87236 187.000
12.89231 213.000
12.91226 162.000
12.93220 138.000
12.95215 176.000
12.97210 156.000
12.99204 176.000
13.01199 120.000
13.03194 120.000
13.05189 170.000
13.07183 138.000
13.09178 147.000
13.11173 132.000
13.13167 137.000
13.15162 133.000
13.17157 135.000
13.19151 120.000
13.21146 122.000
13.23141 136.000
13.25135 147.000
13.27130 132.000
13.29125 129.000
13.31120 140.000
13.33114 123.000
13.35109 134.000
13.37104 122.000
13.39098 136.000
13.41093 128.000
13.43088 132.000
13.45082 122.000
13.47077 127.000
13.49072 129.000
13.51067 150.000
13.53061 141.000
13.55056 130.000
13.57051 120.000
13.59045 134.000
13.61040 128.000
13.63035 126.000
13.65029 114.000
13.67024 146.000
13.69019 149.000
13.71013 135.000
13.73008 124.000
13.75003 167.000
13.76998 161.000
13.78992 144.000
13.80987 158.000
13.82982 150.000
13.84976 158.000
13.86971 139.000
13.88966 145.000
13.90960 145.000
13.92955 156.000
13.94950 139.000
13.96945 131.000
13.98939 162.000
14.00934 151.000
14.02929 147.000
14.04923 146.000
14.06918 163.000
14.08913 133.000
14.10907 144.000
14.12902 139.000
14.14897 162.000
14.16892 146.000
14.18886 177.000
14.20881 150.000
14.22876 176.000
14.24870 144.000
14.26865 136.000
14.28860 147.000
14.30854 156.000
14.32849 144.000
14.34844 150.000
14.36838 179.000
14.38833 145.000
14.40828 165.000
14.42823 150.000
14.44817 165.000
14.46812 163.000
14.48807 156.000
14.50801 165.000
14.52796 158.000
14.54791 160.000
14.56785 114.000
14.58780 145.000
14.60775 137.000
14.62770 167.000
14.64764 165.000
14.66759 182.000
14.68754 142.000
14.70748 137.000
14.72743 162.000
14.74738 144.000
14.76732 146.000
14.78727 174.000
14.80722 153.000
14.82716 163.000
14.84711 144.000
14.86706 162.000
14.88701 177.000
14.90695 166.000
14.92690 177.000
14.94685 165.000
14.96679 172.000
14.98674 164.000
15.00669 212.000
15.02663 213.000
15.04658 163.000
15.06653 190.000
15.08648 205.000
15.10642 207.000
15.12637 195.000
15.14632 201.000
15.16626 226.000
15.18621 204.000
15.20616 216.000
15.22610 198.000
15.24605 245.000
15.26600 232.000
15.28594 230.000
15.30589 261.000
15.32584 278.000
15.34579 264.000
15.36573 315.000
15.38568 320.000
15.40563 325.000
15.42557 359.000
15.44552 381.000
15.46547 443.000
15.48541 495.000
15.50536 557.000
15.52531 716.000
15.54526 902.000
15.56520 1166.000
15.58515 1664.000
15.60510 2150.000
15.62504 2660.000
15.64499 2493.000
15.66494 1844.000
15.68488 1186.000
15.70483 725.000
15.72478 415.000
15.74472 308.000
15.76467 222.000
15.78462 195.000
15.80457 152.000
15.82451 137.000
15.84446 136.000
15.86441 122.000
15.88435 119.000
15.90430 112.000
15.92425 99.000
15.94419 91.000
15.96414 91.000
15.98409 80.000
16.00404 79.000
16.02398 73.000
16.04393 76.000
16.06388 69.000
16.08382 68.000
16.10377 81.000
16.12372 73.000
16.14366 73.000
16.16361 70.000
16.18356 61.000
16.20351 53.000
16.22345 53.000
16.24340 65.000
16.26335 65.000
16.28329 57.000
16.30324 64.000
16.32319 56.000
16.34313 62.000
16.36308 52.000
16.38303 55.000
16.40297 71.000
16.42292 46.000
16.44287 55.000
16.46282 45.000
16.48276 45.000
16.50271 53.000
16.52266 55.000
16.54260 46.000
16.56255 47.000
16.58250 41.000
16.60244 43.000
16.62239 56.000
16.64234 50.000
16.66229 49.000
16.68223 44.000
16.70218 46.000
16.72213 39.000
16.74207 37.000
16.76202 50.000
16.78197 43.000
16.80191 39.000
16.82186 35.000
16.84181 45.000
16.86175 49.000
16.88170 41.000
16.90165 37.000
16.92160 43.000
16.94154 42.000
16.96149 40.000
16.98144 39.000
17.00138 38.000
17.02133 28.000
17.04128 35.000
17.06122 47.000
17.08117 43.000
17.10112 38.000
17.12107 54.000
17.14101 35.000
17.16096 47.000
17.18091 46.000
17.20085 30.000
17.22080 44.000
17.24075 44.000
17.26069 24.000
17.28064 37.000
17.30059 42.000
17.32053 36.000
17.34048 35.000
17.36043 54.000
17.38038 25.000
17.40032 22.000
17.42027 38.000
17.44022 41.000
17.46016 37.000
17.48011 33.000
17.50006 30.000
17.52000 37.000
17.53995 33.000
17.55990 41.000
17.57985 47.000
17.59979 35.000
17.61974 38.000
17.63969 37.000
17.65963 39.000
17.67958 47.000
17.69953 29.000
17.71947 31.000
17.73942 42.000
17.75937 34.000
17.77932 56.000
17.79926 41.000
17.81921 55.000
17.83916 43.000
17.85910 67.000
17.87905 84.000
17.89900 113.000
17.91894 176.000
17.93889 247.000
17.95884 457.000
17.97878 736.000
17.99873 705.000
18.01868 554.000
18.03863 446.000
18.05857 276.000
18.07852 158.000
18.09847 106.000
18.11841 94.000
18.13836 59.000
18.15831 57.000
18.17825 54.000
18.19820 50.000
18.21815 43.000
18.23810 44.000
18.25804 40.000
18.27799 36.000
18.29794 33.000
18.31788 33.000
18.33783 38.000
18.35778 26.000
18.37772 29.000
18.39767 29.000
18.41762 45.000
18.43756 45.000
18.45751 30.000
18.47746 47.000
18.49741 21.000
18.51735 34.000
18.53730 38.000
18.55725 41.000
18.57719 34.000
18.59714 30.000
18.61709 34.000
18.63703 40.000
18.65698 36.000
18.67693 25.000
18.69688 43.000
18.71682 45.000
18.73677 31.000
18.75672 39.000
18.77666 35.000
18.79661 27.000
18.81656 24.000
18.83650 26.000
18.85645 36.000
18.87640 37.000
18.89634 33.000
18.91629 42.000
18.93624 28.000
18.95619 30.000
18.97613 27.000
18.99608 44.000
19.01603 33.000
19.03597 32.000
19.05592 38.000
19.07587 38.000
19.09581 39.000
19.11576 26.000
19.13571 30.000
19.15566 39.000
19.17560 33.000
19.19555 41.000
19.21550 32.000
19.23544 34.000
19.25539 39.000
19.27534 38.000
19.29528 32.000
19.31523 36.000
19.33518 28.000
19.35513 33.000
19.37507 46.000
19.39502 36.000
19.41497 41.000
19.43491 33.000
19.45486 38.000
19.47481 32.000
19.49475 32.000
19.51470 21.000
19.53465 36.000
19.55459 35.000
19.57454 28.000
19.59449 34.000
19.61444 28.000
19.63438 37.000
19.65433 27.000
19.67428 38.000
19.69422 37.000
19.71417 27.000
19.73412 32.000
19.75406 25.000
19.77401 28.000
19.79396 33.000
19.81391 35.000
19.83385 24.000
19.85380 32.000
19.87375 33.000
19.89369 34.000
19.91364 33.000
19.93359 23.000
19.95353 25.000
19.97348 29.000
19.99343 31.000
20.01337 30.000
20.03332 38.000
20.05327 35.000
20.07322 36.000
20.09316 24.000
20.11311 46.000
20.13306 27.000
20.15300 31.000
20.17295 29.000
20.19290 23.000
20.21284 28.000
20.23279 28.000
20.25274 36.000
20.27269 32.000
20.29263 42.000
20.31258 37.000
20.33253 30.000
20.35247 25.000
20.37242 35.000
20.39237 29.000
20.41231 41.000
20.43226 37.000
20.45221 39.000
20.47215 38.000
20.49210 51.000
20.51205 47.000
20.53200 40.000
20.55194 33.000
20.57189 39.000
20.59184 34.000
20.61178 42.000
20.63173 28.000
20.65168 37.000
20.67162 28.000
20.69157 36.000
20.71152 34.000
20.73147 38.000
20.75141 41.000
20.77136 32.000
20.79131 39.000
20.81125 29.000
20.83120 38.000
20.85115 35.000
20.87109 33.000
20.89104 32.000
20.91099 40.000
20.93094 30.000
20.95088 20.000
20.97083 28.000
20.99078 46.000
21.01072 46.000
21.03067 45.000
21.05062 30.000
21.07056 38.000
21.09051 50.000
21.11046 49.000
21.13040 36.000
21.15035 38.000
21.17030 46.000
21.19025 35.000
21.21019 44.000
21.23014 29.000
21.25009 28.000
21.27003 33.000
21.28998 21.000
21.30993 39.000
21.32987 23.000
21.34982 25.000
21.36977 35.000
21.38972 35.000
21.40966 39.000
21.42961 24.000
21.44956 27.000
21.46950 36.000
21.48945 25.000
21.50940 42.000
21.52934 25.000
21.54929 24.000
21.56924 29.000
21.58918 40.000
21.60913 27.000
21.62908 39.000
21.64903 34.000
21.66897 40.000
21.68892 33.000
21.70887 25.000
21.72881 32.000
21.74876 31.000
21.76871 41.000
21.78865 24.000
21.80860 30.000
21.82855 37.000
21.84850 38.000
21.86844 31.000
21.88839 28.000
21.90834 29.000
21.92828 47.000
21.94823 32.000
21.96818 28.000
21.98812 23.000
22.00807 32.000
22.02802 42.000
22.04796 39.000
22.06791 34.000
22.08786 20.000
22.10781 29.000
22.12775 43.000
22.14770 39.000
22.16765 36.000
22.18759 32.000
22.20754 15.000
22.22749 26.000
22.24743 35.000
22.26738 33.000
22.28733 35.000
22.30728 41.000
22.32722 37.000
22.34717 39.000
22.36712 38.000
22.38706 37.000
22.40701 30.000
22.42696 29.000
22.44690 27.000
22.46685 28.000
22.48680 38.000
22.50675 32.000
22.52669 36.000
22.54664 27.000
22.56659 41.000
22.58653 41.000
22.60648 39.000
22.62643 36.000
22.64637 33.000
22.66632 37.000
22.68627 28.000
22.70621 31.000
22.72616 40.000
22.74611 31.000
22.76606 32.000
22.78600 32.000
22.80595 47.000
22.82590 40.000
22.84584 39.000
22.86579 26.000
22.88574 48.000
22.90568 30.000
22.92563 33.000
22.94558 36.000
22.96553 39.000
22.98547 40.000
23.00542 36.000
23.02537 36.000
23.04531 36.000
23.06526 24.000
23.08521 39.000
23.10515 27.000
23.12510 40.000
23.14505 37.000
23.16499 40.000
23.18494 40.000
23.20489 40.000
23.22484 28.000
23.24478 36.000
23.26473 40.000
23.28468 36.000
23.30462 44.000
23.32457 33.000
23.34452 42.000
23.36446 36.000
23.38441 30.000
23.40436 32.000
23.42431 32.000
23.44425 36.000
23.46420 38.000
23.48415 28.000
23.50409 39.000
23.52404 31.000
23.54399 31.000
23.56393 34.000
23.58388 43.000
23.60383 28.000
23.62377 31.000
23.64372 36.000
23.66367 35.000
23.68362 35.000
23.70356 42.000
23.72351 43.000
23.74346 37.000
23.76340 39.000
23.78335 29.000
23.80330 34.000
23.82324 34.000
23.84319 42.000
23.86314 37.000
23.88309 23.000
23.90303 27.000
23.92298 39.000
23.94293 33.000
23.96287 31.000
23.98282 41.000
24.00277 36.000
24.02271 31.000
24.04266 30.000
24.06261 48.000
24.08256 50.000
24.10250 49.000
24.12245 71.000
24.14240 88.000
24.16234 82.000
24.18229 58.000
24.20224 64.000
24.22218 53.000
24.24213 54.000
24.26208 44.000
24.28202 42.000
24.30197 51.000
24.32192 33.000
24.34187 30.000
24.36181 32.000
24.38176 33.000
24.40171 42.000
24.42165 50.000
24.44160 35.000
24.46155 36.000
24.48149 40.000
24.50144 34.000
24.52139 53.000
24.54134 37.000
24.56128 30.000
24.58123 39.000
24.60118 42.000
24.62112 44.000
24.64107 34.000
24.66102 37.000
24.68096 38.000
24.70091 39.000
24.72086 33.000
24.74080 37.000
24.76075 41.000
24.78070 33.000
24.80065 50.000
24.82059 45.000
24.84054 33.000
24.86049 32.000
24.88043 42.000
24.90038 47.000
24.92033 39.000
24.94027 48.000
24.96022 34.000
24.98017 43.000
25.00012 44.000
25.02006 58.000
25.04001 47.000
25.05996 49.000
25.07990 44.000
25.09985 51.000
25.11980 47.000
25.13974 55.000
25.15969 41.000
25.17964 47.000
25.19958 55.000
25.21953 53.000
25.23948 57.000
25.25943 54.000
25.27937 59.000
25.29932 70.000
25.31927 86.000
25.33921 77.000
25.35916 73.000
25.37911 87.000
25.39905 81.000
25.41900 101.000
25.43895 88.000
25.45890 99.000
25.47884 74.000
25.49879 77.000
25.51874 74.000
25.53868 87.000
25.55863 78.000
25.57858 63.000
25.59852 75.000
25.61847 61.000
25.63842 80.000
25.65837 64.000
25.67831 61.000
25.69826 51.000
25.71821 64.000
25.73815 66.000
25.75810 50.000
25.77805 64.000
25.79799 55.000
25.81794 55.000
25.83789 56.000
25.85783 53.000
25.87778 61.000
25.89773 47.000
25.91768 46.000
25.93762 56.000
25.95757 46.000
25.97752 41.000
25.99746 45.000
26.01741 46.000
26.03736 41.000
26.05730 41.000
26.07725 44.000
26.09720 47.000
26.11715 46.000
26.13709 43.000
26.15704 58.000
26.17699 41.000
26.19693 50.000
26.21688 35.000
26.23683 37.000
26.25677 43.000
26.27672 34.000
26.29667 50.000
26.31661 38.000
26.33656 43.000
26.35651 44.000
26.37646 42.000
26.39640 38.000
26.41635 46.000
26.43630 31.000
26.45624 49.000
26.47619 50.000
26.49614 36.000
26.51608 42.000
26.53603 40.000
26.55598 36.000
26.57593 49.000
26.59587 60.000
26.61582 40.000
26.63577 38.000
26.65571 50.000
26.67566 43.000
26.69561 40.000
26.71555 46.000
26.73550 45.000
26.75545 47.000
26.77539 37.000
26.79534 47.000
26.81529 50.000
26.83524 41.000
26.85518 50.000
26.87513 53.000
26.89508 32.000
26.91502 39.000
26.93497 49.000
26.95492 45.000
26.97486 35.000
26.99481 40.000
27.01476 45.000
27.03471 48.000
27.05465 51.000
27.07460 37.000
27.09455 47.000
27.11449 47.000
27.13444 44.000
27.15439 40.000
27.17433 48.000
27.19428 50.000
27.21423 55.000
27.23417 40.000
27.25412 35.000
27.27407 39.000
27.29402 24.000
27.31396 38.000
27.33391 34.000
27.35386 47.000
27.37380 41.000
27.39375 42.000
27.41370 45.000
27.43364 37.000
27.45359 51.000
27.47354 38.000
27.49349 44.000
27.51343 61.000
27.53338 41.000
27.55333 46.000
27.57327 64.000
27.59322 41.000
27.61317 53.000
27.63311 54.000
27.65306 49.000
27.67301 46.000
27.69296 30.000
27.71290 44.000
27.73285 54.000
27.75280 36.000
27.77274 40.000
27.79269 42.000
27.81264 45.000
27.83258 47.000
27.85253 48.000
27.87248 47.000
27.89242 54.000
27.91237 47.000
27.93232 37.000
27.95227 36.000
27.97221 61.000
27.99216 45.000
28.01211 53.000
28.03205 53.000
28.05200 43.000
28.07195 51.000
28.09189 56.000
28.11184 59.000
28.13179 40.000
28.15174 43.000
28.17168 56.000
28.19163 41.000
28.21158 43.000
28.23152 37.000
28.25147 33.000
28.27142 62.000
28.29136 37.000
28.31131 53.000
28.33126 39.000
28.35120 49.000
28.37115 40.000
28.39110 49.000
28.41105 39.000
28.43099 44.000
28.45094 56.000
28.47089 57.000
28.49083 38.000
28.51078 56.000
28.53073 44.000
28.55067 34.000
28.57062 51.000
28.59057 47.000
28.61052 42.000
28.63046 49.000
28.65041 50.000
28.67036 53.000
28.69030 62.000
28.71025 56.000
28.73020 58.000
28.75014 55.000
28.77009 63.000
28.79004 55.000
28.80998 49.000
28.82993 55.000
28.84988 59.000
28.86983 57.000
28.88977 52.000
28.90972 48.000
28.92967 39.000
28.94961 53.000
28.96956 50.000
28.98951 47.000
29.00945 46.000
29.02940 61.000
29.04935 52.000
29.06930 34.000
29.08924 47.000
29.10919 53.000
29.12914 51.000
29.14908 57.000
29.16903 52.000
29.18898 51.000
29.20892 44.000
29.22887 49.000
29.24882 45.000
29.26877 58.000
29.28871 47.000
29.30866 43.000
29.32861 57.000
29.34855 69.000
29.36850 60.000
29.38845 50.000
29.40839 80.000
29.42834 63.000
29.44829 78.000
29.46823 123.000
29.48818 182.000
29.50813 205.000
29.52808 238.000
29.54802 254.000
29.56797 258.000
29.58792 292.000
29.60786 285.000
29.62781 282.000
29.64776 241.000
29.66770 263.000
29.68765 213.000
29.70760 212.000
29.72755 178.000
29.74749 153.000
29.76744 135.000
29.78739 108.000
29.80733 85.000
29.82728 87.000
29.84723 79.000
29.86717 73.000
29.88712 58.000
29.90707 63.000
29.92701 51.000
29.94696 63.000
29.96691 48.000
29.98686 51.000
30.00680 47.000
30.02675 71.000
30.04670 53.000
30.06664 69.000
30.08659 73.000
30.10654 60.000
30.12648 69.000
30.14643 69.000
30.16638 72.000
30.18633 75.000
30.20627 45.000
30.22622 56.000
30.24617 67.000
30.26611 64.000
30.28606 58.000
30.30601 60.000
30.32595 58.000
30.34590 60.000
30.36585 56.000
30.38579 66.000
30.40574 58.000
30.42569 51.000
30.44564 45.000
30.46558 43.000
30.48553 58.000
30.50548 43.000
30.52542 52.000
30.54537 54.000
30.56532 56.000
30.58526 46.000
30.60521 57.000
30.62516 45.000
30.64511 55.000
30.66505 54.000
30.68500 59.000
30.70495 67.000
30.72489 60.000
30.74484 51.000
30.76479 48.000
30.78473 40.000
30.80468 53.000
30.82463 56.000
30.84458 51.000
30.86452 39.000
30.88447 63.000
30.90442 48.000
30.92436 62.000
30.94431 51.000
30.96426 36.000
30.98420 57.000
31.00415 56.000
31.02410 54.000
31.04404 42.000
31.06399 43.000
31.08394 58.000
31.10389 59.000
31.12383 57.000
31.14378 50.000
31.16373 59.000
31.18367 55.000
31.20362 59.000
31.22357 56.000
31.24351 54.000
31.26346 60.000
31.28341 47.000
31.30336 61.000
31.32330 62.000
31.34325 72.000
31.36320 63.000
31.38314 60.000
31.40309 69.000
31.42304 69.000
31.44298 87.000
31.46293 107.000
31.48288 112.000
31.50282 128.000
31.52277 141.000
31.54272 192.000
31.56267 222.000
31.58261 227.000
31.60256 175.000
31.62251 173.000
31.64245 147.000
31.66240 157.000
31.68235 120.000
31.70229 96.000
31.72224 98.000
31.74219 81.000
31.76214 70.000
31.78208 63.000
31.80203 59.000
31.82198 60.000
31.84192 53.000
31.86187 54.000
31.88182 46.000
31.90176 61.000
31.92171 55.000
31.94166 54.000
31.96160 69.000
31.98155 58.000
32.00150 61.000
32.02145 51.000
32.04139 47.000
32.06134 41.000
32.08129 55.000
32.10123 47.000
32.12118 38.000
32.14113 55.000
32.16107 42.000
32.18102 41.000
32.20097 52.000
32.22092 41.000
32.24086 44.000
32.26081 48.000
32.28076 56.000
32.30070 36.000
32.32065 38.000
32.34060 39.000
32.36054 49.000
32.38049 42.000
32.40044 45.000
32.42039 35.000
32.44033 46.000
32.46028 50.000
32.48023 43.000
32.50017 34.000
32.52012 45.000
32.54007 41.000
32.56001 40.000
32.57996 45.000
32.59991 43.000
32.61985 42.000
32.63980 50.000
32.65975 32.000
32.67970 37.000
32.69964 46.000
32.71959 51.000
32.73954 32.000
32.75948 47.000
32.77943 50.000
32.79938 37.000
32.81932 43.000
32.83927 52.000
32.85922 52.000
32.87917 33.000
32.89911 61.000
32.91906 43.000
32.93901 55.000
32.95895 50.000
32.97890 49.000
32.99885 47.000
33.01879 45.000
33.03874 54.000
33.05869 57.000
33.07863 71.000
33.09858 66.000
33.11853 105.000
33.13848 147.000
33.15842 162.000
33.17837 159.000
33.19832 108.000
33.21826 104.000
33.23821 129.000
33.25816 111.000
33.27810 101.000
33.29805 85.000
33.31800 61.000
33.33795 63.000
33.35789 56.000
33.37784 57.000
33.39779 52.000
33.41773 43.000
33.43768 50.000
33.45763 43.000
33.47757 46.000
33.49752 47.000
33.51747 41.000
33.53741 59.000
33.55736 62.000
33.57731 53.000
33.59726 37.000
33.61720 42.000
33.63715 39.000
33.65710 32.000
33.67704 45.000
33.69699 31.000
33.71694 50.000
33.73688 34.000
33.75683 47.000
33.77678 49.000
33.79673 47.000
33.81667 57.000
33.83662 45.000
33.85657 46.000
33.87651 55.000
33.89646 39.000
33.91641 53.000
33.93635 51.000
33.95630 51.000
33.97625 40.000
33.99620 41.000
34.01614 49.000
34.03609 51.000
34.05604 42.000
34.07598 55.000
34.09593 55.000
34.11588 53.000
34.13582 51.000
34.15577 56.000
34.17572 41.000
34.19566 63.000
34.21561 42.000
34.23556 51.000
34.25551 58.000
34.27545 68.000
34.29540 56.000
34.31535 71.000
34.33529 75.000
34.35524 66.000
34.37519 71.000
34.39513 61.000
34.41508 72.000
34.43503 61.000
34.45498 79.000
34.47492 107.000
34.49487 111.000
34.51482 119.000
34.53476 143.000
34.55471 138.000
34.57466 169.000
34.59460 218.000
34.61455 272.000
34.63450 313.000
34.65444 310.000
34.67439 362.000
34.69434 344.000
34.71429 353.000
34.73423 371.000
34.75418 375.000
34.77413 426.000
34.79407 409.000
34.81402 430.000
34.83397 479.000
34.85391 596.000
34.87386 671.000
34.89381 890.000
34.91376 1004.000
34.93370 898.000
34.95365 899.000
34.97360 837.000
34.99354 760.000
35.01349 660.000
35.03344 535.000
35.05338 409.000
35.07333 368.000
35.09328 247.000
35.11322 217.000
35.13317 182.000
35.15312 150.000
35.17307 139.000
35.19301 132.000
35.21296 131.000
35.23291 104.000
35.25285 115.000
35.27280 105.000
35.29275 97.000
35.31269 116.000
35.33264 131.000
35.35259 120.000
35.37254 162.000
35.39248 134.000
35.41243 160.000
35.43238 188.000
35.45232 269.000
35.47227 309.000
35.49222 377.000
35.51216 454.000
35.53211 483.000
35.55206 489.000
35.57201 447.000
35.59195 446.000
35.61190 395.000
35.63185 413.000
35.65179 322.000
35.67174 278.000
35.69169 224.000
35.71163 248.000
35.73158 170.000
35.75153 154.000
35.77147 132.000
35.79142 114.000
35.81137 109.000
35.83132 100.000
35.85126 77.000
35.87121 80.000
35.89116 77.000
35.91110 98.000
35.93105 75.000
35.95100 70.000
35.97094 72.000
35.99089 74.000
36.01084 60.000
36.03079 63.000
36.05073 73.000
36.07068 79.000
36.09063 76.000
36.11057 65.000
36.13052 85.000
36.15047 70.000
36.17041 82.000
36.19036 82.000
36.21031 78.000
36.23025 74.000
36.25020 91.000
36.27015 72.000
36.29010 74.000
36.31004 85.000
36.32999 97.000
36.34994 93.000
36.36988 137.000
36.38983 157.000
36.40978 222.000
36.42972 224.000
36.44967 237.000
36.46962 200.000
36.48957 185.000
36.50951 186.000
36.52946 173.000
36.54941 132.000
36.56935 137.000
36.58930 109.000
36.60925 103.000
36.62919 76.000
36.64914 67.000
36.66909 69.000
36.68903 54.000
36.70898 58.000
36.72893 47.000
36.74888 59.000
36.76882 58.000
36.78877 48.000
36.80872 41.000
36.82866 55.000
36.84861 42.000
36.86856 52.000
36.88850 45.000
36.90845 56.000
36.92840 43.000
36.94835 57.000
36.96829 51.000
36.98824 52.000
37.00819 56.000
37.02813 50.000
37.04808 46.000
37.06803 45.000
37.08797 42.000
37.10792 53.000
37.12787 42.000
37.14781 60.000
37.16776 69.000
37.18771 56.000
37.20766 61.000
37.22760 58.000
37.24755 44.000
37.26750 58.000
37.28744 51.000
37.30739 65.000
37.32734 55.000
37.34728 42.000
37.36723 60.000
37.38718 57.000
37.40713 55.000
37.42707 54.000
37.44702 61.000
37.46697 59.000
37.48691 46.000
37.50686 82.000
37.52681 68.000
37.54675 74.000
37.56670 73.000
37.58665 80.000
37.60660 86.000
37.62654 95.000
37.64649 90.000
37.66644 73.000
37.68638 76.000
37.70633 88.000
37.72628 91.000
37.74622 74.000
37.76617 109.000
37.78612 95.000
37.80606 107.000
37.82601 102.000
37.84596 81.000
37.86591 98.000
37.88585 106.000
37.90580 108.000
37.92575 97.000
37.94569 104.000
37.96564 92.000
37.98559 122.000
38.00553 104.000
38.02548 91.000
38.04543 105.000
38.06538 120.000
38.08532 92.000
38.10527 85.000
38.12522 98.000
38.14516 87.000
38.16511 115.000
38.18506 103.000
38.20500 102.000
38.22495 102.000
38.24490 90.000
38.26484 108.000
38.28479 112.000
38.30474 110.000
38.32469 115.000
38.34463 109.000
38.36458 111.000
38.38453 119.000
38.40447 93.000
38.42442 109.000
38.44437 95.000
38.46431 122.000
38.48426 122.000
38.50421 111.000
38.52416 112.000
38.54410 124.000
38.56405 110.000
38.58400 118.000
38.60394 118.000
38.62389 126.000
38.64384 137.000
38.66378 150.000
38.68373 122.000
38.70368 144.000
38.72362 126.000
38.74357 125.000
38.76352 166.000
38.78347 165.000
38.80341 150.000
38.82336 167.000
38.84331 172.000
38.86325 192.000
38.88320 255.000
38.90315 275.000
38.92309 259.000
38.94304 282.000
38.96299 366.000
38.98294 395.000
39.00288 454.000
39.02283 556.000
39.04278 551.000
39.06272 467.000
39.08267 422.000
39.10262 441.000
39.12256 383.000
39.14251 376.000
39.16246 312.000
39.18241 256.000
39.20235 216.000
39.22230 189.000
39.24225 176.000
39.26219 129.000
39.28214 115.000
39.30209 99.000
39.32203 87.000
39.34198 73.000
39.36193 99.000
39.38187 83.000
39.40182 80.000
39.42177 80.000
39.44172 61.000
39.46166 73.000
39.48161 56.000
39.50156 68.000
39.52150 46.000
39.54145 61.000
39.56140 67.000
39.58134 51.000
39.60129 44.000
39.62124 51.000
39.64119 56.000
39.66113 43.000
39.68108 51.000
39.70103 43.000
39.72097 50.000
39.74092 45.000
39.76087 49.000
39.78081 59.000
39.80076 48.000
39.82071 55.000
39.84065 42.000
39.86060 52.000
39.88055 44.000
39.90050 65.000
39.92044 47.000
39.94039 33.000
39.96034 53.000
39.98028 53.000
40.00023 43.000
40.02018 62.000
40.04012 34.000
40.06007 54.000
40.08002 50.000
40.09997 50.000
40.11991 49.000
40.13986 41.000
40.15981 56.000
40.17975 41.000
40.19970 45.000
40.21965 42.000
40.23959 53.000
40.25954 34.000
40.27949 39.000
40.29943 46.000
40.31938 48.000
40.33933 33.000
40.35928 41.000
40.37922 43.000
40.39917 50.000
40.41912 50.000
40.43906 33.000
40.45901 49.000
40.47896 45.000
40.49890 36.000
40.51885 46.000
40.53880 47.000
40.55875 32.000
40.57869 44.000
40.59864 39.000
40.61859 51.000
40.63853 49.000
40.65848 36.000
40.67843 44.000
40.69837 44.000
40.71832 43.000
40.73827 40.000
40.75822 36.000
40.77816 48.000
40.79811 43.000
40.81806 65.000
40.83800 68.000
40.85795 73.000
40.87790 68.000
40.89784 50.000
40.91779 50.000
40.93774 60.000
40.95768 45.000
40.97763 48.000
40.99758 46.000
41.01753 43.000
41.03747 65.000
41.05742 57.000
41.07737 44.000
41.09731 51.000
41.11726 42.000
41.13721 48.000
41.15715 50.000
41.17710 49.000
41.19705 46.000
41.21700 47.000
41.23694 45.000
41.25689 49.000
41.27684 48.000
41.29678 48.000
41.31673 43.000
41.33668 47.000
41.35662 52.000
41.37657 47.000
41.39652 47.000
41.41646 58.000
41.43641 55.000
41.45636 51.000
41.47631 51.000
41.49625 51.000
41.51620 48.000
41.53615 59.000
41.55609 45.000
41.57604 46.000
41.59599 64.000
41.61593 61.000
41.63588 45.000
41.65583 51.000
41.67578 48.000
41.69572 43.000
41.71567 57.000
41.73562 63.000
41.75556 66.000
41.77551 50.000
41.79546 50.000
41.81540 69.000
41.83535 49.000
41.85530 73.000
41.87524 74.000
41.89519 87.000
41.91514 70.000
41.93509 93.000
41.95503 95.000
41.97498 97.000
41.99493 108.000
42.01487 127.000
42.03482 109.000
42.05477 117.000
42.07471 100.000
42.09466 111.000
42.11461 93.000
42.13456 115.000
42.15450 106.000
42.17445 101.000
42.19440 97.000
42.21434 112.000
42.23429 116.000
42.25424 118.000
42.27418 91.000
42.29413 130.000
42.31408 134.000
42.33403 125.000
42.35397 173.000
42.37392 156.000
42.39387 158.000
42.41381 211.000
42.43376 239.000
42.45371 277.000
42.47365 276.000
42.49360 270.000
42.51355 252.000
42.53349 219.000
42.55344 219.000
42.57339 220.000
42.59334 179.000
42.61328 163.000
42.63323 153.000
42.65318 132.000
42.67312 111.000
42.69307 98.000
42.71302 77.000
42.73296 85.000
42.75291 79.000
42.77286 90.000
42.79281 82.000
42.81275 90.000
42.83270 89.000
42.85265 85.000
42.87259 83.000
42.89254 81.000
42.91249 90.000
42.93243 102.000
42.95238 82.000
42.97233 109.000
42.99227 129.000
43.01222 174.000
43.03217 153.000
43.05212 187.000
43.07206 178.000
43.09201 194.000
43.11196 167.000
43.13190 193.000
43.15185 165.000
43.17180 134.000
43.19174 144.000
43.21169 154.000
43.23164 111.000
43.25159 106.000
43.27153 99.000
43.29148 100.000
43.31143 98.000
43.33137 82.000
43.35132 85.000
43.37127 78.000
43.39121 60.000
43.41116 70.000
43.43111 63.000
43.45105 65.000
43.47100 63.000
43.49095 69.000
43.51090 47.000
43.53084 49.000
43.55079 60.000
43.57074 48.000
43.59068 51.000
43.61063 63.000
43.63058 55.000
43.65052 45.000
43.67047 47.000
43.69042 55.000
43.71037 43.000
43.73031 56.000
43.75026 59.000
43.77021 57.000
43.79015 58.000
43.81010 64.000
43.83005 65.000
43.84999 40.000
43.86994 46.000
43.88989 64.000
43.90984 53.000
43.92978 55.000
43.94973 50.000
43.96968 63.000
43.98962 43.000
44.00957 54.000
44.02952 46.000
44.04946 65.000
44.06941 49.000
44.08936 48.000
44.10930 44.000
44.12925 59.000
44.14920 50.000
44.16915 60.000
44.18909 60.000
44.20904 52.000
44.22899 67.000
44.24893 52.000
44.26888 53.000
44.28883 54.000
44.30877 73.000
44.32872 60.000
44.34867 53.000
44.36862 61.000
44.38856 43.000
44.40851 41.000
44.42846 46.000
44.44840 42.000
44.46835 42.000
44.48830 49.000
44.50824 45.000
44.52819 52.000
44.54814 52.000
44.56808 57.000
44.58803 43.000
44.60798 42.000
44.62793 51.000
44.64787 43.000
44.66782 55.000
44.68777 55.000
44.70771 42.000
44.72766 40.000
44.74761 44.000
44.76755 38.000
44.78750 48.000
44.80745 47.000
44.82740 59.000
44.84734 50.000
44.86729 45.000
44.88724 46.000
44.90718 48.000
44.92713 38.000
44.94708 51.000
44.96702 34.000
44.98697 46.000
45.00692 34.000
45.02686 36.000
45.04681 41.000
45.06676 24.000
45.08671 27.000
45.10665 39.000
45.12660 42.000
45.14655 44.000
45.16649 30.000
45.18644 36.000
45.20639 39.000
45.22633 43.000
45.24628 41.000
45.26623 47.000
45.28618 52.000
45.30612 32.000
45.32607 40.000
45.34602 51.000
45.36596 50.000
45.38591 34.000
45.40586 39.000
45.42580 50.000
45.44575 36.000
45.46570 38.000
45.48565 58.000
45.50559 34.000
45.52554 30.000
45.54549 51.000
45.56543 33.000
45.58538 39.000
45.60533 43.000
45.62527 43.000
45.64522 43.000
45.66517 30.000
45.68511 46.000
45.70506 47.000
45.72501 37.000
45.74496 35.000
45.76490 47.000
45.78485 44.000
45.80480 50.000
45.82474 53.000
45.84469 34.000
45.86464 47.000
45.88458 53.000
45.90453 50.000
45.92448 48.000
45.94443 34.000
45.96437 34.000
45.98432 38.000
46.00427 58.000
46.02421 38.000
46.04416 41.000
46.06411 63.000
46.08405 42.000
46.10400 43.000
46.12395 37.000
46.14389 45.000
46.16384 59.000
46.18379 40.000
46.20374 51.000
46.22368 57.000
46.24363 39.000
46.26358 53.000
46.28352 57.000
46.30347 51.000
46.32342 61.000
46.34336 51.000
46.36331 49.000
46.38326 50.000
46.40321 52.000
46.42315 50.000
46.44310 54.000
46.46305 57.000
46.48299 52.000
46.50294 46.000
46.52289 37.000
46.54283 47.000
46.56278 47.000
46.58273 59.000
46.60267 54.000
46.62262 53.000
46.64257 42.000
46.66252 54.000
46.68246 45.000
46.70241 46.000
46.72236 43.000
46.74230 47.000
46.76225 58.000
46.78220 46.000
46.80214 50.000
46.82209 40.000
46.84204 46.000
46.86199 47.000
46.88193 47.000
46.90188 52.000
46.92183 49.000
46.94177 43.000
46.96172 29.000
46.98167 53.000
47.00161 40.000
47.02156 47.000
47.04151 58.000
47.06146 33.000
47.08140 45.000
47.10135 53.000
47.12130 61.000
47.14124 55.000
47.16119 46.000
47.18114 53.000
47.20108 47.000
47.22103 48.000
47.24098 44.000
47.26092 45.000
47.28087 41.000
47.30082 47.000
47.32077 45.000
47.34071 55.000
47.36066 52.000
47.38061 55.000
47.40055 44.000
47.42050 49.000
47.44045 42.000
47.46039 63.000
47.48034 59.000
47.50029 46.000
47.52024 41.000
47.54018 50.000
47.56013 59.000
47.58008 63.000
47.60002 57.000
47.61997 55.000
47.63992 58.000
47.65986 51.000
47.67981 60.000
47.69976 61.000
47.71970 61.000
47.73965 61.000
47.75960 60.000
47.77955 61.000
47.79949 73.000
47.81944 73.000
47.83939 77.000
47.85933 65.000
47.87928 87.000
47.89923 72.000
47.91917 67.000
47.93912 87.000
47.95907 91.000
47.97902 88.000
47.99896 118.000
48.01891 101.000
48.03886 110.000
48.05880 96.000
48.07875 144.000
48.09870 123.000
48.11864 171.000
48.13859 170.000
48.15854 215.000
48.17848 258.000
48.19843 299.000
48.21838 362.000
48.23833 382.000
48.25827 383.000
48.27822 381.000
48.29817 372.000
48.31811 326.000
48.33806 314.000
48.35801 292.000
48.37795 309.000
48.39790 294.000
48.41785 258.000
48.43780 190.000
48.45774 204.000
48.47769 177.000
48.49764 145.000
48.51758 135.000
48.53753 107.000
48.55748 91.000
48.57742 104.000
48.59737 89.000
48.61732 83.000
48.63726 73.000
48.65721 95.000
48.67716 68.000
48.69711 72.000
48.71705 69.000
48.73700 61.000
48.75695 59.000
48.77689 74.000
48.79684 70.000
48.81679 59.000
48.83673 55.000
48.85668 54.000
48.87663 60.000
48.89658 55.000
48.91652 59.000
48.93647 47.000
48.95642 51.000
48.97636 55.000
48.99631 51.000
49.01626 53.000
49.03620 47.000
49.05615 55.000
49.07610 43.000
49.09605 53.000
49.11599 48.000
49.13594 43.000
49.15589 38.000
49.17583 54.000
49.19578 43.000
49.21573 57.000
49.23567 50.000
49.25562 50.000
49.27557 51.000
49.29551 57.000
49.31546 42.000
49.33541 43.000
49.35536 52.000
49.37530 59.000
49.39525 50.000
49.41520 61.000
49.43514 70.000
49.45509 66.000
49.47504 72.000
49.49498 67.000
49.51493 50.000
49.53488 62.000
49.55483 69.000
49.57477 59.000
49.59472 56.000
49.61467 44.000
49.63461 53.000
49.65456 44.000
49.67451 32.000
49.69445 36.000
49.71440 49.000
49.73435 39.000
49.75429 32.000
49.77424 40.000
49.79419 43.000
49.81414 38.000
49.83408 36.000
49.85403 33.000
49.87398 35.000
49.89392 41.000
49.91387 39.000
49.93382 51.000
49.95376 38.000
49.97371 33.000
49.99366 38.000
50.01361 33.000
50.03355 36.000
50.05350 39.000
50.07345 33.000
50.09339 47.000
50.11334 38.000
50.13329 33.000
50.15323 34.000
50.17318 38.000
50.19313 39.000
50.21307 35.000
50.23302 33.000
50.25297 41.000
50.27292 45.000
50.29286 36.000
50.31281 31.000
50.33276 32.000
50.35270 29.000
50.37265 36.000
50.39260 37.000
50.41254 34.000
50.43249 40.000
50.45244 37.000
50.47239 42.000
50.49233 39.000
50.51228 42.000
50.53223 44.000
50.55217 36.000
50.57212 48.000
50.59207 46.000
50.61201 28.000
50.63196 28.000
50.65191 38.000
50.67186 37.000
50.69180 34.000
50.71175 34.000
50.73170 39.000
50.75164 32.000
50.77159 30.000
50.79154 32.000
50.81148 42.000
50.83143 27.000
50.85138 41.000
50.87132 39.000
50.89127 41.000
50.91122 33.000
50.93117 34.000
50.95111 30.000
50.97106 38.000
50.99101 33.000
51.01095 33.000
51.03090 33.000
51.05085 34.000
51.07079 52.000
51.09074 36.000
51.11069 38.000
51.13064 31.000
51.15058 30.000
51.17053 44.000
51.19048 33.000
51.21042 31.000
51.23037 35.000
51.25032 44.000
51.27026 36.000
51.29021 39.000
51.31016 37.000
51.33010 35.000
51.35005 37.000
51.37000 35.000
51.38995 31.000
51.40989 28.000
51.42984 34.000
51.44979 32.000
51.46973 45.000
51.48968 37.000
51.50963 38.000
51.52957 34.000
51.54952 32.000
51.56947 37.000
51.58942 44.000
51.60936 35.000
51.62931 43.000
51.64926 35.000
51.66920 34.000
51.68915 33.000
51.70910 34.000
51.72904 30.000
51.74899 31.000
51.76894 32.000
51.78888 38.000
51.80883 28.000
51.82878 29.000
51.84873 27.000
51.86867 41.000
51.88862 43.000
51.90857 34.000
51.92851 26.000
51.94846 31.000
51.96841 41.000
51.98835 35.000
52.00830 34.000
52.02825 29.000
52.04820 42.000
52.06814 34.000
52.08809 26.000
52.10804 33.000
52.12798 32.000
52.14793 39.000
52.16788 53.000
52.18782 52.000
52.20777 48.000
52.22772 60.000
52.24767 54.000
52.26761 54.000
52.28756 55.000
52.30751 55.000
52.32745 51.000
52.34740 56.000
52.36735 61.000
52.38729 49.000
52.40724 55.000
52.42719 58.000
52.44713 62.000
52.46708 53.000
52.48703 47.000
52.50698 68.000
52.52692 76.000
52.54687 73.000
52.56682 86.000
52.58676 93.000
52.60671 77.000
52.62666 103.000
52.64660 78.000
52.66655 72.000
52.68650 72.000
52.70645 88.000
52.72639 70.000
52.74634 59.000
52.76629 74.000
52.78623 41.000
52.80618 58.000
52.82613 48.000
52.84607 41.000
52.86602 53.000
52.88597 42.000
52.90591 50.000
52.92586 36.000
52.94581 46.000
52.96576 35.000
52.98570 43.000
53.00565 34.000
53.02560 45.000
53.04554 32.000
53.06549 44.000
53.08544 35.000
53.10538 30.000
53.12533 29.000
53.14528 46.000
53.16523 34.000
53.18517 51.000
53.20512 39.000
53.22507 38.000
53.24501 42.000
53.26496 35.000
53.28491 37.000
53.30485 36.000
53.32480 37.000
53.34475 44.000
53.36469 41.000
53.38464 45.000
53.40459 45.000
53.42454 34.000
53.44448 42.000
53.46443 42.000
53.48438 39.000
53.50432 42.000
53.52427 46.000
53.54422 37.000
53.56416 42.000
53.58411 40.000
53.60406 43.000
53.62401 38.000
53.64395 30.000
53.66390 37.000
53.68385 43.000
53.70379 54.000
53.72374 37.000
53.74369 34.000
53.76363 30.000
53.78358 45.000
53.80353 37.000
53.82348 41.000
53.84342 39.000
53.86337 38.000
53.88332 42.000
53.90326 32.000
53.92321 31.000
53.94316 41.000
53.96310 36.000
53.98305 43.000
54.00300 43.000
54.02294 51.000
54.04289 49.000
54.06284 70.000
54.08279 75.000
54.10273 85.000
54.12268 68.000
54.14263 50.000
54.16257 52.000
54.18252 61.000
54.20247 71.000
54.22241 60.000
54.24236 51.000
54.26231 57.000
54.28226 43.000
54.30220 49.000
54.32215 44.000
54.34210 30.000
54.36204 49.000
54.38199 32.000
54.40194 32.000
54.42188 31.000
54.44183 48.000
54.46178 38.000
54.48172 26.000
54.50167 37.000
54.52162 24.000
54.54157 22.000
54.56151 27.000
54.58146 40.000
54.60141 32.000
54.62135 36.000
54.64130 35.000
54.66125 30.000
54.68119 29.000
54.70114 36.000
54.72109 29.000
54.74104 30.000
54.76098 37.000
54.78093 49.000
54.80088 29.000
54.82082 31.000
54.84077 36.000
54.86072 30.000
54.88066 29.000
54.90061 34.000
54.92056 24.000
54.94050 37.000
54.96045 26.000
54.98040 33.000
55.00035 31.000
55.02029 31.000
55.04024 41.000
55.06019 30.000
55.08013 27.000
55.10008 28.000
55.12003 39.000
55.13997 28.000
55.15992 22.000
55.17987 31.000
55.19982 35.000
55.21976 36.000
55.23971 33.000
55.25966 32.000
55.27960 47.000
55.29955 44.000
55.31950 34.000
55.33944 45.000
55.35939 43.000
55.37934 55.000
55.39929 45.000
55.41923 60.000
55.43918 57.000
55.45913 60.000
55.47907 71.000
55.49902 64.000
55.51897 65.000
55.53891 81.000
55.55886 80.000
55.57881 80.000
55.59875 80.000
55.61870 80.000
55.63865 99.000
55.65860 74.000
55.67854 86.000
55.69849 87.000
55.71844 76.000
55.73838 84.000
55.75833 71.000
55.77828 92.000
55.79822 77.000
55.81817 83.000
55.83812 82.000
55.85807 100.000
55.87801 94.000
55.89796 132.000
55.91791 128.000
55.93785 141.000
55.95780 149.000
55.97775 129.000
55.99769 158.000
56.01764 168.000
56.03759 174.000
56.05753 200.000
56.07748 186.000
56.09743 227.000
56.11738 213.000
56.13732 225.000
56.15727 225.000
56.17722 194.000
56.19716 183.000
56.21711 169.000
56.23706 159.000
56.25700 170.000
56.27695 161.000
56.29690 158.000
56.31685 127.000
56.33679 120.000
56.35674 83.000
56.37669 93.000
56.39663 84.000
56.41658 68.000
56.43653 63.000
56.45647 57.000
56.47642 53.000
56.49637 61.000
56.51631 42.000
56.53626 40.000
56.55621 41.000
56.57616 42.000
56.59610 46.000
56.61605 40.000
56.63600 42.000
56.65594 34.000
56.67589 44.000
56.69584 39.000
56.71578 25.000
56.73573 39.000
56.75568 29.000
56.77563 32.000
56.79557 36.000
56.81552 39.000
56.83547 32.000
56.85541 21.000
56.87536 39.000
56.89531 37.000
56.91525 32.000
56.93520 40.000
56.95515 31.000
56.97510 30.000
56.99504 42.000
57.01499 27.000
57.03494 30.000
57.05488 33.000
57.07483 24.000
57.09478 34.000
57.11472 37.000
57.13467 40.000
57.15462 36.000
57.17456 36.000
57.19451 33.000
57.21446 32.000
57.23441 39.000
57.25435 21.000
57.27430 33.000
57.29425 27.000
57.31419 27.000
57.33414 35.000
57.35409 28.000
57.37403 29.000
57.39398 31.000
57.41393 32.000
57.43388 31.000
57.45382 38.000
57.47377 30.000
57.49372 30.000
57.51366 49.000
57.53361 31.000
57.55356 30.000
57.57350 24.000
57.59345 33.000
57.61340 36.000
57.63334 35.000
57.65329 35.000
57.67324 39.000
57.69319 36.000
57.71313 33.000
57.73308 31.000
57.75303 33.000
57.77297 39.000
57.79292 37.000
57.81287 31.000
57.83281 26.000
57.85276 35.000
57.87271 37.000
57.89266 24.000
57.91260 40.000
57.93255 27.000
57.95250 22.000
57.97244 29.000
57.99239 26.000
58.01234 27.000
58.03228 39.000
58.05223 29.000
58.07218 40.000
58.09212 28.000
58.11207 30.000
58.13202 38.000
58.15197 38.000
58.17191 33.000
58.19186 38.000
58.21181 38.000
58.23175 20.000
58.25170 30.000
58.27165 36.000
58.29159 33.000
58.31154 35.000
58.33149 33.000
58.35144 28.000
58.37138 31.000
58.39133 31.000
58.41128 23.000
58.43122 35.000
58.45117 31.000
58.47112 32.000
58.49106 29.000
58.51101 27.000
58.53096 30.000
58.55090 25.000
58.57085 21.000
58.59080 36.000
58.61075 25.000
58.63069 35.000
58.65064 24.000
58.67059 25.000
58.69053 32.000
58.71048 33.000
58.73043 28.000
58.75037 23.000
58.77032 26.000
58.79027 30.000
58.81022 26.000
58.83016 29.000
58.85011 30.000
58.87006 42.000
58.89000 32.000
58.90995 25.000
58.92990 34.000
58.94984 27.000
58.96979 29.000
58.98974 32.000
59.00969 31.000
59.02963 17.000
59.04958 36.000
59.06953 24.000
59.08947 22.000
59.10942 35.000
59.12937 23.000
59.14931 32.000
59.16926 29.000
59.18921 30.000
59.20915 27.000
59.22910 24.000
59.24905 28.000
59.26900 32.000
59.28894 22.000
59.30889 28.000
59.32884 42.000
59.34878 27.000
59.36873 29.000
59.38868 28.000
59.40862 40.000
59.42857 36.000
59.44852 20.000
59.46847 31.000
59.48841 21.000
59.50836 27.000
59.52831 27.000
59.54825 30.000
59.56820 27.000
59.58815 38.000
59.60809 25.000
59.62804 20.000
59.64799 28.000
59.66793 21.000
59.68788 25.000
59.70783 36.000
59.72778 25.000
59.74772 31.000
59.76767 28.000
59.78762 35.000
59.80756 30.000
59.82751 29.000
59.84746 36.000
59.86740 29.000
59.88735 36.000
59.90730 25.000
59.92725 38.000
59.94719 21.000
59.96714 23.000
59.98709 24.000
60.00703 31.000
60.02698 37.000
60.04693 30.000
60.06687 29.000
60.08682 41.000
60.10677 26.000
60.12671 23.000
60.14666 33.000
60.16661 37.000
60.18656 30.000
60.20650 43.000
60.22645 31.000
60.24640 39.000
60.26634 24.000
60.28629 34.000
60.30624 37.000
60.32618 33.000
60.34613 47.000
60.36608 39.000
60.38603 31.000
60.40597 37.000
60.42592 41.000
60.44587 28.000
60.46581 38.000
60.48576 28.000
60.50571 27.000
60.52565 36.000
60.54560 43.000
60.56555 46.000
60.58550 37.000
60.60544 30.000
60.62539 33.000
60.64534 49.000
60.66528 39.000
60.68523 48.000
60.70518 51.000
60.72512 44.000
60.74507 43.000
60.76502 49.000
60.78496 47.000
60.80491 51.000
60.82486 41.000
60.84481 36.000
60.86475 60.000
60.88470 46.000
60.90465 58.000
60.92459 57.000
60.94454 46.000
60.96449 63.000
60.98443 81.000
61.00438 76.000
61.02433 83.000
61.04428 83.000
61.06422 85.000
61.08417 92.000
61.10412 113.000
61.12406 109.000
61.14401 146.000
61.16396 157.000
61.18390 170.000
61.20385 232.000
61.22380 244.000
61.24374 306.000
61.26369 326.000
61.28364 362.000
61.30359 351.000
61.32353 360.000
61.34348 309.000
61.36343 296.000
61.38337 352.000
61.40332 312.000
61.42327 332.000
61.44321 345.000
61.46316 306.000
61.48311 259.000
61.50306 290.000
61.52300 280.000
61.54295 260.000
61.56290 278.000
61.58284 237.000
61.60279 240.000
61.62274 252.000
61.64268 250.000
61.66263 193.000
61.68258 168.000
61.70252 204.000
61.72247 169.000
61.74242 145.000
61.76237 147.000
61.78231 155.000
61.80226 146.000
61.82221 134.000
61.84215 121.000
61.86210 100.000
61.88205 93.000
61.90199 93.000
61.92194 76.000
61.94189 71.000
61.96184 84.000
61.98178 74.000
62.00173 63.000
62.02168 60.000
62.04162 65.000
62.06157 71.000
62.08152 55.000
62.10146 60.000
62.12141 59.000
62.14136 59.000
62.16131 45.000
62.18125 52.000
62.20120 49.000
62.22115 62.000
62.24109 46.000
62.26104 49.000
62.28099 54.000
62.30093 50.000
62.32088 46.000
62.34083 60.000
62.36077 54.000
62.38072 58.000
62.40067 67.000
62.42062 73.000
62.44056 73.000
62.46051 58.000
62.48046 58.000
62.50040 40.000
62.52035 43.000
62.54030 49.000
62.56024 49.000
62.58019 60.000
62.60014 57.000
62.62009 49.000
62.64003 44.000
62.65998 40.000
62.67993 54.000
62.69987 41.000
62.71982 49.000
62.73977 50.000
62.75971 39.000
62.77966 46.000
62.79961 45.000
62.81955 50.000
62.83950 44.000
62.85945 27.000
62.87940 34.000
62.89934 43.000
62.91929 49.000
62.93924 45.000
62.95918 41.000
62.97913 47.000
62.99908 45.000
63.01902 41.000
63.03897 44.000
63.05892 53.000
63.07887 47.000
63.09881 48.000
63.11876 46.000
63.13871 45.000
63.15865 43.000
63.17860 37.000
63.19855 49.000
63.21849 42.000
63.23844 48.000
63.25839 47.000
63.27833 53.000
63.29828 54.000
63.31823 57.000
63.33818 48.000
63.35812 56.000
63.37807 55.000
63.39802 55.000
63.41796 51.000
63.43791 62.000
63.45786 64.000
63.47780 58.000
63.49775 68.000
63.51770 86.000
63.53765 86.000
63.55759 89.000
63.57754 75.000
63.59749 90.000
63.61743 96.000
63.63738 99.000
63.65733 140.000
63.67727 135.000
63.69722 150.000
63.71717 176.000
63.73712 203.000
63.75706 235.000
63.77701 216.000
63.79696 253.000
63.81690 248.000
63.83685 246.000
63.85680 218.000
63.87674 197.000
63.89669 170.000
63.91664 215.000
63.93658 189.000
63.95653 181.000
63.97648 194.000
63.99643 182.000
64.01637 148.000
64.03632 126.000
64.05627 115.000
64.07621 109.000
64.09616 96.000
64.11611 97.000
64.13605 99.000
64.15600 81.000
64.17595 69.000
64.19590 65.000
64.21584 76.000
64.23579 46.000
64.25574 60.000
64.27568 72.000
64.29563 51.000
64.31558 46.000
64.33552 45.000
64.35547 45.000
64.37542 66.000
64.39536 46.000
64.41531 51.000
64.43526 65.000
64.45521 32.000
64.47515 60.000
64.49510 61.000
64.51505 51.000
64.53499 44.000
64.55494 55.000
64.57489 47.000
64.59483 63.000
64.61478 62.000
64.63473 69.000
64.65468 51.000
64.67462 47.000
64.69457 61.000
64.71452 55.000
64.73446 55.000
64.75441 57.000
64.77436 65.000
64.79430 52.000
64.81425 53.000
64.83420 46.000
64.85414 35.000
64.87409 54.000
64.89404 45.000
64.91399 55.000
64.93393 47.000
64.95388 50.000
64.97383 44.000
64.99377 52.000
65.01372 44.000
65.03367 42.000
65.05361 46.000
65.07356 50.000
65.09351 43.000
65.11346 48.000
65.13340 44.000
65.15335 44.000
65.17330 52.000
65.19324 53.000
65.21319 47.000
65.23314 42.000
65.25308 53.000
65.27303 47.000
65.29298 50.000
65.31293 52.000
65.33287 47.000
65.35282 57.000
65.37277 60.000
65.39271 51.000
65.41266 55.000
65.43261 49.000
65.45255 41.000
65.47250 55.000
65.49245 45.000
65.51239 71.000
65.53234 51.000
65.55229 51.000
65.57224 63.000
65.59218 46.000
65.61213 50.000
65.63208 43.000
65.65202 50.000
65.67197 52.000
65.69192 58.000
65.71186 65.000
65.73181 59.000
65.75176 62.000
65.77171 69.000
65.79165 66.000
65.81160 60.000
65.83155 55.000
65.85149 82.000
65.87144 78.000
65.89139 83.000
65.91133 85.000
65.93128 83.000
65.95123 88.000
65.97117 88.000
65.99112 120.000
66.01107 90.000
66.03102 101.000
66.05096 123.000
66.07091 128.000
66.09086 116.000
66.11080 143.000
66.13075 136.000
66.15070 138.000
66.17064 160.000
66.19059 120.000
66.21054 107.000
66.23049 121.000
66.25043 101.000
66.27038 104.000
66.29033 97.000
66.31027 103.000
66.33022 86.000
66.35017 93.000
66.37011 85.000
66.39006 82.000
66.41001 72.000
66.42995 57.000
66.44990 60.000
66.46985 53.000
66.48980 54.000
66.50974 42.000
66.52969 51.000
66.54964 56.000
66.56958 45.000
66.58953 37.000
66.60948 30.000
66.62942 48.000
66.64937 41.000
66.66932 43.000
66.68927 36.000
66.70921 43.000
66.72916 27.000
66.74911 40.000
66.76905 31.000
66.78900 40.000
66.80895 32.000
66.82889 24.000
66.84884 26.000
66.86879 35.000
66.88874 29.000
66.90868 24.000
66.92863 29.000
66.94858 21.000
66.96852 25.000
66.98847 23.000
67.00842 27.000
67.02836 38.000
67.04831 22.000
67.06826 32.000
67.08820 22.000
67.10815 21.000
67.12810 29.000
67.14805 33.000
67.16799 25.000
67.18794 25.000
67.20789 22.000
67.22783 23.000
67.24778 18.000
67.26773 18.000
67.28767 26.000
67.30762 28.000
67.32757 19.000
67.34752 24.000
67.36746 27.000
67.38741 23.000
67.40736 25.000
67.42730 22.000
67.44725 24.000
67.46720 25.000
67.48714 23.000
67.50709 31.000
67.52704 16.000
67.54698 19.000
67.56693 29.000
67.58688 23.000
67.60683 30.000
67.62677 30.000
67.64672 19.000
67.66667 29.000
67.68661 28.000
67.70656 23.000
67.72651 32.000
67.74645 26.000
67.76640 36.000
67.78635 25.000
67.80630 28.000
67.82624 27.000
67.84619 30.000
67.86614 28.000
67.88608 17.000
67.90603 23.000
67.92598 21.000
67.94592 29.000
67.96587 39.000
67.98582 22.000
68.00576 27.000
68.02571 28.000
68.04566 36.000
68.06561 25.000
68.08555 28.000
68.10550 17.000
68.12545 22.000
68.14539 23.000
68.16534 24.000
68.18529 20.000
68.20523 29.000
68.22518 30.000
68.24513 31.000
68.26508 24.000
68.28502 22.000
68.30497 30.000
68.32492 25.000
68.34486 27.000
68.36481 28.000
68.38476 22.000
68.40470 32.000
68.42465 22.000
68.44460 25.000
68.46455 31.000
68.48449 26.000
68.50444 14.000
68.52439 25.000
68.54433 23.000
68.56428 26.000
68.58423 31.000
68.60417 21.000
68.62412 18.000
68.64407 18.000
68.66401 30.000
68.68396 20.000
68.70391 18.000
68.72386 36.000
68.74380 24.000
68.76375 23.000
68.78370 20.000
68.80364 23.000
68.82359 26.000
68.84354 17.000
68.86348 18.000
68.88343 29.000
68.90338 33.000
68.92333 20.000
68.94327 25.000
68.96322 24.000
68.98317 32.000
69.00311 18.000
69.02306 26.000
69.04301 28.000
69.06295 25.000
69.08290 38.000
69.10285 32.000
69.12279 24.000
69.14274 40.000
69.16269 30.000
69.18264 17.000
69.20258 21.000
69.22253 20.000
69.24248 29.000
69.26242 35.000
69.28237 31.000
69.30232 23.000
69.32226 23.000
69.34221 29.000
69.36216 25.000
69.38211 26.000
69.40205 26.000
69.42200 33.000
69.44195 20.000
69.46189 33.000
69.48184 22.000
69.50179 27.000
69.52173 30.000
69.54168 23.000
69.56163 22.000
69.58157 28.000
69.60152 38.000
69.62147 30.000
69.64142 28.000
69.66136 24.000
69.68131 37.000
69.70126 30.000
69.72120 35.000
69.74115 34.000
69.76110 27.000
69.78104 28.000
69.80099 34.000
69.82094 36.000
69.84089 32.000
69.86083 26.000
69.88078 20.000
69.90073 29.000
69.92067 23.000
69.94062 25.000
69.96057 33.000
69.98051 21.000
70.00046 32.000
70.02041 30.000
70.04035 39.000
70.06030 21.000
70.08025 26.000
70.10020 20.000
70.12014 32.000
70.14009 30.000
70.16004 17.000
70.17998 23.000
70.19993 21.000
70.21988 24.000
70.23982 25.000
70.25977 26.000
70.27972 22.000
70.29967 17.000
70.31961 30.000
70.33956 21.000
70.35951 22.000
70.37945 18.000
70.39940 17.000
70.41935 24.000
70.43929 28.000
70.45924 19.000
70.47919 22.000
70.49914 21.000
70.51908 20.000
70.53903 26.000
70.55898 23.000
70.57892 21.000
70.59887 36.000
70.61882 21.000
70.63876 22.000
70.65871 28.000
70.67866 19.000
70.69860 19.000
70.71855 20.000
70.73850 21.000
70.75845 23.000
70.77839 19.000
70.79834 22.000
70.81829 24.000
70.83823 19.000
70.85818 19.000
70.87813 23.000
70.89807 16.000
70.91802 27.000
70.93797 21.000
70.95792 15.000
70.97786 27.000
70.99781 20.000
71.01776 22.000
71.03770 27.000
71.05765 21.000
71.07760 26.000
71.09754 33.000
71.11749 24.000
71.13744 21.000
71.15738 17.000
71.17733 23.000
71.19728 20.000
71.21723 26.000
71.23717 18.000
71.25712 19.000
71.27707 28.000
71.29701 26.000
71.31696 24.000
71.33691 15.000
71.35685 25.000
71.37680 21.000
71.39675 21.000
71.41670 21.000
71.43664 29.000
71.45659 22.000
71.47654 30.000
71.49648 17.000
71.51643 28.000
71.53638 27.000
71.55632 17.000
71.57627 24.000
71.59622 30.000
71.61616 23.000
71.63611 21.000
71.65606 13.000
71.67601 24.000
71.69595 20.000
71.71590 24.000
71.73585 21.000
71.75579 22.000
71.77574 11.000
71.79569 18.000
71.81563 21.000
71.83558 24.000
71.85553 23.000
71.87548 26.000
71.89542 29.000
71.91537 36.000
71.93532 33.000
71.95526 37.000
71.97521 29.000
71.99516 35.000
72.01510 28.000
72.03505 26.000
72.05500 25.000
72.07495 29.000
72.09489 30.000
72.11484 33.000
72.13479 34.000
72.15473 38.000
72.17468 29.000
72.19463 29.000
72.21457 27.000
72.23452 25.000
72.25447 38.000
72.27441 31.000
72.29436 38.000
72.31431 40.000
72.33426 45.000
72.35420 36.000
72.37415 39.000
72.39410 52.000
72.41404 38.000
72.43399 44.000
72.45394 44.000
72.47388 58.000
72.49383 44.000
72.51378 56.000
72.53373 58.000
72.55367 65.000
72.57362 57.000
72.59357 68.000
72.61351 62.000
72.63346 66.000
72.65341 71.000
72.67335 81.000
72.69330 72.000
72.71325 67.000
72.73319 90.000
72.75314 80.000
72.77309 89.000
72.79304 86.000
72.81298 69.000
72.83293 76.000
72.85288 79.000
72.87282 89.000
72.89277 93.000
72.91272 79.000
72.93266 73.000
72.95261 68.000
72.97256 81.000
72.99251 64.000
73.01245 73.000
73.03240 64.000
73.05235 57.000
73.07229 57.000
73.09224 54.000
73.11219 67.000
73.13213 62.000
73.15208 50.000
73.17203 59.000
73.19197 58.000
73.21192 54.000
73.23187 44.000
73.25182 59.000
73.27176 38.000
73.29171 44.000
73.31166 39.000
73.33160 40.000
73.35155 33.000
73.37150 37.000
73.39144 30.000
73.41139 33.000
73.43134 29.000
73.45129 32.000
73.47123 38.000
73.49118 30.000
73.51113 45.000
73.53107 39.000
73.55102 34.000
73.57097 27.000
73.59091 41.000
73.61086 43.000
73.63081 40.000
73.65076 36.000
73.67070 39.000
73.69065 49.000
73.71060 40.000
73.73054 51.000
73.75049 48.000
73.77044 53.000
73.79038 42.000
73.81033 34.000
73.83028 59.000
73.85022 46.000
73.87017 50.000
73.89012 58.000
73.91007 46.000
73.93001 45.000
73.94996 43.000
73.96991 28.000
73.98985 43.000
74.00980 31.000
74.02975 37.000
74.04969 24.000
74.06964 26.000
74.08959 31.000
74.10954 27.000
74.12948 16.000
74.14943 24.000
74.16938 25.000
74.18932 22.000
74.20927 26.000
74.22922 17.000
74.24916 29.000
74.26911 23.000
74.28906 22.000
74.30900 30.000
74.32895 23.000
74.34890 30.000
74.36885 24.000
74.38879 16.000
74.40874 28.000
74.42869 16.000
74.44863 24.000
74.46858 32.000
74.48853 32.000
74.50847 25.000
74.52842 20.000
74.54837 21.000
74.56832 21.000
74.58826 28.000
74.60821 28.000
74.62816 19.000
74.64810 29.000
74.66805 25.000
74.68800 17.000
74.70794 29.000
74.72789 27.000
74.74784 29.000
74.76778 15.000
74.78773 26.000
74.80768 20.000
74.82763 20.000
74.84757 36.000
74.86752 26.000
74.88747 18.000
74.90741 28.000
74.92736 20.000
74.94731 26.000
74.96725 21.000
74.98720 36.000
75.00715 31.000
75.02710 25.000
75.04704 19.000
75.06699 39.000
75.08694 46.000
75.10688 41.000
75.12683 41.000
75.14678 41.000
75.16672 44.000
75.18667 33.000
75.20662 48.000
75.22657 41.000
75.24651 57.000
75.26646 43.000
75.28641 44.000
75.30635 41.000
75.32630 35.000
75.34625 33.000
75.36619 30.000
75.38614 31.000
75.40609 34.000
75.42603 37.000
75.44598 37.000
75.46593 40.000
75.48588 36.000
75.50582 37.000
75.52577 34.000
75.54572 41.000
75.56566 33.000
75.58561 33.000
75.60556 35.000
75.62550 26.000
75.64545 35.000
75.66540 30.000
75.68535 36.000
75.70529 42.000
75.72524 32.000
75.74519 21.000
75.76513 34.000
75.78508 27.000
75.80503 32.000
75.82497 26.000
75.84492 28.000
75.86487 22.000
75.88481 28.000
75.90476 27.000
75.92471 30.000
75.94466 28.000
75.96460 15.000
75.98455 20.000
76.00450 28.000
76.02444 29.000
76.04439 29.000
76.06434 27.000
76.08428 36.000
76.10423 23.000
76.12418 24.000
76.14413 24.000
76.16407 30.000
76.18402 22.000
76.20397 20.000
76.22391 24.000
76.24386 24.000
76.26381 25.000
76.28375 18.000
76.30370 24.000
76.32365 19.000
76.34359 25.000
76.36354 31.000
76.38349 20.000
76.40344 25.000
76.42338 30.000
76.44333 23.000
76.46328 27.000
76.48322 37.000
76.50317 28.000
76.52312 20.000
76.54306 28.000
76.56301 27.000
76.58296 39.000
76.60291 23.000
76.62285 31.000
76.64280 23.000
76.66275 32.000
76.68269 39.000
76.70264 32.000
76.72259 40.000
76.74253 33.000
76.76248 33.000
76.78243 28.000
76.80238 37.000
76.82232 29.000
76.84227 34.000
76.86222 35.000
76.88216 31.000
76.90211 41.000
76.92206 47.000
76.94200 56.000
76.96195 51.000
76.98190 45.000
77.00184 49.000
77.02179 50.000
77.04174 50.000
77.06169 62.000
77.08163 63.000
77.10158 63.000
77.12153 64.000
77.14147 77.000
77.16142 83.000
77.18137 75.000
77.20131 85.000
77.22126 76.000
77.24121 72.000
77.26116 68.000
77.28110 90.000
77.30105 99.000
77.32100 84.000
77.34094 90.000
77.36089 98.000
77.38084 117.000
77.40078 126.000
77.42073 103.000
77.44068 113.000
77.46062 94.000
77.48057 111.000
77.50052 79.000
77.52047 87.000
77.54041 85.000
77.56036 90.000
77.58031 85.000
77.60025 83.000
77.62020 69.000
77.64015 75.000
77.66009 84.000
77.68004 66.000
77.69999 67.000
77.71994 53.000
77.73988 70.000
77.75983 69.000
77.77978 49.000
77.79972 50.000
77.81967 51.000
77.83962 46.000
77.85956 35.000
77.87951 47.000
77.89946 45.000
77.91940 38.000
77.93935 32.000
77.95930 41.000
77.97925 37.000
77.99919 34.000
78.01914 27.000
78.03909 27.000
78.05903 39.000
78.07898 41.000
78.09893 45.000
78.11887 23.000
78.13882 26.000
78.15877 24.000
78.17872 24.000
78.19866 33.000
78.21861 39.000
78.23856 35.000
78.25850 26.000
78.27845 29.000
78.29840 34.000
78.31834 23.000
78.33829 24.000
78.35824 26.000
78.37819 27.000
78.39813 26.000
78.41808 28.000
78.43803 33.000
78.45797 22.000
78.47792 22.000
78.49787 27.000
78.51781 21.000
78.53776 20.000
78.55771 24.000
78.57765 32.000
78.59760 31.000
78.61755 20.000
78.63750 21.000
78.65744 21.000
78.67739 25.000
78.69734 29.000
78.71728 21.000
78.73723 22.000
78.75718 15.000
78.77712 18.000
78.79707 20.000
78.81702 27.000
78.83697 19.000
78.85691 21.000
78.87686 22.000
78.89681 22.000
78.91675 20.000
78.93670 25.000
78.95665 19.000
78.97659 24.000
78.99654 18.000
79.01649 21.000
79.03643 25.000
79.05638 19.000
79.07633 25.000
79.09628 21.000
79.11622 21.000
79.13617 24.000
79.15612 17.000
79.17606 23.000
79.19601 20.000
79.21596 17.000
79.23590 22.000
79.25585 23.000
79.27580 16.000
79.29575 19.000
79.31569 20.000
79.33564 29.000
79.35559 24.000
79.37553 22.000
79.39548 21.000
79.41543 15.000
79.43537 24.000
79.45532 18.000
79.47527 27.000
79.49521 18.000
79.51516 18.000
79.53511 25.000
79.55506 20.000
79.57500 25.000
79.59495 33.000
79.61490 31.000
79.63484 24.000
79.65479 20.000
79.67474 24.000
79.69468 11.000
79.71463 15.000
79.73458 23.000
79.75453 23.000
79.77447 19.000
79.79442 16.000
79.81437 33.000
79.83431 13.000
79.85426 18.000
79.87421 18.000
79.89415 26.000
79.91410 17.000
79.93405 17.000
79.95399 18.000
79.97394 20.000
79.99389 21.000
80.01384 19.000
80.03378 38.000
80.05373 31.000
80.07368 26.000
80.09362 35.000
80.11357 35.000
80.13352 35.000
80.15346 27.000
80.17341 28.000
80.19336 22.000
80.21331 30.000
80.23325 31.000
80.25320 38.000
80.27315 21.000
80.29309 26.000
80.31304 20.000
80.33299 27.000
80.35293 24.000
80.37288 32.000
80.39283 35.000
80.41278 29.000
80.43272 27.000
80.45267 34.000
80.47262 28.000
80.49256 20.000
80.51251 14.000
80.53246 30.000
80.55240 27.000
80.57235 27.000
80.59230 30.000
80.61224 33.000
80.63219 31.000
80.65214 31.000
80.67209 31.000
80.69203 25.000
80.71198 28.000
80.73193 23.000
80.75187 12.000
80.77182 22.000
80.79177 28.000
80.81171 25.000
80.83166 15.000
80.85161 17.000
80.87156 22.000
80.89150 19.000
80.91145 17.000
80.93140 20.000
80.95134 20.000
80.97129 25.000
80.99124 19.000
81.01118 15.000
81.03113 26.000
81.05108 17.000
81.07102 17.000
81.09097 25.000
81.11092 19.000
81.13087 24.000
81.15081 34.000
81.17076 22.000
81.19071 17.000
81.21065 20.000
81.23060 15.000
81.25055 18.000
81.27049 14.000
81.29044 19.000
81.31039 14.000
81.33034 25.000
81.35028 14.000
81.37023 22.000
81.39018 19.000
81.41012 20.000
81.43007 13.000
81.45002 29.000
81.46996 15.000
81.48991 21.000
81.50986 15.000
81.52980 25.000
81.54975 18.000
81.56970 17.000
81.58965 21.000
81.60959 23.000
81.62954 17.000
81.64949 18.000
81.66943 9.000
81.68938 15.000
81.70933 19.000
81.72927 17.000
81.74922 18.000
81.76917 24.000
81.78912 19.000
81.80906 23.000
81.82901 24.000
81.84896 25.000
81.86890 11.000
81.88885 22.000
81.90880 22.000
81.92874 16.000
81.94869 31.000
81.96864 22.000
81.98859 16.000
82.00853 17.000
82.02848 11.000
82.04843 23.000
82.06837 20.000
82.08832 16.000
82.10827 22.000
82.12821 15.000
82.14816 20.000
82.16811 16.000
82.18805 14.000
82.20800 17.000
82.22795 11.000
82.24790 19.000
82.26784 29.000
82.28779 19.000
82.30774 13.000
82.32768 15.000
82.34763 29.000
82.36758 24.000
82.38752 12.000
82.40747 21.000
82.42742 16.000
82.44737 26.000
82.46731 26.000
82.48726 20.000
82.50721 18.000
82.52715 18.000
82.54710 21.000
82.56705 21.000
82.58699 26.000
82.60694 12.000
82.62689 20.000
82.64683 17.000
82.66678 22.000
82.68673 19.000
82.70668 22.000
82.72662 21.000
82.74657 16.000
82.76652 21.000
82.78646 23.000
82.80641 24.000
82.82636 17.000
82.84630 16.000
82.86625 26.000
82.88620 23.000
82.90615 15.000
82.92609 25.000
82.94604 18.000
82.96599 32.000
82.98593 22.000
83.00588 21.000
83.02583 26.000
83.04577 20.000
83.06572 24.000
83.08567 14.000
83.10561 20.000
83.12556 25.000
83.14551 27.000
83.16546 13.000
83.18540 28.000
83.20535 24.000
83.22530 29.000
83.24524 20.000
83.26519 20.000
83.28514 13.000
83.30508 29.000
83.32503 38.000
83.34498 26.000
83.36493 16.000
83.38487 30.000
83.40482 19.000
83.42477 28.000
83.44471 29.000
83.46466 27.000
83.48461 32.000
83.50455 35.000
83.52450 32.000
83.54445 28.000
83.56440 37.000
83.58434 28.000
83.60429 35.000
83.62424 51.000
83.64418 38.000
83.66413 41.000
83.68408 33.000
83.70402 36.000
83.72397 33.000
83.74392 35.000
83.76386 51.000
83.78381 48.000
83.80376 65.000
83.82371 59.000
83.84365 50.000
83.86360 57.000
83.88355 63.000
83.90349 47.000
83.92344 55.000
83.94339 56.000
83.96333 54.000
83.98328 39.000
84.00323 64.000
84.02318 47.000
84.04312 60.000
84.06307 39.000
84.08302 51.000
84.10296 37.000
84.12291 45.000
84.14286 33.000
84.16280 36.000
84.18275 47.000
84.20270 33.000
84.22264 28.000
84.24259 41.000
84.26254 32.000
84.28249 31.000
84.30243 27.000
84.32238 28.000
84.34233 32.000
84.36227 30.000
84.38222 32.000
84.40217 36.000
84.42211 34.000
84.44206 29.000
84.46201 30.000
84.48196 36.000
84.50190 30.000
84.52185 22.000
84.54180 27.000
84.56174 28.000
84.58169 30.000
84.60164 22.000
84.62158 36.000
84.64153 23.000
84.66148 32.000
84.68142 28.000
84.70137 22.000
84.72132 32.000
84.74127 39.000
84.76121 31.000
84.78116 22.000
84.80111 25.000
84.82105 20.000
84.84100 36.000
84.86095 21.000
84.88089 28.000
84.90084 31.000
84.92079 21.000
84.94074 26.000
84.96068 39.000
84.98063 33.000
85.00058 35.000
85.02052 32.000
85.04047 35.000
85.06042 27.000
85.08036 38.000
85.10031 37.000
85.12026 34.000
85.14021 28.000
85.16015 31.000
85.18010 33.000
85.20005 31.000
85.21999 37.000
85.23994 29.000
85.25989 27.000
85.27983 25.000
85.29978 29.000
85.31973 27.000
85.33967 38.000
85.35962 21.000
85.37957 24.000
85.39952 25.000
85.41946 29.000
85.43941 22.000
85.45936 28.000
85.47930 27.000
85.49925 34.000
85.51920 25.000
85.53914 32.000
85.55909 31.000
85.57904 32.000
85.59899 23.000
85.61893 19.000
85.63888 24.000
85.65883 30.000
85.67877 32.000
85.69872 23.000
85.71867 21.000
85.73861 23.000
85.75856 25.000
85.77851 19.000
85.79845 28.000
85.81840 29.000
85.83835 17.000
85.85830 23.000
85.87824 21.000
85.89819 22.000
85.91814 24.000
85.93808 21.000
85.95803 27.000
85.97798 31.000
85.99792 23.000
86.01787 21.000
86.03782 31.000
86.05777 21.000
86.07771 32.000
86.09766 24.000
86.11761 28.000
86.13755 20.000
86.15750 16.000
86.17745 28.000
86.19739 32.000
86.21734 19.000
86.23729 30.000
86.25723 23.000
86.27718 24.000
86.29713 23.000
86.31708 24.000
86.33702 18.000
86.35697 26.000
86.37692 25.000
86.39686 20.000
86.41681 19.000
86.43676 21.000
86.45670 15.000
86.47665 28.000
86.49660 21.000
86.51655 24.000
86.53649 27.000
86.55644 28.000
86.57639 24.000
86.59633 25.000
86.61628 17.000
86.63623 23.000
86.65617 22.000
86.67612 21.000
86.69607 18.000
86.71602 20.000
86.73596 27.000
86.75591 25.000
86.77586 17.000
86.79580 21.000
86.81575 25.000
86.83570 22.000
86.85564 18.000
86.87559 24.000
86.89554 23.000
86.91548 16.000
86.93543 19.000
86.95538 19.000
86.97533 21.000
86.99527 23.000
87.01522 23.000
87.03517 23.000
87.05511 17.000
87.07506 27.000
87.09501 15.000
87.11495 37.000
87.13490 28.000
87.15485 31.000
87.17480 19.000
87.19474 31.000
87.21469 22.000
87.23464 32.000
87.25458 31.000
87.27453 31.000
87.29448 26.000
87.31442 29.000
87.33437 37.000
87.35432 29.000
87.37426 20.000
87.39421 29.000
87.41416 29.000
87.43411 34.000
87.45405 41.000
87.47400 28.000
87.49395 34.000
87.51389 33.000
87.53384 32.000
87.55379 41.000
87.57373 35.000
87.59368 38.000
87.61363 39.000
87.63358 47.000
87.65352 39.000
87.67347 53.000
87.69342 51.000
87.71336 42.000
87.73331 44.000
87.75326 59.000
87.77320 51.000
87.79315 47.000
87.81310 54.000
87.83304 39.000
87.85299 45.000
87.87294 56.000
87.89289 52.000
87.91283 76.000
87.93278 63.000
87.95273 66.000
87.97267 60.000
87.99262 49.000
88.01257 53.000
88.03251 56.000
88.05246 52.000
88.07241 68.000
88.09236 59.000
88.11230 51.000
88.13225 55.000
88.15220 51.000
88.17214 47.000
88.19209 59.000
88.21204 52.000
88.23198 41.000
88.25193 58.000
88.27188 54.000
88.29183 57.000
88.31177 40.000
88.33172 36.000
88.35167 40.000
88.37161 35.000
88.39156 41.000
88.41151 29.000
88.43145 43.000
88.45140 47.000
88.47135 24.000
88.49129 26.000
88.51124 38.000
88.53119 29.000
88.55114 33.000
88.57108 37.000
88.59103 28.000
88.61098 21.000
88.63092 31.000
88.65087 24.000
88.67082 28.000
88.69076 24.000
88.71071 27.000
88.73066 25.000
88.75061 21.000
88.77055 14.000
88.79050 30.000
88.81045 13.000
88.83039 27.000
88.85034 23.000
88.87029 12.000
88.89023 19.000
88.91018 31.000
88.93013 18.000
88.95007 15.000
88.97002 19.000
88.98997 20.000
89.00992 16.000
89.02986 15.000
89.04981 20.000
89.06976 18.000
89.08970 19.000
89.10965 25.000
89.12960 18.000
89.14954 21.000
89.16949 13.000
89.18944 14.000
89.20939 20.000
89.22933 19.000
89.24928 17.000
89.26923 13.000
89.28917 19.000
89.30912 21.000
89.32907 12.000
89.34901 15.000
89.36896 18.000
89.38891 16.000
89.40885 28.000
89.42880 12.000
89.44875 18.000
89.46870 27.000
89.48864 18.000
89.50859 21.000
89.52854 16.000
89.54848 23.000
89.56843 16.000
89.58838 17.000
89.60832 21.000
89.62827 16.000
89.64822 9.000
89.66817 16.000
89.68811 22.000
89.70806 18.000
89.72801 13.000
89.74795 26.000
89.76790 15.000
89.78785 14.000
89.80779 22.000
89.82774 13.000
89.84769 24.000
89.86764 19.000
89.88758 15.000
89.90753 17.000
89.92748 29.000
89.94742 13.000
89.96737 18.000
89.98732 13.000
90.00726 15.000
