10.00000 110.000
10.01995 89.000
10.03989 94.000
10.05984 88.000
10.07979 118.000
10.09973 94.000
10.11968 103.000
10.13963 93.000
10.15958 96.000
10.17952 88.000
10.19947 113.000
10.21942 87.000
10.23936 89.000
10.25931 95.000
10.27926 98.000
10.29920 92.000
10.31915 104.000
10.33910 110.000
10.35905 102.000
10.37899 88.000
10.39894 89.000
10.41889 95.000
10.43883 125.000
10.45878 99.000
10.47873 106.000
10.49867 104.000
10.51862 102.000
10.53857 107.000
10.55851 111.000
10.57846 113.000
10.59841 110.000
10.61836 101.000
10.63830 102.000
10.65825 103.000
10.67820 93.000
10.69814 93.000
10.71809 118.000
10.73804 109.000
10.75798 96.000
10.77793 98.000
10.79788 116.000
10.81783 102.000
10.83777 109.000
10.85772 101.000
10.87767 103.000
10.89761 109.000
10.91756 89.000
10.93751 92.000
10.95745 98.000
10.97740 113.000
10.99735 103.000
11.01730 105.000
11.03724 97.000
11.05719 88.000
11.07714 88.000
11.09708 110.000
11.11703 104.000
11.13698 100.000
11.15692 108.000
11.17687 124.000
11.19682 99.000
11.21676 102.000
11.23671 99.000
11.25666 117.000
11.27661 109.000
11.29655 112.000
11.31650 106.000
11.33645 114.000
11.35639 127.000
11.37634 90.000
11.39629 105.000
11.41623 92.000
11.43618 84.000
11.45613 95.000
11.47608 112.000
11.49602 105.000
11.51597 110.000
11.53592 112.000
11.55586 107.000
11.57581 91.000
11.59576 104.000
11.61570 103.000
11.63565 107.000
11.65560 106.000
11.67554 96.000
11.69549 105.000
11.71544 89.000
11.73539 111.000
11.75533 103.000
11.77528 96.000
11.79523 103.000
11.81517 102.000
11.83512 96.000
11.85507 96.000
11.87501 86.000
11.89496 112.000
11.91491 101.000
11.93486 109.000
11.95480 94.000
11.97475 94.000
11.99470 111.000
12.01464 108.000
12.03459 91.000
12.05454 100.000
12.07448 127.000
12.09443 95.000
12.11438 123.000
12.13432 117.000
12.15427 92.000
12.17422 103.000
12.19417 85.000
12.21411 95.000
12.23406 106.000
12.25401 105.000
12.27395 102.000
12.29390 118.000
12.31385 98.000
12.33379 101.000
12.35374 96.000
12.37369 121.000
12.39364 101.000
12.41358 105.000
12.43353 106.000
12.45348 105.000
12.47342 97.000
12.49337 84.000
12.51332 109.000
12.53326 113.000
12.55321 102.000
12.57316 120.000
12.59311 111.000
12.61305 131.000
12.63300 95.000
12.65295 99.000
12.67289 102.000
12.69284 108.000
12.71279 95.000
12.73273 120.000
12.75268 107.000
12.77263 99.000
12.79257 100.000
12.81252 106.000
12.83247 101.000
12.85242 119.000
12.87236 108.000
12.89231 68.000
12.91226 113.000
12.93220 110.000
12.95215 121.000
12.97210 104.000
12.99204 107.000
13.01199 103.000
13.03194 94.000
13.05189 112.000
13.07183 103.000
13.09178 125.000
13.11173 79.000
13.13167 117.000
13.15162 106.000
13.17157 107.000
13.19151 119.000
13.21146 102.000
13.23141 109.000
13.25135 121.000
13.27130 116.000
13.29125 109.000
13.31120 100.000
13.33114 105.000
13.35109 97.000
13.37104 98.000
13.39098 97.000
13.41093 104.000
13.43088 84.000
13.45082 114.000
13.47077 128.000
13.49072 117.000
13.51067 111.000
13.53061 110.000
13.55056 115.000
13.57051 107.000
13.59045 104.000
13.61040 97.000
13.63035 93.000
13.65029 88.000
13.67024 113.000
13.69019 96.000
13.71013 101.000
13.73008 110.000
13.75003 102.000
13.76998 111.000
13.78992 109.000
13.80987 106.000
13.82982 121.000
13.84976 111.000
13.86971 103.000
13.88966 104.000
13.90960 110.000
13.92955 110.000
13.94950 107.000
13.96945 111.000
13.98939 92.000
14.00934 93.000
14.02929 110.000
14.04923 118.000
14.06918 94.000
14.08913 120.000
14.10907 114.000
14.12902 126.000
14.14897 130.000
14.16892 121.000
14.18886 104.000
14.20881 118.000
14.22876 102.000
14.24870 120.000
14.26865 99.000
14.28860 111.000
14.30854 117.000
14.32849 103.000
14.34844 104.000
14.36838 116.000
14.38833 110.000
14.40828 122.000
14.42823 107.000
14.44817 104.000
14.46812 107.000
14.48807 105.000
14.50801 100.000
14.52796 119.000
14.54791 123.000
14.56785 109.000
14.58780 116.000
14.60775 96.000
14.62770 124.000
14.64764 123.000
14.66759 119.000
14.68754 110.000
14.70748 110.000
14.72743 115.000
14.74738 92.000
14.76732 117.000
14.78727 108.000
14.80722 124.000
14.82716 110.000
14.84711 122.000
14.86706 105.000
14.88701 97.000
14.90695 142.000
14.92690 109.000
14.94685 119.000
14.96679 102.000
14.98674 111.000
15.00669 131.000
15.02663 131.000
15.04658 101.000
15.06653 145.000
15.08648 122.000
15.10642 164.000
15.12637 146.000
15.14632 140.000
15.16626 146.000
15.18621 117.000
15.20616 124.000
15.22610 137.000
15.24605 133.000
15.26600 121.000
15.28594 118.000
15.30589 122.000
15.32584 142.000
15.34579 140.000
15.36573 150.000
15.38568 149.000
15.40563 169.000
15.42557 162.000
15.44552 154.000
15.46547 180.000
15.48541 158.000
15.50536 202.000
15.52531 187.000
15.54526 213.000
15.56520 233.000
15.58515 294.000
15.60510 337.000
15.62504 374.000
15.64499 533.000
15.66494 696.000
15.68488 1068.000
15.70483 1503.000
15.72478 2109.000
15.74472 2698.000
15.76467 3561.000
15.78462 4103.000
15.80457 3528.000
15.82451 2595.000
15.84446 1632.000
15.86441 892.000
15.88435 474.000
15.90430 315.000
15.92425 241.000
15.94419 203.000
15.96414 210.000
15.98409 171.000
16.00404 175.000
16.02398 149.000
16.04393 129.000
16.06388 143.000
16.08382 126.000
16.10377 144.000
16.12372 146.000
16.14366 141.000
16.16361 137.000
16.18356 132.000
16.20351 121.000
16.22345 137.000
16.24340 140.000
16.26335 131.000
16.28329 121.000
16.30324 123.000
16.32319 131.000
16.34313 86.000
16.36308 136.000
16.38303 146.000
16.40297 116.000
16.42292 112.000
16.44287 111.000
16.46282 115.000
16.48276 140.000
16.50271 129.000
16.52266 109.000
16.54260 120.000
16.56255 129.000
16.58250 118.000
16.60244 105.000
16.62239 116.000
16.64234 123.000
16.66229 122.000
16.68223 124.000
16.70218 117.000
16.72213 108.000
16.74207 112.000
16.76202 116.000
16.78197 103.000
16.80191 124.000
16.82186 112.000
16.84181 117.000
16.86175 110.000
16.88170 114.000
16.90165 119.000
16.92160 128.000
16.94154 104.000
16.96149 114.000
16.98144 106.000
17.00138 126.000
17.02133 115.000
17.04128 124.000
17.06122 118.000
17.08117 105.000
17.10112 121.000
17.12107 121.000
17.14101 126.000
17.16096 108.000
17.18091 138.000
17.20085 126.000
17.22080 114.000
17.24075 111.000
17.26069 120.000
17.28064 95.000
17.30059 107.000
17.32053 106.000
17.34048 113.000
17.36043 115.000
17.38038 105.000
17.40032 124.000
17.42027 109.000
17.44022 119.000
17.46016 113.000
17.48011 139.000
17.50006 114.000
17.52000 116.000
17.53995 104.000
17.55990 119.000
17.57985 113.000
17.59979 115.000
17.61974 97.000
17.63969 105.000
17.65963 129.000
17.67958 121.000
17.69953 108.000
17.71947 111.000
17.73942 130.000
17.75937 120.000
17.77932 117.000
17.79926 98.000
17.81921 102.000
17.83916 104.000
17.85910 110.000
17.87905 105.000
17.89900 107.000
17.91894 115.000
17.93889 138.000
17.95884 118.000
17.97878 115.000
17.99873 119.000
18.01868 126.000
18.03863 128.000
18.05857 139.000
18.07852 122.000
18.09847 115.000
18.11841 115.000
18.13836 155.000
18.15831 147.000
18.17825 203.000
18.19820 203.000
18.21815 271.000
18.23810 363.000
18.25804 395.000
18.27799 389.000
18.29794 265.000
18.31788 243.000
18.33783 171.000
18.35778 137.000
18.37772 114.000
18.39767 103.000
18.41762 126.000
18.43756 118.000
18.45751 133.000
18.47746 91.000
18.49741 115.000
18.51735 128.000
18.53730 127.000
18.55725 102.000
18.57719 133.000
18.59714 130.000
18.61709 109.000
18.63703 106.000
18.65698 121.000
18.67693 124.000
18.69688 127.000
18.71682 122.000
18.73677 106.000
18.75672 121.000
18.77666 115.000
18.79661 108.000
18.81656 113.000
18.83650 124.000
18.85645 106.000
18.87640 108.000
18.89634 123.000
18.91629 123.000
18.93624 137.000
18.95619 118.000
18.97613 119.000
18.99608 123.000
19.01603 107.000
19.03597 95.000
19.05592 113.000
19.07587 109.000
19.09581 131.000
19.11576 112.000
19.13571 129.000
19.15566 112.000
19.17560 106.000
19.19555 127.000
19.21550 112.000
19.23544 127.000
19.25539 114.000
19.27534 109.000
19.29528 135.000
19.31523 115.000
19.33518 106.000
19.35513 115.000
19.37507 134.000
19.39502 114.000
19.41497 107.000
19.43491 133.000
19.45486 107.000
19.47481 124.000
19.49475 105.000
19.51470 100.000
19.53465 117.000
19.55459 106.000
19.57454 119.000
19.59449 113.000
19.61444 111.000
19.63438 104.000
19.65433 108.000
19.67428 97.000
19.69422 114.000
19.71417 128.000
19.73412 100.000
19.75406 101.000
19.77401 114.000
19.79396 117.000
19.81391 112.000
19.83385 113.000
19.85380 122.000
19.87375 124.000
19.89369 111.000
19.91364 108.000
19.93359 113.000
19.95353 105.000
19.97348 111.000
19.99343 127.000
20.01337 124.000
20.03332 135.000
20.05327 114.000
20.07322 83.000
20.09316 116.000
20.11311 112.000
20.13306 105.000
20.15300 129.000
20.17295 111.000
20.19290 121.000
20.21284 90.000
20.23279 103.000
20.25274 111.000
20.27269 120.000
20.29263 106.000
20.31258 109.000
20.33253 109.000
20.35247 134.000
20.37242 101.000
20.39237 138.000
20.41231 117.000
20.43226 119.000
20.45221 116.000
20.47215 123.000
20.49210 103.000
20.51205 121.000
20.53200 108.000
20.55194 114.000
20.57189 113.000
20.59184 126.000
20.61178 130.000
20.63173 135.000
20.65168 116.000
20.67162 119.000
20.69157 131.000
20.71152 128.000
20.73147 119.000
20.75141 125.000
20.77136 104.000
20.79131 101.000
20.81125 94.000
20.83120 108.000
20.85115 118.000
20.87109 109.000
20.89104 108.000
20.91099 139.000
20.93094 116.000
20.95088 117.000
20.97083 131.000
20.99078 142.000
21.01072 146.000
21.03067 186.000
21.05062 160.000
21.07056 154.000
21.09051 158.000
21.11046 161.000
21.13040 145.000
21.15035 150.000
21.17030 152.000
21.19025 157.000
21.21019 128.000
21.23014 112.000
21.25009 120.000
21.27003 123.000
21.28998 112.000
21.30993 121.000
21.32987 119.000
21.34982 108.000
21.36977 114.000
21.38972 134.000
21.40966 109.000
21.42961 113.000
21.44956 118.000
21.46950 132.000
21.48945 117.000
21.50940 117.000
21.52934 121.000
21.54929 125.000
21.56924 122.000
21.58918 109.000
21.60913 145.000
21.62908 116.000
21.64903 122.000
21.66897 110.000
21.68892 110.000
21.70887 118.000
21.72881 137.000
21.74876 134.000
21.76871 122.000
21.78865 101.000
21.80860 125.000
21.82855 113.000
21.84850 131.000
21.86844 119.000
21.88839 111.000
21.90834 116.000
21.92828 114.000
21.94823 145.000
21.96818 124.000
21.98812 105.000
22.00807 109.000
22.02802 138.000
22.04796 107.000
22.06791 121.000
22.08786 107.000
22.10781 95.000
22.12775 120.000
22.14770 137.000
22.16765 132.000
22.18759 125.000
22.20754 134.000
22.22749 122.000
22.24743 112.000
22.26738 105.000
22.28733 105.000
22.30728 100.000
22.32722 129.000
22.34717 112.000
22.36712 123.000
22.38706 132.000
22.40701 118.000
22.42696 97.000
22.44690 85.000
22.46685 122.000
22.48680 127.000
22.50675 96.000
22.52669 121.000
22.54664 112.000
22.56659 117.000
22.58653 129.000
22.60648 119.000
22.62643 105.000
22.64637 109.000
22.66632 118.000
22.68627 113.000
22.70621 139.000
22.72616 116.000
22.74611 134.000
22.76606 126.000
22.78600 126.000
22.80595 118.000
22.82590 106.000
22.84584 111.000
22.86579 114.000
22.88574 120.000
22.90568 116.000
22.92563 133.000
22.94558 130.000
22.96553 115.000
22.98547 104.000
23.00542 141.000
23.02537 141.000
23.04531 123.000
23.06526 131.000
23.08521 122.000
23.10515 118.000
23.12510 122.000
23.14505 108.000
23.16499 134.000
23.18494 113.000
23.20489 125.000
23.22484 132.000
23.24478 125.000
23.26473 125.000
23.28468 98.000
23.30462 124.000
23.32457 111.000
23.34452 118.000
23.36446 121.000
23.38441 123.000
23.40436 144.000
23.42431 119.000
23.44425 116.000
23.46420 124.000
23.48415 131.000
23.50409 109.000
23.52404 129.000
23.54399 124.000
23.56393 133.000
23.58388 133.000
23.60383 113.000
23.62377 130.000
23.64372 119.000
23.66367 115.000
23.68362 125.000
23.70356 127.000
23.72351 126.000
23.74346 134.000
23.76340 121.000
23.78335 118.000
23.80330 89.000
23.82324 113.000
23.84319 113.000
23.86314 118.000
23.88309 119.000
23.90303 116.000
23.92298 123.000
23.94293 102.000
23.96287 123.000
23.98282 130.000
24.00277 136.000
24.02271 135.000
24.04266 145.000
24.06261 120.000
24.08256 128.000
24.10250 142.000
24.12245 119.000
24.14240 125.000
24.16234 111.000
24.18229 121.000
24.20224 128.000
24.22218 154.000
24.24213 131.000
24.26208 119.000
24.28202 124.000
24.30197 132.000
24.32192 124.000
24.34187 105.000
24.36181 126.000
24.38176 126.000
24.40171 130.000
24.42165 118.000
24.44160 111.000
24.46155 132.000
24.48149 126.000
24.50144 126.000
24.52139 145.000
24.54134 114.000
24.56128 128.000
24.58123 121.000
24.60118 113.000
24.62112 129.000
24.64107 128.000
24.66102 133.000
24.68096 124.000
24.70091 131.000
24.72086 134.000
24.74080 111.000
24.76075 136.000
24.78070 132.000
24.80065 108.000
24.82059 131.000
24.84054 123.000
24.86049 127.000
24.88043 125.000
24.90038 145.000
24.92033 127.000
24.94027 144.000
24.96022 116.000
24.98017 126.000
25.00012 133.000
25.02006 124.000
25.04001 111.000
25.05996 112.000
25.07990 114.000
25.09985 121.000
25.11980 120.000
25.13974 128.000
25.15969 113.000
25.17964 136.000
25.19958 129.000
25.21953 119.000
25.23948 136.000
25.25943 136.000
25.27937 114.000
25.29932 112.000
25.31927 127.000
25.33921 124.000
25.35916 130.000
25.37911 143.000
25.39905 117.000
25.41900 132.000
25.43895 133.000
25.45890 110.000
25.47884 125.000
25.49879 143.000
25.51874 120.000
25.53868 135.000
25.55863 120.000
25.57858 139.000
25.59852 124.000
25.61847 118.000
25.63842 136.000
25.65837 119.000
25.67831 121.000
25.69826 129.000
25.71821 120.000
25.73815 147.000
25.75810 122.000
25.77805 134.000
25.79799 110.000
25.81794 118.000
25.83789 156.000
25.85783 142.000
25.87778 119.000
25.89773 137.000
25.91768 138.000
25.93762 136.000
25.95757 128.000
25.97752 137.000
25.99746 150.000
26.01741 138.000
26.03736 131.000
26.05730 123.000
26.07725 122.000
26.09720 130.000
26.11715 103.000
26.13709 140.000
26.15704 139.000
26.17699 110.000
26.19693 168.000
26.21688 140.000
26.23683 137.000
26.25677 127.000
26.27672 118.000
26.29667 114.000
26.31661 121.000
26.33656 138.000
26.35651 134.000
26.37646 131.000
26.39640 119.000
26.41635 141.000
26.43630 119.000
26.45624 123.000
26.47619 132.000
26.49614 139.000
26.51608 151.000
26.53603 151.000
26.55598 131.000
26.57593 128.000
26.59587 147.000
26.61582 150.000
26.63577 135.000
26.65571 139.000
26.67566 130.000
26.69561 128.000
26.71555 117.000
26.73550 129.000
26.75545 133.000
26.77539 126.000
26.79534 121.000
26.81529 126.000
26.83524 132.000
26.85518 117.000
26.87513 133.000
26.89508 131.000
26.91502 131.000
26.93497 131.000
26.95492 120.000
26.97486 127.000
26.99481 135.000
27.01476 132.000
27.03471 121.000
27.05465 143.000
27.07460 130.000
27.09455 150.000
27.11449 144.000
27.13444 125.000
27.15439 127.000
27.17433 137.000
27.19428 134.000
27.21423 123.000
27.23417 141.000
27.25412 126.000
27.27407 121.000
27.29402 150.000
27.31396 139.000
27.33391 134.000
27.35386 135.000
27.37380 117.000
27.39375 113.000
27.41370 144.000
27.43364 143.000
27.45359 131.000
27.47354 140.000
27.49349 131.000
27.51343 113.000
27.53338 132.000
27.55333 123.000
27.57327 159.000
27.59322 126.000
27.61317 158.000
27.63311 135.000
27.65306 134.000
27.67301 126.000
27.69296 134.000
27.71290 140.000
27.73285 129.000
27.75280 142.000
27.77274 127.000
27.79269 128.000
27.81264 133.000
27.83258 127.000
27.85253 125.000
27.87248 146.000
27.89242 125.000
27.91237 141.000
27.93232 133.000
27.95227 137.000
27.97221 151.000
27.99216 125.000
28.01211 145.000
28.03205 146.000
28.05200 137.000
28.07195 121.000
28.09189 126.000
28.11184 146.000
28.13179 158.000
28.15174 132.000
28.17168 118.000
28.19163 136.000
28.21158 132.000
28.23152 142.000
28.25147 151.000
28.27142 123.000
28.29136 157.000
28.31131 128.000
28.33126 119.000
28.35120 133.000
28.37115 139.000
28.39110 143.000
28.41105 141.000
28.43099 141.000
28.45094 135.000
28.47089 146.000
28.49083 138.000
28.51078 123.000
28.53073 142.000
28.55067 119.000
28.57062 135.000
28.59057 126.000
28.61052 124.000
28.63046 113.000
28.65041 130.000
28.67036 108.000
28.69030 130.000
28.71025 133.000
28.73020 128.000
28.75014 150.000
28.77009 116.000
28.79004 146.000
28.80998 143.000
28.82993 159.000
28.84988 142.000
28.86983 142.000
28.88977 120.000
28.90972 134.000
28.92967 122.000
28.94961 138.000
28.96956 129.000
28.98951 149.000
29.00945 145.000
29.02940 141.000
29.04935 127.000
29.06930 134.000
29.08924 122.000
29.10919 119.000
29.12914 141.000
29.14908 164.000
29.16903 128.000
29.18898 131.000
29.20892 139.000
29.22887 139.000
29.24882 125.000
29.26877 155.000
29.28871 168.000
29.30866 136.000
29.32861 149.000
29.34855 149.000
29.36850 109.000
29.38845 148.000
29.40839 149.000
29.42834 153.000
29.44829 153.000
29.46823 121.000
29.48818 127.000
29.50813 105.000
29.52808 140.000
29.54802 161.000
29.56797 143.000
29.58792 128.000
29.60786 128.000
29.62781 140.000
29.64776 136.000
29.66770 141.000
29.68765 162.000
29.70760 155.000
29.72755 140.000
29.74749 157.000
29.76744 151.000
29.78739 144.000
29.80733 166.000
29.82728 142.000
29.84723 166.000
29.86717 178.000
29.88712 219.000
29.90707 240.000
29.92701 294.000
29.94696 363.000
29.96691 398.000
29.98686 467.000
30.00680 482.000
30.02675 441.000
30.04670 371.000
30.06664 363.000
30.08659 261.000
30.10654 254.000
30.12648 220.000
30.14643 184.000
30.16638 153.000
30.18633 166.000
30.20627 160.000
30.22622 158.000
30.24617 162.000
30.26611 144.000
30.28606 135.000
30.30601 142.000
30.32595 149.000
30.34590 148.000
30.36585 158.000
30.38579 134.000
30.40574 147.000
30.42569 146.000
30.44564 127.000
30.46558 154.000
30.48553 129.000
30.50548 163.000
30.52542 123.000
30.54537 168.000
30.56532 137.000
30.58526 142.000
30.60521 137.000
30.62516 145.000
30.64511 141.000
30.66505 157.000
30.68500 129.000
30.70495 134.000
30.72489 125.000
30.74484 134.000
30.76479 161.000
30.78473 133.000
30.80468 173.000
30.82463 132.000
30.84458 126.000
30.86452 155.000
30.88447 161.000
30.90442 134.000
30.92436 140.000
30.94431 152.000
30.96426 125.000
30.98420 147.000
31.00415 138.000
31.02410 140.000
31.04404 127.000
31.06399 135.000
31.08394 122.000
31.10389 156.000
31.12383 124.000
31.14378 141.000
31.16373 141.000
31.18367 139.000
31.20362 153.000
31.22357 134.000
31.24351 148.000
31.26346 160.000
31.28341 152.000
31.30336 146.000
31.32330 154.000
31.34325 153.000
31.36320 146.000
31.38314 143.000
31.40309 160.000
31.42304 154.000
31.44298 139.000
31.46293 127.000
31.48288 150.000
31.50282 154.000
31.52277 154.000
31.54272 146.000
31.56267 163.000
31.58261 166.000
31.60256 162.000
31.62251 150.000
31.64245 178.000
31.66240 173.000
31.68235 200.000
31.70229 232.000
31.72224 252.000
31.74219 292.000
31.76214 390.000
31.78208 423.000
31.80203 498.000
31.82198 466.000
31.84192 433.000
31.86187 407.000
31.88182 331.000
31.90176 345.000
31.92171 266.000
31.94166 237.000
31.96160 207.000
31.98155 164.000
32.00150 179.000
32.02145 154.000
32.04139 162.000
32.06134 156.000
32.08129 146.000
32.10123 162.000
32.12118 143.000
32.14113 127.000
32.16107 153.000
32.18102 159.000
32.20097 132.000
32.22092 146.000
32.24086 136.000
32.26081 151.000
32.28076 133.000
32.30070 145.000
32.32065 158.000
32.34060 179.000
32.36054 155.000
32.38049 145.000
32.40044 148.000
32.42039 142.000
32.44033 166.000
32.46028 139.000
32.48023 165.000
32.50017 165.000
32.52012 172.000
32.54007 195.000
32.56001 152.000
32.57996 181.000
32.59991 196.000
32.61985 200.000
32.63980 162.000
32.65975 162.000
32.67970 165.000
32.69964 169.000
32.71959 158.000
32.73954 149.000
32.75948 158.000
32.77943 142.000
32.79938 142.000
32.81932 149.000
32.83927 133.000
32.85922 146.000
32.87917 138.000
32.89911 134.000
32.91906 145.000
32.93901 144.000
32.95895 144.000
32.97890 143.000
32.99885 122.000
33.01879 136.000
33.03874 154.000
33.05869 135.000
33.07863 136.000
33.09858 150.000
33.11853 159.000
33.13848 146.000
33.15842 144.000
33.17837 145.000
33.19832 128.000
33.21826 142.000
33.23821 138.000
33.25816 145.000
33.27810 135.000
33.29805 139.000
33.31800 156.000
33.33795 119.000
33.35789 131.000
33.37784 155.000
33.39779 153.000
33.41773 155.000
33.43768 170.000
33.45763 129.000
33.47757 134.000
33.49752 143.000
33.51747 150.000
33.53741 152.000
33.55736 152.000
33.57731 157.000
33.59726 147.000
33.61720 152.000
33.63715 142.000
33.65710 126.000
33.67704 160.000
33.69699 136.000
33.71694 148.000
33.73688 135.000
33.75683 148.000
33.77678 165.000
33.79673 138.000
33.81667 157.000
33.83662 147.000
33.85657 161.000
33.87651 158.000
33.89646 130.000
33.91641 160.000
33.93635 131.000
33.95630 146.000
33.97625 131.000
33.99620 146.000
34.01614 132.000
34.03609 147.000
34.05604 148.000
34.07598 146.000
34.09593 134.000
34.11588 174.000
34.13582 162.000
34.15577 158.000
34.17572 128.000
34.19566 148.000
34.21561 145.000
34.23556 170.000
34.25551 156.000
34.27545 143.000
34.29540 169.000
34.31535 131.000
34.33529 145.000
34.35524 138.000
34.37519 154.000
34.39513 152.000
34.41508 129.000
34.43503 121.000
34.45498 175.000
34.47492 149.000
34.49487 137.000
34.51482 147.000
34.53476 160.000
34.55471 174.000
34.57466 162.000
34.59460 173.000
34.61455 168.000
34.63450 157.000
34.65444 176.000
34.67439 181.000
34.69434 150.000
34.71429 180.000
34.73423 157.000
34.75418 191.000
34.77413 201.000
34.79407 185.000
34.81402 180.000
34.83397 158.000
34.85391 166.000
34.87386 197.000
34.89381 187.000
34.91376 196.000
34.93370 192.000
34.95365 199.000
34.97360 211.000
34.99354 190.000
35.01349 190.000
35.03344 197.000
35.05338 211.000
35.07333 196.000
35.09328 254.000
35.11322 228.000
35.13317 275.000
35.15312 265.000
35.17307 344.000
35.19301 436.000
35.21296 502.000
35.23291 663.000
35.25285 867.000
35.27280 996.000
35.29275 1185.000
35.31269 1262.000
35.33264 1268.000
35.35259 1154.000
35.37254 1062.000
35.39248 934.000
35.41243 898.000
35.43238 782.000
35.45232 684.000
35.47227 702.000
35.49222 736.000
35.51216 784.000
35.53211 841.000
35.55206 880.000
35.57201 1076.000
35.59195 1154.000
35.61190 1167.000
35.63185 1095.000
35.65179 951.000
35.67174 878.000
35.69169 700.000
35.71163 648.000
35.73158 555.000
35.75153 438.000
35.77147 387.000
35.79142 281.000
35.81137 214.000
35.83132 219.000
35.85126 178.000
35.87121 187.000
35.89116 185.000
35.91110 174.000
35.93105 156.000
35.95100 143.000
35.97094 173.000
35.99089 148.000
36.01084 159.000
36.03079 148.000
36.05073 164.000
36.07068 161.000
36.09063 145.000
36.11057 130.000
36.13052 157.000
36.15047 164.000
36.17041 149.000
36.19036 138.000
36.21031 157.000
36.23025 173.000
36.25020 155.000
36.27015 143.000
36.29010 177.000
36.31004 173.000
36.32999 144.000
36.34994 171.000
36.36988 155.000
36.38983 147.000
36.40978 187.000
36.42972 153.000
36.44967 189.000
36.46962 183.000
36.48957 200.000
36.50951 201.000
36.52946 196.000
36.54941 177.000
36.56935 178.000
36.58930 161.000
36.60925 167.000
36.62919 177.000
36.64914 163.000
36.66909 179.000
36.68903 141.000
36.70898 163.000
36.72893 125.000
36.74888 165.000
36.76882 157.000
36.78877 146.000
36.80872 162.000
36.82866 153.000
36.84861 154.000
36.86856 177.000
36.88850 205.000
36.90845 231.000
36.92840 270.000
36.94835 263.000
36.96829 222.000
36.98824 221.000
37.00819 208.000
37.02813 198.000
37.04808 187.000
37.06803 154.000
37.08797 166.000
37.10792 142.000
37.12787 150.000
37.14781 160.000
37.16776 156.000
37.18771 149.000
37.20766 159.000
37.22760 147.000
37.24755 135.000
37.26750 159.000
37.28744 156.000
37.30739 137.000
37.32734 140.000
37.34728 170.000
37.36723 131.000
37.38718 150.000
37.40713 137.000
37.42707 128.000
37.44702 117.000
37.46697 146.000
37.48691 135.000
37.50686 141.000
37.52681 129.000
37.54675 152.000
37.56670 150.000
37.58665 152.000
37.60660 153.000
37.62654 140.000
37.64649 158.000
37.66644 142.000
37.68638 151.000
37.70633 147.000
37.72628 111.000
37.74622 150.000
37.76617 140.000
37.78612 142.000
37.80606 136.000
37.82601 137.000
37.84596 139.000
37.86591 145.000
37.88585 162.000
37.90580 178.000
37.92575 171.000
37.94569 170.000
37.96564 161.000
37.98559 128.000
38.00553 158.000
38.02548 153.000
38.04543 147.000
38.06538 148.000
38.08532 187.000
38.10527 163.000
38.12522 166.000
38.14516 172.000
38.16511 153.000
38.18506 162.000
38.20500 160.000
38.22495 185.000
38.24490 152.000
38.26484 148.000
38.28479 153.000
38.30474 190.000
38.32469 176.000
38.34463 149.000
38.36458 162.000
38.38453 174.000
38.40447 157.000
38.42442 169.000
38.44437 182.000
38.46431 177.000
38.48426 193.000
38.50421 177.000
38.52416 189.000
38.54410 176.000
38.56405 189.000
38.58400 182.000
38.60394 215.000
38.62389 234.000
38.64384 273.000
38.66378 302.000
38.68373 346.000
38.70368 423.000
38.72362 477.000
38.74357 542.000
38.76352 611.000
38.78347 673.000
38.80341 766.000
38.82336 773.000
38.84331 783.000
38.86325 707.000
38.88320 636.000
38.90315 642.000
38.92309 565.000
38.94304 551.000
38.96299 601.000
38.98294 608.000
39.00288 548.000
39.02283 566.000
39.04278 606.000
39.06272 785.000
39.08267 820.000
39.10262 933.000
39.12256 1020.000
39.14251 992.000
39.16246 991.000
39.18241 876.000
39.20235 779.000
39.22230 751.000
39.24225 682.000
39.26219 588.000
39.28214 482.000
39.30209 425.000
39.32203 319.000
39.34198 286.000
39.36193 248.000
39.38187 215.000
39.40182 214.000
39.42177 200.000
39.44172 212.000
39.46166 169.000
39.48161 182.000
39.50156 177.000
39.52150 156.000
39.54145 161.000
39.56140 159.000
39.58134 148.000
39.60129 146.000
39.62124 156.000
39.64119 174.000
39.66113 161.000
39.68108 147.000
39.70103 152.000
39.72097 168.000
39.74092 127.000
39.76087 157.000
39.78081 131.000
39.80076 144.000
39.82071 123.000
39.84065 139.000
39.86060 147.000
39.88055 136.000
39.90050 133.000
39.92044 155.000
39.94039 157.000
39.96034 141.000
39.98028 143.000
40.00023 125.000
40.02018 144.000
40.04012 147.000
40.06007 127.000
40.08002 125.000
40.09997 143.000
40.11991 129.000
40.13986 135.000
40.15981 147.000
40.17975 130.000
40.19970 156.000
40.21965 146.000
40.23959 138.000
40.25954 152.000
40.27949 132.000
40.29943 162.000
40.31938 145.000
40.33933 152.000
40.35928 156.000
40.37922 127.000
40.39917 148.000
40.41912 146.000
40.43906 142.000
40.45901 141.000
40.47896 122.000
40.49890 130.000
40.51885 152.000
40.53880 142.000
40.55875 126.000
40.57869 150.000
40.59864 119.000
40.61859 146.000
40.63853 161.000
40.65848 122.000
40.67843 157.000
40.69837 133.000
40.71832 136.000
40.73827 128.000
40.75822 143.000
40.77816 129.000
40.79811 124.000
40.81806 149.000
40.83800 121.000
40.85795 145.000
40.87790 154.000
40.89784 155.000
40.91779 130.000
40.93774 135.000
40.95768 145.000
40.97763 139.000
40.99758 118.000
41.01753 119.000
41.03747 158.000
41.05742 130.000
41.07737 126.000
41.09731 152.000
41.11726 122.000
41.13721 127.000
41.15715 145.000
41.17710 156.000
41.19705 125.000
41.21700 144.000
41.23694 136.000
41.25689 140.000
41.27684 123.000
41.29678 132.000
41.31673 141.000
41.33668 141.000
41.35662 141.000
41.37657 115.000
41.39652 145.000
41.41646 132.000
41.43641 138.000
41.45636 121.000
41.47631 153.000
41.49625 144.000
41.51620 123.000
41.53615 141.000
41.55609 121.000
41.57604 119.000
41.59599 155.000
41.61593 137.000
41.63588 135.000
41.65583 142.000
41.67578 136.000
41.69572 129.000
41.71567 137.000
41.73562 147.000
41.75556 142.000
41.77551 135.000
41.79546 126.000
41.81540 120.000
41.83535 123.000
41.85530 121.000
41.87524 136.000
41.89519 153.000
41.91514 135.000
41.93509 148.000
41.95503 117.000
41.97498 137.000
41.99493 148.000
42.01487 125.000
42.03482 130.000
42.05477 140.000
42.07471 127.000
42.09466 126.000
42.11461 142.000
42.13456 133.000
42.15450 146.000
42.17445 134.000
42.19440 127.000
42.21434 130.000
42.23429 155.000
42.25424 138.000
42.27418 135.000
42.29413 146.000
42.31408 141.000
42.33403 145.000
42.35397 134.000
42.37392 136.000
42.39387 122.000
42.41381 142.000
42.43376 141.000
42.45371 162.000
42.47365 131.000
42.49360 167.000
42.51355 159.000
42.53349 147.000
42.55344 153.000
42.57339 146.000
42.59334 142.000
42.61328 159.000
42.63323 141.000
42.65318 150.000
42.67312 147.000
42.69307 171.000
42.71302 178.000
42.73296 175.000
42.75291 202.000
42.77286 238.000
42.79281 225.000
42.81275 267.000
42.83270 253.000
42.85265 320.000
42.87259 314.000
42.89254 386.000
42.91249 391.000
42.93243 363.000
42.95238 345.000
42.97233 388.000
42.99227 317.000
43.01222 279.000
43.03217 292.000
43.05212 286.000
43.07206 302.000
43.09201 258.000
43.11196 295.000
43.13190 351.000
43.15185 380.000
43.17180 412.000
43.19174 405.000
43.21169 459.000
43.23164 444.000
43.25159 388.000
43.27153 347.000
43.29148 333.000
43.31143 276.000
43.33137 319.000
43.35132 278.000
43.37127 235.000
43.39121 219.000
43.41116 223.000
43.43111 206.000
43.45105 186.000
43.47100 162.000
43.49095 163.000
43.51090 140.000
43.53084 183.000
43.55079 154.000
43.57074 142.000
43.59068 156.000
43.61063 141.000
43.63058 147.000
43.65052 135.000
43.67047 132.000
43.69042 136.000
43.71037 144.000
43.73031 142.000
43.75026 107.000
43.77021 134.000
43.79015 153.000
43.81010 131.000
43.83005 109.000
43.84999 135.000
43.86994 155.000
43.88989 131.000
43.90984 132.000
43.92978 158.000
43.94973 138.000
43.96968 134.000
43.98962 152.000
44.00957 122.000
44.02952 135.000
44.04946 118.000
44.06941 132.000
44.08936 121.000
44.10930 129.000
44.12925 131.000
44.14920 128.000
44.16915 128.000
44.18909 109.000
44.20904 144.000
44.22899 147.000
44.24893 142.000
44.26888 135.000
44.28883 120.000
44.30877 139.000
44.32872 142.000
44.34867 146.000
44.36862 114.000
44.38856 143.000
44.40851 120.000
44.42846 142.000
44.44840 141.000
44.46835 133.000
44.48830 137.000
44.50824 124.000
44.52819 122.000
44.54814 137.000
44.56808 130.000
44.58803 124.000
44.60798 123.000
44.62793 124.000
44.64787 133.000
44.66782 140.000
44.68777 138.000
44.70771 133.000
44.72766 128.000
44.74761 132.000
44.76755 138.000
44.78750 119.000
44.80745 134.000
44.82740 139.000
44.84734 142.000
44.86729 149.000
44.88724 137.000
44.90718 132.000
44.92713 144.000
44.94708 141.000
44.96702 132.000
44.98697 141.000
45.00692 139.000
45.02686 140.000
45.04681 141.000
45.06676 126.000
45.08671 149.000
45.10665 140.000
45.12660 131.000
45.14655 139.000
45.16649 117.000
45.18644 126.000
45.20639 150.000
45.22633 153.000
45.24628 131.000
45.26623 123.000
45.28618 129.000
45.30612 129.000
45.32607 154.000
45.34602 140.000
45.36596 129.000
45.38591 118.000
45.40586 130.000
45.42580 124.000
45.44575 125.000
45.46570 125.000
45.48565 108.000
45.50559 138.000
45.52554 138.000
45.54549 134.000
45.56543 133.000
45.58538 132.000
45.60533 119.000
45.62527 139.000
45.64522 142.000
45.66517 123.000
45.68511 129.000
45.70506 137.000
45.72501 137.000
45.74496 127.000
45.76490 131.000
45.78485 131.000
45.80480 124.000
45.82474 136.000
45.84469 111.000
45.86464 128.000
45.88458 151.000
45.90453 120.000
45.92448 152.000
45.94443 154.000
45.96437 156.000
45.98432 129.000
46.00427 134.000
46.02421 108.000
46.04416 137.000
46.06411 150.000
46.08405 163.000
46.10400 146.000
46.12395 137.000
46.14389 142.000
46.16384 111.000
46.18379 136.000
46.20374 117.000
46.22368 144.000
46.24363 138.000
46.26358 159.000
46.28352 143.000
46.30347 127.000
46.32342 134.000
46.34336 144.000
46.36331 122.000
46.38326 139.000
46.40321 154.000
46.42315 152.000
46.44310 147.000
46.46305 136.000
46.48299 128.000
46.50294 142.000
46.52289 121.000
46.54283 137.000
46.56278 129.000
46.58273 129.000
46.60267 129.000
46.62262 145.000
46.64257 107.000
46.66252 131.000
46.68246 136.000
46.70241 131.000
46.72236 106.000
46.74230 144.000
46.76225 130.000
46.78220 147.000
46.80214 126.000
46.82209 123.000
46.84204 132.000
46.86199 133.000
46.88193 136.000
46.90188 130.000
46.92183 137.000
46.94177 141.000
46.96172 136.000
46.98167 154.000
47.00161 149.000
47.02156 136.000
47.04151 136.000
47.06146 129.000
47.08140 147.000
47.10135 142.000
47.12130 151.000
47.14124 143.000
47.16119 131.000
47.18114 145.000
47.20108 136.000
47.22103 125.000
47.24098 148.000
47.26092 132.000
47.28087 129.000
47.30082 135.000
47.32077 133.000
47.34071 149.000
47.36066 123.000
47.38061 143.000
47.40055 128.000
47.42050 122.000
47.44045 139.000
47.46039 129.000
47.48034 138.000
47.50029 138.000
47.52024 133.000
47.54018 123.000
47.56013 147.000
47.58008 142.000
47.60002 111.000
47.61997 139.000
47.63992 140.000
47.65986 135.000
47.67981 156.000
47.69976 126.000
47.71970 124.000
47.73965 138.000
47.75960 154.000
47.77955 132.000
47.79949 150.000
47.81944 129.000
47.83939 129.000
47.85933 154.000
47.87928 148.000
47.89923 135.000
47.91917 153.000
47.93912 146.000
47.95907 158.000
47.97902 157.000
47.99896 171.000
48.01891 150.000
48.03886 181.000
48.05880 170.000
48.07875 189.000
48.09870 184.000
48.11864 175.000
48.13859 164.000
48.15854 186.000
48.17848 227.000
48.19843 211.000
48.21838 218.000
48.23833 226.000
48.25827 285.000
48.27822 244.000
48.29817 302.000
48.31811 330.000
48.33806 420.000
48.35801 470.000
48.37795 554.000
48.39790 730.000
48.41785 772.000
48.43780 815.000
48.45774 839.000
48.47769 799.000
48.49764 779.000
48.51758 763.000
48.53753 668.000
48.55748 589.000
48.57742 629.000
48.59737 529.000
48.61732 487.000
48.63726 427.000
48.65721 386.000
48.67716 391.000
48.69711 341.000
48.71705 372.000
48.73700 335.000
48.75695 362.000
48.77689 375.000
48.79684 337.000
48.81679 297.000
48.83673 261.000
48.85668 279.000
48.87663 277.000
48.89658 239.000
48.91652 230.000
48.93647 241.000
48.95642 197.000
48.97636 212.000
48.99631 202.000
49.01626 159.000
49.03620 180.000
49.05615 159.000
49.07610 140.000
49.09605 154.000
49.11599 145.000
49.13594 163.000
49.15589 147.000
49.17583 136.000
49.19578 121.000
49.21573 132.000
49.23567 149.000
49.25562 123.000
49.27557 138.000
49.29551 152.000
49.31546 145.000
49.33541 128.000
49.35536 128.000
49.37530 146.000
49.39525 151.000
49.41520 163.000
49.43514 149.000
49.45509 136.000
49.47504 138.000
49.49498 107.000
49.51493 142.000
49.53488 130.000
49.55483 123.000
49.57477 126.000
49.59472 122.000
49.61467 113.000
49.63461 121.000
49.65456 115.000
49.67451 147.000
49.69445 130.000
49.71440 119.000
49.73435 127.000
49.75429 148.000
49.77424 149.000
49.79419 135.000
49.81414 151.000
49.83408 135.000
49.85403 119.000
49.87398 120.000
49.89392 132.000
49.91387 131.000
49.93382 126.000
49.95376 126.000
49.97371 148.000
49.99366 116.000
50.01361 140.000
50.03355 136.000
50.05350 139.000
50.07345 121.000
50.09339 145.000
50.11334 121.000
50.13329 130.000
50.15323 127.000
50.17318 125.000
50.19313 115.000
50.21307 130.000
50.23302 134.000
50.25297 129.000
50.27292 155.000
50.29286 123.000
50.31281 122.000
50.33276 143.000
50.35270 127.000
50.37265 138.000
50.39260 133.000
50.41254 136.000
50.43249 126.000
50.45244 140.000
50.47239 141.000
50.49233 134.000
50.51228 136.000
50.53223 135.000
50.55217 151.000
50.57212 116.000
50.59207 137.000
50.61201 134.000
50.63196 127.000
50.65191 143.000
50.67186 131.000
50.69180 130.000
50.71175 124.000
50.73170 125.000
50.75164 130.000
50.77159 128.000
50.79154 151.000
50.81148 159.000
50.83143 126.000
50.85138 117.000
50.87132 123.000
50.89127 163.000
50.91122 129.000
50.93117 131.000
50.95111 122.000
50.97106 128.000
50.99101 115.000
51.01095 129.000
51.03090 130.000
51.05085 150.000
51.07079 147.000
51.09074 145.000
51.11069 133.000
51.13064 128.000
51.15058 154.000
51.17053 139.000
51.19048 139.000
51.21042 126.000
51.23037 134.000
51.25032 132.000
51.27026 107.000
51.29021 146.000
51.31016 121.000
51.33010 142.000
51.35005 152.000
51.37000 121.000
51.38995 151.000
51.40989 142.000
51.42984 125.000
51.44979 141.000
51.46973 139.000
51.48968 133.000
51.50963 158.000
51.52957 126.000
51.54952 137.000
51.56947 123.000
51.58942 170.000
51.60936 125.000
51.62931 119.000
51.64926 121.000
51.66920 152.000
51.68915 134.000
51.70910 125.000
51.72904 142.000
51.74899 118.000
51.76894 120.000
51.78888 128.000
51.80883 139.000
51.82878 134.000
51.84873 120.000
51.86867 129.000
51.88862 133.000
51.90857 136.000
51.92851 122.000
51.94846 128.000
51.96841 121.000
51.98835 132.000
52.00830 148.000
52.02825 139.000
52.04820 130.000
52.06814 137.000
52.08809 116.000
52.10804 125.000
52.12798 111.000
52.14793 142.000
52.16788 120.000
52.18782 112.000
52.20777 131.000
52.22772 107.000
52.24767 141.000
52.26761 124.000
52.28756 143.000
52.30751 157.000
52.32745 135.000
52.34740 131.000
52.36735 131.000
52.38729 118.000
52.40724 154.000
52.42719 129.000
52.44713 124.000
52.46708 144.000
52.48703 118.000
52.50698 133.000
52.52692 159.000
52.54687 128.000
52.56682 134.000
52.58676 111.000
52.60671 143.000
52.62666 128.000
52.64660 134.000
52.66655 133.000
52.68650 133.000
52.70645 133.000
52.72639 150.000
52.74634 141.000
52.76629 135.000
52.78623 129.000
52.80618 128.000
52.82613 153.000
52.84607 131.000
52.86602 136.000
52.88597 123.000
52.90591 132.000
52.92586 127.000
52.94581 137.000
52.96576 138.000
52.98570 173.000
53.00565 150.000
53.02560 145.000
53.04554 122.000
53.06549 152.000
53.08544 157.000
53.10538 158.000
53.12533 170.000
53.14528 167.000
53.16523 168.000
53.18517 207.000
53.20512 181.000
53.22507 189.000
53.24501 193.000
53.26496 171.000
53.28491 170.000
53.30485 184.000
53.32480 180.000
53.34475 177.000
53.36469 167.000
53.38464 203.000
53.40459 161.000
53.42454 138.000
53.44448 163.000
53.46443 161.000
53.48438 151.000
53.50432 160.000
53.52427 176.000
53.54422 187.000
53.56416 174.000
53.58411 177.000
53.60406 198.000
53.62401 173.000
53.64395 173.000
53.66390 185.000
53.68385 157.000
53.70379 151.000
53.72374 144.000
53.74369 164.000
53.76363 154.000
53.78358 161.000
53.80353 143.000
53.82348 141.000
53.84342 128.000
53.86337 146.000
53.88332 146.000
53.90326 136.000
53.92321 156.000
53.94316 130.000
53.96310 154.000
53.98305 157.000
54.00300 117.000
54.02294 151.000
54.04289 115.000
54.06284 134.000
54.08279 130.000
54.10273 109.000
54.12268 114.000
54.14263 129.000
54.16257 143.000
54.18252 133.000
54.20247 108.000
54.22241 156.000
54.24236 133.000
54.26231 130.000
54.28226 142.000
54.30220 132.000
54.32215 165.000
54.34210 159.000
54.36204 135.000
54.38199 118.000
54.40194 119.000
54.42188 122.000
54.44183 140.000
54.46178 154.000
54.48172 130.000
54.50167 131.000
54.52162 152.000
54.54157 128.000
54.56151 152.000
54.58146 116.000
54.60141 139.000
54.62135 139.000
54.64130 144.000
54.66125 120.000
54.68119 138.000
54.70114 124.000
54.72109 133.000
54.74104 141.000
54.76098 159.000
54.78093 133.000
54.80088 141.000
54.82082 139.000
54.84077 115.000
54.86072 135.000
54.88066 150.000
54.90061 131.000
54.92056 121.000
54.94050 130.000
54.96045 124.000
54.98040 125.000
55.00035 108.000
55.02029 135.000
55.04024 129.000
55.06019 133.000
55.08013 137.000
55.10008 155.000
55.12003 141.000
55.13997 139.000
55.15992 131.000
55.17987 123.000
55.19982 153.000
55.21976 141.000
55.23971 130.000
55.25966 130.000
55.27960 148.000
55.29955 135.000
55.31950 135.000
55.33944 103.000
55.35939 137.000
55.37934 129.000
55.39929 147.000
55.41923 101.000
55.43918 138.000
55.45913 153.000
55.47907 148.000
55.49902 139.000
55.51897 149.000
55.53891 118.000
55.55886 125.000
55.57881 127.000
55.59875 137.000
55.61870 134.000
55.63865 124.000
55.65860 136.000
55.67854 122.000
55.69849 144.000
55.71844 137.000
55.73838 138.000
55.75833 116.000
55.77828 132.000
55.79822 130.000
55.81817 128.000
55.83812 131.000
55.85807 134.000
55.87801 144.000
55.89796 148.000
55.91791 142.000
55.93785 148.000
55.95780 157.000
55.97775 118.000
55.99769 133.000
56.01764 138.000
56.03759 121.000
56.05753 129.000
56.07748 152.000
56.09743 138.000
56.11738 121.000
56.13732 120.000
56.15727 132.000
56.17722 144.000
56.19716 155.000
56.21711 114.000
56.23706 153.000
56.25700 143.000
56.27695 146.000
56.29690 139.000
56.31685 141.000
56.33679 148.000
56.35674 144.000
56.37669 152.000
56.39663 181.000
56.41658 151.000
56.43653 164.000
56.45647 178.000
56.47642 159.000
56.49637 150.000
56.51631 171.000
56.53626 188.000
56.55621 221.000
56.57616 220.000
56.59610 265.000
56.61605 290.000
56.63600 314.000
56.65594 378.000
56.67589 386.000
56.69584 360.000
56.71578 364.000
56.73573 388.000
56.75568 342.000
56.77563 299.000
56.79557 310.000
56.81552 292.000
56.83547 299.000
56.85541 266.000
56.87536 272.000
56.89531 237.000
56.91525 204.000
56.93520 195.000
56.95515 199.000
56.97510 147.000
56.99504 138.000
57.01499 155.000
57.03494 166.000
57.05488 144.000
57.07483 139.000
57.09478 167.000
57.11472 136.000
57.13467 149.000
57.15462 148.000
57.17456 157.000
57.19451 137.000
57.21446 124.000
57.23441 160.000
57.25435 141.000
57.27430 144.000
57.29425 135.000
57.31419 138.000
57.33414 158.000
57.35409 122.000
57.37403 157.000
57.39398 138.000
57.41393 129.000
57.43388 141.000
57.45382 143.000
57.47377 127.000
57.49372 131.000
57.51366 132.000
57.53361 122.000
57.55356 121.000
57.57350 137.000
57.59345 128.000
57.61340 139.000
57.63334 113.000
57.65329 149.000
57.67324 124.000
57.69319 135.000
57.71313 154.000
57.73308 146.000
57.75303 157.000
57.77297 140.000
57.79292 117.000
57.81287 137.000
57.83281 115.000
57.85276 122.000
57.87271 137.000
57.89266 126.000
57.91260 147.000
57.93255 139.000
57.95250 146.000
57.97244 141.000
57.99239 146.000
58.01234 118.000
58.03228 135.000
58.05223 140.000
58.07218 133.000
58.09212 126.000
58.11207 120.000
58.13202 145.000
58.15197 166.000
58.17191 151.000
58.19186 188.000
58.21181 149.000
58.23175 163.000
58.25170 177.000
58.27165 180.000
58.29159 190.000
58.31154 208.000
58.33149 192.000
58.35144 210.000
58.37138 203.000
58.39133 220.000
58.41128 223.000
58.43122 177.000
58.45117 170.000
58.47112 184.000
58.49106 181.000
58.51101 175.000
58.53096 175.000
58.55090 153.000
58.57085 151.000
58.59080 166.000
58.61075 137.000
58.63069 165.000
58.65064 142.000
58.67059 144.000
58.69053 140.000
58.71048 128.000
58.73043 137.000
58.75037 135.000
58.77032 147.000
58.79027 137.000
58.81022 138.000
58.83016 130.000
58.85011 134.000
58.87006 110.000
58.89000 162.000
58.90995 131.000
58.92990 137.000
58.94984 141.000
58.96979 129.000
58.98974 150.000
59.00969 134.000
59.02963 143.000
59.04958 112.000
59.06953 142.000
59.08947 133.000
59.10942 144.000
59.12937 141.000
59.14931 137.000
59.16926 155.000
59.18921 138.000
59.20915 150.000
59.22910 141.000
59.24905 139.000
59.26900 131.000
59.28894 126.000
59.30889 111.000
59.32884 156.000
59.34878 128.000
59.36873 127.000
59.38868 132.000
59.40862 150.000
59.42857 124.000
59.44852 133.000
59.46847 133.000
59.48841 148.000
59.50836 138.000
59.52831 130.000
59.54825 111.000
59.56820 124.000
59.58815 101.000
59.60809 124.000
59.62804 131.000
59.64799 137.000
59.66793 136.000
59.68788 125.000
59.70783 134.000
59.72778 142.000
59.74772 132.000
59.76767 157.000
59.78762 162.000
59.80756 141.000
59.82751 147.000
59.84746 135.000
59.86740 148.000
59.88735 125.000
59.90730 134.000
59.92725 154.000
59.94719 122.000
59.96714 124.000
59.98709 122.000
60.00703 157.000
60.02698 113.000
60.04693 135.000
60.06687 139.000
60.08682 127.000
60.10677 149.000
60.12671 115.000
60.14666 123.000
60.16661 136.000
60.18656 137.000
60.20650 133.000
60.22645 139.000
60.24640 135.000
60.26634 130.000
60.28629 143.000
60.30624 130.000
60.32618 143.000
60.34613 156.000
60.36608 144.000
60.38603 148.000
60.40597 148.000
60.42592 147.000
60.44587 131.000
60.46581 140.000
60.48576 124.000
60.50571 145.000
60.52565 143.000
60.54560 136.000
60.56555 167.000
60.58550 114.000
60.60544 151.000
60.62539 128.000
60.64534 151.000
60.66528 116.000
60.68523 140.000
60.70518 151.000
60.72512 155.000
60.74507 147.000
60.76502 157.000
60.78496 158.000
60.80491 145.000
60.82486 173.000
60.84481 133.000
60.86475 155.000
60.88470 155.000
60.90465 138.000
60.92459 140.000
60.94454 139.000
60.96449 150.000
60.98443 147.000
61.00438 174.000
61.02433 168.000
61.04428 160.000
61.06422 143.000
61.08417 154.000
61.10412 158.000
61.12406 178.000
61.14401 160.000
61.16396 165.000
61.18390 166.000
61.20385 158.000
61.22380 182.000
61.24374 193.000
61.26369 183.000
61.28364 204.000
61.30359 172.000
61.32353 195.000
61.34348 191.000
61.36343 220.000
61.38337 210.000
61.40332 224.000
61.42327 270.000
61.44321 300.000
61.46316 291.000
61.48311 392.000
61.50306 402.000
61.52300 461.000
61.54295 505.000
61.56290 513.000
61.58284 485.000
61.60279 515.000
61.62274 467.000
61.64268 447.000
61.66263 437.000
61.68258 426.000
61.70252 391.000
61.72247 366.000
61.74242 347.000
61.76237 357.000
61.78231 341.000
61.80226 302.000
61.82221 283.000
61.84215 235.000
61.86210 217.000
61.88205 231.000
61.90199 224.000
61.92194 175.000
61.94189 189.000
61.96184 217.000
61.98178 204.000
62.00173 189.000
62.02168 175.000
62.04162 202.000
62.06157 212.000
62.08152 184.000
62.10146 231.000
62.12141 271.000
62.14136 296.000
62.16131 320.000
62.18125 372.000
62.20120 386.000
62.22115 365.000
62.24109 485.000
62.26104 505.000
62.28099 421.000
62.30093 407.000
62.32088 375.000
62.34083 347.000
62.36077 348.000
62.38072 365.000
62.40067 342.000
62.42062 306.000
62.44056 338.000
62.46051 289.000
62.48046 230.000
62.50040 225.000
62.52035 202.000
62.54030 171.000
62.56024 176.000
62.58019 166.000
62.60014 164.000
62.62009 174.000
62.64003 134.000
62.65998 111.000
62.67993 144.000
62.69987 164.000
62.71982 150.000
62.73977 142.000
62.75971 154.000
62.77966 133.000
62.79961 142.000
62.81955 130.000
62.83950 142.000
62.85945 155.000
62.87940 147.000
62.89934 133.000
62.91929 138.000
62.93924 133.000
62.95918 130.000
62.97913 173.000
62.99908 132.000
63.01902 134.000
63.03897 135.000
63.05892 175.000
63.07887 153.000
63.09881 131.000
63.11876 161.000
63.13871 145.000
63.15865 150.000
63.17860 135.000
63.19855 151.000
63.21849 137.000
63.23844 165.000
63.25839 156.000
63.27833 148.000
63.29828 136.000
63.31823 154.000
63.33818 140.000
63.35812 121.000
63.37807 149.000
63.39802 153.000
63.41796 135.000
63.43791 158.000
63.45786 157.000
63.47780 141.000
63.49775 149.000
63.51770 138.000
63.53765 159.000
63.55759 145.000
63.57754 146.000
63.59749 138.000
63.61743 153.000
63.63738 174.000
63.65733 191.000
63.67727 184.000
63.69722 191.000
63.71717 210.000
63.73712 215.000
63.75706 230.000
63.77701 299.000
63.79696 295.000
63.81690 300.000
63.83685 334.000
63.85680 320.000
63.87674 386.000
63.89669 331.000
63.91664 358.000
63.93658 323.000
63.95653 310.000
63.97648 299.000
63.99643 317.000
64.01637 283.000
64.03632 268.000
64.05627 247.000
64.07621 250.000
64.09616 237.000
64.11611 217.000
64.13605 209.000
64.15600 198.000
64.17595 180.000
64.19590 178.000
64.21584 162.000
64.23579 172.000
64.25574 164.000
64.27568 146.000
64.29563 142.000
64.31558 169.000
64.33552 149.000
64.35547 145.000
64.37542 162.000
64.39536 152.000
64.41531 172.000
64.43526 161.000
64.45521 173.000
64.47515 171.000
64.49510 131.000
64.51505 175.000
64.53499 157.000
64.55494 132.000
64.57489 140.000
64.59483 153.000
64.61478 149.000
64.63473 153.000
64.65468 156.000
64.67462 124.000
64.69457 160.000
64.71452 122.000
64.73446 143.000
64.75441 129.000
64.77436 144.000
64.79430 133.000
64.81425 136.000
64.83420 115.000
64.85414 154.000
64.87409 139.000
64.89404 134.000
64.91399 137.000
64.93393 130.000
64.95388 126.000
64.97383 162.000
64.99377 136.000
65.01372 139.000
65.03367 112.000
65.05361 126.000
65.07356 152.000
65.09351 142.000
65.11346 156.000
65.13340 147.000
65.15335 146.000
65.17330 141.000
65.19324 150.000
65.21319 144.000
65.23314 138.000
65.25308 131.000
65.27303 169.000
65.29298 154.000
65.31293 167.000
65.33287 164.000
65.35282 131.000
65.37277 155.000
65.39271 153.000
65.41266 172.000
65.43261 143.000
65.45255 161.000
65.47250 170.000
65.49245 165.000
65.51239 144.000
65.53234 148.000
65.55229 187.000
65.57224 143.000
65.59218 146.000
65.61213 143.000
65.63208 148.000
65.65202 158.000
65.67197 178.000
65.69192 143.000
65.71186 162.000
65.73181 149.000
65.75176 157.000
65.77171 185.000
65.79165 190.000
65.81160 195.000
65.83155 208.000
65.85149 209.000
65.87144 207.000
65.89139 236.000
65.91133 216.000
65.93128 222.000
65.95123 187.000
65.97117 223.000
65.99112 214.000
66.01107 210.000
66.03102 207.000
66.05096 245.000
66.07091 222.000
66.09086 260.000
66.11080 274.000
66.13075 305.000
66.15070 296.000
66.17064 311.000
66.19059 326.000
66.21054 410.000
66.23049 352.000
66.25043 376.000
66.27038 371.000
66.29033 360.000
66.31027 376.000
66.33022 351.000
66.35017 325.000
66.37011 291.000
66.39006 305.000
66.41001 343.000
66.42995 312.000
66.44990 280.000
66.46985 266.000
66.48980 243.000
66.50974 261.000
66.52969 213.000
66.54964 244.000
66.56958 208.000
66.58953 213.000
66.60948 218.000
66.62942 161.000
66.64937 181.000
66.66932 149.000
66.68927 162.000
66.70921 170.000
66.72916 165.000
66.74911 137.000
66.76905 138.000
66.78900 153.000
66.80895 149.000
66.82889 151.000
66.84884 143.000
66.86879 165.000
66.88874 135.000
66.90868 138.000
66.92863 142.000
66.94858 138.000
66.96852 127.000
66.98847 140.000
67.00842 162.000
67.02836 125.000
67.04831 124.000
67.06826 149.000
67.08820 140.000
67.10815 144.000
67.12810 127.000
67.14805 139.000
67.16799 166.000
67.18794 137.000
67.20789 148.000
67.22783 144.000
67.24778 131.000
67.26773 137.000
67.28767 143.000
67.30762 123.000
67.32757 145.000
67.34752 151.000
67.36746 127.000
67.38741 159.000
67.40736 130.000
67.42730 144.000
67.44725 139.000
67.46720 140.000
67.48714 135.000
67.50709 149.000
67.52704 135.000
67.54698 143.000
67.56693 151.000
67.58688 147.000
67.60683 114.000
67.62677 116.000
67.64672 153.000
67.66667 149.000
67.68661 155.000
67.70656 150.000
67.72651 125.000
67.74645 133.000
67.76640 133.000
67.78635 150.000
67.80630 128.000
67.82624 176.000
67.84619 141.000
67.86614 164.000
67.88608 171.000
67.90603 159.000
67.92598 165.000
67.94592 166.000
67.96587 174.000
67.98582 177.000
68.00576 179.000
68.02571 183.000
68.04566 197.000
68.06561 185.000
68.08555 181.000
68.10550 194.000
68.12545 195.000
68.14539 203.000
68.16534 192.000
68.18529 238.000
68.20523 194.000
68.22518 217.000
68.24513 183.000
68.26508 197.000
68.28502 174.000
68.30497 188.000
68.32492 174.000
68.34486 199.000
68.36481 181.000
68.38476 174.000
68.40470 150.000
68.42465 166.000
68.44460 147.000
68.46455 141.000
68.48449 143.000
68.50444 135.000
68.52439 140.000
68.54433 138.000
68.56428 119.000
68.58423 124.000
68.60417 132.000
68.62412 119.000
68.64407 145.000
68.66401 132.000
68.68396 127.000
68.70391 126.000
68.72386 129.000
68.74380 157.000
68.76375 157.000
68.78370 138.000
68.80364 124.000
68.82359 122.000
68.84354 133.000
68.86348 134.000
68.88343 142.000
68.90338 126.000
68.92333 145.000
68.94327 153.000
68.96322 151.000
68.98317 139.000
69.00311 133.000
69.02306 135.000
69.04301 166.000
69.06295 122.000
69.08290 126.000
69.10285 161.000
69.12279 127.000
69.14274 164.000
69.16269 142.000
69.18264 134.000
69.20258 145.000
69.22253 145.000
69.24248 140.000
69.26242 131.000
69.28237 135.000
69.30232 130.000
69.32226 122.000
69.34221 134.000
69.36216 124.000
69.38211 132.000
69.40205 152.000
69.42200 164.000
69.44195 156.000
69.46189 141.000
69.48184 136.000
69.50179 122.000
69.52173 144.000
69.54168 121.000
69.56163 138.000
69.58157 121.000
69.60152 117.000
69.62147 127.000
69.64142 131.000
69.66136 137.000
69.68131 132.000
69.70126 131.000
69.72120 136.000
69.74115 137.000
69.76110 134.000
69.78104 139.000
69.80099 124.000
69.82094 140.000
69.84089 121.000
69.86083 148.000
69.88078 158.000
69.90073 152.000
69.92067 139.000
69.94062 137.000
69.96057 136.000
69.98051 129.000
70.00046 117.000
70.02041 133.000
70.04035 129.000
70.06030 153.000
70.08025 156.000
70.10020 123.000
70.12014 122.000
70.14009 117.000
70.16004 130.000
70.17998 143.000
70.19993 132.000
70.21988 144.000
70.23982 140.000
70.25977 123.000
70.27972 135.000
70.29967 141.000
70.31961 143.000
70.33956 150.000
70.35951 151.000
70.37945 142.000
70.39940 133.000
70.41935 123.000
70.43929 117.000
70.45924 159.000
70.47919 138.000
70.49914 140.000
70.51908 166.000
70.53903 171.000
70.55898 152.000
70.57892 156.000
70.59887 138.000
70.61882 138.000
70.63876 130.000
70.65871 152.000
70.67866 133.000
70.69860 160.000
70.71855 138.000
70.73850 151.000
70.75845 144.000
70.77839 134.000
70.79834 143.000
70.81829 138.000
70.83823 131.000
70.85818 132.000
70.87813 142.000
70.89807 146.000
70.91802 126.000
70.93797 150.000
70.95792 143.000
70.97786 128.000
70.99781 127.000
71.01776 141.000
71.03770 137.000
71.05765 139.000
71.07760 115.000
71.09754 133.000
71.11749 159.000
71.13744 133.000
71.15738 150.000
71.17733 136.000
71.19728 139.000
71.21723 147.000
71.23717 117.000
71.25712 138.000
71.27707 137.000
71.29701 138.000
71.31696 127.000
71.33691 159.000
71.35685 140.000
71.37680 150.000
71.39675 122.000
71.41670 160.000
71.43664 144.000
71.45659 148.000
71.47654 138.000
71.49648 131.000
71.51643 110.000
71.53638 135.000
71.55632 112.000
71.57627 129.000
71.59622 141.000
71.61616 134.000
71.63611 130.000
71.65606 126.000
71.67601 131.000
71.69595 137.000
71.71590 136.000
71.73585 144.000
71.75579 134.000
71.77574 129.000
71.79569 137.000
71.81563 139.000
71.83558 127.000
71.85553 123.000
71.87548 137.000
71.89542 138.000
71.91537 124.000
71.93532 131.000
71.95526 135.000
71.97521 120.000
71.99516 146.000
72.01510 132.000
72.03505 115.000
72.05500 128.000
72.07495 119.000
72.09489 157.000
72.11484 150.000
72.13479 128.000
72.15473 118.000
72.17468 156.000
72.19463 129.000
72.21457 123.000
72.23452 145.000
72.25447 134.000
72.27441 145.000
72.29436 151.000
72.31431 165.000
72.33426 166.000
72.35420 154.000
72.37415 164.000
72.39410 144.000
72.41404 156.000
72.43399 157.000
72.45394 189.000
72.47388 162.000
72.49383 155.000
72.51378 165.000
72.53373 168.000
72.55367 140.000
72.57362 147.000
72.59357 172.000
72.61351 162.000
72.63346 139.000
72.65341 160.000
72.67335 154.000
72.69330 143.000
72.71325 141.000
72.73319 135.000
72.75314 129.000
72.77309 143.000
72.79304 161.000
72.81298 174.000
72.83293 145.000
72.85288 157.000
72.87282 142.000
72.89277 144.000
72.91272 174.000
72.93266 164.000
72.95261 174.000
72.97256 149.000
72.99251 172.000
73.01245 195.000
73.03240 207.000
73.05235 179.000
73.07229 201.000
73.09224 215.000
73.11219 163.000
73.13213 220.000
73.15208 201.000
73.17203 219.000
73.19197 217.000
73.21192 200.000
73.23187 194.000
73.25182 178.000
73.27176 192.000
73.29171 190.000
73.31166 193.000
73.33160 188.000
73.35155 154.000
73.37150 170.000
73.39144 158.000
73.41139 184.000
73.43134 172.000
73.45129 193.000
73.47123 162.000
73.49118 193.000
73.51113 210.000
73.53107 181.000
73.55102 205.000
73.57097 193.000
73.59091 193.000
73.61086 188.000
73.63081 195.000
73.65076 210.000
73.67070 177.000
73.69065 180.000
73.71060 176.000
73.73054 165.000
73.75049 157.000
73.77044 178.000
73.79038 186.000
73.81033 192.000
73.83028 166.000
73.85022 181.000
73.87017 163.000
73.89012 142.000
73.91007 132.000
73.93001 140.000
73.94996 169.000
73.96991 129.000
73.98985 163.000
74.00980 135.000
74.02975 154.000
74.04969 116.000
74.06964 141.000
74.08959 126.000
74.10954 133.000
74.12948 165.000
74.14943 122.000
74.16938 129.000
74.18932 133.000
74.20927 142.000
74.22922 147.000
74.24916 144.000
74.26911 147.000
74.28906 140.000
74.30900 161.000
74.32895 145.000
74.34890 156.000
74.36885 142.000
74.38879 142.000
74.40874 143.000
74.42869 158.000
74.44863 168.000
74.46858 171.000
74.48853 141.000
74.50847 163.000
74.52842 154.000
74.54837 174.000
74.56832 168.000
74.58826 152.000
74.60821 186.000
74.62816 176.000
74.64810 161.000
74.66805 168.000
74.68800 183.000
74.70794 149.000
74.72789 169.000
74.74784 155.000
74.76778 149.000
74.78773 177.000
74.80768 140.000
74.82763 144.000
74.84757 165.000
74.86752 164.000
74.88747 135.000
74.90741 160.000
74.92736 169.000
74.94731 174.000
74.96725 151.000
74.98720 177.000
75.00715 184.000
75.02710 181.000
75.04704 176.000
75.06699 202.000
75.08694 168.000
75.10688 152.000
75.12683 178.000
75.14678 167.000
75.16672 175.000
75.18667 170.000
75.20662 197.000
75.22657 197.000
75.24651 174.000
75.26646 204.000
75.28641 223.000
75.30635 194.000
75.32630 203.000
75.34625 202.000
75.36619 188.000
75.38614 190.000
75.40609 170.000
75.42603 181.000
75.44598 157.000
75.46593 150.000
75.48588 168.000
75.50582 181.000
75.52577 171.000
75.54572 179.000
75.56566 180.000
75.58561 160.000
75.60556 168.000
75.62550 159.000
75.64545 147.000
75.66540 156.000
75.68535 146.000
75.70529 158.000
75.72524 135.000
75.74519 142.000
75.76513 162.000
75.78508 126.000
75.80503 134.000
75.82497 156.000
75.84492 150.000
75.86487 137.000
75.88481 134.000
75.90476 130.000
75.92471 145.000
75.94466 145.000
75.96460 134.000
75.98455 129.000
76.00450 127.000
76.02444 172.000
76.04439 139.000
76.06434 147.000
76.08428 127.000
76.10423 120.000
76.12418 112.000
76.14413 136.000
76.16407 130.000
76.18402 129.000
76.20397 144.000
76.22391 130.000
76.24386 128.000
76.26381 140.000
76.28375 133.000
76.30370 128.000
76.32365 132.000
76.34359 154.000
76.36354 135.000
76.38349 147.000
76.40344 146.000
76.42338 142.000
76.44333 142.000
76.46328 131.000
76.48322 148.000
76.50317 134.000
76.52312 113.000
76.54306 147.000
76.56301 142.000
76.58296 153.000
76.60291 131.000
76.62285 139.000
76.64280 128.000
76.66275 140.000
76.68269 153.000
76.70264 140.000
76.72259 117.000
76.74253 169.000
76.76248 136.000
76.78243 130.000
76.80238 155.000
76.82232 156.000
76.84227 126.000
76.86222 142.000
76.88216 159.000
76.90211 152.000
76.92206 129.000
76.94200 160.000
76.96195 147.000
76.98190 136.000
77.00184 130.000
77.02179 123.000
77.04174 153.000
77.06169 133.000
77.08163 152.000
77.10158 135.000
77.12153 153.000
77.14147 148.000
77.16142 147.000
77.18137 160.000
77.20131 157.000
77.22126 162.000
77.24121 138.000
77.26116 160.000
77.28110 178.000
77.30105 148.000
77.32100 165.000
77.34094 171.000
77.36089 177.000
77.38084 177.000
77.40078 190.000
77.42073 211.000
77.44068 229.000
77.46062 200.000
77.48057 211.000
77.50052 205.000
77.52047 233.000
77.54041 227.000
77.56036 289.000
77.58031 233.000
77.60025 212.000
77.62020 250.000
77.64015 261.000
77.66009 231.000
77.68004 245.000
77.69999 227.000
77.71994 226.000
77.73988 214.000
77.75983 229.000
77.77978 219.000
77.79972 209.000
77.81967 186.000
77.83962 209.000
77.85956 190.000
77.87951 185.000
77.89946 187.000
77.91940 184.000
77.93935 173.000
77.95930 173.000
77.97925 167.000
77.99919 140.000
78.01914 127.000
78.03909 168.000
78.05903 146.000
78.07898 148.000
78.09893 145.000
78.11887 144.000
78.13882 150.000
78.15877 148.000
78.17872 152.000
78.19866 149.000
78.21861 152.000
78.23856 115.000
78.25850 144.000
78.27845 145.000
78.29840 154.000
78.31834 137.000
78.33829 157.000
78.35824 141.000
78.37819 134.000
78.39813 133.000
78.41808 151.000
78.43803 160.000
78.45797 146.000
78.47792 155.000
78.49787 159.000
78.51781 146.000
78.53776 152.000
78.55771 159.000
78.57765 152.000
78.59760 150.000
78.61755 143.000
78.63750 138.000
78.65744 151.000
78.67739 148.000
78.69734 147.000
78.71728 157.000
78.73723 151.000
78.75718 162.000
78.77712 148.000
78.79707 160.000
78.81702 140.000
78.83697 142.000
78.85691 151.000
78.87686 141.000
78.89681 143.000
78.91675 145.000
78.93670 144.000
78.95665 138.000
78.97659 132.000
78.99654 142.000
79.01649 140.000
79.03643 158.000
79.05638 166.000
79.07633 103.000
79.09628 112.000
79.11622 125.000
79.13617 110.000
79.15612 130.000
79.17606 99.000
79.19601 139.000
79.21596 130.000
79.23590 137.000
79.25585 133.000
79.27580 131.000
79.29575 135.000
79.31569 130.000
79.33564 145.000
79.35559 120.000
79.37553 135.000
79.39548 122.000
79.41543 138.000
79.43537 125.000
79.45532 130.000
79.47527 150.000
79.49521 150.000
79.51516 134.000
79.53511 123.000
79.55506 147.000
79.57500 130.000
79.59495 127.000
79.61490 125.000
79.63484 138.000
79.65479 106.000
79.67474 134.000
79.69468 112.000
79.71463 129.000
79.73458 118.000
79.75453 157.000
79.77447 130.000
79.79442 138.000
79.81437 140.000
79.83431 131.000
79.85426 156.000
79.87421 166.000
79.89415 137.000
79.91410 134.000
79.93405 158.000
79.95399 124.000
79.97394 152.000
79.99389 141.000
80.01384 149.000
80.03378 113.000
80.05373 149.000
80.07368 162.000
80.09362 130.000
80.11357 135.000
80.13352 154.000
80.15346 158.000
80.17341 153.000
80.19336 145.000
80.21331 152.000
80.23325 168.000
80.25320 161.000
80.27315 151.000
80.29309 145.000
80.31304 149.000
80.33299 172.000
80.35293 145.000
80.37288 159.000
80.39283 175.000
80.41278 150.000
80.43272 132.000
80.45267 149.000
80.47262 148.000
80.49256 151.000
80.51251 175.000
80.53246 138.000
80.55240 135.000
80.57235 148.000
80.59230 131.000
80.61224 133.000
80.63219 123.000
80.65214 146.000
80.67209 122.000
80.69203 139.000
80.71198 130.000
80.73193 160.000
80.75187 137.000
80.77182 141.000
80.79177 149.000
80.81171 126.000
80.83166 128.000
80.85161 136.000
80.87156 137.000
80.89150 127.000
80.91145 140.000
80.93140 118.000
80.95134 138.000
80.97129 145.000
80.99124 129.000
81.01118 129.000
81.03113 127.000
81.05108 140.000
81.07102 139.000
81.09097 133.000
81.11092 140.000
81.13087 139.000
81.15081 137.000
81.17076 135.000
81.19071 141.000
81.21065 131.000
81.23060 137.000
81.25055 142.000
81.27049 118.000
81.29044 145.000
81.31039 160.000
81.33034 148.000
81.35028 154.000
81.37023 148.000
81.39018 119.000
81.41012 117.000
81.43007 134.000
81.45002 122.000
81.46996 140.000
81.48991 142.000
81.50986 151.000
81.52980 146.000
81.54975 157.000
81.56970 145.000
81.58965 149.000
81.60959 137.000
81.62954 139.000
81.64949 125.000
81.66943 124.000
81.68938 135.000
81.70933 143.000
81.72927 150.000
81.74922 127.000
81.76917 128.000
81.78912 146.000
81.80906 149.000
81.82901 144.000
81.84896 110.000
81.86890 135.000
81.88885 140.000
81.90880 141.000
81.92874 147.000
81.94869 143.000
81.96864 157.000
81.98859 122.000
82.00853 134.000
82.02848 129.000
82.04843 116.000
82.06837 153.000
82.08832 118.000
82.10827 141.000
82.12821 146.000
82.14816 136.000
82.16811 142.000
82.18805 133.000
82.20800 157.000
82.22795 142.000
82.24790 133.000
82.26784 136.000
82.28779 166.000
82.30774 160.000
82.32768 142.000
82.34763 147.000
82.36758 159.000
82.38752 173.000
82.40747 147.000
82.42742 141.000
82.44737 150.000
82.46731 165.000
82.48726 152.000
82.50721 149.000
82.52715 151.000
82.54710 154.000
82.56705 130.000
82.58699 176.000
82.60694 152.000
82.62689 139.000
82.64683 135.000
82.66678 167.000
82.68673 131.000
82.70668 150.000
82.72662 123.000
82.74657 136.000
82.76652 177.000
82.78646 122.000
82.80641 154.000
82.82636 132.000
82.84630 136.000
82.86625 152.000
82.88620 145.000
82.90615 161.000
82.92609 151.000
82.94604 174.000
82.96599 151.000
82.98593 132.000
83.00588 157.000
83.02583 149.000
83.04577 153.000
83.06572 160.000
83.08567 145.000
83.10561 126.000
83.12556 145.000
83.14551 148.000
83.16546 147.000
83.18540 157.000
83.20535 164.000
83.22530 158.000
83.24524 147.000
83.26519 140.000
83.28514 135.000
83.30508 182.000
83.32503 168.000
83.34498 163.000
83.36493 158.000
83.38487 167.000
83.40482 156.000
83.42477 148.000
83.44471 164.000
83.46466 158.000
83.48461 154.000
83.50455 143.000
83.52450 158.000
83.54445 188.000
83.56440 180.000
83.58434 169.000
83.60429 169.000
83.62424 173.000
83.64418 154.000
83.66413 165.000
83.68408 141.000
83.70402 169.000
83.72397 151.000
83.74392 160.000
83.76386 167.000
83.78381 142.000
83.80376 193.000
83.82371 185.000
83.84365 165.000
83.86360 185.000
83.88355 193.000
83.90349 187.000
83.92344 205.000
83.94339 215.000
83.96333 198.000
83.98328 213.000
84.00323 234.000
84.02318 191.000
84.04312 210.000
84.06307 216.000
84.08302 201.000
84.10296 202.000
84.12291 194.000
84.14286 163.000
84.16280 206.000
84.18275 172.000
84.20270 183.000
84.22264 187.000
84.24259 180.000
84.26254 191.000
84.28249 171.000
84.30243 170.000
84.32238 145.000
84.34233 156.000
84.36227 167.000
84.38222 156.000
84.40217 141.000
84.42211 153.000
84.44206 167.000
84.46201 142.000
84.48196 143.000
84.50190 128.000
84.52185 160.000
84.54180 140.000
84.56174 149.000
84.58169 133.000
84.60164 120.000
84.62158 150.000
84.64153 131.000
84.66148 133.000
84.68142 125.000
84.70137 151.000
84.72132 142.000
84.74127 150.000
84.76121 120.000
84.78116 142.000
84.80111 146.000
84.82105 138.000
84.84100 155.000
84.86095 146.000
84.88089 152.000
84.90084 131.000
84.92079 140.000
84.94074 149.000
84.96068 151.000
84.98063 121.000
85.00058 120.000
85.02052 134.000
85.04047 151.000
85.06042 144.000
85.08036 141.000
85.10031 128.000
85.12026 131.000
85.14021 144.000
85.16015 143.000
85.18010 126.000
85.20005 152.000
85.21999 153.000
85.23994 138.000
85.25989 152.000
85.27983 131.000
85.29978 116.000
85.31973 140.000
85.33967 143.000
85.35962 155.000
85.37957 149.000
85.39952 132.000
85.41946 132.000
85.43941 137.000
85.45936 137.000
85.47930 142.000
85.49925 135.000
85.51920 116.000
85.53914 153.000
85.55909 136.000
85.57904 134.000
85.59899 133.000
85.61893 141.000
85.63888 143.000
85.65883 158.000
85.67877 121.000
85.69872 144.000
85.71867 151.000
85.73861 115.000
85.75856 145.000
85.77851 137.000
85.79845 129.000
85.81840 144.000
85.83835 152.000
85.85830 130.000
85.87824 140.000
85.89819 136.000
85.91814 167.000
85.93808 145.000
85.95803 136.000
85.97798 129.000
85.99792 149.000
86.01787 138.000
86.03782 134.000
86.05777 140.000
86.07771 141.000
86.09766 157.000
86.11761 158.000
86.13755 159.000
86.15750 186.000
86.17745 167.000
86.19739 165.000
86.21734 198.000
86.23729 148.000
86.25723 178.000
86.27718 176.000
86.29713 175.000
86.31708 142.000
86.33702 171.000
86.35697 150.000
86.37692 128.000
86.39686 162.000
86.41681 154.000
86.43676 159.000
86.45670 144.000
86.47665 155.000
86.49660 159.000
86.51655 138.000
86.53649 158.000
86.55644 152.000
86.57639 133.000
86.59633 137.000
86.61628 168.000
86.63623 169.000
86.65617 163.000
86.67612 138.000
86.69607 158.000
86.71602 186.000
86.73596 140.000
86.75591 139.000
86.77586 161.000
86.79580 151.000
86.81575 149.000
86.83570 147.000
86.85564 153.000
86.87559 155.000
86.89554 149.000
86.91548 159.000
86.93543 161.000
86.95538 152.000
86.97533 147.000
86.99527 152.000
87.01522 153.000
87.03517 140.000
87.05511 145.000
87.07506 138.000
87.09501 139.000
87.11495 134.000
87.13490 126.000
87.15485 127.000
87.17480 155.000
87.19474 164.000
87.21469 137.000
87.23464 146.000
87.25458 153.000
87.27453 133.000
87.29448 127.000
87.31442 147.000
87.33437 129.000
87.35432 123.000
87.37426 132.000
87.39421 123.000
87.41416 127.000
87.43411 127.000
87.45405 154.000
87.47400 149.000
87.49395 130.000
87.51389 116.000
87.53384 134.000
87.55379 129.000
87.57373 133.000
87.59368 144.000
87.61363 123.000
87.63358 130.000
87.65352 114.000
87.67347 133.000
87.69342 114.000
87.71336 150.000
87.73331 149.000
87.75326 123.000
87.77320 148.000
87.79315 134.000
87.81310 144.000
87.83304 118.000
87.85299 118.000
87.87294 126.000
87.89289 123.000
87.91283 150.000
87.93278 141.000
87.95273 149.000
87.97267 141.000
87.99262 126.000
88.01257 120.000
88.03251 149.000
88.05246 179.000
88.07241 132.000
88.09236 127.000
88.11230 140.000
88.13225 129.000
88.15220 129.000
88.17214 139.000
88.19209 139.000
88.21204 140.000
88.23198 120.000
88.25193 146.000
88.27188 120.000
88.29183 154.000
88.31177 136.000
88.33172 110.000
88.35167 112.000
88.37161 139.000
88.39156 136.000
88.41151 127.000
88.43145 167.000
88.45140 140.000
88.47135 146.000
88.49129 146.000
88.51124 142.000
88.53119 151.000
88.55114 155.000
88.57108 148.000
88.59103 136.000
88.61098 144.000
88.63092 137.000
88.65087 163.000
88.67082 120.000
88.69076 128.000
88.71071 139.000
88.73066 123.000
88.75061 151.000
88.77055 155.000
88.79050 148.000
88.81045 146.000
88.83039 124.000
88.85034 153.000
88.87029 163.000
88.89023 125.000
88.91018 151.000
88.93013 172.000
88.95007 169.000
88.97002 169.000
88.98997 162.000
89.00992 195.000
89.02986 182.000
89.04981 163.000
89.06976 214.000
89.08970 208.000
89.10965 187.000
89.12960 189.000
89.14954 187.000
89.16949 217.000
89.18944 173.000
89.20939 185.000
89.22933 163.000
89.24928 204.000
89.26923 182.000
89.28917 186.000
89.30912 181.000
89.32907 176.000
89.34901 186.000
89.36896 174.000
89.38891 185.000
89.40885 176.000
89.42880 173.000
89.44875 166.000
89.46870 151.000
89.48864 162.000
89.50859 160.000
89.52854 154.000
89.54848 131.000
89.56843 157.000
89.58838 159.000
89.60832 155.000
89.62827 148.000
89.64822 142.000
89.66817 142.000
89.68811 155.000
89.70806 138.000
89.72801 129.000
89.74795 129.000
89.76790 158.000
89.78785 161.000
89.80779 125.000
89.82774 172.000
89.84769 148.000
89.86764 144.000
89.88758 160.000
89.90753 150.000
89.92748 154.000
89.94742 136.000
89.96737 140.000
89.98732 135.000
90.00726 168.000
