10.00000 133.000
10.01995 136.000
10.03989 154.000
10.05984 143.000
10.07979 142.000
10.09973 147.000
10.11968 170.000
10.13963 148.000
10.15958 160.000
10.17952 115.000
10.19947 171.000
10.21942 152.000
10.23936 140.000
10.25931 148.000
10.27926 166.000
10.29920 132.000
10.31915 129.000
10.33910 147.000
10.35905 147.000
10.37899 157.000
10.39894 164.000
10.41889 136.000
10.43883 125.000
10.45878 167.000
10.47873 120.000
10.49867 131.000
10.51862 160.000
10.53857 141.000
10.55851 162.000
10.57846 166.000
10.59841 127.000
10.61836 153.000
10.63830 145.000
10.65825 170.000
10.67820 156.000
10.69814 151.000
10.71809 150.000
10.73804 153.000
10.75798 160.000
10.77793 149.000
10.79788 149.000
10.81783 136.000
10.83777 169.000
10.85772 180.000
10.87767 139.000
10.89761 162.000
10.91756 127.000
10.93751 142.000
10.95745 151.000
10.97740 156.000
10.99735 152.000
11.01730 157.000
11.03724 133.000
11.05719 170.000
11.07714 139.000
11.09708 163.000
11.11703 128.000
11.13698 161.000
11.15692 160.000
11.17687 151.000
11.19682 160.000
11.21676 150.000
11.23671 159.000
11.25666 150.000
11.27661 145.000
11.29655 157.000
11.31650 152.000
11.33645 136.000
11.35639 158.000
11.37634 139.000
11.39629 143.000
11.41623 142.000
11.43618 135.000
11.45613 146.000
11.47608 146.000
11.49602 137.000
11.51597 157.000
11.53592 160.000
11.55586 158.000
11.57581 146.000
11.59576 165.000
11.61570 147.000
11.63565 169.000
11.65560 148.000
11.67554 149.000
11.69549 153.000
11.71544 154.000
11.73539 142.000
11.75533 151.000
11.77528 151.000
11.79523 145.000
11.81517 145.000
11.83512 152.000
11.85507 149.000
11.87501 133.000
11.89496 164.000
11.91491 166.000
11.93486 162.000
11.95480 157.000
11.97475 166.000
11.99470 159.000
12.01464 155.000
12.03459 148.000
12.05454 175.000
12.07448 150.000
12.09443 152.000
12.11438 147.000
12.13432 137.000
12.15427 162.000
12.17422 156.000
12.19417 133.000
12.21411 142.000
12.23406 148.000
12.25401 149.000
12.27395 140.000
12.29390 136.000
12.31385 152.000
12.33379 154.000
12.35374 161.000
12.37369 151.000
12.39364 186.000
12.41358 166.000
12.43353 148.000
12.45348 148.000
12.47342 145.000
12.49337 135.000
12.51332 160.000
12.53326 150.000
12.55321 164.000
12.57316 149.000
12.59311 142.000
12.61305 140.000
12.63300 162.000
12.65295 155.000
12.67289 154.000
12.69284 157.000
12.71279 153.000
12.73273 148.000
12.75268 155.000
12.77263 155.000
12.79257 135.000
12.81252 164.000
12.83247 150.000
12.85242 159.000
12.87236 140.000
12.89231 138.000
12.91226 142.000
12.93220 151.000
12.95215 167.000
12.97210 161.000
12.99204 149.000
13.01199 182.000
13.03194 151.000
13.05189 158.000
13.07183 163.000
13.09178 162.000
13.11173 143.000
13.13167 151.000
13.15162 157.000
13.17157 156.000
13.19151 165.000
13.21146 159.000
13.23141 158.000
13.25135 149.000
13.27130 180.000
13.29125 155.000
13.31120 175.000
13.33114 165.000
13.35109 140.000
13.37104 160.000
13.39098 150.000
13.41093 143.000
13.43088 170.000
13.45082 166.000
13.47077 146.000
13.49072 167.000
13.51067 171.000
13.53061 151.000
13.55056 162.000
13.57051 160.000
13.59045 150.000
13.61040 156.000
13.63035 156.000
13.65029 171.000
13.67024 155.000
13.69019 145.000
13.71013 166.000
13.73008 150.000
13.75003 174.000
13.76998 190.000
13.78992 160.000
13.80987 168.000
13.82982 147.000
13.84976 163.000
13.86971 172.000
13.88966 164.000
13.90960 149.000
13.92955 162.000
13.94950 166.000
13.96945 169.000
13.98939 152.000
14.00934 164.000
14.02929 155.000
14.04923 147.000
14.06918 167.000
14.08913 193.000
14.10907 157.000
14.12902 177.000
14.14897 155.000
14.16892 157.000
14.18886 140.000
14.20881 171.000
14.22876 172.000
14.24870 142.000
14.26865 169.000
14.28860 171.000
14.30854 155.000
14.32849 150.000
14.34844 176.000
14.36838 187.000
14.38833 158.000
14.40828 159.000
14.42823 150.000
14.44817 167.000
14.46812 169.000
14.48807 147.000
14.50801 170.000
14.52796 165.000
14.54791 150.000
14.56785 167.000
14.58780 173.000
14.60775 151.000
14.62770 166.000
14.64764 176.000
14.66759 176.000
14.68754 137.000
14.70748 176.000
14.72743 164.000
14.74738 180.000
14.76732 162.000
14.78727 178.000
14.80722 189.000
14.82716 188.000
14.84711 161.000
14.86706 180.000
14.88701 197.000
14.90695 155.000
14.92690 231.000
14.94685 191.000
14.96679 245.000
14.98674 187.000
15.00669 216.000
15.02663 226.000
15.04658 203.000
15.06653 192.000
15.08648 225.000
15.10642 213.000
15.12637 226.000
15.14632 247.000
15.16626 213.000
15.18621 232.000
15.20616 201.000
15.22610 247.000
15.24605 257.000
15.26600 225.000
15.28594 241.000
15.30589 266.000
15.32584 272.000
15.34579 284.000
15.36573 328.000
15.38568 339.000
15.40563 344.000
15.42557 396.000
15.44552 475.000
15.46547 527.000
15.48541 663.000
15.50536 877.000
15.52531 1138.000
15.54526 1516.000
15.56520 2125.000
15.58515 3123.000
15.60510 4439.000
15.62504 6063.000
15.64499 7921.000
15.66494 9313.000
15.68488 9801.000
15.70483 8611.000
15.72478 6184.000
15.74472 4044.000
15.76467 2148.000
15.78462 1138.000
15.80457 688.000
15.82451 522.000
15.84446 455.000
15.86441 402.000
15.88435 361.000
15.90430 323.000
15.92425 332.000
15.94419 286.000
15.96414 279.000
15.98409 326.000
16.00404 258.000
16.02398 232.000
16.04393 213.000
16.06388 224.000
16.08382 249.000
16.10377 230.000
16.12372 193.000
16.14366 226.000
16.16361 213.000
16.18356 206.000
16.20351 187.000
16.22345 184.000
16.24340 198.000
16.26335 212.000
16.28329 191.000
16.30324 188.000
16.32319 209.000
16.34313 217.000
16.36308 184.000
16.38303 201.000
16.40297 176.000
16.42292 179.000
16.44287 194.000
16.46282 195.000
16.48276 208.000
16.50271 192.000
16.52266 189.000
16.54260 194.000
16.56255 171.000
16.58250 176.000
16.60244 223.000
16.62239 175.000
16.64234 216.000
16.66229 182.000
16.68223 180.000
16.70218 217.000
16.72213 208.000
16.74207 217.000
16.76202 207.000
16.78197 230.000
16.80191 198.000
16.82186 183.000
16.84181 152.000
16.86175 202.000
16.88170 181.000
16.90165 199.000
16.92160 148.000
16.94154 168.000
16.96149 154.000
16.98144 165.000
17.00138 180.000
17.02133 160.000
17.04128 165.000
17.06122 165.000
17.08117 174.000
17.10112 182.000
17.12107 169.000
17.14101 172.000
17.16096 179.000
17.18091 174.000
17.20085 156.000
17.22080 190.000
17.24075 149.000
17.26069 172.000
17.28064 168.000
17.30059 161.000
17.32053 177.000
17.34048 155.000
17.36043 192.000
17.38038 176.000
17.40032 159.000
17.42027 188.000
17.44022 165.000
17.46016 169.000
17.48011 172.000
17.50006 168.000
17.52000 167.000
17.53995 163.000
17.55990 153.000
17.57985 178.000
17.59979 159.000
17.61974 171.000
17.63969 177.000
17.65963 152.000
17.67958 164.000
17.69953 176.000
17.71947 170.000
17.73942 170.000
17.75937 174.000
17.77932 149.000
17.79926 146.000
17.81921 180.000
17.83916 179.000
17.85910 177.000
17.87905 187.000
17.89900 163.000
17.91894 152.000
17.93889 167.000
17.95884 157.000
17.97878 191.000
17.99873 170.000
18.01868 173.000
18.03863 183.000
18.05857 162.000
18.07852 188.000
18.09847 199.000
18.11841 187.000
18.13836 195.000
18.15831 178.000
18.17825 205.000
18.19820 155.000
18.21815 164.000
18.23810 189.000
18.25804 182.000
18.27799 199.000
18.29794 176.000
18.31788 173.000
18.33783 189.000
18.35778 158.000
18.37772 165.000
18.39767 169.000
18.41762 168.000
18.43756 165.000
18.45751 172.000
18.47746 161.000
18.49741 183.000
18.51735 148.000
18.53730 166.000
18.55725 166.000
18.57719 174.000
18.59714 170.000
18.61709 172.000
18.63703 164.000
18.65698 155.000
18.67693 173.000
18.69688 184.000
18.71682 188.000
18.73677 178.000
18.75672 169.000
18.77666 192.000
18.79661 159.000
18.81656 183.000
18.83650 167.000
18.85645 150.000
18.87640 176.000
18.89634 168.000
18.91629 167.000
18.93624 195.000
18.95619 188.000
18.97613 178.000
18.99608 188.000
19.01603 160.000
19.03597 185.000
19.05592 193.000
19.07587 153.000
19.09581 217.000
19.11576 173.000
19.13571 167.000
19.15566 159.000
19.17560 160.000
19.19555 189.000
19.21550 204.000
19.23544 155.000
19.25539 167.000
19.27534 158.000
19.29528 178.000
19.31523 162.000
19.33518 186.000
19.35513 158.000
19.37507 202.000
19.39502 159.000
19.41497 177.000
19.43491 172.000
19.45486 165.000
19.47481 170.000
19.49475 161.000
19.51470 176.000
19.53465 172.000
19.55459 170.000
19.57454 190.000
19.59449 157.000
19.61444 183.000
19.63438 171.000
19.65433 172.000
19.67428 174.000
19.69422 171.000
19.71417 157.000
19.73412 172.000
19.75406 158.000
19.77401 180.000
19.79396 167.000
19.81391 180.000
19.83385 167.000
19.85380 168.000
19.87375 176.000
19.89369 147.000
19.91364 178.000
19.93359 185.000
19.95353 172.000
19.97348 185.000
19.99343 172.000
20.01337 193.000
20.03332 165.000
20.05327 183.000
20.07322 185.000
20.09316 177.000
20.11311 166.000
20.13306 176.000
20.15300 186.000
20.17295 193.000
20.19290 182.000
20.21284 185.000
20.23279 162.000
20.25274 193.000
20.27269 181.000
20.29263 191.000
20.31258 190.000
20.33253 226.000
20.35247 194.000
20.37242 197.000
20.39237 203.000
20.41231 177.000
20.43226 196.000
20.45221 178.000
20.47215 192.000
20.49210 230.000
20.51205 206.000
20.53200 195.000
20.55194 199.000
20.57189 240.000
20.59184 215.000
20.61178 261.000
20.63173 282.000
20.65168 327.000
20.67162 364.000
20.69157 384.000
20.71152 440.000
20.73147 495.000
20.75141 515.000
20.77136 535.000
20.79131 578.000
20.81125 551.000
20.83120 515.000
20.85115 495.000
20.87109 476.000
20.89104 406.000
20.91099 387.000
20.93094 346.000
20.95088 350.000
20.97083 289.000
20.99078 243.000
21.01072 244.000
21.03067 197.000
21.05062 232.000
21.07056 210.000
21.09051 217.000
21.11046 212.000
21.13040 192.000
21.15035 183.000
21.17030 205.000
21.19025 197.000
21.21019 174.000
21.23014 174.000
21.25009 157.000
21.27003 172.000
21.28998 189.000
21.30993 176.000
21.32987 188.000
21.34982 195.000
21.36977 169.000
21.38972 198.000
21.40966 212.000
21.42961 172.000
21.44956 179.000
21.46950 200.000
21.48945 162.000
21.50940 190.000
21.52934 174.000
21.54929 165.000
21.56924 198.000
21.58918 182.000
21.60913 197.000
21.62908 165.000
21.64903 230.000
21.66897 187.000
21.68892 163.000
21.70887 181.000
21.72881 182.000
21.74876 216.000
21.76871 193.000
21.78865 183.000
21.80860 185.000
21.82855 181.000
21.84850 189.000
21.86844 176.000
21.88839 194.000
21.90834 199.000
21.92828 149.000
21.94823 176.000
21.96818 199.000
21.98812 195.000
22.00807 178.000
22.02802 186.000
22.04796 187.000
22.06791 180.000
22.08786 182.000
22.10781 205.000
22.12775 166.000
22.14770 186.000
22.16765 200.000
22.18759 172.000
22.20754 178.000
22.22749 193.000
22.24743 187.000
22.26738 196.000
22.28733 190.000
22.30728 208.000
22.32722 202.000
22.34717 196.000
22.36712 184.000
22.38706 197.000
22.40701 225.000
22.42696 192.000
22.44690 186.000
22.46685 167.000
22.48680 170.000
22.50675 190.000
22.52669 197.000
22.54664 176.000
22.56659 211.000
22.58653 177.000
22.60648 200.000
22.62643 188.000
22.64637 201.000
22.66632 197.000
22.68627 204.000
22.70621 183.000
22.72616 200.000
22.74611 182.000
22.76606 190.000
22.78600 180.000
22.80595 185.000
22.82590 167.000
22.84584 201.000
22.86579 180.000
22.88574 191.000
22.90568 197.000
22.92563 175.000
22.94558 173.000
22.96553 164.000
22.98547 177.000
23.00542 174.000
23.02537 187.000
23.04531 190.000
23.06526 189.000
23.08521 185.000
23.10515 187.000
23.12510 189.000
23.14505 173.000
23.16499 176.000
23.18494 205.000
23.20489 220.000
23.22484 198.000
23.24478 166.000
23.26473 217.000
23.28468 167.000
23.30462 169.000
23.32457 183.000
23.34452 179.000
23.36446 197.000
23.38441 193.000
23.40436 213.000
23.42431 198.000
23.44425 226.000
23.46420 209.000
23.48415 178.000
23.50409 176.000
23.52404 195.000
23.54399 202.000
23.56393 177.000
23.58388 173.000
23.60383 217.000
23.62377 199.000
23.64372 189.000
23.66367 172.000
23.68362 207.000
23.70356 188.000
23.72351 209.000
23.74346 203.000
23.76340 195.000
23.78335 192.000
23.80330 175.000
23.82324 198.000
23.84319 201.000
23.86314 199.000
23.88309 205.000
23.90303 213.000
23.92298 194.000
23.94293 197.000
23.96287 188.000
23.98282 203.000
24.00277 229.000
24.02271 215.000
24.04266 221.000
24.06261 219.000
24.08256 249.000
24.10250 203.000
24.12245 184.000
24.14240 215.000
24.16234 221.000
24.18229 200.000
24.20224 230.000
24.22218 190.000
24.24213 212.000
24.26208 187.000
24.28202 208.000
24.30197 217.000
24.32192 211.000
24.34187 202.000
24.36181 192.000
24.38176 203.000
24.40171 205.000
24.42165 207.000
24.44160 219.000
24.46155 204.000
24.48149 212.000
24.50144 186.000
24.52139 198.000
24.54134 204.000
24.56128 216.000
24.58123 203.000
24.60118 208.000
24.62112 187.000
24.64107 206.000
24.66102 217.000
24.68096 184.000
24.70091 220.000
24.72086 210.000
24.74080 196.000
24.76075 244.000
24.78070 220.000
24.80065 232.000
24.82059 248.000
24.84054 216.000
24.86049 239.000
24.88043 224.000
24.90038 250.000
24.92033 251.000
24.94027 206.000
24.96022 234.000
24.98017 222.000
25.00012 228.000
25.02006 221.000
25.04001 203.000
25.05996 198.000
25.07990 201.000
25.09985 193.000
25.11980 204.000
25.13974 207.000
25.15969 207.000
25.17964 208.000
25.19958 221.000
25.21953 209.000
25.23948 206.000
25.25943 219.000
25.27937 197.000
25.29932 220.000
25.31927 248.000
25.33921 224.000
25.35916 223.000
25.37911 198.000
25.39905 210.000
25.41900 200.000
25.43895 207.000
25.45890 211.000
25.47884 216.000
25.49879 221.000
25.51874 208.000
25.53868 211.000
25.55863 192.000
25.57858 224.000
25.59852 186.000
25.61847 226.000
25.63842 236.000
25.65837 211.000
25.67831 225.000
25.69826 197.000
25.71821 203.000
25.73815 194.000
25.75810 229.000
25.77805 214.000
25.79799 215.000
25.81794 219.000
25.83789 197.000
25.85783 233.000
25.87778 212.000
25.89773 220.000
25.91768 209.000
25.93762 226.000
25.95757 229.000
25.97752 228.000
25.99746 222.000
26.01741 230.000
26.03736 229.000
26.05730 213.000
26.07725 209.000
26.09720 215.000
26.11715 218.000
26.13709 221.000
26.15704 226.000
26.17699 221.000
26.19693 227.000
26.21688 213.000
26.23683 237.000
26.25677 226.000
26.27672 202.000
26.29667 208.000
26.31661 226.000
26.33656 237.000
26.35651 246.000
26.37646 247.000
26.39640 225.000
26.41635 206.000
26.43630 224.000
26.45624 234.000
26.47619 223.000
26.49614 207.000
26.51608 208.000
26.53603 204.000
26.55598 212.000
26.57593 183.000
26.59587 253.000
26.61582 207.000
26.63577 224.000
26.65571 217.000
26.67566 233.000
26.69561 241.000
26.71555 218.000
26.73550 231.000
26.75545 233.000
26.77539 210.000
26.79534 216.000
26.81529 247.000
26.83524 222.000
26.85518 218.000
26.87513 225.000
26.89508 245.000
26.91502 214.000
26.93497 238.000
26.95492 238.000
26.97486 233.000
26.99481 216.000
27.01476 219.000
27.03471 229.000
27.05465 251.000
27.07460 214.000
27.09455 239.000
27.11449 261.000
27.13444 258.000
27.15439 228.000
27.17433 225.000
27.19428 225.000
27.21423 242.000
27.23417 226.000
27.25412 253.000
27.27407 226.000
27.29402 243.000
27.31396 249.000
27.33391 240.000
27.35386 225.000
27.37380 201.000
27.39375 212.000
27.41370 247.000
27.43364 239.000
27.45359 257.000
27.47354 224.000
27.49349 226.000
27.51343 228.000
27.53338 218.000
27.55333 245.000
27.57327 226.000
27.59322 253.000
27.61317 253.000
27.63311 232.000
27.65306 257.000
27.67301 248.000
27.69296 264.000
27.71290 268.000
27.73285 223.000
27.75280 222.000
27.77274 236.000
27.79269 227.000
27.81264 258.000
27.83258 240.000
27.85253 222.000
27.87248 240.000
27.89242 283.000
27.91237 218.000
27.93232 254.000
27.95227 258.000
27.97221 246.000
27.99216 239.000
28.01211 262.000
28.03205 218.000
28.05200 220.000
28.07195 229.000
28.09189 221.000
28.11184 261.000
28.13179 271.000
28.15174 222.000
28.17168 220.000
28.19163 240.000
28.21158 245.000
28.23152 249.000
28.25147 241.000
28.27142 268.000
28.29136 267.000
28.31131 260.000
28.33126 246.000
28.35120 239.000
28.37115 242.000
28.39110 250.000
28.41105 261.000
28.43099 238.000
28.45094 249.000
28.47089 248.000
28.49083 239.000
28.51078 247.000
28.53073 224.000
28.55067 222.000
28.57062 256.000
28.59057 248.000
28.61052 278.000
28.63046 265.000
28.65041 250.000
28.67036 260.000
28.69030 247.000
28.71025 248.000
28.73020 225.000
28.75014 224.000
28.77009 267.000
28.79004 252.000
28.80998 288.000
28.82993 255.000
28.84988 221.000
28.86983 246.000
28.88977 261.000
28.90972 226.000
28.92967 254.000
28.94961 258.000
28.96956 247.000
28.98951 236.000
29.00945 253.000
29.02940 243.000
29.04935 243.000
29.06930 254.000
29.08924 234.000
29.10919 239.000
29.12914 256.000
29.14908 280.000
29.16903 312.000
29.18898 292.000
29.20892 286.000
29.22887 290.000
29.24882 319.000
29.26877 332.000
29.28871 340.000
29.30866 320.000
29.32861 314.000
29.34855 304.000
29.36850 312.000
29.38845 323.000
29.40839 296.000
29.42834 268.000
29.44829 265.000
29.46823 283.000
29.48818 242.000
29.50813 281.000
29.52808 280.000
29.54802 279.000
29.56797 236.000
29.58792 268.000
29.60786 306.000
29.62781 283.000
29.64776 242.000
29.66770 254.000
29.68765 283.000
29.70760 272.000
29.72755 267.000
29.74749 251.000
29.76744 248.000
29.78739 268.000
29.80733 261.000
29.82728 321.000
29.84723 312.000
29.86717 301.000
29.88712 257.000
29.90707 279.000
29.92701 287.000
29.94696 283.000
29.96691 241.000
29.98686 262.000
30.00680 267.000
30.02675 262.000
30.04670 246.000
30.06664 235.000
30.08659 257.000
30.10654 261.000
30.12648 251.000
30.14643 264.000
30.16638 249.000
30.18633 255.000
30.20627 260.000
30.22622 212.000
30.24617 263.000
30.26611 280.000
30.28606 240.000
30.30601 231.000
30.32595 266.000
30.34590 242.000
30.36585 253.000
30.38579 247.000
30.40574 253.000
30.42569 297.000
30.44564 252.000
30.46558 292.000
30.48553 254.000
30.50548 216.000
30.52542 260.000
30.54537 263.000
30.56532 250.000
30.58526 255.000
30.60521 282.000
30.62516 249.000
30.64511 252.000
30.66505 217.000
30.68500 265.000
30.70495 275.000
30.72489 252.000
30.74484 232.000
30.76479 253.000
30.78473 264.000
30.80468 281.000
30.82463 248.000
30.84458 219.000
30.86452 242.000
30.88447 272.000
30.90442 236.000
30.92436 250.000
30.94431 250.000
30.96426 266.000
30.98420 240.000
31.00415 223.000
31.02410 269.000
31.04404 252.000
31.06399 265.000
31.08394 254.000
31.10389 262.000
31.12383 269.000
31.14378 258.000
31.16373 230.000
31.18367 251.000
31.20362 263.000
31.22357 236.000
31.24351 239.000
31.26346 272.000
31.28341 270.000
31.30336 253.000
31.32330 263.000
31.34325 280.000
31.36320 261.000
31.38314 279.000
31.40309 272.000
31.42304 269.000
31.44298 276.000
31.46293 256.000
31.48288 304.000
31.50282 297.000
31.52277 292.000
31.54272 310.000
31.56267 313.000
31.58261 343.000
31.60256 355.000
31.62251 410.000
31.64245 422.000
31.66240 472.000
31.68235 543.000
31.70229 676.000
31.72224 865.000
31.74219 943.000
31.76214 1064.000
31.78208 1089.000
31.80203 1119.000
31.82198 1003.000
31.84192 822.000
31.86187 737.000
31.88182 645.000
31.90176 480.000
31.92171 414.000
31.94166 364.000
31.96160 319.000
31.98155 320.000
32.00150 287.000
32.02145 313.000
32.04139 252.000
32.06134 249.000
32.08129 296.000
32.10123 271.000
32.12118 264.000
32.14113 250.000
32.16107 256.000
32.18102 276.000
32.20097 249.000
32.22092 292.000
32.24086 237.000
32.26081 285.000
32.28076 284.000
32.30070 287.000
32.32065 295.000
32.34060 271.000
32.36054 307.000
32.38049 306.000
32.40044 315.000
32.42039 350.000
32.44033 325.000
32.46028 335.000
32.48023 303.000
32.50017 294.000
32.52012 273.000
32.54007 257.000
32.56001 277.000
32.57996 289.000
32.59991 284.000
32.61985 272.000
32.63980 247.000
32.65975 272.000
32.67970 233.000
32.69964 232.000
32.71959 240.000
32.73954 242.000
32.75948 269.000
32.77943 243.000
32.79938 281.000
32.81932 264.000
32.83927 282.000
32.85922 228.000
32.87917 263.000
32.89911 239.000
32.91906 219.000
32.93901 247.000
32.95895 260.000
32.97890 240.000
32.99885 241.000
33.01879 263.000
33.03874 253.000
33.05869 198.000
33.07863 247.000
33.09858 268.000
33.11853 238.000
33.13848 269.000
33.15842 254.000
33.17837 253.000
33.19832 265.000
33.21826 252.000
33.23821 243.000
33.25816 252.000
33.27810 269.000
33.29805 266.000
33.31800 233.000
33.33795 257.000
33.35789 251.000
33.37784 261.000
33.39779 273.000
33.41773 264.000
33.43768 252.000
33.45763 254.000
33.47757 237.000
33.49752 268.000
33.51747 257.000
33.53741 257.000
33.55736 243.000
33.57731 256.000
33.59726 251.000
33.61720 241.000
33.63715 249.000
33.65710 229.000
33.67704 243.000
33.69699 237.000
33.71694 272.000
33.73688 269.000
33.75683 267.000
33.77678 261.000
33.79673 312.000
33.81667 248.000
33.83662 243.000
33.85657 271.000
33.87651 281.000
33.89646 256.000
33.91641 275.000
33.93635 273.000
33.95630 244.000
33.97625 306.000
33.99620 276.000
34.01614 282.000
34.03609 281.000
34.05604 302.000
34.07598 318.000
34.09593 319.000
34.11588 313.000
34.13582 350.000
34.15577 371.000
34.17572 423.000
34.19566 429.000
34.21561 453.000
34.23556 496.000
34.25551 533.000
34.27545 641.000
34.29540 619.000
34.31535 559.000
34.33529 636.000
34.35524 631.000
34.37519 625.000
34.39513 600.000
34.41508 574.000
34.43503 522.000
34.45498 511.000
34.47492 484.000
34.49487 431.000
34.51482 386.000
34.53476 384.000
34.55471 379.000
34.57466 390.000
34.59460 352.000
34.61455 356.000
34.63450 307.000
34.65444 301.000
34.67439 313.000
34.69434 276.000
34.71429 292.000
34.73423 323.000
34.75418 315.000
34.77413 298.000
34.79407 309.000
34.81402 317.000
34.83397 306.000
34.85391 269.000
34.87386 272.000
34.89381 283.000
34.91376 285.000
34.93370 310.000
34.95365 301.000
34.97360 327.000
34.99354 296.000
35.01349 321.000
35.03344 342.000
35.05338 345.000
35.07333 344.000
35.09328 352.000
35.11322 335.000
35.13317 366.000
35.15312 419.000
35.17307 481.000
35.19301 543.000
35.21296 555.000
35.23291 579.000
35.25285 619.000
35.27280 756.000
35.29275 822.000
35.31269 947.000
35.33264 1048.000
35.35259 1167.000
35.37254 1150.000
35.39248 1215.000
35.41243 1323.000
35.43238 1478.000
35.45232 1467.000
35.47227 1266.000
35.49222 1086.000
35.51216 1026.000
35.53211 977.000
35.55206 815.000
35.57201 713.000
35.59195 602.000
35.61190 509.000
35.63185 442.000
35.65179 391.000
35.67174 390.000
35.69169 338.000
35.71163 338.000
35.73158 308.000
35.75153 301.000
35.77147 315.000
35.79142 297.000
35.81137 310.000
35.83132 304.000
35.85126 312.000
35.87121 276.000
35.89116 281.000
35.91110 287.000
35.93105 282.000
35.95100 286.000
35.97094 276.000
35.99089 269.000
36.01084 266.000
36.03079 274.000
36.05073 284.000
36.07068 276.000
36.09063 271.000
36.11057 273.000
36.13052 260.000
36.15047 276.000
36.17041 268.000
36.19036 252.000
36.21031 270.000
36.23025 259.000
36.25020 296.000
36.27015 257.000
36.29010 266.000
36.31004 257.000
36.32999 267.000
36.34994 244.000
36.36988 272.000
36.38983 279.000
36.40978 248.000
36.42972 270.000
36.44967 252.000
36.46962 290.000
36.48957 288.000
36.50951 266.000
36.52946 253.000
36.54941 265.000
36.56935 250.000
36.58930 244.000
36.60925 267.000
36.62919 257.000
36.64914 258.000
36.66909 240.000
36.68903 224.000
36.70898 209.000
36.72893 240.000
36.74888 247.000
36.76882 212.000
36.78877 259.000
36.80872 269.000
36.82866 239.000
36.84861 261.000
36.86856 230.000
36.88850 234.000
36.90845 255.000
36.92840 272.000
36.94835 252.000
36.96829 267.000
36.98824 250.000
37.00819 283.000
37.02813 235.000
37.04808 310.000
37.06803 261.000
37.08797 267.000
37.10792 254.000
37.12787 251.000
37.14781 281.000
37.16776 258.000
37.18771 285.000
37.20766 233.000
37.22760 237.000
37.24755 238.000
37.26750 246.000
37.28744 251.000
37.30739 253.000
37.32734 229.000
37.34728 228.000
37.36723 225.000
37.38718 231.000
37.40713 266.000
37.42707 213.000
37.44702 252.000
37.46697 236.000
37.48691 238.000
37.50686 230.000
37.52681 237.000
37.54675 254.000
37.56670 213.000
37.58665 245.000
37.60660 232.000
37.62654 251.000
37.64649 219.000
37.66644 230.000
37.68638 244.000
37.70633 229.000
37.72628 243.000
37.74622 215.000
37.76617 226.000
37.78612 240.000
37.80606 242.000
37.82601 247.000
37.84596 269.000
37.86591 248.000
37.88585 242.000
37.90580 253.000
37.92575 242.000
37.94569 248.000
37.96564 245.000
37.98559 256.000
38.00553 241.000
38.02548 269.000
38.04543 247.000
38.06538 248.000
38.08532 270.000
38.10527 269.000
38.12522 282.000
38.14516 294.000
38.16511 256.000
38.18506 281.000
38.20500 263.000
38.22495 279.000
38.24490 248.000
38.26484 262.000
38.28479 276.000
38.30474 315.000
38.32469 309.000
38.34463 325.000
38.36458 331.000
38.38453 366.000
38.40447 368.000
38.42442 404.000
38.44437 399.000
38.46431 399.000
38.48426 473.000
38.50421 457.000
38.52416 539.000
38.54410 591.000
38.56405 669.000
38.58400 811.000
38.60394 901.000
38.62389 1103.000
38.64384 1270.000
38.66378 1259.000
38.68373 1151.000
38.70368 1050.000
38.72362 1042.000
38.74357 1012.000
38.76352 921.000
38.78347 908.000
38.80341 921.000
38.82336 898.000
38.84331 881.000
38.86325 887.000
38.88320 939.000
38.90315 1028.000
38.92309 1104.000
38.94304 1132.000
38.96299 1090.000
38.98294 1048.000
39.00288 943.000
39.02283 942.000
39.04278 954.000
39.06272 881.000
39.08267 725.000
39.10262 714.000
39.12256 622.000
39.14251 531.000
39.16246 482.000
39.18241 468.000
39.20235 443.000
39.22230 386.000
39.24225 376.000
39.26219 304.000
39.28214 331.000
39.30209 323.000
39.32203 311.000
39.34198 287.000
39.36193 279.000
39.38187 277.000
39.40182 268.000
39.42177 279.000
39.44172 268.000
39.46166 261.000
39.48161 254.000
39.50156 254.000
39.52150 271.000
39.54145 252.000
39.56140 261.000
39.58134 237.000
39.60129 251.000
39.62124 233.000
39.64119 230.000
39.66113 271.000
39.68108 245.000
39.70103 232.000
39.72097 258.000
39.74092 231.000
39.76087 249.000
39.78081 274.000
39.80076 212.000
39.82071 246.000
39.84065 236.000
39.86060 216.000
39.88055 241.000
39.90050 243.000
39.92044 260.000
39.94039 239.000
39.96034 253.000
39.98028 248.000
40.00023 219.000
40.02018 254.000
40.04012 216.000
40.06007 243.000
40.08002 204.000
40.09997 219.000
40.11991 235.000
40.13986 204.000
40.15981 216.000
40.17975 252.000
40.19970 229.000
40.21965 241.000
40.23959 242.000
40.25954 217.000
40.27949 216.000
40.29943 228.000
40.31938 210.000
40.33933 225.000
40.35928 239.000
40.37922 216.000
40.39917 249.000
40.41912 239.000
40.43906 251.000
40.45901 248.000
40.47896 243.000
40.49890 242.000
40.51885 243.000
40.53880 209.000
40.55875 216.000
40.57869 228.000
40.59864 210.000
40.61859 241.000
40.63853 255.000
40.65848 220.000
40.67843 229.000
40.69837 265.000
40.71832 230.000
40.73827 202.000
40.75822 222.000
40.77816 232.000
40.79811 241.000
40.81806 217.000
40.83800 218.000
40.85795 250.000
40.87790 226.000
40.89784 220.000
40.91779 226.000
40.93774 221.000
40.95768 208.000
40.97763 219.000
40.99758 247.000
41.01753 238.000
41.03747 191.000
41.05742 235.000
41.07737 205.000
41.09731 215.000
41.11726 239.000
41.13721 250.000
41.15715 239.000
41.17710 251.000
41.19705 246.000
41.21700 232.000
41.23694 244.000
41.25689 236.000
41.27684 221.000
41.29678 223.000
41.31673 242.000
41.33668 235.000
41.35662 273.000
41.37657 267.000
41.39652 261.000
41.41646 259.000
41.43641 222.000
41.45636 251.000
41.47631 281.000
41.49625 257.000
41.51620 233.000
41.53615 257.000
41.55609 250.000
41.57604 230.000
41.59599 236.000
41.61593 228.000
41.63588 244.000
41.65583 226.000
41.67578 233.000
41.69572 240.000
41.71567 216.000
41.73562 173.000
41.75556 216.000
41.77551 229.000
41.79546 225.000
41.81540 229.000
41.83535 243.000
41.85530 213.000
41.87524 242.000
41.89519 223.000
41.91514 216.000
41.93509 231.000
41.95503 240.000
41.97498 219.000
41.99493 185.000
42.01487 228.000
42.03482 204.000
42.05477 237.000
42.07471 218.000
42.09466 247.000
42.11461 220.000
42.13456 244.000
42.15450 261.000
42.17445 205.000
42.19440 217.000
42.21434 233.000
42.23429 238.000
42.25424 219.000
42.27418 214.000
42.29413 225.000
42.31408 215.000
42.33403 228.000
42.35397 209.000
42.37392 227.000
42.39387 243.000
42.41381 257.000
42.43376 232.000
42.45371 264.000
42.47365 218.000
42.49360 233.000
42.51355 265.000
42.53349 237.000
42.55344 256.000
42.57339 249.000
42.59334 234.000
42.61328 252.000
42.63323 256.000
42.65318 238.000
42.67312 205.000
42.69307 245.000
42.71302 240.000
42.73296 285.000
42.75291 298.000
42.77286 292.000
42.79281 322.000
42.81275 261.000
42.83270 299.000
42.85265 278.000
42.87259 302.000
42.89254 319.000
42.91249 327.000
42.93243 367.000
42.95238 387.000
42.97233 396.000
42.99227 451.000
43.01222 485.000
43.03217 473.000
43.05212 534.000
43.07206 480.000
43.09201 509.000
43.11196 502.000
43.13190 482.000
43.15185 447.000
43.17180 436.000
43.19174 415.000
43.21169 410.000
43.23164 366.000
43.25159 326.000
43.27153 333.000
43.29148 281.000
43.31143 302.000
43.33137 261.000
43.35132 232.000
43.37127 292.000
43.39121 229.000
43.41116 278.000
43.43111 244.000
43.45105 239.000
43.47100 240.000
43.49095 243.000
43.51090 251.000
43.53084 230.000
43.55079 228.000
43.57074 225.000
43.59068 246.000
43.61063 244.000
43.63058 246.000
43.65052 203.000
43.67047 226.000
43.69042 244.000
43.71037 232.000
43.73031 200.000
43.75026 224.000
43.77021 194.000
43.79015 217.000
43.81010 239.000
43.83005 200.000
43.84999 205.000
43.86994 232.000
43.88989 235.000
43.90984 219.000
43.92978 209.000
43.94973 194.000
43.96968 214.000
43.98962 222.000
44.00957 220.000
44.02952 191.000
44.04946 225.000
44.06941 178.000
44.08936 210.000
44.10930 205.000
44.12925 227.000
44.14920 211.000
44.16915 205.000
44.18909 200.000
44.20904 192.000
44.22899 188.000
44.24893 197.000
44.26888 225.000
44.28883 230.000
44.30877 205.000
44.32872 244.000
44.34867 226.000
44.36862 193.000
44.38856 236.000
44.40851 188.000
44.42846 220.000
44.44840 184.000
44.46835 205.000
44.48830 228.000
44.50824 226.000
44.52819 220.000
44.54814 214.000
44.56808 199.000
44.58803 210.000
44.60798 226.000
44.62793 238.000
44.64787 203.000
44.66782 206.000
44.68777 203.000
44.70771 220.000
44.72766 222.000
44.74761 228.000
44.76755 201.000
44.78750 213.000
44.80745 214.000
44.82740 175.000
44.84734 195.000
44.86729 215.000
44.88724 226.000
44.90718 230.000
44.92713 163.000
44.94708 236.000
44.96702 196.000
44.98697 219.000
45.00692 214.000
45.02686 181.000
45.04681 184.000
45.06676 232.000
45.08671 210.000
45.10665 209.000
45.12660 205.000
45.14655 201.000
45.16649 199.000
45.18644 198.000
45.20639 212.000
45.22633 223.000
45.24628 209.000
45.26623 211.000
45.28618 222.000
45.30612 212.000
45.32607 203.000
45.34602 195.000
45.36596 221.000
45.38591 201.000
45.40586 213.000
45.42580 212.000
45.44575 199.000
45.46570 195.000
45.48565 192.000
45.50559 207.000
45.52554 216.000
45.54549 201.000
45.56543 205.000
45.58538 207.000
45.60533 209.000
45.62527 214.000
45.64522 207.000
45.66517 198.000
45.68511 223.000
45.70506 213.000
45.72501 223.000
45.74496 235.000
45.76490 201.000
45.78485 212.000
45.80480 217.000
45.82474 203.000
45.84469 181.000
45.86464 206.000
45.88458 229.000
45.90453 217.000
45.92448 216.000
45.94443 212.000
45.96437 207.000
45.98432 195.000
46.00427 200.000
46.02421 189.000
46.04416 204.000
46.06411 212.000
46.08405 205.000
46.10400 198.000
46.12395 221.000
46.14389 210.000
46.16384 234.000
46.18379 215.000
46.20374 208.000
46.22368 199.000
46.24363 241.000
46.26358 229.000
46.28352 210.000
46.30347 217.000
46.32342 235.000
46.34336 175.000
46.36331 217.000
46.38326 237.000
46.40321 222.000
46.42315 213.000
46.44310 192.000
46.46305 221.000
46.48299 221.000
46.50294 195.000
46.52289 191.000
46.54283 225.000
46.56278 231.000
46.58273 195.000
46.60267 190.000
46.62262 186.000
46.64257 222.000
46.66252 209.000
46.68246 202.000
46.70241 206.000
46.72236 191.000
46.74230 216.000
46.76225 199.000
46.78220 203.000
46.80214 214.000
46.82209 208.000
46.84204 199.000
46.86199 213.000
46.88193 187.000
46.90188 191.000
46.92183 217.000
46.94177 201.000
46.96172 212.000
46.98167 219.000
47.00161 201.000
47.02156 216.000
47.04151 216.000
47.06146 219.000
47.08140 230.000
47.10135 187.000
47.12130 197.000
47.14124 218.000
47.16119 216.000
47.18114 240.000
47.20108 207.000
47.22103 193.000
47.24098 215.000
47.26092 183.000
47.28087 198.000
47.30082 198.000
47.32077 213.000
47.34071 209.000
47.36066 205.000
47.38061 199.000
47.40055 222.000
47.42050 217.000
47.44045 195.000
47.46039 208.000
47.48034 205.000
47.50029 212.000
47.52024 203.000
47.54018 256.000
47.56013 222.000
47.58008 223.000
47.60002 225.000
47.61997 224.000
47.63992 229.000
47.65986 238.000
47.67981 253.000
47.69976 234.000
47.71970 231.000
47.73965 232.000
47.75960 210.000
47.77955 209.000
47.79949 235.000
47.81944 257.000
47.83939 276.000
47.85933 263.000
47.87928 284.000
47.89923 219.000
47.91917 244.000
47.93912 272.000
47.95907 281.000
47.97902 304.000
47.99896 272.000
48.01891 288.000
48.03886 285.000
48.05880 303.000
48.07875 312.000
48.09870 316.000
48.11864 333.000
48.13859 386.000
48.15854 369.000
48.17848 458.000
48.19843 463.000
48.21838 557.000
48.23833 625.000
48.25827 633.000
48.27822 798.000
48.29817 888.000
48.31811 981.000
48.33806 1027.000
48.35801 1103.000
48.37795 979.000
48.39790 1013.000
48.41785 917.000
48.43780 874.000
48.45774 892.000
48.47769 864.000
48.49764 810.000
48.51758 740.000
48.53753 743.000
48.55748 730.000
48.57742 610.000
48.59737 632.000
48.61732 520.000
48.63726 524.000
48.65721 512.000
48.67716 475.000
48.69711 460.000
48.71705 421.000
48.73700 419.000
48.75695 371.000
48.77689 298.000
48.79684 307.000
48.81679 287.000
48.83673 284.000
48.85668 296.000
48.87663 287.000
48.89658 242.000
48.91652 277.000
48.93647 260.000
48.95642 239.000
48.97636 236.000
48.99631 235.000
49.01626 240.000
49.03620 254.000
49.05615 219.000
49.07610 205.000
49.09605 217.000
49.11599 201.000
49.13594 234.000
49.15589 222.000
49.17583 227.000
49.19578 230.000
49.21573 238.000
49.23567 215.000
49.25562 221.000
49.27557 209.000
49.29551 236.000
49.31546 254.000
49.33541 220.000
49.35536 273.000
49.37530 280.000
49.39525 244.000
49.41520 227.000
49.43514 208.000
49.45509 243.000
49.47504 246.000
49.49498 231.000
49.51493 219.000
49.53488 224.000
49.55483 203.000
49.57477 238.000
49.59472 217.000
49.61467 211.000
49.63461 259.000
49.65456 224.000
49.67451 249.000
49.69445 202.000
49.71440 212.000
49.73435 219.000
49.75429 224.000
49.77424 197.000
49.79419 205.000
49.81414 200.000
49.83408 232.000
49.85403 202.000
49.87398 199.000
49.89392 171.000
49.91387 221.000
49.93382 195.000
49.95376 201.000
49.97371 252.000
49.99366 170.000
50.01361 199.000
50.03355 201.000
50.05350 187.000
50.07345 207.000
50.09339 202.000
50.11334 209.000
50.13329 188.000
50.15323 208.000
50.17318 209.000
50.19313 191.000
50.21307 186.000
50.23302 193.000
50.25297 184.000
50.27292 194.000
50.29286 200.000
50.31281 168.000
50.33276 189.000
50.35270 174.000
50.37265 175.000
50.39260 176.000
50.41254 210.000
50.43249 185.000
50.45244 189.000
50.47239 212.000
50.49233 186.000
50.51228 218.000
50.53223 179.000
50.55217 197.000
50.57212 204.000
50.59207 191.000
50.61201 198.000
50.63196 204.000
50.65191 206.000
50.67186 202.000
50.69180 178.000
50.71175 219.000
50.73170 182.000
50.75164 179.000
50.77159 217.000
50.79154 201.000
50.81148 202.000
50.83143 172.000
50.85138 194.000
50.87132 190.000
50.89127 187.000
50.91122 196.000
50.93117 183.000
50.95111 179.000
50.97106 196.000
50.99101 206.000
51.01095 189.000
51.03090 200.000
51.05085 197.000
51.07079 213.000
51.09074 203.000
51.11069 164.000
51.13064 191.000
51.15058 202.000
51.17053 191.000
51.19048 197.000
51.21042 196.000
51.23037 197.000
51.25032 187.000
51.27026 196.000
51.29021 204.000
51.31016 168.000
51.33010 187.000
51.35005 174.000
51.37000 189.000
51.38995 193.000
51.40989 197.000
51.42984 214.000
51.44979 210.000
51.46973 225.000
51.48968 196.000
51.50963 198.000
51.52957 190.000
51.54952 191.000
51.56947 173.000
51.58942 187.000
51.60936 193.000
51.62931 176.000
51.64926 182.000
51.66920 173.000
51.68915 191.000
51.70910 165.000
51.72904 190.000
51.74899 160.000
51.76894 173.000
51.78888 213.000
51.80883 169.000
51.82878 185.000
51.84873 196.000
51.86867 191.000
51.88862 222.000
51.90857 188.000
51.92851 229.000
51.94846 203.000
51.96841 184.000
51.98835 172.000
52.00830 198.000
52.02825 193.000
52.04820 212.000
52.06814 189.000
52.08809 208.000
52.10804 166.000
52.12798 199.000
52.14793 217.000
52.16788 221.000
52.18782 192.000
52.20777 211.000
52.22772 192.000
52.24767 224.000
52.26761 197.000
52.28756 191.000
52.30751 186.000
52.32745 189.000
52.34740 193.000
52.36735 167.000
52.38729 204.000
52.40724 182.000
52.42719 194.000
52.44713 196.000
52.46708 206.000
52.48703 189.000
52.50698 204.000
52.52692 187.000
52.54687 185.000
52.56682 160.000
52.58676 193.000
52.60671 184.000
52.62666 196.000
52.64660 191.000
52.66655 191.000
52.68650 167.000
52.70645 172.000
52.72639 190.000
52.74634 169.000
52.76629 180.000
52.78623 177.000
52.80618 183.000
52.82613 169.000
52.84607 181.000
52.86602 185.000
52.88597 183.000
52.90591 188.000
52.92586 173.000
52.94581 200.000
52.96576 190.000
52.98570 211.000
53.00565 208.000
53.02560 186.000
53.04554 190.000
53.06549 195.000
53.08544 222.000
53.10538 191.000
53.12533 195.000
53.14528 188.000
53.16523 198.000
53.18517 196.000
53.20512 214.000
53.22507 234.000
53.24501 224.000
53.26496 203.000
53.28491 225.000
53.30485 230.000
53.32480 232.000
53.34475 256.000
53.36469 210.000
53.38464 231.000
53.40459 244.000
53.42454 274.000
53.44448 292.000
53.46443 266.000
53.48438 213.000
53.50432 235.000
53.52427 229.000
53.54422 230.000
53.56416 214.000
53.58411 203.000
53.60406 210.000
53.62401 235.000
53.64395 214.000
53.66390 212.000
53.68385 211.000
53.70379 200.000
53.72374 229.000
53.74369 216.000
53.76363 212.000
53.78358 196.000
53.80353 211.000
53.82348 200.000
53.84342 195.000
53.86337 180.000
53.88332 187.000
53.90326 198.000
53.92321 200.000
53.94316 202.000
53.96310 192.000
53.98305 199.000
54.00300 176.000
54.02294 204.000
54.04289 213.000
54.06284 212.000
54.08279 218.000
54.10273 194.000
54.12268 158.000
54.14263 204.000
54.16257 173.000
54.18252 186.000
54.20247 212.000
54.22241 195.000
54.24236 177.000
54.26231 218.000
54.28226 188.000
54.30220 212.000
54.32215 183.000
54.34210 220.000
54.36204 178.000
54.38199 203.000
54.40194 206.000
54.42188 195.000
54.44183 177.000
54.46178 200.000
54.48172 186.000
54.50167 194.000
54.52162 189.000
54.54157 189.000
54.56151 178.000
54.58146 182.000
54.60141 188.000
54.62135 194.000
54.64130 180.000
54.66125 216.000
54.68119 172.000
54.70114 185.000
54.72109 198.000
54.74104 190.000
54.76098 196.000
54.78093 188.000
54.80088 196.000
54.82082 205.000
54.84077 191.000
54.86072 209.000
54.88066 207.000
54.90061 195.000
54.92056 201.000
54.94050 173.000
54.96045 191.000
54.98040 208.000
55.00035 183.000
55.02029 181.000
55.04024 180.000
55.06019 182.000
55.08013 185.000
55.10008 169.000
55.12003 185.000
55.13997 178.000
55.15992 169.000
55.17987 213.000
55.19982 201.000
55.21976 186.000
55.23971 173.000
55.25966 182.000
55.27960 189.000
55.29955 190.000
55.31950 183.000
55.33944 173.000
55.35939 199.000
55.37934 184.000
55.39929 194.000
55.41923 177.000
55.43918 184.000
55.45913 180.000
55.47907 191.000
55.49902 215.000
55.51897 164.000
55.53891 192.000
55.55886 203.000
55.57881 210.000
55.59875 191.000
55.61870 164.000
55.63865 186.000
55.65860 198.000
55.67854 206.000
55.69849 186.000
55.71844 178.000
55.73838 202.000
55.75833 186.000
55.77828 188.000
55.79822 180.000
55.81817 179.000
55.83812 214.000
55.85807 197.000
55.87801 178.000
55.89796 176.000
55.91791 199.000
55.93785 175.000
55.95780 178.000
55.97775 172.000
55.99769 178.000
56.01764 213.000
56.03759 183.000
56.05753 194.000
56.07748 178.000
56.09743 183.000
56.11738 170.000
56.13732 189.000
56.15727 189.000
56.17722 189.000
56.19716 201.000
56.21711 200.000
56.23706 190.000
56.25700 179.000
56.27695 201.000
56.29690 205.000
56.31685 174.000
56.33679 198.000
56.35674 180.000
56.37669 186.000
56.39663 172.000
56.41658 188.000
56.43653 173.000
56.45647 193.000
56.47642 178.000
56.49637 188.000
56.51631 165.000
56.53626 209.000
56.55621 217.000
56.57616 183.000
56.59610 202.000
56.61605 201.000
56.63600 199.000
56.65594 196.000
56.67589 232.000
56.69584 205.000
56.71578 210.000
56.73573 196.000
56.75568 220.000
56.77563 215.000
56.79557 195.000
56.81552 185.000
56.83547 176.000
56.85541 197.000
56.87536 168.000
56.89531 198.000
56.91525 194.000
56.93520 168.000
56.95515 204.000
56.97510 182.000
56.99504 203.000
57.01499 177.000
57.03494 190.000
57.05488 201.000
57.07483 163.000
57.09478 193.000
57.11472 199.000
57.13467 195.000
57.15462 166.000
57.17456 184.000
57.19451 192.000
57.21446 192.000
57.23441 188.000
57.25435 200.000
57.27430 205.000
57.29425 170.000
57.31419 173.000
57.33414 193.000
57.35409 193.000
57.37403 162.000
57.39398 199.000
57.41393 180.000
57.43388 205.000
57.45382 194.000
57.47377 172.000
57.49372 176.000
57.51366 178.000
57.53361 172.000
57.55356 165.000
57.57350 174.000
57.59345 201.000
57.61340 203.000
57.63334 173.000
57.65329 194.000
57.67324 203.000
57.69319 175.000
57.71313 193.000
57.73308 195.000
57.75303 195.000
57.77297 181.000
57.79292 196.000
57.81287 207.000
57.83281 206.000
57.85276 190.000
57.87271 179.000
57.89266 201.000
57.91260 199.000
57.93255 185.000
57.95250 186.000
57.97244 189.000
57.99239 201.000
58.01234 226.000
58.03228 191.000
58.05223 205.000
58.07218 206.000
58.09212 238.000
58.11207 198.000
58.13202 239.000
58.15197 207.000
58.17191 257.000
58.19186 224.000
58.21181 270.000
58.23175 247.000
58.25170 266.000
58.27165 229.000
58.29159 250.000
58.31154 234.000
58.33149 222.000
58.35144 239.000
58.37138 231.000
58.39133 233.000
58.41128 211.000
58.43122 244.000
58.45117 223.000
58.47112 213.000
58.49106 221.000
58.51101 171.000
58.53096 225.000
58.55090 201.000
58.57085 201.000
58.59080 188.000
58.61075 199.000
58.63069 242.000
58.65064 187.000
58.67059 183.000
58.69053 176.000
58.71048 176.000
58.73043 176.000
58.75037 186.000
58.77032 204.000
58.79027 178.000
58.81022 181.000
58.83016 189.000
58.85011 165.000
58.87006 170.000
58.89000 192.000
58.90995 177.000
58.92990 169.000
58.94984 195.000
58.96979 182.000
58.98974 182.000
59.00969 192.000
59.02963 184.000
59.04958 210.000
59.06953 209.000
59.08947 188.000
59.10942 191.000
59.12937 148.000
59.14931 194.000
59.16926 181.000
59.18921 205.000
59.20915 176.000
59.22910 179.000
59.24905 214.000
59.26900 189.000
59.28894 176.000
59.30889 197.000
59.32884 190.000
59.34878 211.000
59.36873 192.000
59.38868 192.000
59.40862 217.000
59.42857 202.000
59.44852 171.000
59.46847 186.000
59.48841 204.000
59.50836 168.000
59.52831 186.000
59.54825 187.000
59.56820 203.000
59.58815 181.000
59.60809 185.000
59.62804 198.000
59.64799 188.000
59.66793 195.000
59.68788 158.000
59.70783 197.000
59.72778 182.000
59.74772 154.000
59.76767 192.000
59.78762 169.000
59.80756 221.000
59.82751 151.000
59.84746 185.000
59.86740 203.000
59.88735 180.000
59.90730 170.000
59.92725 196.000
59.94719 183.000
59.96714 188.000
59.98709 197.000
60.00703 176.000
60.02698 210.000
60.04693 199.000
60.06687 177.000
60.08682 180.000
60.10677 201.000
60.12671 191.000
60.14666 201.000
60.16661 199.000
60.18656 177.000
60.20650 222.000
60.22645 194.000
60.24640 195.000
60.26634 203.000
60.28629 169.000
60.30624 171.000
60.32618 212.000
60.34613 178.000
60.36608 177.000
60.38603 183.000
60.40597 199.000
60.42592 198.000
60.44587 186.000
60.46581 197.000
60.48576 221.000
60.50571 173.000
60.52565 184.000
60.54560 213.000
60.56555 208.000
60.58550 176.000
60.60544 188.000
60.62539 172.000
60.64534 201.000
60.66528 189.000
60.68523 201.000
60.70518 207.000
60.72512 199.000
60.74507 189.000
60.76502 192.000
60.78496 195.000
60.80491 206.000
60.82486 182.000
60.84481 220.000
60.86475 210.000
60.88470 197.000
60.90465 207.000
60.92459 210.000
60.94454 214.000
60.96449 232.000
60.98443 186.000
61.00438 239.000
61.02433 237.000
61.04428 211.000
61.06422 217.000
61.08417 247.000
61.10412 238.000
61.12406 228.000
61.14401 241.000
61.16396 260.000
61.18390 250.000
61.20385 250.000
61.22380 265.000
61.24374 276.000
61.26369 320.000
61.28364 296.000
61.30359 322.000
61.32353 341.000
61.34348 328.000
61.36343 389.000
61.38337 434.000
61.40332 504.000
61.42327 542.000
61.44321 550.000
61.46316 621.000
61.48311 638.000
61.50306 674.000
61.52300 694.000
61.54295 712.000
61.56290 698.000
61.58284 680.000
61.60279 700.000
61.62274 630.000
61.64268 591.000
61.66263 591.000
61.68258 570.000
61.70252 533.000
61.72247 509.000
61.74242 511.000
61.76237 469.000
61.78231 431.000
61.80226 384.000
61.82221 378.000
61.84215 333.000
61.86210 343.000
61.88205 295.000
61.90199 256.000
61.92194 264.000
61.94189 274.000
61.96184 270.000
61.98178 251.000
62.00173 239.000
62.02168 257.000
62.04162 226.000
62.06157 274.000
62.08152 225.000
62.10146 247.000
62.12141 258.000
62.14136 242.000
62.16131 266.000
62.18125 251.000
62.20120 228.000
62.22115 207.000
62.24109 227.000
62.26104 199.000
62.28099 215.000
62.30093 217.000
62.32088 215.000
62.34083 267.000
62.36077 229.000
62.38072 208.000
62.40067 210.000
62.42062 190.000
62.44056 213.000
62.46051 200.000
62.48046 186.000
62.50040 196.000
62.52035 196.000
62.54030 201.000
62.56024 189.000
62.58019 165.000
62.60014 173.000
62.62009 204.000
62.64003 183.000
62.65998 205.000
62.67993 200.000
62.69987 192.000
62.71982 200.000
62.73977 207.000
62.75971 167.000
62.77966 184.000
62.79961 208.000
62.81955 189.000
62.83950 189.000
62.85945 194.000
62.87940 222.000
62.89934 184.000
62.91929 193.000
62.93924 185.000
62.95918 200.000
62.97913 198.000
62.99908 203.000
63.01902 176.000
63.03897 228.000
63.05892 231.000
63.07887 205.000
63.09881 212.000
63.11876 184.000
63.13871 196.000
63.15865 219.000
63.17860 183.000
63.19855 184.000
63.21849 223.000
63.23844 184.000
63.25839 198.000
63.27833 192.000
63.29828 195.000
63.31823 217.000
63.33818 199.000
63.35812 221.000
63.37807 234.000
63.39802 224.000
63.41796 223.000
63.43791 238.000
63.45786 272.000
63.47780 268.000
63.49775 282.000
63.51770 317.000
63.53765 311.000
63.55759 326.000
63.57754 333.000
63.59749 357.000
63.61743 399.000
63.63738 335.000
63.65733 388.000
63.67727 358.000
63.69722 341.000
63.71717 362.000
63.73712 362.000
63.75706 284.000
63.77701 313.000
63.79696 359.000
63.81690 352.000
63.83685 286.000
63.85680 260.000
63.87674 319.000
63.89669 253.000
63.91664 291.000
63.93658 270.000
63.95653 253.000
63.97648 225.000
63.99643 270.000
64.01637 254.000
64.03632 245.000
64.05627 206.000
64.07621 248.000
64.09616 222.000
64.11611 231.000
64.13605 221.000
64.15600 236.000
64.17595 219.000
64.19590 209.000
64.21584 202.000
64.23579 209.000
64.25574 199.000
64.27568 228.000
64.29563 228.000
64.31558 208.000
64.33552 204.000
64.35547 203.000
64.37542 220.000
64.39536 224.000
64.41531 200.000
64.43526 223.000
64.45521 190.000
64.47515 202.000
64.49510 217.000
64.51505 198.000
64.53499 164.000
64.55494 196.000
64.57489 186.000
64.59483 203.000
64.61478 194.000
64.63473 168.000
64.65468 180.000
64.67462 163.000
64.69457 169.000
64.71452 175.000
64.73446 205.000
64.75441 192.000
64.77436 171.000
64.79430 203.000
64.81425 196.000
64.83420 171.000
64.85414 174.000
64.87409 198.000
64.89404 212.000
64.91399 195.000
64.93393 181.000
64.95388 195.000
64.97383 207.000
64.99377 192.000
65.01372 195.000
65.03367 183.000
65.05361 184.000
65.07356 202.000
65.09351 196.000
65.11346 175.000
65.13340 191.000
65.15335 204.000
65.17330 216.000
65.19324 176.000
65.21319 189.000
65.23314 195.000
65.25308 204.000
65.27303 222.000
65.29298 196.000
65.31293 214.000
65.33287 199.000
65.35282 195.000
65.37277 190.000
65.39271 186.000
65.41266 206.000
65.43261 207.000
65.45255 218.000
65.47250 207.000
65.49245 238.000
65.51239 221.000
65.53234 230.000
65.55229 247.000
65.57224 248.000
65.59218 274.000
65.61213 229.000
65.63208 247.000
65.65202 280.000
65.67197 290.000
65.69192 285.000
65.71186 297.000
65.73181 266.000
65.75176 280.000
65.77171 299.000
65.79165 303.000
65.81160 334.000
65.83155 320.000
65.85149 317.000
65.87144 310.000
65.89139 365.000
65.91133 374.000
65.93128 335.000
65.95123 367.000
65.97117 374.000
65.99112 389.000
66.01107 368.000
66.03102 361.000
66.05096 388.000
66.07091 417.000
66.09086 409.000
66.11080 413.000
66.13075 461.000
66.15070 397.000
66.17064 401.000
66.19059 350.000
66.21054 350.000
66.23049 330.000
66.25043 351.000
66.27038 365.000
66.29033 375.000
66.31027 306.000
66.33022 307.000
66.35017 338.000
66.37011 278.000
66.39006 282.000
66.41001 295.000
66.42995 347.000
66.44990 286.000
66.46985 289.000
66.48980 291.000
66.50974 282.000
66.52969 271.000
66.54964 280.000
66.56958 289.000
66.58953 298.000
66.60948 270.000
66.62942 275.000
66.64937 258.000
66.66932 250.000
66.68927 233.000
66.70921 230.000
66.72916 227.000
66.74911 225.000
66.76905 249.000
66.78900 219.000
66.80895 227.000
66.82889 210.000
66.84884 206.000
66.86879 196.000
66.88874 224.000
66.90868 188.000
66.92863 193.000
66.94858 180.000
66.96852 200.000
66.98847 181.000
67.00842 199.000
67.02836 165.000
67.04831 193.000
67.06826 201.000
67.08820 197.000
67.10815 197.000
67.12810 178.000
67.14805 186.000
67.16799 207.000
67.18794 190.000
67.20789 185.000
67.22783 184.000
67.24778 201.000
67.26773 172.000
67.28767 186.000
67.30762 200.000
67.32757 195.000
67.34752 204.000
67.36746 181.000
67.38741 192.000
67.40736 215.000
67.42730 183.000
67.44725 167.000
67.46720 193.000
67.48714 176.000
67.50709 165.000
67.52704 183.000
67.54698 197.000
67.56693 205.000
67.58688 189.000
67.60683 182.000
67.62677 196.000
67.64672 205.000
67.66667 198.000
67.68661 208.000
67.70656 202.000
67.72651 201.000
67.74645 212.000
67.76640 223.000
67.78635 206.000
67.80630 225.000
67.82624 239.000
67.84619 255.000
67.86614 236.000
67.88608 238.000
67.90603 249.000
67.92598 265.000
67.94592 303.000
67.96587 258.000
67.98582 297.000
68.00576 280.000
68.02571 288.000
68.04566 274.000
68.06561 273.000
68.08555 280.000
68.10550 249.000
68.12545 274.000
68.14539 261.000
68.16534 253.000
68.18529 239.000
68.20523 235.000
68.22518 247.000
68.24513 237.000
68.26508 242.000
68.28502 222.000
68.30497 201.000
68.32492 236.000
68.34486 235.000
68.36481 195.000
68.38476 206.000
68.40470 223.000
68.42465 199.000
68.44460 173.000
68.46455 190.000
68.48449 199.000
68.50444 180.000
68.52439 184.000
68.54433 182.000
68.56428 179.000
68.58423 188.000
68.60417 166.000
68.62412 165.000
68.64407 214.000
68.66401 182.000
68.68396 172.000
68.70391 164.000
68.72386 195.000
68.74380 174.000
68.76375 202.000
68.78370 184.000
68.80364 201.000
68.82359 158.000
68.84354 186.000
68.86348 200.000
68.88343 198.000
68.90338 165.000
68.92333 184.000
68.94327 181.000
68.96322 165.000
68.98317 181.000
69.00311 193.000
69.02306 182.000
69.04301 178.000
69.06295 205.000
69.08290 200.000
69.10285 185.000
69.12279 184.000
69.14274 201.000
69.16269 180.000
69.18264 204.000
69.20258 163.000
69.22253 196.000
69.24248 174.000
69.26242 158.000
69.28237 178.000
69.30232 199.000
69.32226 178.000
69.34221 178.000
69.36216 176.000
69.38211 219.000
69.40205 173.000
69.42200 162.000
69.44195 180.000
69.46189 193.000
69.48184 162.000
69.50179 178.000
69.52173 149.000
69.54168 186.000
69.56163 170.000
69.58157 194.000
69.60152 170.000
69.62147 187.000
69.64142 162.000
69.66136 180.000
69.68131 185.000
69.70126 185.000
69.72120 157.000
69.74115 149.000
69.76110 170.000
69.78104 154.000
69.80099 167.000
69.82094 190.000
69.84089 158.000
69.86083 169.000
69.88078 186.000
69.90073 184.000
69.92067 176.000
69.94062 174.000
69.96057 169.000
69.98051 181.000
70.00046 194.000
70.02041 170.000
70.04035 176.000
70.06030 177.000
70.08025 171.000
70.10020 173.000
70.12014 164.000
70.14009 179.000
70.16004 199.000
70.17998 171.000
70.19993 170.000
70.21988 177.000
70.23982 174.000
70.25977 168.000
70.27972 172.000
70.29967 170.000
70.31961 160.000
70.33956 194.000
70.35951 163.000
70.37945 151.000
70.39940 179.000
70.41935 179.000
70.43929 173.000
70.45924 153.000
70.47919 184.000
70.49914 178.000
70.51908 171.000
70.53903 188.000
70.55898 171.000
70.57892 176.000
70.59887 207.000
70.61882 186.000
70.63876 175.000
70.65871 172.000
70.67866 156.000
70.69860 169.000
70.71855 154.000
70.73850 162.000
70.75845 166.000
70.77839 199.000
70.79834 171.000
70.81829 182.000
70.83823 175.000
70.85818 173.000
70.87813 198.000
70.89807 163.000
70.91802 193.000
70.93797 186.000
70.95792 192.000
70.97786 176.000
70.99781 163.000
71.01776 167.000
71.03770 165.000
71.05765 182.000
71.07760 155.000
71.09754 162.000
71.11749 181.000
71.13744 158.000
71.15738 155.000
71.17733 175.000
71.19728 154.000
71.21723 166.000
71.23717 160.000
71.25712 193.000
71.27707 151.000
71.29701 178.000
71.31696 181.000
71.33691 177.000
71.35685 173.000
71.37680 167.000
71.39675 161.000
71.41670 199.000
71.43664 174.000
71.45659 176.000
71.47654 172.000
71.49648 191.000
71.51643 184.000
71.53638 178.000
71.55632 180.000
71.57627 194.000
71.59622 181.000
71.61616 180.000
71.63611 156.000
71.65606 159.000
71.67601 197.000
71.69595 144.000
71.71590 173.000
71.73585 173.000
71.75579 181.000
71.77574 161.000
71.79569 188.000
71.81563 162.000
71.83558 187.000
71.85553 161.000
71.87548 198.000
71.89542 192.000
71.91537 158.000
71.93532 195.000
71.95526 166.000
71.97521 171.000
71.99516 172.000
72.01510 198.000
72.03505 205.000
72.05500 186.000
72.07495 164.000
72.09489 188.000
72.11484 202.000
72.13479 175.000
72.15473 195.000
72.17468 196.000
72.19463 173.000
72.21457 180.000
72.23452 181.000
72.25447 216.000
72.27441 218.000
72.29436 221.000
72.31431 256.000
72.33426 224.000
72.35420 230.000
72.37415 226.000
72.39410 215.000
72.41404 203.000
72.43399 229.000
72.45394 225.000
72.47388 196.000
72.49383 249.000
72.51378 172.000
72.53373 238.000
72.55367 234.000
72.57362 178.000
72.59357 191.000
72.61351 191.000
72.63346 178.000
72.65341 204.000
72.67335 198.000
72.69330 198.000
72.71325 189.000
72.73319 199.000
72.75314 237.000
72.77309 231.000
72.79304 248.000
72.81298 217.000
72.83293 230.000
72.85288 249.000
72.87282 250.000
72.89277 226.000
72.91272 253.000
72.93266 242.000
72.95261 248.000
72.97256 241.000
72.99251 244.000
73.01245 234.000
73.03240 246.000
73.05235 245.000
73.07229 205.000
73.09224 230.000
73.11219 197.000
73.13213 228.000
73.15208 219.000
73.17203 231.000
73.19197 212.000
73.21192 197.000
73.23187 187.000
73.25182 210.000
73.27176 204.000
73.29171 206.000
73.31166 187.000
73.33160 189.000
73.35155 197.000
73.37150 217.000
73.39144 179.000
73.41139 182.000
73.43134 183.000
73.45129 201.000
73.47123 202.000
73.49118 189.000
73.51113 179.000
73.53107 178.000
73.55102 181.000
73.57097 185.000
73.59091 196.000
73.61086 176.000
73.63081 179.000
73.65076 202.000
73.67070 184.000
73.69065 181.000
73.71060 179.000
73.73054 185.000
73.75049 185.000
73.77044 184.000
73.79038 159.000
73.81033 178.000
73.83028 179.000
73.85022 196.000
73.87017 180.000
73.89012 192.000
73.91007 158.000
73.93001 163.000
73.94996 167.000
73.96991 164.000
73.98985 185.000
74.00980 170.000
74.02975 162.000
74.04969 195.000
74.06964 169.000
74.08959 141.000
74.10954 155.000
74.12948 160.000
74.14943 166.000
74.16938 178.000
74.18932 177.000
74.20927 178.000
74.22922 173.000
74.24916 193.000
74.26911 151.000
74.28906 156.000
74.30900 179.000
74.32895 164.000
74.34890 173.000
74.36885 188.000
74.38879 188.000
74.40874 205.000
74.42869 161.000
74.44863 171.000
74.46858 185.000
74.48853 159.000
74.50847 179.000
74.52842 177.000
74.54837 196.000
74.56832 170.000
74.58826 178.000
74.60821 153.000
74.62816 164.000
74.64810 180.000
74.66805 189.000
74.68800 186.000
74.70794 174.000
74.72789 203.000
74.74784 196.000
74.76778 201.000
74.78773 193.000
74.80768 215.000
74.82763 201.000
74.84757 206.000
74.86752 215.000
74.88747 258.000
74.90741 247.000
74.92736 255.000
74.94731 245.000
74.96725 258.000
74.98720 207.000
75.00715 229.000
75.02710 227.000
75.04704 250.000
75.06699 225.000
75.08694 246.000
75.10688 268.000
75.12683 265.000
75.14678 256.000
75.16672 245.000
75.18667 241.000
75.20662 253.000
75.22657 244.000
75.24651 233.000
75.26646 233.000
75.28641 233.000
75.30635 204.000
75.32630 199.000
75.34625 191.000
75.36619 205.000
75.38614 213.000
75.40609 206.000
75.42603 206.000
75.44598 180.000
75.46593 194.000
75.48588 207.000
75.50582 191.000
75.52577 188.000
75.54572 200.000
75.56566 199.000
75.58561 181.000
75.60556 167.000
75.62550 174.000
75.64545 198.000
75.66540 182.000
75.68535 188.000
75.70529 172.000
75.72524 173.000
75.74519 177.000
75.76513 174.000
75.78508 205.000
75.80503 191.000
75.82497 164.000
75.84492 195.000
75.86487 175.000
75.88481 190.000
75.90476 175.000
75.92471 176.000
75.94466 162.000
75.96460 159.000
75.98455 186.000
76.00450 157.000
76.02444 175.000
76.04439 202.000
76.06434 160.000
76.08428 164.000
76.10423 172.000
76.12418 172.000
76.14413 176.000
76.16407 160.000
76.18402 165.000
76.20397 195.000
76.22391 163.000
76.24386 185.000
76.26381 183.000
76.28375 154.000
76.30370 160.000
76.32365 189.000
76.34359 176.000
76.36354 175.000
76.38349 196.000
76.40344 178.000
76.42338 172.000
76.44333 163.000
76.46328 174.000
76.48322 162.000
76.50317 190.000
76.52312 167.000
76.54306 154.000
76.56301 139.000
76.58296 175.000
76.60291 200.000
76.62285 185.000
76.64280 163.000
76.66275 177.000
76.68269 171.000
76.70264 203.000
76.72259 188.000
76.74253 181.000
76.76248 173.000
76.78243 180.000
76.80238 212.000
76.82232 169.000
76.84227 189.000
76.86222 205.000
76.88216 189.000
76.90211 176.000
76.92206 174.000
76.94200 185.000
76.96195 202.000
76.98190 184.000
77.00184 213.000
77.02179 184.000
77.04174 210.000
77.06169 206.000
77.08163 213.000
77.10158 206.000
77.12153 227.000
77.14147 226.000
77.16142 210.000
77.18137 215.000
77.20131 239.000
77.22126 261.000
77.24121 234.000
77.26116 218.000
77.28110 229.000
77.30105 222.000
77.32100 234.000
77.34094 229.000
77.36089 229.000
77.38084 243.000
77.40078 237.000
77.42073 241.000
77.44068 255.000
77.46062 229.000
77.48057 225.000
77.50052 258.000
77.52047 239.000
77.54041 263.000
77.56036 264.000
77.58031 266.000
77.60025 307.000
77.62020 256.000
77.64015 260.000
77.66009 323.000
77.68004 296.000
77.69999 293.000
77.71994 289.000
77.73988 284.000
77.75983 272.000
77.77978 232.000
77.79972 246.000
77.81967 245.000
77.83962 279.000
77.85956 226.000
77.87951 249.000
77.89946 247.000
77.91940 266.000
77.93935 240.000
77.95930 228.000
77.97925 210.000
77.99919 255.000
78.01914 205.000
78.03909 207.000
78.05903 196.000
78.07898 206.000
78.09893 230.000
78.11887 213.000
78.13882 171.000
78.15877 176.000
78.17872 205.000
78.19866 172.000
78.21861 186.000
78.23856 168.000
78.25850 182.000
78.27845 202.000
78.29840 194.000
78.31834 165.000
78.33829 195.000
78.35824 175.000
78.37819 174.000
78.39813 182.000
78.41808 192.000
78.43803 187.000
78.45797 182.000
78.47792 199.000
78.49787 201.000
78.51781 182.000
78.53776 160.000
78.55771 171.000
78.57765 181.000
78.59760 176.000
78.61755 171.000
78.63750 155.000
78.65744 165.000
78.67739 182.000
78.69734 165.000
78.71728 186.000
78.73723 168.000
78.75718 160.000
78.77712 164.000
78.79707 194.000
78.81702 196.000
78.83697 158.000
78.85691 160.000
78.87686 170.000
78.89681 177.000
78.91675 171.000
78.93670 179.000
78.95665 163.000
78.97659 155.000
78.99654 166.000
79.01649 151.000
79.03643 161.000
79.05638 183.000
79.07633 179.000
79.09628 162.000
79.11622 160.000
79.13617 163.000
79.15612 171.000
79.17606 194.000
79.19601 162.000
79.21596 168.000
79.23590 172.000
79.25585 164.000
79.27580 177.000
79.29575 154.000
79.31569 176.000
79.33564 166.000
79.35559 181.000
79.37553 212.000
79.39548 181.000
79.41543 157.000
79.43537 170.000
79.45532 172.000
79.47527 175.000
79.49521 191.000
79.51516 178.000
79.53511 187.000
79.55506 210.000
79.57500 166.000
79.59495 168.000
79.61490 164.000
79.63484 156.000
79.65479 180.000
79.67474 168.000
79.69468 171.000
79.71463 171.000
79.73458 182.000
79.75453 179.000
79.77447 188.000
79.79442 165.000
79.81437 179.000
79.83431 186.000
79.85426 184.000
79.87421 174.000
79.89415 188.000
79.91410 169.000
79.93405 194.000
79.95399 187.000
79.97394 195.000
79.99389 209.000
80.01384 169.000
80.03378 199.000
80.05373 186.000
80.07368 193.000
80.09362 179.000
80.11357 195.000
80.13352 190.000
80.15346 185.000
80.17341 200.000
80.19336 177.000
80.21331 179.000
80.23325 183.000
80.25320 175.000
80.27315 168.000
80.29309 176.000
80.31304 191.000
80.33299 159.000
80.35293 173.000
80.37288 160.000
80.39283 185.000
80.41278 160.000
80.43272 169.000
80.45267 203.000
80.47262 181.000
80.49256 189.000
80.51251 188.000
80.53246 192.000
80.55240 152.000
80.57235 209.000
80.59230 181.000
80.61224 154.000
80.63219 194.000
80.65214 177.000
80.67209 158.000
80.69203 172.000
80.71198 176.000
80.73193 185.000
80.75187 168.000
80.77182 170.000
80.79177 174.000
80.81171 176.000
80.83166 169.000
80.85161 166.000
80.87156 162.000
80.89150 168.000
80.91145 176.000
80.93140 157.000
80.95134 149.000
80.97129 177.000
80.99124 168.000
81.01118 165.000
81.03113 150.000
81.05108 185.000
81.07102 177.000
81.09097 163.000
81.11092 182.000
81.13087 205.000
81.15081 187.000
81.17076 167.000
81.19071 151.000
81.21065 177.000
81.23060 192.000
81.25055 185.000
81.27049 159.000
81.29044 170.000
81.31039 181.000
81.33034 156.000
81.35028 186.000
81.37023 183.000
81.39018 165.000
81.41012 176.000
81.43007 161.000
81.45002 151.000
81.46996 182.000
81.48991 151.000
81.50986 201.000
81.52980 148.000
81.54975 178.000
81.56970 179.000
81.58965 193.000
81.60959 177.000
81.62954 166.000
81.64949 185.000
81.66943 197.000
81.68938 172.000
81.70933 186.000
81.72927 166.000
81.74922 179.000
81.76917 173.000
81.78912 164.000
81.80906 163.000
81.82901 187.000
81.84896 185.000
81.86890 170.000
81.88885 162.000
81.90880 163.000
81.92874 194.000
81.94869 177.000
81.96864 179.000
81.98859 163.000
82.00853 169.000
82.02848 190.000
82.04843 186.000
82.06837 170.000
82.08832 178.000
82.10827 188.000
82.12821 191.000
82.14816 189.000
82.16811 202.000
82.18805 186.000
82.20800 215.000
82.22795 206.000
82.24790 170.000
82.26784 213.000
82.28779 207.000
82.30774 191.000
82.32768 226.000
82.34763 179.000
82.36758 178.000
82.38752 189.000
82.40747 171.000
82.42742 173.000
82.44737 179.000
82.46731 211.000
82.48726 214.000
82.50721 185.000
82.52715 196.000
82.54710 180.000
82.56705 190.000
82.58699 206.000
82.60694 194.000
82.62689 186.000
82.64683 187.000
82.66678 178.000
82.68673 197.000
82.70668 182.000
82.72662 182.000
82.74657 204.000
82.76652 207.000
82.78646 174.000
82.80641 180.000
82.82636 172.000
82.84630 186.000
82.86625 202.000
82.88620 179.000
82.90615 185.000
82.92609 181.000
82.94604 182.000
82.96599 207.000
82.98593 216.000
83.00588 195.000
83.02583 201.000
83.04577 196.000
83.06572 212.000
83.08567 185.000
83.10561 181.000
83.12556 217.000
83.14551 203.000
83.16546 214.000
83.18540 188.000
83.20535 210.000
83.22530 209.000
83.24524 187.000
83.26519 209.000
83.28514 217.000
83.30508 193.000
83.32503 203.000
83.34498 190.000
83.36493 209.000
83.38487 222.000
83.40482 202.000
83.42477 200.000
83.44471 225.000
83.46466 212.000
83.48461 173.000
83.50455 205.000
83.52450 221.000
83.54445 218.000
83.56440 188.000
83.58434 199.000
83.60429 215.000
83.62424 188.000
83.64418 224.000
83.66413 219.000
83.68408 214.000
83.70402 237.000
83.72397 235.000
83.74392 224.000
83.76386 237.000
83.78381 212.000
83.80376 204.000
83.82371 245.000
83.84365 231.000
83.86360 221.000
83.88355 222.000
83.90349 219.000
83.92344 217.000
83.94339 239.000
83.96333 251.000
83.98328 234.000
84.00323 246.000
84.02318 218.000
84.04312 230.000
84.06307 243.000
84.08302 231.000
84.10296 206.000
84.12291 227.000
84.14286 216.000
84.16280 178.000
84.18275 227.000
84.20270 172.000
84.22264 216.000
84.24259 204.000
84.26254 195.000
84.28249 193.000
84.30243 198.000
84.32238 199.000
84.34233 172.000
84.36227 202.000
84.38222 196.000
84.40217 159.000
84.42211 190.000
84.44206 167.000
84.46201 189.000
84.48196 163.000
84.50190 185.000
84.52185 191.000
84.54180 176.000
84.56174 153.000
84.58169 148.000
84.60164 178.000
84.62158 161.000
84.64153 156.000
84.66148 171.000
84.68142 176.000
84.70137 201.000
84.72132 152.000
84.74127 182.000
84.76121 151.000
84.78116 165.000
84.80111 184.000
84.82105 164.000
84.84100 177.000
84.86095 162.000
84.88089 174.000
84.90084 158.000
84.92079 165.000
84.94074 190.000
84.96068 161.000
84.98063 163.000
85.00058 164.000
85.02052 188.000
85.04047 164.000
85.06042 176.000
85.08036 177.000
85.10031 189.000
85.12026 187.000
85.14021 166.000
85.16015 162.000
85.18010 186.000
85.20005 182.000
85.21999 168.000
85.23994 168.000
85.25989 151.000
85.27983 179.000
85.29978 176.000
85.31973 185.000
85.33967 181.000
85.35962 172.000
85.37957 156.000
85.39952 159.000
85.41946 178.000
85.43941 193.000
85.45936 183.000
85.47930 156.000
85.49925 176.000
85.51920 155.000
85.53914 167.000
85.55909 154.000
85.57904 171.000
85.59899 143.000
85.61893 164.000
85.63888 200.000
85.65883 165.000
85.67877 164.000
85.69872 171.000
85.71867 149.000
85.73861 167.000
85.75856 194.000
85.77851 183.000
85.79845 187.000
85.81840 167.000
85.83835 177.000
85.85830 171.000
85.87824 168.000
85.89819 159.000
85.91814 160.000
85.93808 176.000
85.95803 178.000
85.97798 194.000
85.99792 165.000
86.01787 181.000
86.03782 168.000
86.05777 159.000
86.07771 170.000
86.09766 173.000
86.11761 185.000
86.13755 171.000
86.15750 188.000
86.17745 178.000
86.19739 165.000
86.21734 171.000
86.23729 201.000
86.25723 164.000
86.27718 200.000
86.29713 187.000
86.31708 173.000
86.33702 176.000
86.35697 195.000
86.37692 169.000
86.39686 197.000
86.41681 189.000
86.43676 178.000
86.45670 198.000
86.47665 174.000
86.49660 195.000
86.51655 207.000
86.53649 178.000
86.55644 207.000
86.57639 204.000
86.59633 193.000
86.61628 188.000
86.63623 186.000
86.65617 185.000
86.67612 178.000
86.69607 228.000
86.71602 201.000
86.73596 195.000
86.75591 175.000
86.77586 172.000
86.79580 182.000
86.81575 194.000
86.83570 212.000
86.85564 177.000
86.87559 191.000
86.89554 195.000
86.91548 214.000
86.93543 203.000
86.95538 201.000
86.97533 183.000
86.99527 174.000
87.01522 172.000
87.03517 178.000
87.05511 190.000
87.07506 199.000
87.09501 176.000
87.11495 192.000
87.13490 168.000
87.15485 190.000
87.17480 165.000
87.19474 207.000
87.21469 223.000
87.23464 178.000
87.25458 157.000
87.27453 180.000
87.29448 160.000
87.31442 198.000
87.33437 182.000
87.35432 164.000
87.37426 212.000
87.39421 187.000
87.41416 175.000
87.43411 169.000
87.45405 176.000
87.47400 164.000
87.49395 179.000
87.51389 169.000
87.53384 162.000
87.55379 175.000
87.57373 174.000
87.59368 174.000
87.61363 146.000
87.63358 178.000
87.65352 186.000
87.67347 181.000
87.69342 164.000
87.71336 170.000
87.73331 157.000
87.75326 167.000
87.77320 155.000
87.79315 148.000
87.81310 153.000
87.83304 181.000
87.85299 177.000
87.87294 173.000
87.89289 184.000
87.91283 181.000
87.93278 180.000
87.95273 183.000
87.97267 159.000
87.99262 144.000
88.01257 188.000
88.03251 158.000
88.05246 165.000
88.07241 176.000
88.09236 179.000
88.11230 145.000
88.13225 167.000
88.15220 149.000
88.17214 166.000
88.19209 188.000
88.21204 148.000
88.23198 187.000
88.25193 165.000
88.27188 147.000
88.29183 172.000
88.31177 166.000
88.33172 171.000
88.35167 159.000
88.37161 163.000
88.39156 166.000
88.41151 160.000
88.43145 151.000
88.45140 166.000
88.47135 162.000
88.49129 163.000
88.51124 153.000
88.53119 168.000
88.55114 158.000
88.57108 198.000
88.59103 197.000
88.61098 199.000
88.63092 161.000
88.65087 176.000
88.67082 189.000
88.69076 162.000
88.71071 156.000
88.73066 175.000
88.75061 156.000
88.77055 166.000
88.79050 179.000
88.81045 167.000
88.83039 181.000
88.85034 165.000
88.87029 158.000
88.89023 185.000
88.91018 184.000
88.93013 186.000
88.95007 173.000
88.97002 173.000
88.98997 192.000
89.00992 169.000
89.02986 190.000
89.04981 152.000
89.06976 163.000
89.08970 177.000
89.10965 154.000
89.12960 164.000
89.14954 187.000
89.16949 180.000
89.18944 179.000
89.20939 174.000
89.22933 196.000
89.24928 169.000
89.26923 170.000
89.28917 173.000
89.30912 170.000
89.32907 179.000
89.34901 193.000
89.36896 195.000
89.38891 177.000
89.40885 180.000
89.42880 195.000
89.44875 212.000
89.46870 189.000
89.48864 162.000
89.50859 163.000
89.52854 182.000
89.54848 192.000
89.56843 155.000
89.58838 177.000
89.60832 189.000
89.62827 163.000
89.64822 201.000
89.66817 175.000
89.68811 179.000
89.70806 195.000
89.72801 216.000
89.74795 184.000
89.76790 188.000
89.78785 167.000
89.80779 164.000
89.82774 171.000
89.84769 198.000
89.86764 178.000
89.88758 158.000
89.90753 186.000
89.92748 161.000
89.94742 189.000
89.96737 189.000
89.98732 171.000
90.00726 188.000
