10.00000 54.000
10.01995 53.000
10.03989 56.000
10.05984 45.000
10.07979 47.000
10.09973 54.000
10.11968 59.000
10.13963 44.000
10.15958 63.000
10.17952 60.000
10.19947 50.000
10.21942 55.000
10.23936 57.000
10.25931 44.000
10.27926 47.000
10.29920 49.000
10.31915 57.000
10.33910 57.000
10.35905 54.000
10.37899 48.000
10.39894 61.000
10.41889 56.000
10.43883 50.000
10.45878 50.000
10.47873 52.000
10.49867 61.000
10.51862 41.000
10.53857 54.000
10.55851 59.000
10.57846 58.000
10.59841 40.000
10.61836 57.000
10.63830 52.000
10.65825 45.000
10.67820 51.000
10.69814 59.000
10.71809 57.000
10.73804 48.000
10.75798 56.000
10.77793 59.000
10.79788 66.000
10.81783 66.000
10.83777 53.000
10.85772 62.000
10.87767 56.000
10.89761 43.000
10.91756 57.000
10.93751 48.000
10.95745 59.000
10.97740 44.000
10.99735 54.000
11.01730 39.000
11.03724 45.000
11.05719 38.000
11.07714 47.000
11.09708 58.000
11.11703 52.000
11.13698 44.000
11.15692 37.000
11.17687 60.000
11.19682 57.000
11.21676 52.000
11.23671 48.000
11.25666 54.000
11.27661 56.000
11.29655 39.000
11.31650 44.000
11.33645 47.000
11.35639 49.000
11.37634 48.000
11.39629 52.000
11.41623 46.000
11.43618 58.000
11.45613 49.000
11.47608 55.000
11.49602 40.000
11.51597 61.000
11.53592 45.000
11.55586 36.000
11.57581 54.000
11.59576 48.000
11.61570 53.000
11.63565 67.000
11.65560 50.000
11.67554 43.000
11.69549 64.000
11.71544 51.000
11.73539 46.000
11.75533 38.000
11.77528 62.000
11.79523 45.000
11.81517 62.000
11.83512 57.000
11.85507 57.000
11.87501 45.000
11.89496 40.000
11.91491 44.000
11.93486 68.000
11.95480 58.000
11.97475 58.000
11.99470 59.000
12.01464 61.000
12.03459 51.000
12.05454 52.000
12.07448 59.000
12.09443 61.000
12.11438 54.000
12.13432 59.000
12.15427 52.000
12.17422 71.000
12.19417 79.000
12.21411 76.000
12.23406 66.000
12.25401 89.000
12.27395 82.000
12.29390 82.000
12.31385 83.000
12.33379 95.000
12.35374 94.000
12.37369 99.000
12.39364 109.000
12.41358 119.000
12.43353 123.000
12.45348 123.000
12.47342 149.000
12.49337 132.000
12.51332 104.000
12.53326 132.000
12.55321 152.000
12.57316 129.000
12.59311 125.000
12.61305 132.000
12.63300 115.000
12.65295 80.000
12.67289 98.000
12.69284 94.000
12.71279 95.000
12.73273 81.000
12.75268 82.000
12.77263 72.000
12.79257 67.000
12.81252 81.000
12.83247 59.000
12.85242 75.000
12.87236 58.000
12.89231 58.000
12.91226 76.000
12.93220 59.000
12.95215 60.000
12.97210 62.000
12.99204 55.000
13.01199 49.000
13.03194 45.000
13.05189 72.000
13.07183 66.000
13.09178 53.000
13.11173 60.000
13.13167 69.000
13.15162 49.000
13.17157 57.000
13.19151 56.000
13.21146 69.000
13.23141 44.000
13.25135 58.000
13.27130 66.000
13.29125 40.000
13.31120 52.000
13.33114 54.000
13.35109 53.000
13.37104 59.000
13.39098 57.000
13.41093 81.000
13.43088 66.000
13.45082 82.000
13.47077 64.000
13.49072 74.000
13.51067 69.000
13.53061 92.000
13.55056 75.000
13.57051 53.000
13.59045 75.000
13.61040 75.000
13.63035 69.000
13.65029 65.000
13.67024 65.000
13.69019 55.000
13.71013 52.000
13.73008 60.000
13.75003 51.000
13.76998 61.000
13.78992 57.000
13.80987 77.000
13.82982 56.000
13.84976 45.000
13.86971 54.000
13.88966 58.000
13.90960 54.000
13.92955 66.000
13.94950 48.000
13.96945 64.000
13.98939 67.000
14.00934 52.000
14.02929 62.000
14.04923 62.000
14.06918 63.000
14.08913 48.000
14.10907 57.000
14.12902 72.000
14.14897 68.000
14.16892 56.000
14.18886 53.000
14.20881 51.000
14.22876 58.000
14.24870 57.000
14.26865 50.000
14.28860 48.000
14.30854 58.000
14.32849 61.000
14.34844 49.000
14.36838 50.000
14.38833 51.000
14.40828 46.000
14.42823 49.000
14.44817 72.000
14.46812 52.000
14.48807 65.000
14.50801 50.000
14.52796 54.000
14.54791 51.000
14.56785 55.000
14.58780 46.000
14.60775 66.000
14.62770 62.000
14.64764 68.000
14.66759 64.000
14.68754 69.000
14.70748 57.000
14.72743 69.000
14.74738 70.000
14.76732 62.000
14.78727 65.000
14.80722 62.000
14.82716 70.000
14.84711 84.000
14.86706 72.000
14.88701 94.000
14.90695 79.000
14.92690 88.000
14.94685 83.000
14.96679 66.000
14.98674 86.000
15.00669 75.000
15.02663 96.000
15.04658 95.000
15.06653 91.000
15.08648 97.000
15.10642 108.000
15.12637 113.000
15.14632 109.000
15.16626 117.000
15.18621 124.000
15.20616 131.000
15.22610 145.000
15.24605 151.000
15.26600 187.000
15.28594 181.000
15.30589 209.000
15.32584 243.000
15.34579 305.000
15.36573 422.000
15.38568 515.000
15.40563 700.000
15.42557 975.000
15.44552 1241.000
15.46547 1715.000
15.48541 2123.000
15.50536 2648.000
15.52531 3281.000
15.54526 3662.000
15.56520 4043.000
15.58515 4307.000
15.60510 4354.000
15.62504 4279.000
15.64499 3900.000
15.66494 3192.000
15.68488 2244.000
15.70483 1669.000
15.72478 1228.000
15.74472 1025.000
15.76467 1030.000
15.78462 1037.000
15.80457 1045.000
15.82451 1143.000
15.84446 1180.000
15.86441 1133.000
15.88435 1046.000
15.90430 971.000
15.92425 859.000
15.94419 735.000
15.96414 604.000
15.98409 412.000
16.00404 254.000
16.02398 212.000
16.04393 136.000
16.06388 118.000
16.08382 107.000
16.10377 99.000
16.12372 95.000
16.14366 90.000
16.16361 78.000
16.18356 70.000
16.20351 68.000
16.22345 68.000
16.24340 49.000
16.26335 79.000
16.28329 61.000
16.30324 63.000
16.32319 61.000
16.34313 70.000
16.36308 68.000
16.38303 48.000
16.40297 60.000
16.42292 59.000
16.44287 73.000
16.46282 55.000
16.48276 41.000
16.50271 51.000
16.52266 50.000
16.54260 59.000
16.56255 49.000
16.58250 64.000
16.60244 49.000
16.62239 58.000
16.64234 40.000
16.66229 56.000
16.68223 51.000
16.70218 47.000
16.72213 41.000
16.74207 46.000
16.76202 55.000
16.78197 40.000
16.80191 44.000
16.82186 48.000
16.84181 44.000
16.86175 50.000
16.88170 41.000
16.90165 47.000
16.92160 40.000
16.94154 38.000
16.96149 42.000
16.98144 32.000
17.00138 35.000
17.02133 43.000
17.04128 47.000
17.06122 27.000
17.08117 37.000
17.10112 43.000
17.12107 43.000
17.14101 37.000
17.16096 34.000
17.18091 35.000
17.20085 38.000
17.22080 38.000
17.24075 37.000
17.26069 40.000
17.28064 45.000
17.30059 49.000
17.32053 39.000
17.34048 46.000
17.36043 31.000
17.38038 32.000
17.40032 39.000
17.42027 34.000
17.44022 34.000
17.46016 37.000
17.48011 40.000
17.50006 31.000
17.52000 50.000
17.53995 33.000
17.55990 38.000
17.57985 33.000
17.59979 37.000
17.61974 35.000
17.63969 37.000
17.65963 41.000
17.67958 37.000
17.69953 45.000
17.71947 39.000
17.73942 27.000
17.75937 34.000
17.77932 35.000
17.79926 30.000
17.81921 34.000
17.83916 55.000
17.85910 38.000
17.87905 44.000
17.89900 41.000
17.91894 56.000
17.93889 46.000
17.95884 38.000
17.97878 49.000
17.99873 38.000
18.01868 39.000
18.03863 43.000
18.05857 39.000
18.07852 46.000
18.09847 31.000
18.11841 34.000
18.13836 28.000
18.15831 41.000
18.17825 34.000
18.19820 31.000
18.21815 38.000
18.23810 24.000
18.25804 36.000
18.27799 48.000
18.29794 33.000
18.31788 32.000
18.33783 31.000
18.35778 46.000
18.37772 32.000
18.39767 37.000
18.41762 35.000
18.43756 44.000
18.45751 38.000
18.47746 42.000
18.49741 40.000
18.51735 33.000
18.53730 45.000
18.55725 32.000
18.57719 43.000
18.59714 40.000
18.61709 40.000
18.63703 33.000
18.65698 40.000
18.67693 42.000
18.69688 23.000
18.71682 37.000
18.73677 37.000
18.75672 34.000
18.77666 32.000
18.79661 42.000
18.81656 38.000
18.83650 42.000
18.85645 40.000
18.87640 42.000
18.89634 33.000
18.91629 40.000
18.93624 50.000
18.95619 33.000
18.97613 34.000
18.99608 38.000
19.01603 33.000
19.03597 36.000
19.05592 34.000
19.07587 35.000
19.09581 47.000
19.11576 39.000
19.13571 37.000
19.15566 44.000
19.17560 51.000
19.19555 40.000
19.21550 36.000
19.23544 48.000
19.25539 39.000
19.27534 29.000
19.29528 29.000
19.31523 33.000
19.33518 23.000
19.35513 47.000
19.37507 34.000
19.39502 43.000
19.41497 43.000
19.43491 17.000
19.45486 28.000
19.47481 43.000
19.49475 28.000
19.51470 38.000
19.53465 34.000
19.55459 35.000
19.57454 29.000
19.59449 43.000
19.61444 46.000
19.63438 33.000
19.65433 45.000
19.67428 35.000
19.69422 33.000
19.71417 47.000
19.73412 39.000
19.75406 31.000
19.77401 44.000
19.79396 32.000
19.81391 37.000
19.83385 39.000
19.85380 34.000
19.87375 45.000
19.89369 42.000
19.91364 40.000
19.93359 40.000
19.95353 36.000
19.97348 34.000
19.99343 41.000
20.01337 36.000
20.03332 35.000
20.05327 28.000
20.07322 27.000
20.09316 32.000
20.11311 28.000
20.13306 40.000
20.15300 36.000
20.17295 43.000
20.19290 36.000
20.21284 41.000
20.23279 39.000
20.25274 48.000
20.27269 35.000
20.29263 37.000
20.31258 35.000
20.33253 41.000
20.35247 33.000
20.37242 35.000
20.39237 47.000
20.41231 36.000
20.43226 44.000
20.45221 35.000
20.47215 35.000
20.49210 48.000
20.51205 42.000
20.53200 37.000
20.55194 25.000
20.57189 36.000
20.59184 34.000
20.61178 36.000
20.63173 27.000
20.65168 35.000
20.67162 41.000
20.69157 34.000
20.71152 42.000
20.73147 50.000
20.75141 42.000
20.77136 36.000
20.79131 30.000
20.81125 33.000
20.83120 34.000
20.85115 33.000
20.87109 26.000
20.89104 35.000
20.91099 36.000
20.93094 50.000
20.95088 37.000
20.97083 30.000
20.99078 30.000
21.01072 39.000
21.03067 36.000
21.05062 35.000
21.07056 35.000
21.09051 41.000
21.11046 29.000
21.13040 35.000
21.15035 46.000
21.17030 42.000
21.19025 46.000
21.21019 33.000
21.23014 33.000
21.25009 43.000
21.27003 35.000
21.28998 28.000
21.30993 38.000
21.32987 41.000
21.34982 46.000
21.36977 31.000
21.38972 40.000
21.40966 32.000
21.42961 37.000
21.44956 44.000
21.46950 45.000
21.48945 56.000
21.50940 45.000
21.52934 24.000
21.54929 35.000
21.56924 38.000
21.58918 50.000
21.60913 39.000
21.62908 33.000
21.64903 41.000
21.66897 42.000
21.68892 38.000
21.70887 43.000
21.72881 36.000
21.74876 36.000
21.76871 46.000
21.78865 40.000
21.80860 45.000
21.82855 41.000
21.84850 49.000
21.86844 52.000
21.88839 45.000
21.90834 34.000
21.92828 47.000
21.94823 47.000
21.96818 48.000
21.98812 45.000
22.00807 43.000
22.02802 36.000
22.04796 42.000
22.06791 39.000
22.08786 40.000
22.10781 46.000
22.12775 30.000
22.14770 46.000
22.16765 52.000
22.18759 50.000
22.20754 49.000
22.22749 52.000
22.24743 43.000
22.26738 41.000
22.28733 35.000
22.30728 40.000
22.32722 42.000
22.34717 30.000
22.36712 54.000
22.38706 38.000
22.40701 46.000
22.42696 31.000
22.44690 36.000
22.46685 40.000
22.48680 42.000
22.50675 34.000
22.52669 38.000
22.54664 44.000
22.56659 52.000
22.58653 44.000
22.60648 42.000
22.62643 41.000
22.64637 42.000
22.66632 42.000
22.68627 34.000
22.70621 45.000
22.72616 37.000
22.74611 46.000
22.76606 59.000
22.78600 28.000
22.80595 52.000
22.82590 40.000
22.84584 40.000
22.86579 47.000
22.88574 47.000
22.90568 40.000
22.92563 50.000
22.94558 34.000
22.96553 31.000
22.98547 32.000
23.00542 37.000
23.02537 38.000
23.04531 43.000
23.06526 44.000
23.08521 48.000
23.10515 37.000
23.12510 31.000
23.14505 38.000
23.16499 45.000
23.18494 41.000
23.20489 42.000
23.22484 37.000
23.24478 43.000
23.26473 44.000
23.28468 58.000
23.30462 37.000
23.32457 55.000
23.34452 41.000
23.36446 44.000
23.38441 43.000
23.40436 53.000
23.42431 51.000
23.44425 46.000
23.46420 44.000
23.48415 56.000
23.50409 52.000
23.52404 56.000
23.54399 42.000
23.56393 45.000
23.58388 46.000
23.60383 53.000
23.62377 65.000
23.64372 39.000
23.66367 51.000
23.68362 52.000
23.70356 47.000
23.72351 54.000
23.74346 59.000
23.76340 54.000
23.78335 47.000
23.80330 44.000
23.82324 46.000
23.84319 46.000
23.86314 49.000
23.88309 42.000
23.90303 50.000
23.92298 45.000
23.94293 50.000
23.96287 53.000
23.98282 48.000
24.00277 49.000
24.02271 36.000
24.04266 45.000
24.06261 41.000
24.08256 42.000
24.10250 55.000
24.12245 46.000
24.14240 50.000
24.16234 57.000
24.18229 52.000
24.20224 47.000
24.22218 44.000
24.24213 54.000
24.26208 44.000
24.28202 45.000
24.30197 49.000
24.32192 45.000
24.34187 45.000
24.36181 42.000
24.38176 59.000
24.40171 54.000
24.42165 40.000
24.44160 42.000
24.46155 57.000
24.48149 51.000
24.50144 37.000
24.52139 55.000
24.54134 52.000
24.56128 53.000
24.58123 54.000
24.60118 53.000
24.62112 57.000
24.64107 44.000
24.66102 56.000
24.68096 57.000
24.70091 68.000
24.72086 60.000
24.74080 57.000
24.76075 71.000
24.78070 62.000
24.80065 72.000
24.82059 49.000
24.84054 62.000
24.86049 61.000
24.88043 49.000
24.90038 61.000
24.92033 66.000
24.94027 63.000
24.96022 69.000
24.98017 59.000
25.00012 57.000
25.02006 71.000
25.04001 77.000
25.05996 65.000
25.07990 66.000
25.09985 66.000
25.11980 70.000
25.13974 75.000
25.15969 80.000
25.17964 64.000
25.19958 75.000
25.21953 66.000
25.23948 79.000
25.25943 75.000
25.27937 62.000
25.29932 65.000
25.31927 78.000
25.33921 65.000
25.35916 56.000
25.37911 52.000
25.39905 62.000
25.41900 59.000
25.43895 46.000
25.45890 61.000
25.47884 62.000
25.49879 52.000
25.51874 58.000
25.53868 64.000
25.55863 52.000
25.57858 58.000
25.59852 68.000
25.61847 72.000
25.63842 61.000
25.65837 55.000
25.67831 47.000
25.69826 55.000
25.71821 60.000
25.73815 60.000
25.75810 59.000
25.77805 57.000
25.79799 63.000
25.81794 48.000
25.83789 52.000
25.85783 51.000
25.87778 57.000
25.89773 56.000
25.91768 56.000
25.93762 47.000
25.95757 51.000
25.97752 52.000
25.99746 66.000
26.01741 54.000
26.03736 65.000
26.05730 58.000
26.07725 55.000
26.09720 45.000
26.11715 52.000
26.13709 77.000
26.15704 57.000
26.17699 45.000
26.19693 63.000
26.21688 63.000
26.23683 58.000
26.25677 75.000
26.27672 49.000
26.29667 73.000
26.31661 69.000
26.33656 54.000
26.35651 54.000
26.37646 69.000
26.39640 56.000
26.41635 70.000
26.43630 75.000
26.45624 64.000
26.47619 50.000
26.49614 64.000
26.51608 59.000
26.53603 55.000
26.55598 67.000
26.57593 52.000
26.59587 70.000
26.61582 52.000
26.63577 62.000
26.65571 64.000
26.67566 57.000
26.69561 64.000
26.71555 72.000
26.73550 71.000
26.75545 60.000
26.77539 63.000
26.79534 73.000
26.81529 57.000
26.83524 54.000
26.85518 64.000
26.87513 47.000
26.89508 51.000
26.91502 54.000
26.93497 47.000
26.95492 61.000
26.97486 58.000
26.99481 70.000
27.01476 55.000
27.03471 56.000
27.05465 61.000
27.07460 62.000
27.09455 67.000
27.11449 61.000
27.13444 45.000
27.15439 73.000
27.17433 68.000
27.19428 58.000
27.21423 54.000
27.23417 50.000
27.25412 66.000
27.27407 48.000
27.29402 40.000
27.31396 60.000
27.33391 72.000
27.35386 57.000
27.37380 51.000
27.39375 60.000
27.41370 62.000
27.43364 58.000
27.45359 66.000
27.47354 77.000
27.49349 64.000
27.51343 61.000
27.53338 70.000
27.55333 68.000
27.57327 46.000
27.59322 57.000
27.61317 42.000
27.63311 56.000
27.65306 55.000
27.67301 70.000
27.69296 70.000
27.71290 56.000
27.73285 62.000
27.75280 69.000
27.77274 51.000
27.79269 61.000
27.81264 77.000
27.83258 59.000
27.85253 66.000
27.87248 59.000
27.89242 71.000
27.91237 62.000
27.93232 71.000
27.95227 57.000
27.97221 60.000
27.99216 55.000
28.01211 56.000
28.03205 49.000
28.05200 60.000
28.07195 48.000
28.09189 42.000
28.11184 63.000
28.13179 51.000
28.15174 68.000
28.17168 67.000
28.19163 57.000
28.21158 64.000
28.23152 64.000
28.25147 61.000
28.27142 62.000
28.29136 72.000
28.31131 55.000
28.33126 66.000
28.35120 66.000
28.37115 65.000
28.39110 74.000
28.41105 61.000
28.43099 64.000
28.45094 82.000
28.47089 64.000
28.49083 71.000
28.51078 65.000
28.53073 63.000
28.55067 62.000
28.57062 73.000
28.59057 77.000
28.61052 75.000
28.63046 78.000
28.65041 49.000
28.67036 71.000
28.69030 73.000
28.71025 98.000
28.73020 66.000
28.75014 71.000
28.77009 62.000
28.79004 82.000
28.80998 87.000
28.82993 58.000
28.84988 82.000
28.86983 81.000
28.88977 70.000
28.90972 77.000
28.92967 64.000
28.94961 82.000
28.96956 70.000
28.98951 63.000
29.00945 48.000
29.02940 59.000
29.04935 70.000
29.06930 72.000
29.08924 66.000
29.10919 78.000
29.12914 60.000
29.14908 59.000
29.16903 77.000
29.18898 64.000
29.20892 64.000
29.22887 59.000
29.24882 70.000
29.26877 71.000
29.28871 81.000
29.30866 82.000
29.32861 64.000
29.34855 68.000
29.36850 70.000
29.38845 60.000
29.40839 72.000
29.42834 78.000
29.44829 66.000
29.46823 72.000
29.48818 68.000
29.50813 57.000
29.52808 75.000
29.54802 81.000
29.56797 81.000
29.58792 73.000
29.60786 56.000
29.62781 61.000
29.64776 69.000
29.66770 83.000
29.68765 64.000
29.70760 85.000
29.72755 64.000
29.74749 105.000
29.76744 98.000
29.78739 83.000
29.80733 79.000
29.82728 90.000
29.84723 67.000
29.86717 82.000
29.88712 88.000
29.90707 78.000
29.92701 81.000
29.94696 82.000
29.96691 73.000
29.98686 92.000
30.00680 75.000
30.02675 96.000
30.04670 90.000
30.06664 84.000
30.08659 84.000
30.10654 84.000
30.12648 76.000
30.14643 71.000
30.16638 75.000
30.18633 75.000
30.20627 83.000
30.22622 88.000
30.24617 79.000
30.26611 73.000
30.28606 71.000
30.30601 81.000
30.32595 82.000
30.34590 67.000
30.36585 88.000
30.38579 75.000
30.40574 73.000
30.42569 78.000
30.44564 78.000
30.46558 75.000
30.48553 74.000
30.50548 81.000
30.52542 96.000
30.54537 94.000
30.56532 83.000
30.58526 76.000
30.60521 94.000
30.62516 80.000
30.64511 74.000
30.66505 73.000
30.68500 83.000
30.70495 89.000
30.72489 70.000
30.74484 84.000
30.76479 76.000
30.78473 88.000
30.80468 93.000
30.82463 95.000
30.84458 98.000
30.86452 82.000
30.88447 77.000
30.90442 105.000
30.92436 73.000
30.94431 79.000
30.96426 93.000
30.98420 72.000
31.00415 92.000
31.02410 92.000
31.04404 106.000
31.06399 88.000
31.08394 84.000
31.10389 80.000
31.12383 95.000
31.14378 80.000
31.16373 81.000
31.18367 89.000
31.20362 82.000
31.22357 99.000
31.24351 75.000
31.26346 75.000
31.28341 99.000
31.30336 112.000
31.32330 121.000
31.34325 100.000
31.36320 115.000
31.38314 122.000
31.40309 110.000
31.42304 173.000
31.44298 202.000
31.46293 211.000
31.48288 246.000
31.50282 296.000
31.52277 335.000
31.54272 404.000
31.56267 382.000
31.58261 438.000
31.60256 417.000
31.62251 455.000
31.64245 410.000
31.66240 338.000
31.68235 329.000
31.70229 258.000
31.72224 248.000
31.74219 202.000
31.76214 159.000
31.78208 136.000
31.80203 125.000
31.82198 119.000
31.84192 120.000
31.86187 122.000
31.88182 91.000
31.90176 118.000
31.92171 110.000
31.94166 87.000
31.96160 109.000
31.98155 125.000
32.00150 89.000
32.02145 103.000
32.04139 94.000
32.06134 96.000
32.08129 107.000
32.10123 118.000
32.12118 122.000
32.14113 122.000
32.16107 139.000
32.18102 147.000
32.20097 149.000
32.22092 135.000
32.24086 146.000
32.26081 143.000
32.28076 145.000
32.30070 125.000
32.32065 109.000
32.34060 98.000
32.36054 103.000
32.38049 97.000
32.40044 89.000
32.42039 75.000
32.44033 88.000
32.46028 77.000
32.48023 68.000
32.50017 83.000
32.52012 60.000
32.54007 77.000
32.56001 61.000
32.57996 69.000
32.59991 55.000
32.61985 73.000
32.63980 71.000
32.65975 74.000
32.67970 60.000
32.69964 68.000
32.71959 74.000
32.73954 72.000
32.75948 64.000
32.77943 70.000
32.79938 70.000
32.81932 70.000
32.83927 69.000
32.85922 77.000
32.87917 61.000
32.89911 76.000
32.91906 65.000
32.93901 73.000
32.95895 69.000
32.97890 82.000
32.99885 62.000
33.01879 80.000
33.03874 72.000
33.05869 67.000
33.07863 69.000
33.09858 68.000
33.11853 59.000
33.13848 65.000
33.15842 72.000
33.17837 73.000
33.19832 64.000
33.21826 71.000
33.23821 69.000
33.25816 57.000
33.27810 70.000
33.29805 69.000
33.31800 58.000
33.33795 73.000
33.35789 61.000
33.37784 81.000
33.39779 73.000
33.41773 55.000
33.43768 59.000
33.45763 65.000
33.47757 75.000
33.49752 78.000
33.51747 72.000
33.53741 70.000
33.55736 72.000
33.57731 59.000
33.59726 64.000
33.61720 52.000
33.63715 72.000
33.65710 70.000
33.67704 79.000
33.69699 59.000
33.71694 66.000
33.73688 75.000
33.75683 65.000
33.77678 84.000
33.79673 85.000
33.81667 64.000
33.83662 98.000
33.85657 92.000
33.87651 79.000
33.89646 71.000
33.91641 76.000
33.93635 80.000
33.95630 81.000
33.97625 79.000
33.99620 78.000
34.01614 96.000
34.03609 78.000
34.05604 70.000
34.07598 75.000
34.09593 86.000
34.11588 85.000
34.13582 96.000
34.15577 84.000
34.17572 108.000
34.19566 84.000
34.21561 103.000
34.23556 111.000
34.25551 102.000
34.27545 103.000
34.29540 102.000
34.31535 112.000
34.33529 130.000
34.35524 94.000
34.37519 98.000
34.39513 96.000
34.41508 103.000
34.43503 91.000
34.45498 90.000
34.47492 88.000
34.49487 80.000
34.51482 82.000
34.53476 89.000
34.55471 81.000
34.57466 96.000
34.59460 66.000
34.61455 76.000
34.63450 81.000
34.65444 74.000
34.67439 93.000
34.69434 70.000
34.71429 78.000
34.73423 70.000
34.75418 75.000
34.77413 90.000
34.79407 65.000
34.81402 78.000
34.83397 66.000
34.85391 64.000
34.87386 63.000
34.89381 80.000
34.91376 67.000
34.93370 93.000
34.95365 88.000
34.97360 78.000
34.99354 86.000
35.01349 83.000
35.03344 98.000
35.05338 72.000
35.07333 78.000
35.09328 86.000
35.11322 83.000
35.13317 86.000
35.15312 100.000
35.17307 72.000
35.19301 108.000
35.21296 71.000
35.23291 91.000
35.25285 81.000
35.27280 95.000
35.29275 90.000
35.31269 83.000
35.33264 85.000
35.35259 82.000
35.37254 92.000
35.39248 89.000
35.41243 76.000
35.43238 102.000
35.45232 98.000
35.47227 96.000
35.49222 88.000
35.51216 98.000
35.53211 104.000
35.55206 106.000
35.57201 97.000
35.59195 113.000
35.61190 123.000
35.63185 135.000
35.65179 129.000
35.67174 154.000
35.69169 135.000
35.71163 158.000
35.73158 174.000
35.75153 178.000
35.77147 189.000
35.79142 185.000
35.81137 206.000
35.83132 236.000
35.85126 259.000
35.87121 250.000
35.89116 255.000
35.91110 265.000
35.93105 233.000
35.95100 270.000
35.97094 271.000
35.99089 287.000
36.01084 271.000
36.03079 201.000
36.05073 227.000
36.07068 227.000
36.09063 193.000
36.11057 175.000
36.13052 195.000
36.15047 178.000
36.17041 171.000
36.19036 158.000
36.21031 150.000
36.23025 163.000
36.25020 155.000
36.27015 162.000
36.29010 155.000
36.31004 152.000
36.32999 149.000
36.34994 149.000
36.36988 163.000
36.38983 134.000
36.40978 108.000
36.42972 130.000
36.44967 130.000
36.46962 93.000
36.48957 111.000
36.50951 114.000
36.52946 117.000
36.54941 101.000
36.56935 85.000
36.58930 106.000
36.60925 77.000
36.62919 60.000
36.64914 83.000
36.66909 103.000
36.68903 84.000
36.70898 93.000
36.72893 92.000
36.74888 93.000
36.76882 83.000
36.78877 74.000
36.80872 97.000
36.82866 89.000
36.84861 98.000
36.86856 101.000
36.88850 97.000
36.90845 89.000
36.92840 86.000
36.94835 87.000
36.96829 83.000
36.98824 82.000
37.00819 80.000
37.02813 74.000
37.04808 71.000
37.06803 79.000
37.08797 74.000
37.10792 63.000
37.12787 85.000
37.14781 80.000
37.16776 82.000
37.18771 64.000
37.20766 72.000
37.22760 80.000
37.24755 64.000
37.26750 79.000
37.28744 88.000
37.30739 65.000
37.32734 65.000
37.34728 80.000
37.36723 80.000
37.38718 86.000
37.40713 71.000
37.42707 89.000
37.44702 87.000
37.46697 106.000
37.48691 95.000
37.50686 90.000
37.52681 81.000
37.54675 82.000
37.56670 98.000
37.58665 86.000
37.60660 111.000
37.62654 100.000
37.64649 98.000
37.66644 111.000
37.68638 111.000
37.70633 116.000
37.72628 116.000
37.74622 126.000
37.76617 133.000
37.78612 135.000
37.80606 123.000
37.82601 148.000
37.84596 146.000
37.86591 156.000
37.88585 156.000
37.90580 143.000
37.92575 142.000
37.94569 155.000
37.96564 156.000
37.98559 130.000
38.00553 139.000
38.02548 158.000
38.04543 136.000
38.06538 131.000
38.08532 125.000
38.10527 134.000
38.12522 129.000
38.14516 98.000
38.16511 112.000
38.18506 116.000
38.20500 107.000
38.22495 101.000
38.24490 104.000
38.26484 118.000
38.28479 132.000
38.30474 104.000
38.32469 102.000
38.34463 101.000
38.36458 120.000
38.38453 99.000
38.40447 101.000
38.42442 99.000
38.44437 108.000
38.46431 93.000
38.48426 93.000
38.50421 114.000
38.52416 128.000
38.54410 117.000
38.56405 101.000
38.58400 97.000
38.60394 93.000
38.62389 90.000
38.64384 102.000
38.66378 114.000
38.68373 115.000
38.70368 118.000
38.72362 125.000
38.74357 104.000
38.76352 116.000
38.78347 115.000
38.80341 128.000
38.82336 122.000
38.84331 142.000
38.86325 147.000
38.88320 145.000
38.90315 143.000
38.92309 141.000
38.94304 178.000
38.96299 154.000
38.98294 179.000
39.00288 192.000
39.02283 188.000
39.04278 235.000
39.06272 194.000
39.08267 200.000
39.10262 209.000
39.12256 263.000
39.14251 256.000
39.16246 323.000
39.18241 301.000
39.20235 290.000
39.22230 321.000
39.24225 385.000
39.26219 397.000
39.28214 420.000
39.30209 420.000
39.32203 436.000
39.34198 460.000
39.36193 454.000
39.38187 518.000
39.40182 489.000
39.42177 512.000
39.44172 492.000
39.46166 465.000
39.48161 406.000
39.50156 413.000
39.52150 411.000
39.54145 361.000
39.56140 310.000
39.58134 299.000
39.60129 297.000
39.62124 270.000
39.64119 233.000
39.66113 234.000
39.68108 192.000
39.70103 170.000
39.72097 156.000
39.74092 173.000
39.76087 149.000
39.78081 140.000
39.80076 149.000
39.82071 149.000
39.84065 143.000
39.86060 126.000
39.88055 146.000
39.90050 135.000
39.92044 122.000
39.94039 108.000
39.96034 103.000
39.98028 111.000
40.00023 82.000
40.02018 82.000
40.04012 108.000
40.06007 108.000
40.08002 89.000
40.09997 97.000
40.11991 97.000
40.13986 77.000
40.15981 72.000
40.17975 96.000
40.19970 79.000
40.21965 71.000
40.23959 81.000
40.25954 69.000
40.27949 72.000
40.29943 75.000
40.31938 84.000
40.33933 85.000
40.35928 74.000
40.37922 69.000
40.39917 65.000
40.41912 73.000
40.43906 80.000
40.45901 60.000
40.47896 79.000
40.49890 66.000
40.51885 57.000
40.53880 69.000
40.55875 64.000
40.57869 61.000
40.59864 63.000
40.61859 59.000
40.63853 89.000
40.65848 65.000
40.67843 67.000
40.69837 77.000
40.71832 91.000
40.73827 74.000
40.75822 66.000
40.77816 88.000
40.79811 73.000
40.81806 70.000
40.83800 64.000
40.85795 56.000
40.87790 79.000
40.89784 58.000
40.91779 57.000
40.93774 67.000
40.95768 65.000
40.97763 73.000
40.99758 69.000
41.01753 70.000
41.03747 60.000
41.05742 72.000
41.07737 53.000
41.09731 53.000
41.11726 64.000
41.13721 66.000
41.15715 56.000
41.17710 73.000
41.19705 70.000
41.21700 79.000
41.23694 57.000
41.25689 60.000
41.27684 58.000
41.29678 56.000
41.31673 59.000
41.33668 47.000
41.35662 75.000
41.37657 54.000
41.39652 59.000
41.41646 63.000
41.43641 57.000
41.45636 56.000
41.47631 44.000
41.49625 53.000
41.51620 64.000
41.53615 62.000
41.55609 70.000
41.57604 67.000
41.59599 65.000
41.61593 59.000
41.63588 66.000
41.65583 59.000
41.67578 60.000
41.69572 59.000
41.71567 59.000
41.73562 60.000
41.75556 76.000
41.77551 64.000
41.79546 58.000
41.81540 69.000
41.83535 68.000
41.85530 83.000
41.87524 87.000
41.89519 84.000
41.91514 80.000
41.93509 98.000
41.95503 78.000
41.97498 102.000
41.99493 90.000
42.01487 111.000
42.03482 97.000
42.05477 104.000
42.07471 119.000
42.09466 102.000
42.11461 76.000
42.13456 104.000
42.15450 98.000
42.17445 81.000
42.19440 101.000
42.21434 83.000
42.23429 67.000
42.25424 75.000
42.27418 92.000
42.29413 78.000
42.31408 71.000
42.33403 74.000
42.35397 69.000
42.37392 79.000
42.39387 72.000
42.41381 64.000
42.43376 77.000
42.45371 95.000
42.47365 72.000
42.49360 76.000
42.51355 78.000
42.53349 97.000
42.55344 87.000
42.57339 88.000
42.59334 79.000
42.61328 67.000
42.63323 84.000
42.65318 73.000
42.67312 72.000
42.69307 74.000
42.71302 81.000
42.73296 70.000
42.75291 73.000
42.77286 65.000
42.79281 83.000
42.81275 83.000
42.83270 71.000
42.85265 91.000
42.87259 93.000
42.89254 93.000
42.91249 109.000
42.93243 84.000
42.95238 95.000
42.97233 83.000
42.99227 91.000
43.01222 103.000
43.03217 87.000
43.05212 102.000
43.07206 113.000
43.09201 122.000
43.11196 121.000
43.13190 101.000
43.15185 153.000
43.17180 145.000
43.19174 148.000
43.21169 139.000
43.23164 142.000
43.25159 162.000
43.27153 183.000
43.29148 180.000
43.31143 196.000
43.33137 190.000
43.35132 219.000
43.37127 192.000
43.39121 195.000
43.41116 211.000
43.43111 219.000
43.45105 218.000
43.47100 196.000
43.49095 213.000
43.51090 176.000
43.53084 194.000
43.55079 181.000
43.57074 179.000
43.59068 160.000
43.61063 137.000
43.63058 160.000
43.65052 135.000
43.67047 110.000
43.69042 136.000
43.71037 121.000
43.73031 124.000
43.75026 107.000
43.77021 115.000
43.79015 96.000
43.81010 92.000
43.83005 91.000
43.84999 83.000
43.86994 85.000
43.88989 79.000
43.90984 79.000
43.92978 84.000
43.94973 87.000
43.96968 89.000
43.98962 90.000
44.00957 77.000
44.02952 71.000
44.04946 74.000
44.06941 78.000
44.08936 82.000
44.10930 80.000
44.12925 63.000
44.14920 85.000
44.16915 70.000
44.18909 72.000
44.20904 59.000
44.22899 66.000
44.24893 67.000
44.26888 78.000
44.28883 66.000
44.30877 60.000
44.32872 63.000
44.34867 60.000
44.36862 57.000
44.38856 61.000
44.40851 51.000
44.42846 65.000
44.44840 62.000
44.46835 42.000
44.48830 52.000
44.50824 68.000
44.52819 60.000
44.54814 57.000
44.56808 48.000
44.58803 53.000
44.60798 51.000
44.62793 62.000
44.64787 51.000
44.66782 51.000
44.68777 50.000
44.70771 69.000
44.72766 60.000
44.74761 60.000
44.76755 53.000
44.78750 57.000
44.80745 63.000
44.82740 68.000
44.84734 43.000
44.86729 52.000
44.88724 57.000
44.90718 41.000
44.92713 44.000
44.94708 43.000
44.96702 60.000
44.98697 49.000
45.00692 38.000
45.02686 49.000
45.04681 47.000
45.06676 62.000
45.08671 56.000
45.10665 61.000
45.12660 63.000
45.14655 49.000
45.16649 47.000
45.18644 51.000
45.20639 56.000
45.22633 52.000
45.24628 50.000
45.26623 57.000
45.28618 38.000
45.30612 42.000
45.32607 52.000
45.34602 51.000
45.36596 51.000
45.38591 46.000
45.40586 44.000
45.42580 49.000
45.44575 36.000
45.46570 55.000
45.48565 59.000
45.50559 49.000
45.52554 37.000
45.54549 53.000
45.56543 68.000
45.58538 41.000
45.60533 57.000
45.62527 55.000
45.64522 43.000
45.66517 45.000
45.68511 41.000
45.70506 38.000
45.72501 43.000
45.74496 40.000
45.76490 39.000
45.78485 54.000
45.80480 38.000
45.82474 40.000
45.84469 50.000
45.86464 55.000
45.88458 51.000
45.90453 36.000
45.92448 40.000
45.94443 51.000
45.96437 40.000
45.98432 54.000
46.00427 55.000
46.02421 40.000
46.04416 48.000
46.06411 47.000
46.08405 38.000
46.10400 35.000
46.12395 47.000
46.14389 34.000
46.16384 38.000
46.18379 41.000
46.20374 54.000
46.22368 39.000
46.24363 42.000
46.26358 44.000
46.28352 39.000
46.30347 42.000
46.32342 70.000
46.34336 38.000
46.36331 44.000
46.38326 40.000
46.40321 49.000
46.42315 54.000
46.44310 53.000
46.46305 44.000
46.48299 56.000
46.50294 49.000
46.52289 45.000
46.54283 44.000
46.56278 54.000
46.58273 40.000
46.60267 55.000
46.62262 40.000
46.64257 47.000
46.66252 41.000
46.68246 61.000
46.70241 42.000
46.72236 43.000
46.74230 56.000
46.76225 49.000
46.78220 52.000
46.80214 66.000
46.82209 53.000
46.84204 45.000
46.86199 47.000
46.88193 68.000
46.90188 58.000
46.92183 50.000
46.94177 51.000
46.96172 51.000
46.98167 59.000
47.00161 58.000
47.02156 58.000
47.04151 64.000
47.06146 74.000
47.08140 60.000
47.10135 69.000
47.12130 49.000
47.14124 72.000
47.16119 75.000
47.18114 68.000
47.20108 97.000
47.22103 94.000
47.24098 95.000
47.26092 84.000
47.28087 97.000
47.30082 117.000
47.32077 84.000
47.34071 94.000
47.36066 111.000
47.38061 109.000
47.40055 90.000
47.42050 114.000
47.44045 86.000
47.46039 101.000
47.48034 97.000
47.50029 80.000
47.52024 89.000
47.54018 86.000
47.56013 95.000
47.58008 64.000
47.60002 69.000
47.61997 107.000
47.63992 88.000
47.65986 89.000
47.67981 92.000
47.69976 76.000
47.71970 80.000
47.73965 86.000
47.75960 66.000
47.77955 94.000
47.79949 85.000
47.81944 105.000
47.83939 94.000
47.85933 90.000
47.87928 79.000
47.89923 92.000
47.91917 113.000
47.93912 118.000
47.95907 104.000
47.97902 117.000
47.99896 125.000
48.01891 109.000
48.03886 127.000
48.05880 125.000
48.07875 134.000
48.09870 152.000
48.11864 166.000
48.13859 170.000
48.15854 170.000
48.17848 139.000
48.19843 166.000
48.21838 157.000
48.23833 209.000
48.25827 199.000
48.27822 226.000
48.29817 193.000
48.31811 222.000
48.33806 207.000
48.35801 263.000
48.37795 257.000
48.39790 273.000
48.41785 272.000
48.43780 292.000
48.45774 345.000
48.47769 361.000
48.49764 330.000
48.51758 353.000
48.53753 403.000
48.55748 450.000
48.57742 417.000
48.59737 421.000
48.61732 405.000
48.63726 430.000
48.65721 392.000
48.67716 415.000
48.69711 377.000
48.71705 370.000
48.73700 359.000
48.75695 371.000
48.77689 319.000
48.79684 286.000
48.81679 268.000
48.83673 247.000
48.85668 264.000
48.87663 215.000
48.89658 204.000
48.91652 227.000
48.93647 184.000
48.95642 176.000
48.97636 174.000
48.99631 144.000
49.01626 148.000
49.03620 149.000
49.05615 150.000
49.07610 119.000
49.09605 126.000
49.11599 109.000
49.13594 91.000
49.15589 110.000
49.17583 116.000
49.19578 112.000
49.21573 111.000
49.23567 94.000
49.25562 112.000
49.27557 98.000
49.29551 106.000
49.31546 110.000
49.33541 98.000
49.35536 104.000
49.37530 82.000
49.39525 75.000
49.41520 92.000
49.43514 79.000
49.45509 83.000
49.47504 80.000
49.49498 75.000
49.51493 71.000
49.53488 87.000
49.55483 78.000
49.57477 72.000
49.59472 70.000
49.61467 56.000
49.63461 59.000
49.65456 63.000
49.67451 76.000
49.69445 70.000
49.71440 58.000
49.73435 71.000
49.75429 53.000
49.77424 55.000
49.79419 53.000
49.81414 59.000
49.83408 47.000
49.85403 54.000
49.87398 64.000
49.89392 68.000
49.91387 66.000
49.93382 58.000
49.95376 59.000
49.97371 59.000
49.99366 55.000
50.01361 48.000
50.03355 66.000
50.05350 39.000
50.07345 62.000
50.09339 43.000
50.11334 58.000
50.13329 60.000
50.15323 55.000
50.17318 40.000
50.19313 53.000
50.21307 63.000
50.23302 54.000
50.25297 57.000
50.27292 53.000
50.29286 54.000
50.31281 60.000
50.33276 55.000
50.35270 65.000
50.37265 49.000
50.39260 53.000
50.41254 58.000
50.43249 49.000
50.45244 44.000
50.47239 55.000
50.49233 51.000
50.51228 45.000
50.53223 52.000
50.55217 46.000
50.57212 45.000
50.59207 43.000
50.61201 58.000
50.63196 48.000
50.65191 48.000
50.67186 64.000
50.69180 54.000
50.71175 62.000
50.73170 61.000
50.75164 52.000
50.77159 60.000
50.79154 52.000
50.81148 57.000
50.83143 60.000
50.85138 42.000
50.87132 64.000
50.89127 48.000
50.91122 59.000
50.93117 48.000
50.95111 49.000
50.97106 36.000
50.99101 41.000
51.01095 54.000
51.03090 39.000
51.05085 43.000
51.07079 49.000
51.09074 34.000
51.11069 49.000
51.13064 48.000
51.15058 40.000
51.17053 45.000
51.19048 43.000
51.21042 39.000
51.23037 42.000
51.25032 41.000
51.27026 42.000
51.29021 39.000
51.31016 34.000
51.33010 45.000
51.35005 37.000
51.37000 40.000
51.38995 35.000
51.40989 40.000
51.42984 42.000
51.44979 46.000
51.46973 44.000
51.48968 33.000
51.50963 52.000
51.52957 36.000
51.54952 27.000
51.56947 49.000
51.58942 29.000
51.60936 36.000
51.62931 49.000
51.64926 39.000
51.66920 38.000
51.68915 36.000
51.70910 41.000
51.72904 34.000
51.74899 42.000
51.76894 44.000
51.78888 33.000
51.80883 46.000
51.82878 36.000
51.84873 39.000
51.86867 32.000
51.88862 51.000
51.90857 31.000
51.92851 40.000
51.94846 29.000
51.96841 33.000
51.98835 34.000
52.00830 41.000
52.02825 52.000
52.04820 33.000
52.06814 39.000
52.08809 33.000
52.10804 33.000
52.12798 43.000
52.14793 41.000
52.16788 47.000
52.18782 38.000
52.20777 34.000
52.22772 41.000
52.24767 37.000
52.26761 35.000
52.28756 39.000
52.30751 39.000
52.32745 36.000
52.34740 29.000
52.36735 38.000
52.38729 36.000
52.40724 42.000
52.42719 39.000
52.44713 29.000
52.46708 34.000
52.48703 29.000
52.50698 31.000
52.52692 44.000
52.54687 47.000
52.56682 36.000
52.58676 39.000
52.60671 38.000
52.62666 34.000
52.64660 41.000
52.66655 44.000
52.68650 32.000
52.70645 35.000
52.72639 46.000
52.74634 36.000
52.76629 39.000
52.78623 29.000
52.80618 37.000
52.82613 29.000
52.84607 33.000
52.86602 34.000
52.88597 36.000
52.90591 41.000
52.92586 40.000
52.94581 44.000
52.96576 38.000
52.98570 44.000
53.00565 35.000
53.02560 34.000
53.04554 37.000
53.06549 43.000
53.08544 52.000
53.10538 31.000
53.12533 38.000
53.14528 36.000
53.16523 40.000
53.18517 39.000
53.20512 29.000
53.22507 35.000
53.24501 50.000
53.26496 37.000
53.28491 28.000
53.30485 42.000
53.32480 41.000
53.34475 38.000
53.36469 37.000
53.38464 45.000
53.40459 38.000
53.42454 30.000
53.44448 35.000
53.46443 39.000
53.48438 49.000
53.50432 36.000
53.52427 19.000
53.54422 27.000
53.56416 36.000
53.58411 33.000
53.60406 39.000
53.62401 38.000
53.64395 39.000
53.66390 32.000
53.68385 40.000
53.70379 48.000
53.72374 42.000
53.74369 36.000
53.76363 43.000
53.78358 52.000
53.80353 32.000
53.82348 35.000
53.84342 29.000
53.86337 42.000
53.88332 45.000
53.90326 24.000
53.92321 27.000
53.94316 42.000
53.96310 48.000
53.98305 26.000
54.00300 47.000
54.02294 32.000
54.04289 34.000
54.06284 38.000
54.08279 40.000
54.10273 38.000
54.12268 27.000
54.14263 32.000
54.16257 28.000
54.18252 35.000
54.20247 32.000
54.22241 30.000
54.24236 42.000
54.26231 27.000
54.28226 30.000
54.30220 42.000
54.32215 35.000
54.34210 46.000
54.36204 34.000
54.38199 37.000
54.40194 28.000
54.42188 32.000
54.44183 40.000
54.46178 40.000
54.48172 34.000
54.50167 39.000
54.52162 47.000
54.54157 39.000
54.56151 51.000
54.58146 40.000
54.60141 23.000
54.62135 41.000
54.64130 36.000
54.66125 38.000
54.68119 38.000
54.70114 33.000
54.72109 34.000
54.74104 35.000
54.76098 42.000
54.78093 36.000
54.80088 36.000
54.82082 36.000
54.84077 33.000
54.86072 27.000
54.88066 39.000
54.90061 31.000
54.92056 34.000
54.94050 28.000
54.96045 47.000
54.98040 30.000
55.00035 27.000
55.02029 31.000
55.04024 39.000
55.06019 30.000
55.08013 41.000
55.10008 36.000
55.12003 42.000
55.13997 32.000
55.15992 30.000
55.17987 39.000
55.19982 37.000
55.21976 36.000
55.23971 43.000
55.25966 33.000
55.27960 19.000
55.29955 38.000
55.31950 35.000
55.33944 22.000
55.35939 31.000
55.37934 27.000
55.39929 33.000
55.41923 26.000
55.43918 40.000
55.45913 35.000
55.47907 40.000
55.49902 34.000
55.51897 35.000
55.53891 30.000
55.55886 33.000
55.57881 24.000
55.59875 36.000
55.61870 38.000
55.63865 34.000
55.65860 20.000
55.67854 26.000
55.69849 27.000
55.71844 35.000
55.73838 33.000
55.75833 33.000
55.77828 40.000
55.79822 31.000
55.81817 24.000
55.83812 36.000
55.85807 30.000
55.87801 27.000
55.89796 30.000
55.91791 35.000
55.93785 27.000
55.95780 39.000
55.97775 33.000
55.99769 29.000
56.01764 23.000
56.03759 33.000
56.05753 32.000
56.07748 30.000
56.09743 24.000
56.11738 34.000
56.13732 31.000
56.15727 29.000
56.17722 31.000
56.19716 28.000
56.21711 33.000
56.23706 32.000
56.25700 41.000
56.27695 27.000
56.29690 34.000
56.31685 24.000
56.33679 27.000
56.35674 34.000
56.37669 25.000
56.39663 31.000
56.41658 33.000
56.43653 25.000
56.45647 30.000
56.47642 31.000
56.49637 45.000
56.51631 36.000
56.53626 30.000
56.55621 31.000
56.57616 40.000
56.59610 31.000
56.61605 32.000
56.63600 42.000
56.65594 25.000
56.67589 37.000
56.69584 22.000
56.71578 30.000
56.73573 32.000
56.75568 32.000
56.77563 21.000
56.79557 15.000
56.81552 28.000
56.83547 25.000
56.85541 40.000
56.87536 31.000
56.89531 31.000
56.91525 39.000
56.93520 42.000
56.95515 32.000
56.97510 27.000
56.99504 29.000
57.01499 23.000
57.03494 26.000
57.05488 25.000
57.07483 28.000
57.09478 33.000
57.11472 35.000
57.13467 26.000
57.15462 31.000
57.17456 29.000
57.19451 29.000
57.21446 30.000
57.23441 30.000
57.25435 36.000
57.27430 24.000
57.29425 28.000
57.31419 41.000
57.33414 37.000
57.35409 39.000
57.37403 33.000
57.39398 32.000
57.41393 36.000
57.43388 28.000
57.45382 36.000
57.47377 33.000
57.49372 28.000
57.51366 26.000
57.53361 33.000
57.55356 31.000
57.57350 26.000
57.59345 23.000
57.61340 22.000
57.63334 38.000
57.65329 28.000
57.67324 19.000
57.69319 36.000
57.71313 28.000
57.73308 26.000
57.75303 37.000
57.77297 34.000
57.79292 25.000
57.81287 35.000
57.83281 34.000
57.85276 28.000
57.87271 36.000
57.89266 37.000
57.91260 41.000
57.93255 33.000
57.95250 35.000
57.97244 37.000
57.99239 36.000
58.01234 25.000
58.03228 33.000
58.05223 38.000
58.07218 40.000
58.09212 43.000
58.11207 34.000
58.13202 40.000
58.15197 38.000
58.17191 42.000
58.19186 40.000
58.21181 36.000
58.23175 39.000
58.25170 37.000
58.27165 39.000
58.29159 44.000
58.31154 33.000
58.33149 43.000
58.35144 41.000
58.37138 32.000
58.39133 38.000
58.41128 30.000
58.43122 34.000
58.45117 37.000
58.47112 40.000
58.49106 27.000
58.51101 41.000
58.53096 28.000
58.55090 38.000
58.57085 38.000
58.59080 41.000
58.61075 37.000
58.63069 44.000
58.65064 30.000
58.67059 26.000
58.69053 38.000
58.71048 39.000
58.73043 28.000
58.75037 39.000
58.77032 38.000
58.79027 38.000
58.81022 39.000
58.83016 31.000
58.85011 29.000
58.87006 30.000
58.89000 29.000
58.90995 36.000
58.92990 31.000
58.94984 37.000
58.96979 37.000
58.98974 38.000
59.00969 54.000
59.02963 43.000
59.04958 41.000
59.06953 34.000
59.08947 34.000
59.10942 37.000
59.12937 37.000
59.14931 31.000
59.16926 39.000
59.18921 35.000
59.20915 25.000
59.22910 26.000
59.24905 28.000
59.26900 33.000
59.28894 27.000
59.30889 27.000
59.32884 32.000
59.34878 32.000
59.36873 22.000
59.38868 41.000
59.40862 39.000
59.42857 36.000
59.44852 38.000
59.46847 32.000
59.48841 30.000
59.50836 34.000
59.52831 37.000
59.54825 33.000
59.56820 41.000
59.58815 38.000
59.60809 39.000
59.62804 23.000
59.64799 26.000
59.66793 39.000
59.68788 30.000
59.70783 46.000
59.72778 41.000
59.74772 40.000
59.76767 46.000
59.78762 28.000
59.80756 43.000
59.82751 44.000
59.84746 48.000
59.86740 39.000
59.88735 42.000
59.90730 53.000
59.92725 54.000
59.94719 43.000
59.96714 40.000
59.98709 50.000
60.00703 34.000
60.02698 45.000
60.04693 51.000
60.06687 37.000
60.08682 51.000
60.10677 34.000
60.12671 44.000
60.14666 49.000
60.16661 53.000
60.18656 44.000
60.20650 51.000
60.22645 54.000
60.24640 40.000
60.26634 52.000
60.28629 41.000
60.30624 44.000
60.32618 55.000
60.34613 54.000
60.36608 60.000
60.38603 48.000
60.40597 38.000
60.42592 54.000
60.44587 75.000
60.46581 61.000
60.48576 52.000
60.50571 61.000
60.52565 67.000
60.54560 66.000
60.56555 57.000
60.58550 66.000
60.60544 59.000
60.62539 64.000
60.64534 61.000
60.66528 65.000
60.68523 67.000
60.70518 64.000
60.72512 55.000
60.74507 66.000
60.76502 62.000
60.78496 65.000
60.80491 70.000
60.82486 73.000
60.84481 54.000
60.86475 52.000
60.88470 62.000
60.90465 56.000
60.92459 77.000
60.94454 61.000
60.96449 66.000
60.98443 69.000
61.00438 64.000
61.02433 61.000
61.04428 66.000
61.06422 63.000
61.08417 86.000
61.10412 75.000
61.12406 72.000
61.14401 75.000
61.16396 74.000
61.18390 94.000
61.20385 93.000
61.22380 89.000
61.24374 99.000
61.26369 109.000
61.28364 102.000
61.30359 108.000
61.32353 105.000
61.34348 119.000
61.36343 128.000
61.38337 126.000
61.40332 124.000
61.42327 130.000
61.44321 135.000
61.46316 188.000
61.48311 136.000
61.50306 157.000
61.52300 164.000
61.54295 167.000
61.56290 193.000
61.58284 179.000
61.60279 169.000
61.62274 179.000
61.64268 203.000
61.66263 203.000
61.68258 189.000
61.70252 191.000
61.72247 185.000
61.74242 198.000
61.76237 200.000
61.78231 166.000
61.80226 167.000
61.82221 160.000
61.84215 153.000
61.86210 145.000
61.88205 112.000
61.90199 158.000
61.92194 124.000
61.94189 118.000
61.96184 119.000
61.98178 138.000
62.00173 116.000
62.02168 97.000
62.04162 83.000
62.06157 86.000
62.08152 86.000
62.10146 76.000
62.12141 74.000
62.14136 96.000
62.16131 73.000
62.18125 81.000
62.20120 85.000
62.22115 87.000
62.24109 83.000
62.26104 70.000
62.28099 76.000
62.30093 67.000
62.32088 78.000
62.34083 96.000
62.36077 71.000
62.38072 72.000
62.40067 87.000
62.42062 73.000
62.44056 94.000
62.46051 95.000
62.48046 98.000
62.50040 90.000
62.52035 93.000
62.54030 98.000
62.56024 94.000
62.58019 122.000
62.60014 80.000
62.62009 108.000
62.64003 105.000
62.65998 106.000
62.67993 99.000
62.69987 85.000
62.71982 98.000
62.73977 109.000
62.75971 98.000
62.77966 78.000
62.79961 93.000
62.81955 68.000
62.83950 83.000
62.85945 88.000
62.87940 61.000
62.89934 71.000
62.91929 75.000
62.93924 54.000
62.95918 62.000
62.97913 72.000
62.99908 69.000
63.01902 68.000
63.03897 77.000
63.05892 75.000
63.07887 68.000
63.09881 72.000
63.11876 58.000
63.13871 77.000
63.15865 66.000
63.17860 62.000
63.19855 45.000
63.21849 43.000
63.23844 44.000
63.25839 45.000
63.27833 66.000
63.29828 72.000
63.31823 57.000
63.33818 65.000
63.35812 52.000
63.37807 69.000
63.39802 47.000
63.41796 51.000
63.43791 72.000
63.45786 77.000
63.47780 72.000
63.49775 59.000
63.51770 59.000
63.53765 61.000
63.55759 68.000
63.57754 61.000
63.59749 63.000
63.61743 50.000
63.63738 62.000
63.65733 72.000
63.67727 58.000
63.69722 61.000
63.71717 71.000
63.73712 63.000
63.75706 76.000
63.77701 67.000
63.79696 66.000
63.81690 84.000
63.83685 75.000
63.85680 58.000
63.87674 78.000
63.89669 75.000
63.91664 79.000
63.93658 67.000
63.95653 69.000
63.97648 75.000
63.99643 73.000
64.01637 95.000
64.03632 76.000
64.05627 89.000
64.07621 75.000
64.09616 89.000
64.11611 93.000
64.13605 86.000
64.15600 88.000
64.17595 82.000
64.19590 82.000
64.21584 77.000
64.23579 66.000
64.25574 79.000
64.27568 98.000
64.29563 91.000
64.31558 79.000
64.33552 84.000
64.35547 79.000
64.37542 75.000
64.39536 82.000
64.41531 82.000
64.43526 81.000
64.45521 83.000
64.47515 73.000
64.49510 69.000
64.51505 84.000
64.53499 92.000
64.55494 90.000
64.57489 106.000
64.59483 92.000
64.61478 95.000
64.63473 84.000
64.65468 86.000
64.67462 78.000
64.69457 72.000
64.71452 102.000
64.73446 88.000
64.75441 91.000
64.77436 92.000
64.79430 95.000
64.81425 85.000
64.83420 93.000
64.85414 89.000
64.87409 105.000
64.89404 95.000
64.91399 82.000
64.93393 87.000
64.95388 97.000
64.97383 102.000
64.99377 114.000
65.01372 92.000
65.03367 91.000
65.05361 88.000
65.07356 102.000
65.09351 110.000
65.11346 80.000
65.13340 118.000
65.15335 108.000
65.17330 108.000
65.19324 95.000
65.21319 117.000
65.23314 104.000
65.25308 101.000
65.27303 96.000
65.29298 89.000
65.31293 107.000
65.33287 102.000
65.35282 118.000
65.37277 113.000
65.39271 131.000
65.41266 97.000
65.43261 101.000
65.45255 90.000
65.47250 98.000
65.49245 107.000
65.51239 118.000
65.53234 104.000
65.55229 115.000
65.57224 116.000
65.59218 101.000
65.61213 105.000
65.63208 123.000
65.65202 109.000
65.67197 122.000
65.69192 107.000
65.71186 106.000
65.73181 105.000
65.75176 111.000
65.77171 83.000
65.79165 94.000
65.81160 94.000
65.83155 83.000
65.85149 88.000
65.87144 86.000
65.89139 104.000
65.91133 111.000
65.93128 80.000
65.95123 111.000
65.97117 91.000
65.99112 89.000
66.01107 93.000
66.03102 92.000
66.05096 101.000
66.07091 94.000
66.09086 88.000
66.11080 101.000
66.13075 98.000
66.15070 81.000
66.17064 98.000
66.19059 99.000
66.21054 93.000
66.23049 90.000
66.25043 92.000
66.27038 100.000
66.29033 76.000
66.31027 89.000
66.33022 80.000
66.35017 77.000
66.37011 84.000
66.39006 78.000
66.41001 73.000
66.42995 65.000
66.44990 79.000
66.46985 60.000
66.48980 63.000
66.50974 63.000
66.52969 73.000
66.54964 73.000
66.56958 70.000
66.58953 73.000
66.60948 74.000
66.62942 76.000
66.64937 62.000
66.66932 66.000
66.68927 55.000
66.70921 76.000
66.72916 56.000
66.74911 55.000
66.76905 67.000
66.78900 65.000
66.80895 54.000
66.82889 60.000
66.84884 64.000
66.86879 64.000
66.88874 62.000
66.90868 77.000
66.92863 79.000
66.94858 69.000
66.96852 57.000
66.98847 57.000
67.00842 56.000
67.02836 56.000
67.04831 76.000
67.06826 69.000
67.08820 61.000
67.10815 49.000
67.12810 58.000
67.14805 62.000
67.16799 59.000
67.18794 63.000
67.20789 53.000
67.22783 58.000
67.24778 65.000
67.26773 57.000
67.28767 55.000
67.30762 58.000
67.32757 62.000
67.34752 49.000
67.36746 57.000
67.38741 62.000
67.40736 55.000
67.42730 58.000
67.44725 79.000
67.46720 71.000
67.48714 78.000
67.50709 60.000
67.52704 65.000
67.54698 63.000
67.56693 64.000
67.58688 66.000
67.60683 50.000
67.62677 41.000
67.64672 61.000
67.66667 59.000
67.68661 46.000
67.70656 63.000
67.72651 52.000
67.74645 64.000
67.76640 54.000
67.78635 53.000
67.80630 45.000
67.82624 58.000
67.84619 52.000
67.86614 67.000
67.88608 73.000
67.90603 73.000
67.92598 58.000
67.94592 54.000
67.96587 60.000
67.98582 56.000
68.00576 55.000
68.02571 57.000
68.04566 46.000
68.06561 53.000
68.08555 62.000
68.10550 45.000
68.12545 45.000
68.14539 55.000
68.16534 48.000
68.18529 59.000
68.20523 47.000
68.22518 37.000
68.24513 45.000
68.26508 39.000
68.28502 53.000
68.30497 53.000
68.32492 38.000
68.34486 42.000
68.36481 46.000
68.38476 40.000
68.40470 51.000
68.42465 36.000
68.44460 35.000
68.46455 36.000
68.48449 29.000
68.50444 37.000
68.52439 32.000
68.54433 39.000
68.56428 38.000
68.58423 32.000
68.60417 27.000
68.62412 37.000
68.64407 37.000
68.66401 35.000
68.68396 31.000
68.70391 32.000
68.72386 34.000
68.74380 30.000
68.76375 27.000
68.78370 33.000
68.80364 30.000
68.82359 30.000
68.84354 28.000
68.86348 27.000
68.88343 22.000
68.90338 22.000
68.92333 33.000
68.94327 32.000
68.96322 34.000
68.98317 29.000
69.00311 31.000
69.02306 28.000
69.04301 36.000
69.06295 31.000
69.08290 32.000
69.10285 33.000
69.12279 33.000
69.14274 33.000
69.16269 28.000
69.18264 28.000
69.20258 19.000
69.22253 27.000
69.24248 36.000
69.26242 32.000
69.28237 34.000
69.30232 32.000
69.32226 26.000
69.34221 28.000
69.36216 34.000
69.38211 32.000
69.40205 32.000
69.42200 35.000
69.44195 22.000
69.46189 39.000
69.48184 24.000
69.50179 22.000
69.52173 19.000
69.54168 31.000
69.56163 26.000
69.58157 31.000
69.60152 22.000
69.62147 40.000
69.64142 17.000
69.66136 31.000
69.68131 24.000
69.70126 26.000
69.72120 31.000
69.74115 23.000
69.76110 29.000
69.78104 23.000
69.80099 15.000
69.82094 38.000
69.84089 23.000
69.86083 26.000
69.88078 18.000
69.90073 23.000
69.92067 22.000
69.94062 31.000
69.96057 29.000
69.98051 27.000
70.00046 34.000
70.02041 27.000
70.04035 40.000
70.06030 29.000
70.08025 22.000
70.10020 27.000
70.12014 26.000
70.14009 25.000
70.16004 21.000
70.17998 19.000
70.19993 34.000
70.21988 16.000
70.23982 30.000
70.25977 31.000
70.27972 25.000
70.29967 22.000
70.31961 21.000
70.33956 20.000
70.35951 19.000
70.37945 23.000
70.39940 30.000
70.41935 27.000
70.43929 31.000
70.45924 17.000
70.47919 32.000
70.49914 35.000
70.51908 30.000
70.53903 27.000
70.55898 25.000
70.57892 27.000
70.59887 29.000
70.61882 29.000
70.63876 27.000
70.65871 29.000
70.67866 23.000
70.69860 31.000
70.71855 22.000
70.73850 21.000
70.75845 25.000
70.77839 37.000
70.79834 27.000
70.81829 33.000
70.83823 28.000
70.85818 36.000
70.87813 27.000
70.89807 19.000
70.91802 28.000
70.93797 33.000
70.95792 22.000
70.97786 17.000
70.99781 36.000
71.01776 24.000
71.03770 27.000
71.05765 29.000
71.07760 30.000
71.09754 30.000
71.11749 23.000
71.13744 25.000
71.15738 28.000
71.17733 21.000
71.19728 31.000
71.21723 29.000
71.23717 28.000
71.25712 42.000
71.27707 34.000
71.29701 19.000
71.31696 26.000
71.33691 26.000
71.35685 17.000
71.37680 21.000
71.39675 30.000
71.41670 32.000
71.43664 34.000
71.45659 37.000
71.47654 29.000
71.49648 28.000
71.51643 33.000
71.53638 31.000
71.55632 43.000
71.57627 30.000
71.59622 34.000
71.61616 37.000
71.63611 36.000
71.65606 31.000
71.67601 40.000
71.69595 28.000
71.71590 37.000
71.73585 39.000
71.75579 38.000
71.77574 33.000
71.79569 45.000
71.81563 32.000
71.83558 40.000
71.85553 45.000
71.87548 41.000
71.89542 38.000
71.91537 30.000
71.93532 29.000
71.95526 37.000
71.97521 35.000
71.99516 33.000
72.01510 38.000
72.03505 35.000
72.05500 34.000
72.07495 45.000
72.09489 34.000
72.11484 35.000
72.13479 40.000
72.15473 39.000
72.17468 34.000
72.19463 28.000
72.21457 32.000
72.23452 26.000
72.25447 39.000
72.27441 35.000
72.29436 27.000
72.31431 38.000
72.33426 32.000
72.35420 35.000
72.37415 43.000
72.39410 33.000
72.41404 37.000
72.43399 33.000
72.45394 32.000
72.47388 31.000
72.49383 40.000
72.51378 27.000
72.53373 27.000
72.55367 38.000
72.57362 28.000
72.59357 28.000
72.61351 27.000
72.63346 33.000
72.65341 29.000
72.67335 28.000
72.69330 34.000
72.71325 40.000
72.73319 31.000
72.75314 31.000
72.77309 21.000
72.79304 32.000
72.81298 27.000
72.83293 29.000
72.85288 25.000
72.87282 28.000
72.89277 36.000
72.91272 34.000
72.93266 45.000
72.95261 34.000
72.97256 28.000
72.99251 32.000
73.01245 36.000
73.03240 36.000
73.05235 42.000
73.07229 25.000
73.09224 28.000
73.11219 36.000
73.13213 27.000
73.15208 34.000
73.17203 24.000
73.19197 25.000
73.21192 34.000
73.23187 25.000
73.25182 32.000
73.27176 40.000
73.29171 36.000
73.31166 27.000
73.33160 39.000
73.35155 33.000
73.37150 36.000
73.39144 30.000
73.41139 45.000
73.43134 48.000
73.45129 36.000
73.47123 39.000
73.49118 31.000
73.51113 35.000
73.53107 34.000
73.55102 39.000
73.57097 28.000
73.59091 49.000
73.61086 23.000
73.63081 39.000
73.65076 40.000
73.67070 36.000
73.69065 38.000
73.71060 36.000
73.73054 29.000
73.75049 42.000
73.77044 36.000
73.79038 45.000
73.81033 29.000
73.83028 33.000
73.85022 44.000
73.87017 33.000
73.89012 42.000
73.91007 48.000
73.93001 33.000
73.94996 38.000
73.96991 27.000
73.98985 36.000
74.00980 39.000
74.02975 29.000
74.04969 27.000
74.06964 36.000
74.08959 28.000
74.10954 28.000
74.12948 29.000
74.14943 36.000
74.16938 40.000
74.18932 33.000
74.20927 40.000
74.22922 43.000
74.24916 22.000
74.26911 33.000
74.28906 30.000
74.30900 33.000
74.32895 41.000
74.34890 36.000
74.36885 39.000
74.38879 47.000
74.40874 41.000
74.42869 38.000
74.44863 45.000
74.46858 33.000
74.48853 47.000
74.50847 44.000
74.52842 38.000
74.54837 36.000
74.56832 48.000
74.58826 39.000
74.60821 42.000
74.62816 40.000
74.64810 42.000
74.66805 50.000
74.68800 39.000
74.70794 39.000
74.72789 32.000
74.74784 39.000
74.76778 39.000
74.78773 39.000
74.80768 35.000
74.82763 42.000
74.84757 44.000
74.86752 30.000
74.88747 32.000
74.90741 46.000
74.92736 46.000
74.94731 45.000
74.96725 28.000
74.98720 27.000
75.00715 34.000
75.02710 31.000
75.04704 34.000
75.06699 37.000
75.08694 35.000
75.10688 35.000
75.12683 30.000
75.14678 25.000
75.16672 29.000
75.18667 42.000
75.20662 36.000
75.22657 26.000
75.24651 26.000
75.26646 32.000
75.28641 33.000
75.30635 29.000
75.32630 26.000
75.34625 31.000
75.36619 23.000
75.38614 35.000
75.40609 29.000
75.42603 26.000
75.44598 33.000
75.46593 37.000
75.48588 34.000
75.50582 23.000
75.52577 20.000
75.54572 29.000
75.56566 26.000
75.58561 33.000
75.60556 36.000
75.62550 24.000
75.64545 32.000
75.66540 31.000
75.68535 29.000
75.70529 38.000
75.72524 30.000
75.74519 33.000
75.76513 28.000
75.78508 30.000
75.80503 23.000
75.82497 44.000
75.84492 33.000
75.86487 32.000
75.88481 32.000
75.90476 28.000
75.92471 32.000
75.94466 40.000
75.96460 40.000
75.98455 40.000
76.00450 28.000
76.02444 44.000
76.04439 32.000
76.06434 31.000
76.08428 57.000
76.10423 38.000
76.12418 36.000
76.14413 28.000
76.16407 26.000
76.18402 33.000
76.20397 51.000
76.22391 36.000
76.24386 41.000
76.26381 50.000
76.28375 51.000
76.30370 40.000
76.32365 53.000
76.34359 42.000
76.36354 58.000
76.38349 37.000
76.40344 46.000
76.42338 48.000
76.44333 49.000
76.46328 46.000
76.48322 48.000
76.50317 51.000
76.52312 45.000
76.54306 39.000
76.56301 44.000
76.58296 38.000
76.60291 42.000
76.62285 52.000
76.64280 46.000
76.66275 41.000
76.68269 32.000
76.70264 53.000
76.72259 39.000
76.74253 58.000
76.76248 39.000
76.78243 42.000
76.80238 33.000
76.82232 57.000
76.84227 45.000
76.86222 48.000
76.88216 37.000
76.90211 49.000
76.92206 39.000
76.94200 42.000
76.96195 39.000
76.98190 45.000
77.00184 37.000
77.02179 36.000
77.04174 47.000
77.06169 31.000
77.08163 54.000
77.10158 42.000
77.12153 51.000
77.14147 45.000
77.16142 57.000
77.18137 51.000
77.20131 38.000
77.22126 62.000
77.24121 51.000
77.26116 41.000
77.28110 46.000
77.30105 65.000
77.32100 63.000
77.34094 45.000
77.36089 52.000
77.38084 56.000
77.40078 52.000
77.42073 60.000
77.44068 49.000
77.46062 64.000
77.48057 55.000
77.50052 65.000
77.52047 78.000
77.54041 77.000
77.56036 72.000
77.58031 78.000
77.60025 69.000
77.62020 73.000
77.64015 87.000
77.66009 63.000
77.68004 68.000
77.69999 68.000
77.71994 77.000
77.73988 77.000
77.75983 80.000
77.77978 82.000
77.79972 71.000
77.81967 82.000
77.83962 58.000
77.85956 64.000
77.87951 61.000
77.89946 71.000
77.91940 61.000
77.93935 52.000
77.95930 76.000
77.97925 48.000
77.99919 69.000
78.01914 54.000
78.03909 60.000
78.05903 61.000
78.07898 49.000
78.09893 48.000
78.11887 44.000
78.13882 50.000
78.15877 49.000
78.17872 55.000
78.19866 55.000
78.21861 59.000
78.23856 55.000
78.25850 61.000
78.27845 49.000
78.29840 64.000
78.31834 58.000
78.33829 54.000
78.35824 65.000
78.37819 52.000
78.39813 61.000
78.41808 58.000
78.43803 61.000
78.45797 74.000
78.47792 50.000
78.49787 61.000
78.51781 51.000
78.53776 50.000
78.55771 64.000
78.57765 64.000
78.59760 54.000
78.61755 55.000
78.63750 52.000
78.65744 71.000
78.67739 62.000
78.69734 50.000
78.71728 51.000
78.73723 66.000
78.75718 60.000
78.77712 56.000
78.79707 54.000
78.81702 47.000
78.83697 48.000
78.85691 49.000
78.87686 46.000
78.89681 43.000
78.91675 43.000
78.93670 46.000
78.95665 32.000
78.97659 35.000
78.99654 44.000
79.01649 43.000
79.03643 49.000
79.05638 33.000
79.07633 31.000
79.09628 30.000
79.11622 49.000
79.13617 35.000
79.15612 31.000
79.17606 27.000
79.19601 32.000
79.21596 29.000
79.23590 29.000
79.25585 35.000
79.27580 31.000
79.29575 28.000
79.31569 32.000
79.33564 26.000
79.35559 33.000
79.37553 27.000
79.39548 30.000
79.41543 26.000
79.43537 24.000
79.45532 42.000
79.47527 39.000
79.49521 33.000
79.51516 32.000
79.53511 24.000
79.55506 33.000
79.57500 30.000
79.59495 37.000
79.61490 32.000
79.63484 38.000
79.65479 27.000
79.67474 29.000
79.69468 22.000
79.71463 28.000
79.73458 23.000
79.75453 31.000
79.77447 25.000
79.79442 27.000
79.81437 25.000
79.83431 34.000
79.85426 24.000
79.87421 27.000
79.89415 23.000
79.91410 25.000
79.93405 22.000
79.95399 32.000
79.97394 15.000
79.99389 30.000
80.01384 28.000
80.03378 25.000
80.05373 29.000
80.07368 22.000
80.09362 24.000
80.11357 20.000
80.13352 20.000
80.15346 23.000
80.17341 22.000
80.19336 23.000
80.21331 30.000
80.23325 22.000
80.25320 24.000
80.27315 26.000
80.29309 25.000
80.31304 21.000
80.33299 35.000
80.35293 28.000
80.37288 27.000
80.39283 36.000
80.41278 28.000
80.43272 25.000
80.45267 26.000
80.47262 19.000
80.49256 23.000
80.51251 29.000
80.53246 27.000
80.55240 27.000
80.57235 28.000
80.59230 19.000
80.61224 36.000
80.63219 30.000
80.65214 33.000
80.67209 23.000
80.69203 37.000
80.71198 27.000
80.73193 30.000
80.75187 34.000
80.77182 30.000
80.79177 36.000
80.81171 37.000
80.83166 29.000
80.85161 37.000
80.87156 28.000
80.89150 30.000
80.91145 37.000
80.93140 27.000
80.95134 24.000
80.97129 45.000
80.99124 29.000
81.01118 23.000
81.03113 35.000
81.05108 33.000
81.07102 34.000
81.09097 35.000
81.11092 27.000
81.13087 22.000
81.15081 27.000
81.17076 30.000
81.19071 36.000
81.21065 34.000
81.23060 39.000
81.25055 42.000
81.27049 41.000
81.29044 39.000
81.31039 41.000
81.33034 41.000
81.35028 46.000
81.37023 36.000
81.39018 32.000
81.41012 25.000
81.43007 45.000
81.45002 33.000
81.46996 41.000
81.48991 38.000
81.50986 30.000
81.52980 27.000
81.54975 37.000
81.56970 29.000
81.58965 31.000
81.60959 29.000
81.62954 33.000
81.64949 27.000
81.66943 27.000
81.68938 32.000
81.70933 20.000
81.72927 27.000
81.74922 31.000
81.76917 39.000
81.78912 21.000
81.80906 19.000
81.82901 29.000
81.84896 24.000
81.86890 30.000
81.88885 27.000
81.90880 18.000
81.92874 16.000
81.94869 31.000
81.96864 31.000
81.98859 25.000
82.00853 28.000
82.02848 21.000
82.04843 27.000
82.06837 30.000
82.08832 23.000
82.10827 20.000
82.12821 24.000
82.14816 26.000
82.16811 20.000
82.18805 38.000
82.20800 22.000
82.22795 17.000
82.24790 25.000
82.26784 21.000
82.28779 34.000
82.30774 31.000
82.32768 20.000
82.34763 23.000
82.36758 35.000
82.38752 22.000
82.40747 22.000
82.42742 17.000
82.44737 23.000
82.46731 31.000
82.48726 30.000
82.50721 29.000
82.52715 32.000
82.54710 23.000
82.56705 22.000
82.58699 33.000
82.60694 26.000
82.62689 24.000
82.64683 29.000
82.66678 24.000
82.68673 21.000
82.70668 26.000
82.72662 20.000
82.74657 36.000
82.76652 29.000
82.78646 24.000
82.80641 21.000
82.82636 31.000
82.84630 24.000
82.86625 28.000
82.88620 21.000
82.90615 30.000
82.92609 18.000
82.94604 32.000
82.96599 30.000
82.98593 23.000
83.00588 19.000
83.02583 25.000
83.04577 34.000
83.06572 29.000
83.08567 24.000
83.10561 24.000
83.12556 26.000
83.14551 32.000
83.16546 27.000
83.18540 29.000
83.20535 22.000
83.22530 29.000
83.24524 32.000
83.26519 25.000
83.28514 20.000
83.30508 20.000
83.32503 33.000
83.34498 24.000
83.36493 17.000
83.38487 26.000
83.40482 29.000
83.42477 18.000
83.44471 23.000
83.46466 21.000
83.48461 27.000
83.50455 41.000
83.52450 24.000
83.54445 20.000
83.56440 28.000
83.58434 22.000
83.60429 25.000
83.62424 22.000
83.64418 28.000
83.66413 23.000
83.68408 21.000
83.70402 30.000
83.72397 23.000
83.74392 37.000
83.76386 26.000
83.78381 29.000
83.80376 30.000
83.82371 31.000
83.84365 31.000
83.86360 40.000
83.88355 26.000
83.90349 32.000
83.92344 27.000
83.94339 30.000
83.96333 37.000
83.98328 34.000
84.00323 40.000
84.02318 34.000
84.04312 26.000
84.06307 28.000
84.08302 28.000
84.10296 14.000
84.12291 26.000
84.14286 51.000
84.16280 21.000
84.18275 20.000
84.20270 27.000
84.22264 28.000
84.24259 35.000
84.26254 29.000
84.28249 40.000
84.30243 28.000
84.32238 40.000
84.34233 29.000
84.36227 37.000
84.38222 26.000
84.40217 31.000
84.42211 34.000
84.44206 38.000
84.46201 27.000
84.48196 30.000
84.50190 35.000
84.52185 31.000
84.54180 33.000
84.56174 32.000
84.58169 27.000
84.60164 37.000
84.62158 31.000
84.64153 55.000
84.66148 39.000
84.68142 33.000
84.70137 44.000
84.72132 39.000
84.74127 42.000
84.76121 40.000
84.78116 38.000
84.80111 50.000
84.82105 47.000
84.84100 45.000
84.86095 39.000
84.88089 47.000
84.90084 49.000
84.92079 32.000
84.94074 46.000
84.96068 45.000
84.98063 38.000
85.00058 46.000
85.02052 61.000
85.04047 51.000
85.06042 47.000
85.08036 45.000
85.10031 45.000
85.12026 50.000
85.14021 49.000
85.16015 60.000
85.18010 51.000
85.20005 51.000
85.21999 53.000
85.23994 44.000
85.25989 47.000
85.27983 50.000
85.29978 44.000
85.31973 38.000
85.33967 38.000
85.35962 45.000
85.37957 41.000
85.39952 39.000
85.41946 40.000
85.43941 37.000
85.45936 36.000
85.47930 28.000
85.49925 36.000
85.51920 31.000
85.53914 33.000
85.55909 42.000
85.57904 39.000
85.59899 29.000
85.61893 37.000
85.63888 26.000
85.65883 36.000
85.67877 45.000
85.69872 31.000
85.71867 34.000
85.73861 30.000
85.75856 38.000
85.77851 33.000
85.79845 41.000
85.81840 44.000
85.83835 47.000
85.85830 34.000
85.87824 22.000
85.89819 38.000
85.91814 35.000
85.93808 29.000
85.95803 42.000
85.97798 37.000
85.99792 24.000
86.01787 37.000
86.03782 37.000
86.05777 39.000
86.07771 33.000
86.09766 36.000
86.11761 27.000
86.13755 32.000
86.15750 30.000
86.17745 24.000
86.19739 31.000
86.21734 44.000
86.23729 41.000
86.25723 26.000
86.27718 33.000
86.29713 35.000
86.31708 36.000
86.33702 30.000
86.35697 45.000
86.37692 42.000
86.39686 24.000
86.41681 35.000
86.43676 34.000
86.45670 26.000
86.47665 25.000
86.49660 26.000
86.51655 26.000
86.53649 29.000
86.55644 28.000
86.57639 39.000
86.59633 36.000
86.61628 24.000
86.63623 30.000
86.65617 47.000
86.67612 22.000
86.69607 19.000
86.71602 28.000
86.73596 23.000
86.75591 23.000
86.77586 28.000
86.79580 31.000
86.81575 23.000
86.83570 23.000
86.85564 26.000
86.87559 32.000
86.89554 20.000
86.91548 24.000
86.93543 31.000
86.95538 26.000
86.97533 19.000
86.99527 23.000
87.01522 31.000
87.03517 25.000
87.05511 22.000
87.07506 20.000
87.09501 36.000
87.11495 33.000
87.13490 18.000
87.15485 20.000
87.17480 30.000
87.19474 23.000
87.21469 29.000
87.23464 23.000
87.25458 29.000
87.27453 22.000
87.29448 12.000
87.31442 28.000
87.33437 23.000
87.35432 21.000
87.37426 28.000
87.39421 20.000
87.41416 20.000
87.43411 28.000
87.45405 20.000
87.47400 28.000
87.49395 22.000
87.51389 24.000
87.53384 24.000
87.55379 25.000
87.57373 22.000
87.59368 20.000
87.61363 24.000
87.63358 32.000
87.65352 22.000
87.67347 31.000
87.69342 36.000
87.71336 25.000
87.73331 23.000
87.75326 25.000
87.77320 23.000
87.79315 27.000
87.81310 26.000
87.83304 17.000
87.85299 26.000
87.87294 29.000
87.89289 23.000
87.91283 23.000
87.93278 17.000
87.95273 27.000
87.97267 19.000
87.99262 28.000
88.01257 23.000
88.03251 17.000
88.05246 28.000
88.07241 28.000
88.09236 21.000
88.11230 24.000
88.13225 22.000
88.15220 28.000
88.17214 26.000
88.19209 28.000
88.21204 22.000
88.23198 26.000
88.25193 21.000
88.27188 23.000
88.29183 23.000
88.31177 20.000
88.33172 22.000
88.35167 19.000
88.37161 17.000
88.39156 22.000
88.41151 23.000
88.43145 22.000
88.45140 17.000
88.47135 25.000
88.49129 23.000
88.51124 28.000
88.53119 14.000
88.55114 23.000
88.57108 16.000
88.59103 19.000
88.61098 15.000
88.63092 18.000
88.65087 27.000
88.67082 32.000
88.69076 19.000
88.71071 22.000
88.73066 18.000
88.75061 24.000
88.77055 24.000
88.79050 16.000
88.81045 23.000
88.83039 11.000
88.85034 16.000
88.87029 18.000
88.89023 19.000
88.91018 21.000
88.93013 27.000
88.95007 16.000
88.97002 18.000
88.98997 18.000
89.00992 19.000
89.02986 23.000
89.04981 18.000
89.06976 23.000
89.08970 11.000
89.10965 24.000
89.12960 23.000
89.14954 22.000
89.16949 24.000
89.18944 27.000
89.20939 17.000
89.22933 23.000
89.24928 17.000
89.26923 19.000
89.28917 18.000
89.30912 15.000
89.32907 20.000
89.34901 21.000
89.36896 21.000
89.38891 10.000
89.40885 22.000
89.42880 19.000
89.44875 15.000
89.46870 26.000
89.48864 16.000
89.50859 22.000
89.52854 19.000
89.54848 20.000
89.56843 15.000
89.58838 24.000
89.60832 19.000
89.62827 23.000
89.64822 23.000
89.66817 22.000
89.68811 23.000
89.70806 25.000
89.72801 26.000
89.74795 20.000
89.76790 17.000
89.78785 12.000
89.80779 16.000
89.82774 20.000
89.84769 27.000
89.86764 21.000
89.88758 19.000
89.90753 22.000
89.92748 17.000
89.94742 25.000
89.96737 29.000
89.98732 22.000
90.00726 29.000
