10.00000 79.000
10.01995 86.000
10.03989 115.000
10.05984 85.000
10.07979 100.000
10.09973 105.000
10.11968 103.000
10.13963 81.000
10.15958 85.000
10.17952 78.000
10.19947 97.000
10.21942 106.000
10.23936 101.000
10.25931 101.000
10.27926 106.000
10.29920 112.000
10.31915 105.000
10.33910 91.000
10.35905 77.000
10.37899 97.000
10.39894 108.000
10.41889 93.000
10.43883 118.000
10.45878 98.000
10.47873 104.000
10.49867 103.000
10.51862 91.000
10.53857 102.000
10.55851 106.000
10.57846 97.000
10.59841 102.000
10.61836 116.000
10.63830 92.000
10.65825 105.000
10.67820 89.000
10.69814 95.000
10.71809 109.000
10.73804 108.000
10.75798 97.000
10.77793 108.000
10.79788 97.000
10.81783 104.000
10.83777 92.000
10.85772 104.000
10.87767 96.000
10.89761 121.000
10.91756 92.000
10.93751 81.000
10.95745 89.000
10.97740 91.000
10.99735 89.000
11.01730 109.000
11.03724 101.000
11.05719 95.000
11.07714 103.000
11.09708 86.000
11.11703 100.000
11.13698 104.000
11.15692 105.000
11.17687 95.000
11.19682 88.000
11.21676 88.000
11.23671 102.000
11.25666 98.000
11.27661 103.000
11.29655 87.000
11.31650 101.000
11.33645 111.000
11.35639 101.000
11.37634 110.000
11.39629 96.000
11.41623 100.000
11.43618 97.000
11.45613 123.000
11.47608 98.000
11.49602 102.000
11.51597 99.000
11.53592 127.000
11.55586 115.000
11.57581 121.000
11.59576 116.000
11.61570 104.000
11.63565 105.000
11.65560 111.000
11.67554 111.000
11.69549 107.000
11.71544 129.000
11.73539 137.000
11.75533 128.000
11.77528 112.000
11.79523 106.000
11.81517 100.000
11.83512 104.000
11.85507 109.000
11.87501 110.000
11.89496 107.000
11.91491 118.000
11.93486 95.000
11.95480 103.000
11.97475 107.000
11.99470 113.000
12.01464 126.000
12.03459 119.000
12.05454 114.000
12.07448 120.000
12.09443 128.000
12.11438 94.000
12.13432 116.000
12.15427 127.000
12.17422 112.000
12.19417 108.000
12.21411 126.000
12.23406 105.000
12.25401 117.000
12.27395 125.000
12.29390 131.000
12.31385 89.000
12.33379 121.000
12.35374 118.000
12.37369 117.000
12.39364 120.000
12.41358 125.000
12.43353 98.000
12.45348 137.000
12.47342 105.000
12.49337 127.000
12.51332 128.000
12.53326 108.000
12.55321 124.000
12.57316 133.000
12.59311 124.000
12.61305 136.000
12.63300 112.000
12.65295 112.000
12.67289 129.000
12.69284 115.000
12.71279 121.000
12.73273 119.000
12.75268 106.000
12.77263 155.000
12.79257 113.000
12.81252 139.000
12.83247 119.000
12.85242 140.000
12.87236 126.000
12.89231 138.000
12.91226 129.000
12.93220 147.000
12.95215 143.000
12.97210 130.000
12.99204 131.000
13.01199 139.000
13.03194 147.000
13.05189 107.000
13.07183 137.000
13.09178 117.000
13.11173 110.000
13.13167 114.000
13.15162 128.000
13.17157 122.000
13.19151 125.000
13.21146 139.000
13.23141 119.000
13.25135 137.000
13.27130 117.000
13.29125 145.000
13.31120 126.000
13.33114 107.000
13.35109 120.000
13.37104 115.000
13.39098 143.000
13.41093 120.000
13.43088 147.000
13.45082 132.000
13.47077 148.000
13.49072 130.000
13.51067 135.000
13.53061 156.000
13.55056 127.000
13.57051 142.000
13.59045 145.000
13.61040 117.000
13.63035 134.000
13.65029 129.000
13.67024 108.000
13.69019 117.000
13.71013 149.000
13.73008 114.000
13.75003 122.000
13.76998 125.000
13.78992 136.000
13.80987 136.000
13.82982 148.000
13.84976 115.000
13.86971 117.000
13.88966 153.000
13.90960 117.000
13.92955 131.000
13.94950 143.000
13.96945 132.000
13.98939 137.000
14.00934 121.000
14.02929 140.000
14.04923 140.000
14.06918 120.000
14.08913 141.000
14.10907 148.000
14.12902 162.000
14.14897 132.000
14.16892 162.000
14.18886 125.000
14.20881 143.000
14.22876 156.000
14.24870 130.000
14.26865 131.000
14.28860 144.000
14.30854 141.000
14.32849 149.000
14.34844 131.000
14.36838 131.000
14.38833 129.000
14.40828 111.000
14.42823 132.000
14.44817 159.000
14.46812 125.000
14.48807 143.000
14.50801 110.000
14.52796 156.000
14.54791 172.000
14.56785 142.000
14.58780 135.000
14.60775 148.000
14.62770 151.000
14.64764 141.000
14.66759 145.000
14.68754 150.000
14.70748 173.000
14.72743 144.000
14.74738 156.000
14.76732 138.000
14.78727 159.000
14.80722 143.000
14.82716 175.000
14.84711 163.000
14.86706 158.000
14.88701 180.000
14.90695 163.000
14.92690 153.000
14.94685 139.000
14.96679 150.000
14.98674 135.000
15.00669 170.000
15.02663 156.000
15.04658 158.000
15.06653 138.000
15.08648 142.000
15.10642 156.000
15.12637 163.000
15.14632 142.000
15.16626 151.000
15.18621 153.000
15.20616 174.000
15.22610 179.000
15.24605 166.000
15.26600 155.000
15.28594 136.000
15.30589 187.000
15.32584 155.000
15.34579 148.000
15.36573 163.000
15.38568 158.000
15.40563 137.000
15.42557 156.000
15.44552 170.000
15.46547 176.000
15.48541 167.000
15.50536 178.000
15.52531 152.000
15.54526 163.000
15.56520 190.000
15.58515 176.000
15.60510 165.000
15.62504 150.000
15.64499 167.000
15.66494 193.000
15.68488 171.000
15.70483 178.000
15.72478 162.000
15.74472 158.000
15.76467 177.000
15.78462 210.000
15.80457 186.000
15.82451 177.000
15.84446 172.000
15.86441 168.000
15.88435 199.000
15.90430 184.000
15.92425 162.000
15.94419 157.000
15.96414 175.000
15.98409 169.000
16.00404 193.000
16.02398 163.000
16.04393 208.000
16.06388 202.000
16.08382 161.000
16.10377 184.000
16.12372 170.000
16.14366 200.000
16.16361 178.000
16.18356 187.000
16.20351 185.000
16.22345 197.000
16.24340 165.000
16.26335 191.000
16.28329 158.000
16.30324 182.000
16.32319 166.000
16.34313 180.000
16.36308 207.000
16.38303 211.000
16.40297 192.000
16.42292 182.000
16.44287 202.000
16.46282 186.000
16.48276 217.000
16.50271 204.000
16.52266 187.000
16.54260 185.000
16.56255 179.000
16.58250 211.000
16.60244 180.000
16.62239 216.000
16.64234 216.000
16.66229 209.000
16.68223 197.000
16.70218 187.000
16.72213 198.000
16.74207 252.000
16.76202 212.000
16.78197 236.000
16.80191 193.000
16.82186 211.000
16.84181 180.000
16.86175 211.000
16.88170 234.000
16.90165 213.000
16.92160 229.000
16.94154 214.000
16.96149 224.000
16.98144 223.000
17.00138 194.000
17.02133 222.000
17.04128 224.000
17.06122 212.000
17.08117 226.000
17.10112 251.000
17.12107 237.000
17.14101 201.000
17.16096 237.000
17.18091 212.000
17.20085 243.000
17.22080 250.000
17.24075 237.000
17.26069 247.000
17.28064 212.000
17.30059 242.000
17.32053 237.000
17.34048 210.000
17.36043 239.000
17.38038 230.000
17.40032 245.000
17.42027 272.000
17.44022 252.000
17.46016 241.000
17.48011 271.000
17.50006 276.000
17.52000 255.000
17.53995 263.000
17.55990 247.000
17.57985 289.000
17.59979 262.000
17.61974 253.000
17.63969 270.000
17.65963 231.000
17.67958 227.000
17.69953 261.000
17.71947 277.000
17.73942 273.000
17.75937 265.000
17.77932 290.000
17.79926 297.000
17.81921 285.000
17.83916 265.000
17.85910 278.000
17.87905 234.000
17.89900 276.000
17.91894 253.000
17.93889 290.000
17.95884 266.000
17.97878 285.000
17.99873 287.000
18.01868 284.000
18.03863 268.000
18.05857 323.000
18.07852 284.000
18.09847 322.000
18.11841 282.000
18.13836 305.000
18.15831 302.000
18.17825 324.000
18.19820 285.000
18.21815 292.000
18.23810 298.000
18.25804 292.000
18.27799 321.000
18.29794 293.000
18.31788 322.000
18.33783 318.000
18.35778 282.000
18.37772 329.000
18.39767 303.000
18.41762 292.000
18.43756 285.000
18.45751 319.000
18.47746 352.000
18.49741 309.000
18.51735 313.000
18.53730 326.000
18.55725 330.000
18.57719 320.000
18.59714 343.000
18.61709 319.000
18.63703 341.000
18.65698 327.000
18.67693 309.000
18.69688 319.000
18.71682 311.000
18.73677 348.000
18.75672 310.000
18.77666 352.000
18.79661 344.000
18.81656 332.000
18.83650 346.000
18.85645 358.000
18.87640 387.000
18.89634 323.000
18.91629 353.000
18.93624 316.000
18.95619 313.000
18.97613 367.000
18.99608 332.000
19.01603 346.000
19.03597 372.000
19.05592 345.000
19.07587 392.000
19.09581 357.000
19.11576 405.000
19.13571 365.000
19.15566 368.000
19.17560 372.000
19.19555 366.000
19.21550 360.000
19.23544 365.000
19.25539 351.000
19.27534 349.000
19.29528 378.000
19.31523 400.000
19.33518 375.000
19.35513 384.000
19.37507 380.000
19.39502 351.000
19.41497 380.000
19.43491 353.000
19.45486 395.000
19.47481 374.000
19.49475 390.000
19.51470 390.000
19.53465 403.000
19.55459 392.000
19.57454 379.000
19.59449 358.000
19.61444 379.000
19.63438 386.000
19.65433 374.000
19.67428 387.000
19.69422 360.000
19.71417 378.000
19.73412 344.000
19.75406 366.000
19.77401 381.000
19.79396 355.000
19.81391 411.000
19.83385 422.000
19.85380 414.000
19.87375 405.000
19.89369 408.000
19.91364 406.000
19.93359 413.000
19.95353 426.000
19.97348 367.000
19.99343 426.000
20.01337 373.000
20.03332 406.000
20.05327 400.000
20.07322 409.000
20.09316 419.000
20.11311 364.000
20.13306 412.000
20.15300 414.000
20.17295 411.000
20.19290 416.000
20.21284 437.000
20.23279 410.000
20.25274 404.000
20.27269 397.000
20.29263 417.000
20.31258 420.000
20.33253 429.000
20.35247 426.000
20.37242 445.000
20.39237 432.000
20.41231 421.000
20.43226 435.000
20.45221 455.000
20.47215 411.000
20.49210 401.000
20.51205 409.000
20.53200 434.000
20.55194 446.000
20.57189 432.000
20.59184 451.000
20.61178 452.000
20.63173 432.000
20.65168 426.000
20.67162 467.000
20.69157 472.000
20.71152 427.000
20.73147 427.000
20.75141 476.000
20.77136 453.000
20.79131 420.000
20.81125 428.000
20.83120 467.000
20.85115 443.000
20.87109 488.000
20.89104 451.000
20.91099 439.000
20.93094 438.000
20.95088 464.000
20.97083 468.000
20.99078 462.000
21.01072 468.000
21.03067 453.000
21.05062 512.000
21.07056 484.000
21.09051 462.000
21.11046 467.000
21.13040 452.000
21.15035 494.000
21.17030 471.000
21.19025 455.000
21.21019 468.000
21.23014 491.000
21.25009 501.000
21.27003 473.000
21.28998 473.000
21.30993 490.000
21.32987 504.000
21.34982 492.000
21.36977 442.000
21.38972 463.000
21.40966 484.000
21.42961 484.000
21.44956 454.000
21.46950 494.000
21.48945 501.000
21.50940 467.000
21.52934 456.000
21.54929 482.000
21.56924 547.000
21.58918 472.000
21.60913 464.000
21.62908 508.000
21.64903 454.000
21.66897 482.000
21.68892 501.000
21.70887 494.000
21.72881 494.000
21.74876 498.000
21.76871 502.000
21.78865 480.000
21.80860 508.000
21.82855 502.000
21.84850 508.000
21.86844 486.000
21.88839 492.000
21.90834 494.000
21.92828 510.000
21.94823 481.000
21.96818 536.000
21.98812 522.000
22.00807 519.000
22.02802 539.000
22.04796 541.000
22.06791 483.000
22.08786 514.000
22.10781 497.000
22.12775 539.000
22.14770 531.000
22.16765 497.000
22.18759 500.000
22.20754 490.000
22.22749 544.000
22.24743 532.000
22.26738 539.000
22.28733 496.000
22.30728 510.000
22.32722 508.000
22.34717 513.000
22.36712 525.000
22.38706 514.000
22.40701 549.000
22.42696 536.000
22.44690 547.000
22.46685 538.000
22.48680 522.000
22.50675 515.000
22.52669 536.000
22.54664 540.000
22.56659 558.000
22.58653 566.000
22.60648 529.000
22.62643 529.000
22.64637 529.000
22.66632 547.000
22.68627 548.000
22.70621 546.000
22.72616 539.000
22.74611 561.000
22.76606 581.000
22.78600 581.000
22.80595 552.000
22.82590 582.000
22.84584 587.000
22.86579 548.000
22.88574 524.000
22.90568 579.000
22.92563 564.000
22.94558 601.000
22.96553 545.000
22.98547 557.000
23.00542 552.000
23.02537 564.000
23.04531 583.000
23.06526 537.000
23.08521 546.000
23.10515 595.000
23.12510 606.000
23.14505 595.000
23.16499 549.000
23.18494 546.000
23.20489 591.000
23.22484 586.000
23.24478 553.000
23.26473 608.000
23.28468 597.000
23.30462 579.000
23.32457 583.000
23.34452 604.000
23.36446 598.000
23.38441 517.000
23.40436 597.000
23.42431 609.000
23.44425 620.000
23.46420 623.000
23.48415 612.000
23.50409 564.000
23.52404 620.000
23.54399 640.000
23.56393 588.000
23.58388 629.000
23.60383 604.000
23.62377 641.000
23.64372 676.000
23.66367 594.000
23.68362 632.000
23.70356 617.000
23.72351 592.000
23.74346 604.000
23.76340 656.000
23.78335 624.000
23.80330 610.000
23.82324 643.000
23.84319 650.000
23.86314 639.000
23.88309 625.000
23.90303 589.000
23.92298 647.000
23.94293 642.000
23.96287 635.000
23.98282 656.000
24.00277 616.000
24.02271 689.000
24.04266 636.000
24.06261 650.000
24.08256 641.000
24.10250 639.000
24.12245 621.000
24.14240 651.000
24.16234 641.000
24.18229 662.000
24.20224 612.000
24.22218 624.000
24.24213 653.000
24.26208 680.000
24.28202 688.000
24.30197 673.000
24.32192 661.000
24.34187 657.000
24.36181 669.000
24.38176 639.000
24.40171 696.000
24.42165 716.000
24.44160 709.000
24.46155 673.000
24.48149 716.000
24.50144 687.000
24.52139 658.000
24.54134 666.000
24.56128 670.000
24.58123 690.000
24.60118 685.000
24.62112 731.000
24.64107 694.000
24.66102 700.000
24.68096 678.000
24.70091 729.000
24.72086 691.000
24.74080 674.000
24.76075 744.000
24.78070 731.000
24.80065 752.000
24.82059 678.000
24.84054 680.000
24.86049 754.000
24.88043 714.000
24.90038 703.000
24.92033 720.000
24.94027 732.000
24.96022 732.000
24.98017 698.000
25.00012 751.000
25.02006 695.000
25.04001 731.000
25.05996 713.000
25.07990 728.000
25.09985 754.000
25.11980 734.000
25.13974 763.000
25.15969 723.000
25.17964 765.000
25.19958 736.000
25.21953 744.000
25.23948 741.000
25.25943 788.000
25.27937 748.000
25.29932 783.000
25.31927 793.000
25.33921 789.000
25.35916 722.000
25.37911 752.000
25.39905 764.000
25.41900 712.000
25.43895 764.000
25.45890 815.000
25.47884 797.000
25.49879 760.000
25.51874 747.000
25.53868 804.000
25.55863 819.000
25.57858 744.000
25.59852 832.000
25.61847 790.000
25.63842 793.000
25.65837 840.000
25.67831 776.000
25.69826 781.000
25.71821 774.000
25.73815 793.000
25.75810 825.000
25.77805 802.000
25.79799 779.000
25.81794 817.000
25.83789 856.000
25.85783 786.000
25.87778 787.000
25.89773 814.000
25.91768 814.000
25.93762 847.000
25.95757 800.000
25.97752 878.000
25.99746 823.000
26.01741 877.000
26.03736 839.000
26.05730 866.000
26.07725 847.000
26.09720 880.000
26.11715 889.000
26.13709 819.000
26.15704 835.000
26.17699 846.000
26.19693 855.000
26.21688 925.000
26.23683 821.000
26.25677 876.000
26.27672 846.000
26.29667 878.000
26.31661 907.000
26.33656 869.000
26.35651 811.000
26.37646 929.000
26.39640 882.000
26.41635 883.000
26.43630 930.000
26.45624 888.000
26.47619 884.000
26.49614 931.000
26.51608 884.000
26.53603 893.000
26.55598 917.000
26.57593 931.000
26.59587 912.000
26.61582 915.000
26.63577 952.000
26.65571 971.000
26.67566 875.000
26.69561 923.000
26.71555 910.000
26.73550 984.000
26.75545 871.000
26.77539 890.000
26.79534 958.000
26.81529 924.000
26.83524 961.000
26.85518 930.000
26.87513 914.000
26.89508 908.000
26.91502 967.000
26.93497 942.000
26.95492 983.000
26.97486 947.000
26.99481 952.000
27.01476 960.000
27.03471 927.000
27.05465 936.000
27.07460 906.000
27.09455 981.000
27.11449 1016.000
27.13444 914.000
27.15439 1004.000
27.17433 951.000
27.19428 984.000
27.21423 1020.000
27.23417 958.000
27.25412 993.000
27.27407 1010.000
27.29402 968.000
27.31396 1017.000
27.33391 958.000
27.35386 1023.000
27.37380 1001.000
27.39375 967.000
27.41370 965.000
27.43364 1069.000
27.45359 1030.000
27.47354 1037.000
27.49349 1020.000
27.51343 980.000
27.53338 1016.000
27.55333 1003.000
27.57327 980.000
27.59322 984.000
27.61317 1023.000
27.63311 1054.000
27.65306 1006.000
27.67301 1049.000
27.69296 1049.000
27.71290 1129.000
27.73285 1087.000
27.75280 1001.000
27.77274 1088.000
27.79269 1085.000
27.81264 1016.000
27.83258 1075.000
27.85253 1058.000
27.87248 1119.000
27.89242 1049.000
27.91237 1062.000
27.93232 1118.000
27.95227 1068.000
27.97221 998.000
27.99216 1088.000
28.01211 1042.000
28.03205 1086.000
28.05200 1117.000
28.07195 1133.000
28.09189 1069.000
28.11184 1056.000
28.13179 1076.000
28.15174 1089.000
28.17168 1099.000
28.19163 1169.000
28.21158 1055.000
28.23152 1070.000
28.25147 1059.000
28.27142 1046.000
28.29136 1120.000
28.31131 1135.000
28.33126 1091.000
28.35120 1106.000
28.37115 1110.000
28.39110 1177.000
28.41105 1082.000
28.43099 1099.000
28.45094 1134.000
28.47089 1119.000
28.49083 1092.000
28.51078 1124.000
28.53073 1170.000
28.55067 1135.000
28.57062 1097.000
28.59057 1138.000
28.61052 1107.000
28.63046 1096.000
28.65041 1081.000
28.67036 1117.000
28.69030 1145.000
28.71025 1180.000
28.73020 1118.000
28.75014 1154.000
28.77009 1104.000
28.79004 1154.000
28.80998 1114.000
28.82993 1133.000
28.84988 1184.000
28.86983 1103.000
28.88977 1103.000
28.90972 1141.000
28.92967 1114.000
28.94961 1177.000
28.96956 1219.000
28.98951 1095.000
29.00945 1145.000
29.02940 1101.000
29.04935 1110.000
29.06930 1098.000
29.08924 1070.000
29.10919 1181.000
29.12914 1180.000
29.14908 1152.000
29.16903 1180.000
29.18898 1112.000
29.20892 1148.000
29.22887 1156.000
29.24882 1172.000
29.26877 1089.000
29.28871 1192.000
29.30866 1104.000
29.32861 1146.000
29.34855 1124.000
29.36850 1158.000
29.38845 1197.000
29.40839 1159.000
29.42834 1121.000
29.44829 1152.000
29.46823 1208.000
29.48818 1222.000
29.50813 1152.000
29.52808 1169.000
29.54802 1132.000
29.56797 1134.000
29.58792 1102.000
29.60786 1148.000
29.62781 1180.000
29.64776 1227.000
29.66770 1070.000
29.68765 1126.000
29.70760 1099.000
29.72755 1227.000
29.74749 1139.000
29.76744 1112.000
29.78739 1161.000
29.80733 1172.000
29.82728 1201.000
29.84723 1150.000
29.86717 1030.000
29.88712 1164.000
29.90707 1134.000
29.92701 1201.000
29.94696 1136.000
29.96691 1185.000
29.98686 1115.000
30.00680 1117.000
30.02675 1120.000
30.04670 1163.000
30.06664 1098.000
30.08659 1130.000
30.10654 1175.000
30.12648 1156.000
30.14643 1170.000
30.16638 1215.000
30.18633 1163.000
30.20627 1192.000
30.22622 1118.000
30.24617 1130.000
30.26611 1183.000
30.28606 1148.000
30.30601 1134.000
30.32595 1158.000
30.34590 1125.000
30.36585 1136.000
30.38579 1167.000
30.40574 1195.000
30.42569 1169.000
30.44564 1137.000
30.46558 1140.000
30.48553 1150.000
30.50548 1160.000
30.52542 1147.000
30.54537 1145.000
30.56532 1127.000
30.58526 1129.000
30.60521 1087.000
30.62516 1160.000
30.64511 1067.000
30.66505 1114.000
30.68500 1136.000
30.70495 1122.000
30.72489 1099.000
30.74484 1133.000
30.76479 1192.000
30.78473 1156.000
30.80468 1099.000
30.82463 1061.000
30.84458 1164.000
30.86452 1191.000
30.88447 1119.000
30.90442 1140.000
30.92436 1146.000
30.94431 1135.000
30.96426 1104.000
30.98420 1127.000
31.00415 1105.000
31.02410 1140.000
31.04404 1092.000
31.06399 1098.000
31.08394 1075.000
31.10389 1133.000
31.12383 1147.000
31.14378 1073.000
31.16373 1091.000
31.18367 1046.000
31.20362 1113.000
31.22357 1135.000
31.24351 1097.000
31.26346 1061.000
31.28341 1151.000
31.30336 1147.000
31.32330 1148.000
31.34325 1087.000
31.36320 1155.000
31.38314 1067.000
31.40309 1118.000
31.42304 1109.000
31.44298 1096.000
31.46293 1101.000
31.48288 1068.000
31.50282 1101.000
31.52277 1095.000
31.54272 1108.000
31.56267 1111.000
31.58261 1132.000
31.60256 1065.000
31.62251 1110.000
31.64245 1109.000
31.66240 1104.000
31.68235 1066.000
31.70229 1142.000
31.72224 1053.000
31.74219 1047.000
31.76214 1040.000
31.78208 1014.000
31.80203 1059.000
31.82198 1059.000
31.84192 1085.000
31.86187 1051.000
31.88182 1071.000
31.90176 1128.000
31.92171 1118.000
31.94166 1136.000
31.96160 1167.000
31.98155 1030.000
32.00150 1089.000
32.02145 1083.000
32.04139 1086.000
32.06134 1018.000
32.08129 1063.000
32.10123 1063.000
32.12118 1109.000
32.14113 1103.000
32.16107 1070.000
32.18102 1075.000
32.20097 1094.000
32.22092 1108.000
32.24086 1102.000
32.26081 1150.000
32.28076 1083.000
32.30070 1050.000
32.32065 1133.000
32.34060 1097.000
32.36054 1084.000
32.38049 1098.000
32.40044 1022.000
32.42039 1091.000
32.44033 1042.000
32.46028 1023.000
32.48023 1087.000
32.50017 1008.000
32.52012 1062.000
32.54007 1002.000
32.56001 1015.000
32.57996 1086.000
32.59991 1013.000
32.61985 982.000
32.63980 998.000
32.65975 1054.000
32.67970 981.000
32.69964 982.000
32.71959 1047.000
32.73954 1014.000
32.75948 1036.000
32.77943 963.000
32.79938 1015.000
32.81932 993.000
32.83927 987.000
32.85922 1005.000
32.87917 1021.000
32.89911 993.000
32.91906 1036.000
32.93901 941.000
32.95895 997.000
32.97890 977.000
32.99885 976.000
33.01879 1010.000
33.03874 986.000
33.05869 974.000
33.07863 1004.000
33.09858 935.000
33.11853 981.000
33.13848 933.000
33.15842 943.000
33.17837 1015.000
33.19832 918.000
33.21826 1055.000
33.23821 989.000
33.25816 962.000
33.27810 991.000
33.29805 977.000
33.31800 954.000
33.33795 951.000
33.35789 1020.000
33.37784 913.000
33.39779 982.000
33.41773 953.000
33.43768 979.000
33.45763 935.000
33.47757 999.000
33.49752 1012.000
33.51747 931.000
33.53741 929.000
33.55736 933.000
33.57731 979.000
33.59726 943.000
33.61720 926.000
33.63715 922.000
33.65710 972.000
33.67704 965.000
33.69699 975.000
33.71694 931.000
33.73688 925.000
33.75683 934.000
33.77678 927.000
33.79673 882.000
33.81667 945.000
33.83662 918.000
33.85657 1010.000
33.87651 882.000
33.89646 885.000
33.91641 900.000
33.93635 947.000
33.95630 921.000
33.97625 902.000
33.99620 959.000
34.01614 942.000
34.03609 936.000
34.05604 885.000
34.07598 968.000
34.09593 959.000
34.11588 936.000
34.13582 875.000
34.15577 874.000
34.17572 921.000
34.19566 902.000
34.21561 904.000
34.23556 881.000
34.25551 920.000
34.27545 862.000
34.29540 883.000
34.31535 917.000
34.33529 866.000
34.35524 966.000
34.37519 884.000
34.39513 852.000
34.41508 899.000
34.43503 874.000
34.45498 905.000
34.47492 896.000
34.49487 864.000
34.51482 856.000
34.53476 888.000
34.55471 899.000
34.57466 982.000
34.59460 898.000
34.61455 902.000
34.63450 881.000
34.65444 907.000
34.67439 915.000
34.69434 927.000
34.71429 935.000
34.73423 915.000
34.75418 880.000
34.77413 885.000
34.79407 895.000
34.81402 867.000
34.83397 979.000
34.85391 919.000
34.87386 862.000
34.89381 950.000
34.91376 986.000
34.93370 968.000
34.95365 1014.000
34.97360 978.000
34.99354 978.000
35.01349 983.000
35.03344 1030.000
35.05338 1025.000
35.07333 1115.000
35.09328 1115.000
35.11322 1177.000
35.13317 1208.000
35.15312 1194.000
35.17307 1311.000
35.19301 1438.000
35.21296 1421.000
35.23291 1482.000
35.25285 1486.000
35.27280 1561.000
35.29275 1680.000
35.31269 1686.000
35.33264 1663.000
35.35259 1723.000
35.37254 1700.000
35.39248 1581.000
35.41243 1522.000
35.43238 1348.000
35.45232 1388.000
35.47227 1250.000
35.49222 1143.000
35.51216 1038.000
35.53211 1019.000
35.55206 921.000
35.57201 931.000
35.59195 916.000
35.61190 940.000
35.63185 892.000
35.65179 872.000
35.67174 876.000
35.69169 887.000
35.71163 856.000
35.73158 863.000
35.75153 849.000
35.77147 898.000
35.79142 834.000
35.81137 803.000
35.83132 883.000
35.85126 811.000
35.87121 809.000
35.89116 832.000
35.91110 809.000
35.93105 830.000
35.95100 801.000
35.97094 836.000
35.99089 823.000
36.01084 917.000
36.03079 800.000
36.05073 810.000
36.07068 815.000
36.09063 819.000
36.11057 833.000
36.13052 834.000
36.15047 802.000
36.17041 797.000
36.19036 873.000
36.21031 883.000
36.23025 805.000
36.25020 822.000
36.27015 841.000
36.29010 890.000
36.31004 844.000
36.32999 822.000
36.34994 849.000
36.36988 812.000
36.38983 841.000
36.40978 887.000
36.42972 791.000
36.44967 826.000
36.46962 845.000
36.48957 924.000
36.50951 1018.000
36.52946 965.000
36.54941 1116.000
36.56935 1035.000
36.58930 1110.000
36.60925 1081.000
36.62919 1118.000
36.64914 1077.000
36.66909 1160.000
36.68903 1142.000
36.70898 1194.000
36.72893 1306.000
36.74888 1332.000
36.76882 1464.000
36.78877 1665.000
36.80872 1968.000
36.82866 2284.000
36.84861 2666.000
36.86856 2983.000
36.88850 3426.000
36.90845 3704.000
36.92840 3467.000
36.94835 3061.000
36.96829 2720.000
36.98824 2422.000
37.00819 2191.000
37.02813 1919.000
37.04808 1638.000
37.06803 1295.000
37.08797 1098.000
37.10792 1020.000
37.12787 971.000
37.14781 907.000
37.16776 886.000
37.18771 876.000
37.20766 894.000
37.22760 873.000
37.24755 840.000
37.26750 841.000
37.28744 865.000
37.30739 810.000
37.32734 860.000
37.34728 798.000
37.36723 837.000
37.38718 767.000
37.40713 813.000
37.42707 843.000
37.44702 809.000
37.46697 788.000
37.48691 819.000
37.50686 791.000
37.52681 786.000
37.54675 807.000
37.56670 731.000
37.58665 836.000
37.60660 737.000
37.62654 813.000
37.64649 802.000
37.66644 835.000
37.68638 753.000
37.70633 794.000
37.72628 784.000
37.74622 837.000
37.76617 796.000
37.78612 847.000
37.80606 848.000
37.82601 821.000
37.84596 814.000
37.86591 827.000
37.88585 851.000
37.90580 868.000
37.92575 841.000
37.94569 867.000
37.96564 841.000
37.98559 858.000
38.00553 927.000
38.02548 856.000
38.04543 887.000
38.06538 892.000
38.08532 904.000
38.10527 918.000
38.12522 946.000
38.14516 956.000
38.16511 1037.000
38.18506 1027.000
38.20500 1013.000
38.22495 1005.000
38.24490 1033.000
38.26484 1107.000
38.28479 1154.000
38.30474 1250.000
38.32469 1282.000
38.34463 1369.000
38.36458 1430.000
38.38453 1508.000
38.40447 1543.000
38.42442 1680.000
38.44437 1655.000
38.46431 1601.000
38.48426 1660.000
38.50421 1564.000
38.52416 1578.000
38.54410 1471.000
38.56405 1404.000
38.58400 1250.000
38.60394 1180.000
38.62389 1165.000
38.64384 1051.000
38.66378 996.000
38.68373 1021.000
38.70368 957.000
38.72362 1045.000
38.74357 990.000
38.76352 993.000
38.78347 1005.000
38.80341 1032.000
38.82336 968.000
38.84331 970.000
38.86325 998.000
38.88320 946.000
38.90315 945.000
38.92309 956.000
38.94304 892.000
38.96299 900.000
38.98294 909.000
39.00288 866.000
39.02283 832.000
39.04278 875.000
39.06272 839.000
39.08267 851.000
39.10262 831.000
39.12256 816.000
39.14251 836.000
39.16246 798.000
39.18241 825.000
39.20235 845.000
39.22230 820.000
39.24225 778.000
39.26219 804.000
39.28214 760.000
39.30209 785.000
39.32203 727.000
39.34198 753.000
39.36193 775.000
39.38187 788.000
39.40182 750.000
39.42177 784.000
39.44172 756.000
39.46166 806.000
39.48161 797.000
39.50156 791.000
39.52150 777.000
39.54145 768.000
39.56140 705.000
39.58134 805.000
39.60129 792.000
39.62124 807.000
39.64119 788.000
39.66113 784.000
39.68108 790.000
39.70103 740.000
39.72097 740.000
39.74092 754.000
39.76087 761.000
39.78081 764.000
39.80076 727.000
39.82071 787.000
39.84065 845.000
39.86060 785.000
39.88055 787.000
39.90050 720.000
39.92044 815.000
39.94039 815.000
39.96034 721.000
39.98028 769.000
40.00023 781.000
40.02018 783.000
40.04012 836.000
40.06007 744.000
40.08002 783.000
40.09997 775.000
40.11991 779.000
40.13986 781.000
40.15981 732.000
40.17975 744.000
40.19970 850.000
40.21965 764.000
40.23959 739.000
40.25954 704.000
40.27949 787.000
40.29943 750.000
40.31938 769.000
40.33933 815.000
40.35928 747.000
40.37922 772.000
40.39917 767.000
40.41912 777.000
40.43906 768.000
40.45901 779.000
40.47896 789.000
40.49890 774.000
40.51885 734.000
40.53880 785.000
40.55875 774.000
40.57869 815.000
40.59864 762.000
40.61859 805.000
40.63853 756.000
40.65848 786.000
40.67843 785.000
40.69837 744.000
40.71832 795.000
40.73827 807.000
40.75822 711.000
40.77816 787.000
40.79811 746.000
40.81806 803.000
40.83800 776.000
40.85795 758.000
40.87790 768.000
40.89784 807.000
40.91779 796.000
40.93774 764.000
40.95768 798.000
40.97763 796.000
40.99758 768.000
41.01753 786.000
41.03747 767.000
41.05742 729.000
41.07737 764.000
41.09731 768.000
41.11726 821.000
41.13721 823.000
41.15715 763.000
41.17710 770.000
41.19705 744.000
41.21700 783.000
41.23694 831.000
41.25689 793.000
41.27684 799.000
41.29678 770.000
41.31673 739.000
41.33668 778.000
41.35662 772.000
41.37657 825.000
41.39652 746.000
41.41646 799.000
41.43641 733.000
41.45636 821.000
41.47631 788.000
41.49625 755.000
41.51620 780.000
41.53615 782.000
41.55609 765.000
41.57604 773.000
41.59599 767.000
41.61593 805.000
41.63588 740.000
41.65583 774.000
41.67578 808.000
41.69572 776.000
41.71567 766.000
41.73562 739.000
41.75556 775.000
41.77551 825.000
41.79546 843.000
41.81540 765.000
41.83535 815.000
41.85530 714.000
41.87524 743.000
41.89519 840.000
41.91514 751.000
41.93509 812.000
41.95503 792.000
41.97498 771.000
41.99493 813.000
42.01487 750.000
42.03482 796.000
42.05477 819.000
42.07471 766.000
42.09466 864.000
42.11461 820.000
42.13456 808.000
42.15450 854.000
42.17445 852.000
42.19440 842.000
42.21434 846.000
42.23429 844.000
42.25424 851.000
42.27418 893.000
42.29413 857.000
42.31408 920.000
42.33403 882.000
42.35397 930.000
42.37392 970.000
42.39387 982.000
42.41381 962.000
42.43376 991.000
42.45371 977.000
42.47365 1064.000
42.49360 1125.000
42.51355 1168.000
42.53349 1200.000
42.55344 1281.000
42.57339 1307.000
42.59334 1378.000
42.61328 1460.000
42.63323 1468.000
42.65318 1590.000
42.67312 1667.000
42.69307 1757.000
42.71302 1825.000
42.73296 1987.000
42.75291 2189.000
42.77286 2202.000
42.79281 2291.000
42.81275 2469.000
42.83270 2616.000
42.85265 2740.000
42.87259 2731.000
42.89254 2811.000
42.91249 2922.000
42.93243 2866.000
42.95238 2842.000
42.97233 2677.000
42.99227 2566.000
43.01222 2352.000
43.03217 2352.000
43.05212 2231.000
43.07206 2115.000
43.09201 1970.000
43.11196 1850.000
43.13190 1757.000
43.15185 1544.000
43.17180 1430.000
43.19174 1386.000
43.21169 1269.000
43.23164 1261.000
43.25159 1195.000
43.27153 1178.000
43.29148 1117.000
43.31143 1035.000
43.33137 999.000
43.35132 946.000
43.37127 917.000
43.39121 914.000
43.41116 846.000
43.43111 856.000
43.45105 852.000
43.47100 825.000
43.49095 824.000
43.51090 850.000
43.53084 797.000
43.55079 774.000
43.57074 763.000
43.59068 800.000
43.61063 766.000
43.63058 802.000
43.65052 746.000
43.67047 715.000
43.69042 772.000
43.71037 757.000
43.73031 738.000
43.75026 733.000
43.77021 717.000
43.79015 747.000
43.81010 786.000
43.83005 725.000
43.84999 778.000
43.86994 683.000
43.88989 688.000
43.90984 750.000
43.92978 667.000
43.94973 740.000
43.96968 714.000
43.98962 715.000
44.00957 707.000
44.02952 652.000
44.04946 748.000
44.06941 719.000
44.08936 638.000
44.10930 727.000
44.12925 685.000
44.14920 691.000
44.16915 650.000
44.18909 688.000
44.20904 687.000
44.22899 657.000
44.24893 642.000
44.26888 651.000
44.28883 689.000
44.30877 682.000
44.32872 682.000
44.34867 709.000
44.36862 654.000
44.38856 669.000
44.40851 649.000
44.42846 654.000
44.44840 660.000
44.46835 650.000
44.48830 639.000
44.50824 671.000
44.52819 729.000
44.54814 670.000
44.56808 658.000
44.58803 681.000
44.60798 607.000
44.62793 639.000
44.64787 656.000
44.66782 616.000
44.68777 663.000
44.70771 651.000
44.72766 696.000
44.74761 614.000
44.76755 646.000
44.78750 661.000
44.80745 729.000
44.82740 689.000
44.84734 635.000
44.86729 729.000
44.88724 659.000
44.90718 701.000
44.92713 622.000
44.94708 664.000
44.96702 601.000
44.98697 632.000
45.00692 627.000
45.02686 620.000
45.04681 656.000
45.06676 643.000
45.08671 682.000
45.10665 634.000
45.12660 599.000
45.14655 569.000
45.16649 634.000
45.18644 626.000
45.20639 595.000
45.22633 656.000
45.24628 653.000
45.26623 614.000
45.28618 630.000
45.30612 605.000
45.32607 652.000
45.34602 593.000
45.36596 625.000
45.38591 626.000
45.40586 625.000
45.42580 606.000
45.44575 659.000
45.46570 661.000
45.48565 632.000
45.50559 602.000
45.52554 650.000
45.54549 650.000
45.56543 654.000
45.58538 623.000
45.60533 583.000
45.62527 630.000
45.64522 626.000
45.66517 669.000
45.68511 623.000
45.70506 612.000
45.72501 633.000
45.74496 603.000
45.76490 612.000
45.78485 605.000
45.80480 604.000
45.82474 632.000
45.84469 628.000
45.86464 617.000
45.88458 623.000
45.90453 620.000
45.92448 604.000
45.94443 606.000
45.96437 632.000
45.98432 633.000
46.00427 603.000
46.02421 626.000
46.04416 641.000
46.06411 622.000
46.08405 592.000
46.10400 688.000
46.12395 626.000
46.14389 611.000
46.16384 629.000
46.18379 614.000
46.20374 622.000
46.22368 632.000
46.24363 655.000
46.26358 611.000
46.28352 562.000
46.30347 689.000
46.32342 616.000
46.34336 609.000
46.36331 626.000
46.38326 623.000
46.40321 585.000
46.42315 618.000
46.44310 568.000
46.46305 626.000
46.48299 602.000
46.50294 577.000
46.52289 634.000
46.54283 579.000
46.56278 601.000
46.58273 573.000
46.60267 623.000
46.62262 639.000
46.64257 657.000
46.66252 557.000
46.68246 585.000
46.70241 634.000
46.72236 542.000
46.74230 605.000
46.76225 549.000
46.78220 591.000
46.80214 640.000
46.82209 602.000
46.84204 616.000
46.86199 595.000
46.88193 628.000
46.90188 632.000
46.92183 604.000
46.94177 625.000
46.96172 594.000
46.98167 578.000
47.00161 600.000
47.02156 561.000
47.04151 614.000
47.06146 573.000
47.08140 599.000
47.10135 545.000
47.12130 613.000
47.14124 570.000
47.16119 553.000
47.18114 566.000
47.20108 594.000
47.22103 562.000
47.24098 632.000
47.26092 596.000
47.28087 544.000
47.30082 571.000
47.32077 610.000
47.34071 601.000
47.36066 591.000
47.38061 582.000
47.40055 553.000
47.42050 599.000
47.44045 557.000
47.46039 562.000
47.48034 576.000
47.50029 558.000
47.52024 568.000
47.54018 598.000
47.56013 598.000
47.58008 581.000
47.60002 539.000
47.61997 544.000
47.63992 579.000
47.65986 582.000
47.67981 562.000
47.69976 520.000
47.71970 604.000
47.73965 591.000
47.75960 570.000
47.77955 548.000
47.79949 594.000
47.81944 561.000
47.83939 539.000
47.85933 590.000
47.87928 576.000
47.89923 563.000
47.91917 551.000
47.93912 586.000
47.95907 610.000
47.97902 569.000
47.99896 577.000
48.01891 579.000
48.03886 561.000
48.05880 583.000
48.07875 583.000
48.09870 539.000
48.11864 614.000
48.13859 608.000
48.15854 582.000
48.17848 592.000
48.19843 582.000
48.21838 548.000
48.23833 626.000
48.25827 601.000
48.27822 582.000
48.29817 617.000
48.31811 600.000
48.33806 566.000
48.35801 581.000
48.37795 603.000
48.39790 635.000
48.41785 595.000
48.43780 580.000
48.45774 664.000
48.47769 628.000
48.49764 664.000
48.51758 657.000
48.53753 687.000
48.55748 706.000
48.57742 724.000
48.59737 695.000
48.61732 752.000
48.63726 772.000
48.65721 782.000
48.67716 790.000
48.69711 806.000
48.71705 770.000
48.73700 825.000
48.75695 815.000
48.77689 781.000
48.79684 779.000
48.81679 788.000
48.83673 825.000
48.85668 705.000
48.87663 746.000
48.89658 691.000
48.91652 668.000
48.93647 720.000
48.95642 682.000
48.97636 699.000
48.99631 639.000
49.01626 594.000
49.03620 604.000
49.05615 602.000
49.07610 576.000
49.09605 601.000
49.11599 579.000
49.13594 568.000
49.15589 576.000
49.17583 565.000
49.19578 546.000
49.21573 590.000
49.23567 585.000
49.25562 577.000
49.27557 542.000
49.29551 599.000
49.31546 538.000
49.33541 572.000
49.35536 561.000
49.37530 533.000
49.39525 552.000
49.41520 519.000
49.43514 565.000
49.45509 561.000
49.47504 522.000
49.49498 575.000
49.51493 504.000
49.53488 581.000
49.55483 582.000
49.57477 611.000
49.59472 538.000
49.61467 566.000
49.63461 568.000
49.65456 587.000
49.67451 568.000
49.69445 545.000
49.71440 534.000
49.73435 568.000
49.75429 544.000
49.77424 527.000
49.79419 577.000
49.81414 534.000
49.83408 532.000
49.85403 592.000
49.87398 510.000
49.89392 524.000
49.91387 534.000
49.93382 582.000
49.95376 513.000
49.97371 529.000
49.99366 562.000
50.01361 564.000
50.03355 538.000
50.05350 511.000
50.07345 553.000
50.09339 555.000
50.11334 575.000
50.13329 548.000
50.15323 573.000
50.17318 524.000
50.19313 573.000
50.21307 578.000
50.23302 582.000
50.25297 552.000
50.27292 531.000
50.29286 545.000
50.31281 539.000
50.33276 567.000
50.35270 554.000
50.37265 542.000
50.39260 578.000
50.41254 552.000
50.43249 534.000
50.45244 557.000
50.47239 579.000
50.49233 542.000
50.51228 533.000
50.53223 571.000
50.55217 564.000
50.57212 572.000
50.59207 548.000
50.61201 501.000
50.63196 545.000
50.65191 532.000
50.67186 492.000
50.69180 587.000
50.71175 567.000
50.73170 553.000
50.75164 575.000
50.77159 529.000
50.79154 504.000
50.81148 558.000
50.83143 538.000
50.85138 553.000
50.87132 546.000
50.89127 576.000
50.91122 539.000
50.93117 511.000
50.95111 536.000
50.97106 516.000
50.99101 504.000
51.01095 565.000
51.03090 526.000
51.05085 532.000
51.07079 573.000
51.09074 551.000
51.11069 534.000
51.13064 536.000
51.15058 560.000
51.17053 545.000
51.19048 525.000
51.21042 520.000
51.23037 551.000
51.25032 522.000
51.27026 549.000
51.29021 574.000
51.31016 535.000
51.33010 534.000
51.35005 534.000
51.37000 532.000
51.38995 497.000
51.40989 581.000
51.42984 522.000
51.44979 536.000
51.46973 527.000
51.48968 493.000
51.50963 526.000
51.52957 506.000
51.54952 538.000
51.56947 542.000
51.58942 589.000
51.60936 558.000
51.62931 545.000
51.64926 539.000
51.66920 511.000
51.68915 523.000
51.70910 499.000
51.72904 540.000
51.74899 512.000
51.76894 513.000
51.78888 504.000
51.80883 539.000
51.82878 509.000
51.84873 532.000
51.86867 527.000
51.88862 459.000
51.90857 528.000
51.92851 515.000
51.94846 520.000
51.96841 527.000
51.98835 503.000
52.00830 518.000
52.02825 522.000
52.04820 494.000
52.06814 510.000
52.08809 532.000
52.10804 505.000
52.12798 531.000
52.14793 526.000
52.16788 530.000
52.18782 554.000
52.20777 528.000
52.22772 513.000
52.24767 570.000
52.26761 533.000
52.28756 552.000
52.30751 520.000
52.32745 557.000
52.34740 552.000
52.36735 541.000
52.38729 480.000
52.40724 509.000
52.42719 588.000
52.44713 554.000
52.46708 530.000
52.48703 514.000
52.50698 508.000
52.52692 553.000
52.54687 524.000
52.56682 545.000
52.58676 537.000
52.60671 538.000
52.62666 518.000
52.64660 564.000
52.66655 522.000
52.68650 541.000
52.70645 508.000
52.72639 584.000
52.74634 553.000
52.76629 567.000
52.78623 513.000
52.80618 569.000
52.82613 561.000
52.84607 536.000
52.86602 543.000
52.88597 590.000
52.90591 556.000
52.92586 552.000
52.94581 547.000
52.96576 595.000
52.98570 541.000
53.00565 553.000
53.02560 529.000
53.04554 578.000
53.06549 564.000
53.08544 544.000
53.10538 551.000
53.12533 567.000
53.14528 587.000
53.16523 600.000
53.18517 591.000
53.20512 577.000
53.22507 611.000
53.24501 624.000
53.26496 570.000
53.28491 585.000
53.30485 567.000
53.32480 585.000
53.34475 564.000
53.36469 555.000
53.38464 529.000
53.40459 582.000
53.42454 549.000
53.44448 533.000
53.46443 547.000
53.48438 523.000
53.50432 545.000
53.52427 476.000
53.54422 520.000
53.56416 538.000
53.58411 523.000
53.60406 544.000
53.62401 524.000
53.64395 518.000
53.66390 547.000
53.68385 494.000
53.70379 515.000
53.72374 515.000
53.74369 509.000
53.76363 499.000
53.78358 531.000
53.80353 497.000
53.82348 546.000
53.84342 543.000
53.86337 509.000
53.88332 542.000
53.90326 524.000
53.92321 497.000
53.94316 460.000
53.96310 544.000
53.98305 504.000
54.00300 510.000
54.02294 515.000
54.04289 532.000
54.06284 509.000
54.08279 487.000
54.10273 538.000
54.12268 491.000
54.14263 508.000
54.16257 496.000
54.18252 497.000
54.20247 551.000
54.22241 522.000
54.24236 488.000
54.26231 488.000
54.28226 537.000
54.30220 551.000
54.32215 517.000
54.34210 558.000
54.36204 497.000
54.38199 520.000
54.40194 498.000
54.42188 536.000
54.44183 499.000
54.46178 513.000
54.48172 517.000
54.50167 497.000
54.52162 517.000
54.54157 481.000
54.56151 526.000
54.58146 534.000
54.60141 508.000
54.62135 532.000
54.64130 509.000
54.66125 480.000
54.68119 522.000
54.70114 554.000
54.72109 540.000
54.74104 493.000
54.76098 485.000
54.78093 501.000
54.80088 526.000
54.82082 524.000
54.84077 497.000
54.86072 526.000
54.88066 482.000
54.90061 523.000
54.92056 532.000
54.94050 521.000
54.96045 488.000
54.98040 508.000
55.00035 489.000
55.02029 503.000
55.04024 500.000
55.06019 498.000
55.08013 518.000
55.10008 533.000
55.12003 499.000
55.13997 507.000
55.15992 502.000
55.17987 480.000
55.19982 508.000
55.21976 499.000
55.23971 500.000
55.25966 526.000
55.27960 515.000
55.29955 469.000
55.31950 504.000
55.33944 500.000
55.35939 467.000
55.37934 497.000
55.39929 459.000
55.41923 523.000
55.43918 504.000
55.45913 533.000
55.47907 507.000
55.49902 513.000
55.51897 517.000
55.53891 556.000
55.55886 503.000
55.57881 529.000
55.59875 506.000
55.61870 465.000
55.63865 501.000
55.65860 477.000
55.67854 466.000
55.69849 528.000
55.71844 506.000
55.73838 527.000
55.75833 544.000
55.77828 483.000
55.79822 495.000
55.81817 478.000
55.83812 497.000
55.85807 486.000
55.87801 551.000
55.89796 505.000
55.91791 495.000
55.93785 508.000
55.95780 534.000
55.97775 481.000
55.99769 449.000
56.01764 497.000
56.03759 526.000
56.05753 492.000
56.07748 519.000
56.09743 455.000
56.11738 516.000
56.13732 485.000
56.15727 535.000
56.17722 475.000
56.19716 511.000
56.21711 523.000
56.23706 512.000
56.25700 509.000
56.27695 514.000
56.29690 513.000
56.31685 510.000
56.33679 535.000
56.35674 509.000
56.37669 514.000
56.39663 477.000
56.41658 496.000
56.43653 502.000
56.45647 494.000
56.47642 495.000
56.49637 479.000
56.51631 499.000
56.53626 491.000
56.55621 431.000
56.57616 520.000
56.59610 536.000
56.61605 492.000
56.63600 507.000
56.65594 530.000
56.67589 553.000
56.69584 518.000
56.71578 420.000
56.73573 500.000
56.75568 528.000
56.77563 536.000
56.79557 509.000
56.81552 506.000
56.83547 485.000
56.85541 494.000
56.87536 493.000
56.89531 479.000
56.91525 511.000
56.93520 497.000
56.95515 512.000
56.97510 524.000
56.99504 534.000
57.01499 504.000
57.03494 494.000
57.05488 477.000
57.07483 490.000
57.09478 542.000
57.11472 498.000
57.13467 493.000
57.15462 505.000
57.17456 527.000
57.19451 517.000
57.21446 508.000
57.23441 512.000
57.25435 493.000
57.27430 530.000
57.29425 542.000
57.31419 526.000
57.33414 541.000
57.35409 503.000
57.37403 480.000
57.39398 506.000
57.41393 508.000
57.43388 506.000
57.45382 545.000
57.47377 504.000
57.49372 541.000
57.51366 533.000
57.53361 525.000
57.55356 497.000
57.57350 514.000
57.59345 541.000
57.61340 516.000
57.63334 558.000
57.65329 535.000
57.67324 528.000
57.69319 525.000
57.71313 528.000
57.73308 565.000
57.75303 515.000
57.77297 609.000
57.79292 521.000
57.81287 513.000
57.83281 562.000
57.85276 544.000
57.87271 581.000
57.89266 634.000
57.91260 588.000
57.93255 579.000
57.95250 622.000
57.97244 646.000
57.99239 620.000
58.01234 572.000
58.03228 627.000
58.05223 624.000
58.07218 605.000
58.09212 615.000
58.11207 618.000
58.13202 612.000
58.15197 576.000
58.17191 575.000
58.19186 607.000
58.21181 559.000
58.23175 547.000
58.25170 520.000
58.27165 503.000
58.29159 556.000
58.31154 529.000
58.33149 513.000
58.35144 527.000
58.37138 531.000
58.39133 545.000
58.41128 483.000
58.43122 492.000
58.45117 495.000
58.47112 497.000
58.49106 543.000
58.51101 552.000
58.53096 476.000
58.55090 472.000
58.57085 508.000
58.59080 512.000
58.61075 494.000
58.63069 496.000
58.65064 530.000
58.67059 477.000
58.69053 503.000
58.71048 517.000
58.73043 489.000
58.75037 462.000
58.77032 490.000
58.79027 522.000
58.81022 513.000
58.83016 521.000
58.85011 518.000
58.87006 493.000
58.89000 515.000
58.90995 460.000
58.92990 494.000
58.94984 502.000
58.96979 476.000
58.98974 478.000
59.00969 476.000
59.02963 474.000
59.04958 504.000
59.06953 486.000
59.08947 480.000
59.10942 511.000
59.12937 506.000
59.14931 549.000
59.16926 525.000
59.18921 513.000
59.20915 470.000
59.22910 491.000
59.24905 526.000
59.26900 497.000
59.28894 454.000
59.30889 496.000
59.32884 501.000
59.34878 507.000
59.36873 454.000
59.38868 502.000
59.40862 502.000
59.42857 457.000
59.44852 466.000
59.46847 519.000
59.48841 485.000
59.50836 493.000
59.52831 492.000
59.54825 534.000
59.56820 456.000
59.58815 466.000
59.60809 523.000
59.62804 521.000
59.64799 543.000
59.66793 496.000
59.68788 505.000
59.70783 505.000
59.72778 456.000
59.74772 507.000
59.76767 515.000
59.78762 517.000
59.80756 494.000
59.82751 531.000
59.84746 486.000
59.86740 509.000
59.88735 506.000
59.90730 494.000
59.92725 486.000
59.94719 496.000
59.96714 487.000
59.98709 488.000
60.00703 508.000
60.02698 545.000
60.04693 512.000
60.06687 509.000
60.08682 494.000
60.10677 497.000
60.12671 541.000
60.14666 452.000
60.16661 483.000
60.18656 509.000
60.20650 484.000
60.22645 489.000
60.24640 515.000
60.26634 521.000
60.28629 444.000
60.30624 476.000
60.32618 481.000
60.34613 452.000
60.36608 498.000
60.38603 487.000
60.40597 550.000
60.42592 477.000
60.44587 515.000
60.46581 522.000
60.48576 497.000
60.50571 492.000
60.52565 479.000
60.54560 506.000
60.56555 484.000
60.58550 521.000
60.60544 484.000
60.62539 542.000
60.64534 520.000
60.66528 522.000
60.68523 488.000
60.70518 488.000
60.72512 486.000
60.74507 477.000
60.76502 507.000
60.78496 485.000
60.80491 542.000
60.82486 510.000
60.84481 517.000
60.86475 515.000
60.88470 544.000
60.90465 516.000
60.92459 554.000
60.94454 521.000
60.96449 551.000
60.98443 590.000
61.00438 491.000
61.02433 532.000
61.04428 578.000
61.06422 576.000
61.08417 571.000
61.10412 585.000
61.12406 543.000
61.14401 564.000
61.16396 580.000
61.18390 624.000
61.20385 635.000
61.22380 566.000
61.24374 622.000
61.26369 640.000
61.28364 647.000
61.30359 674.000
61.32353 708.000
61.34348 700.000
61.36343 675.000
61.38337 713.000
61.40332 731.000
61.42327 756.000
61.44321 698.000
61.46316 663.000
61.48311 693.000
61.50306 687.000
61.52300 709.000
61.54295 643.000
61.56290 697.000
61.58284 638.000
61.60279 698.000
61.62274 666.000
61.64268 608.000
61.66263 601.000
61.68258 621.000
61.70252 623.000
61.72247 600.000
61.74242 613.000
61.76237 630.000
61.78231 603.000
61.80226 668.000
61.82221 644.000
61.84215 625.000
61.86210 627.000
61.88205 716.000
61.90199 698.000
61.92194 719.000
61.94189 773.000
61.96184 785.000
61.98178 788.000
62.00173 812.000
62.02168 758.000
62.04162 811.000
62.06157 883.000
62.08152 879.000
62.10146 970.000
62.12141 930.000
62.14136 1024.000
62.16131 1059.000
62.18125 1088.000
62.20120 1190.000
62.22115 1192.000
62.24109 1239.000
62.26104 1359.000
62.28099 1384.000
62.30093 1511.000
62.32088 1550.000
62.34083 1684.000
62.36077 1773.000
62.38072 1691.000
62.40067 1798.000
62.42062 1830.000
62.44056 1786.000
62.46051 1779.000
62.48046 1682.000
62.50040 1687.000
62.52035 1604.000
62.54030 1539.000
62.56024 1423.000
62.58019 1367.000
62.60014 1349.000
62.62009 1243.000
62.64003 1148.000
62.65998 1080.000
62.67993 993.000
62.69987 978.000
62.71982 917.000
62.73977 860.000
62.75971 786.000
62.77966 748.000
62.79961 695.000
62.81955 697.000
62.83950 685.000
62.85945 644.000
62.87940 639.000
62.89934 608.000
62.91929 585.000
62.93924 604.000
62.95918 590.000
62.97913 550.000
62.99908 569.000
63.01902 547.000
63.03897 591.000
63.05892 534.000
63.07887 586.000
63.09881 532.000
63.11876 540.000
63.13871 505.000
63.15865 549.000
63.17860 550.000
63.19855 535.000
63.21849 496.000
63.23844 511.000
63.25839 521.000
63.27833 561.000
63.29828 484.000
63.31823 513.000
63.33818 520.000
63.35812 493.000
63.37807 534.000
63.39802 523.000
63.41796 533.000
63.43791 513.000
63.45786 516.000
63.47780 512.000
63.49775 504.000
63.51770 493.000
63.53765 507.000
63.55759 550.000
63.57754 484.000
63.59749 504.000
63.61743 464.000
63.63738 478.000
63.65733 527.000
63.67727 489.000
63.69722 469.000
63.71717 494.000
63.73712 504.000
63.75706 515.000
63.77701 511.000
63.79696 489.000
63.81690 495.000
63.83685 525.000
63.85680 512.000
63.87674 514.000
63.89669 499.000
63.91664 528.000
63.93658 450.000
63.95653 481.000
63.97648 492.000
63.99643 485.000
64.01637 453.000
64.03632 476.000
64.05627 484.000
64.07621 507.000
64.09616 508.000
64.11611 477.000
64.13605 514.000
64.15600 478.000
64.17595 526.000
64.19590 469.000
64.21584 499.000
64.23579 490.000
64.25574 524.000
64.27568 496.000
64.29563 507.000
64.31558 523.000
64.33552 523.000
64.35547 496.000
64.37542 538.000
64.39536 504.000
64.41531 506.000
64.43526 463.000
64.45521 477.000
64.47515 481.000
64.49510 491.000
64.51505 490.000
64.53499 534.000
64.55494 515.000
64.57489 544.000
64.59483 481.000
64.61478 493.000
64.63473 529.000
64.65468 469.000
64.67462 468.000
64.69457 460.000
64.71452 494.000
64.73446 531.000
64.75441 463.000
64.77436 482.000
64.79430 521.000
64.81425 490.000
64.83420 511.000
64.85414 535.000
64.87409 521.000
64.89404 498.000
64.91399 501.000
64.93393 510.000
64.95388 514.000
64.97383 536.000
64.99377 500.000
65.01372 522.000
65.03367 539.000
65.05361 561.000
65.07356 530.000
65.09351 530.000
65.11346 524.000
65.13340 563.000
65.15335 563.000
65.17330 562.000
65.19324 522.000
65.21319 539.000
65.23314 543.000
65.25308 547.000
65.27303 509.000
65.29298 558.000
65.31293 582.000
65.33287 585.000
65.35282 577.000
65.37277 573.000
65.39271 580.000
65.41266 606.000
65.43261 613.000
65.45255 568.000
65.47250 561.000
65.49245 524.000
65.51239 589.000
65.53234 576.000
65.55229 586.000
65.57224 559.000
65.59218 608.000
65.61213 544.000
65.63208 537.000
65.65202 546.000
65.67197 576.000
65.69192 543.000
65.71186 563.000
65.73181 547.000
65.75176 570.000
65.77171 561.000
65.79165 572.000
65.81160 557.000
65.83155 596.000
65.85149 524.000
65.87144 519.000
65.89139 545.000
65.91133 555.000
65.93128 543.000
65.95123 544.000
65.97117 555.000
65.99112 537.000
66.01107 575.000
66.03102 572.000
66.05096 547.000
66.07091 575.000
66.09086 541.000
66.11080 592.000
66.13075 595.000
66.15070 600.000
66.17064 613.000
66.19059 632.000
66.21054 632.000
66.23049 601.000
66.25043 620.000
66.27038 631.000
66.29033 630.000
66.31027 562.000
66.33022 604.000
66.35017 628.000
66.37011 570.000
66.39006 564.000
66.41001 612.000
66.42995 554.000
66.44990 562.000
66.46985 574.000
66.48980 601.000
66.50974 531.000
66.52969 500.000
66.54964 531.000
66.56958 505.000
66.58953 504.000
66.60948 494.000
66.62942 501.000
66.64937 494.000
66.66932 500.000
66.68927 495.000
66.70921 506.000
66.72916 494.000
66.74911 503.000
66.76905 518.000
66.78900 483.000
66.80895 448.000
66.82889 446.000
66.84884 541.000
66.86879 537.000
66.88874 497.000
66.90868 498.000
66.92863 487.000
66.94858 476.000
66.96852 448.000
66.98847 505.000
67.00842 497.000
67.02836 503.000
67.04831 528.000
67.06826 498.000
67.08820 535.000
67.10815 495.000
67.12810 538.000
67.14805 492.000
67.16799 483.000
67.18794 549.000
67.20789 534.000
67.22783 579.000
67.24778 532.000
67.26773 507.000
67.28767 523.000
67.30762 545.000
67.32757 532.000
67.34752 553.000
67.36746 560.000
67.38741 544.000
67.40736 559.000
67.42730 586.000
67.44725 560.000
67.46720 547.000
67.48714 606.000
67.50709 563.000
67.52704 607.000
67.54698 603.000
67.56693 585.000
67.58688 554.000
67.60683 569.000
67.62677 579.000
67.64672 626.000
67.66667 655.000
67.68661 593.000
67.70656 633.000
67.72651 578.000
67.74645 632.000
67.76640 647.000
67.78635 700.000
67.80630 620.000
67.82624 618.000
67.84619 603.000
67.86614 603.000
67.88608 577.000
67.90603 566.000
67.92598 613.000
67.94592 641.000
67.96587 573.000
67.98582 566.000
68.00576 580.000
68.02571 553.000
68.04566 524.000
68.06561 552.000
68.08555 530.000
68.10550 532.000
68.12545 513.000
68.14539 524.000
68.16534 535.000
68.18529 496.000
68.20523 492.000
68.22518 511.000
68.24513 489.000
68.26508 501.000
68.28502 476.000
68.30497 500.000
68.32492 500.000
68.34486 496.000
68.36481 485.000
68.38476 476.000
68.40470 479.000
68.42465 475.000
68.44460 490.000
68.46455 461.000
68.48449 477.000
68.50444 482.000
68.52439 475.000
68.54433 481.000
68.56428 489.000
68.58423 492.000
68.60417 498.000
68.62412 447.000
68.64407 457.000
68.66401 461.000
68.68396 465.000
68.70391 449.000
68.72386 431.000
68.74380 480.000
68.76375 456.000
68.78370 449.000
68.80364 520.000
68.82359 423.000
68.84354 433.000
68.86348 449.000
68.88343 447.000
68.90338 495.000
68.92333 475.000
68.94327 484.000
68.96322 511.000
68.98317 469.000
69.00311 469.000
69.02306 455.000
69.04301 446.000
69.06295 459.000
69.08290 482.000
69.10285 473.000
69.12279 460.000
69.14274 490.000
69.16269 473.000
69.18264 442.000
69.20258 479.000
69.22253 450.000
69.24248 486.000
69.26242 483.000
69.28237 503.000
69.30232 473.000
69.32226 485.000
69.34221 469.000
69.36216 477.000
69.38211 439.000
69.40205 457.000
69.42200 440.000
69.44195 462.000
69.46189 487.000
69.48184 493.000
69.50179 457.000
69.52173 493.000
69.54168 478.000
69.56163 468.000
69.58157 472.000
69.60152 489.000
69.62147 450.000
69.64142 433.000
69.66136 471.000
69.68131 488.000
69.70126 464.000
69.72120 493.000
69.74115 478.000
69.76110 470.000
69.78104 480.000
69.80099 457.000
69.82094 443.000
69.84089 467.000
69.86083 448.000
69.88078 474.000
69.90073 441.000
69.92067 430.000
69.94062 505.000
69.96057 444.000
69.98051 505.000
70.00046 472.000
70.02041 492.000
70.04035 476.000
70.06030 444.000
70.08025 477.000
70.10020 472.000
70.12014 433.000
70.14009 473.000
70.16004 489.000
70.17998 455.000
70.19993 475.000
70.21988 450.000
70.23982 481.000
70.25977 463.000
70.27972 476.000
70.29967 483.000
70.31961 460.000
70.33956 471.000
70.35951 452.000
70.37945 415.000
70.39940 483.000
70.41935 463.000
70.43929 474.000
70.45924 449.000
70.47919 440.000
70.49914 506.000
70.51908 443.000
70.53903 453.000
70.55898 505.000
70.57892 457.000
70.59887 501.000
70.61882 447.000
70.63876 450.000
70.65871 443.000
70.67866 420.000
70.69860 485.000
70.71855 464.000
70.73850 480.000
70.75845 443.000
70.77839 468.000
70.79834 473.000
70.81829 472.000
70.83823 470.000
70.85818 470.000
70.87813 477.000
70.89807 460.000
70.91802 468.000
70.93797 486.000
70.95792 460.000
70.97786 448.000
70.99781 489.000
71.01776 489.000
71.03770 465.000
71.05765 459.000
71.07760 480.000
71.09754 468.000
71.11749 462.000
71.13744 472.000
71.15738 498.000
71.17733 475.000
71.19728 483.000
71.21723 459.000
71.23717 500.000
71.25712 418.000
71.27707 475.000
71.29701 493.000
71.31696 461.000
71.33691 476.000
71.35685 481.000
71.37680 466.000
71.39675 451.000
71.41670 473.000
71.43664 505.000
71.45659 475.000
71.47654 481.000
71.49648 450.000
71.51643 461.000
71.53638 468.000
71.55632 447.000
71.57627 456.000
71.59622 448.000
71.61616 431.000
71.63611 503.000
71.65606 500.000
71.67601 438.000
71.69595 475.000
71.71590 472.000
71.73585 431.000
71.75579 436.000
71.77574 469.000
71.79569 498.000
71.81563 446.000
71.83558 497.000
71.85553 523.000
71.87548 465.000
71.89542 482.000
71.91537 459.000
71.93532 500.000
71.95526 476.000
71.97521 477.000
71.99516 467.000
72.01510 533.000
72.03505 505.000
72.05500 522.000
72.07495 524.000
72.09489 524.000
72.11484 555.000
72.13479 475.000
72.15473 517.000
72.17468 536.000
72.19463 535.000
72.21457 583.000
72.23452 543.000
72.25447 517.000
72.27441 529.000
72.29436 518.000
72.31431 497.000
72.33426 509.000
72.35420 488.000
72.37415 474.000
72.39410 464.000
72.41404 507.000
72.43399 514.000
72.45394 467.000
72.47388 466.000
72.49383 458.000
72.51378 474.000
72.53373 457.000
72.55367 468.000
72.57362 480.000
72.59357 444.000
72.61351 503.000
72.63346 494.000
72.65341 517.000
72.67335 454.000
72.69330 478.000
72.71325 447.000
72.73319 461.000
72.75314 488.000
72.77309 466.000
72.79304 458.000
72.81298 475.000
72.83293 420.000
72.85288 463.000
72.87282 461.000
72.89277 445.000
72.91272 498.000
72.93266 459.000
72.95261 442.000
72.97256 464.000
72.99251 493.000
73.01245 474.000
73.03240 485.000
73.05235 490.000
73.07229 450.000
73.09224 478.000
73.11219 460.000
73.13213 442.000
73.15208 466.000
73.17203 483.000
73.19197 441.000
73.21192 456.000
73.23187 436.000
73.25182 433.000
73.27176 454.000
73.29171 500.000
73.31166 497.000
73.33160 458.000
73.35155 523.000
73.37150 465.000
73.39144 481.000
73.41139 472.000
73.43134 466.000
73.45129 481.000
73.47123 483.000
73.49118 494.000
73.51113 485.000
73.53107 484.000
73.55102 461.000
73.57097 474.000
73.59091 488.000
73.61086 485.000
73.63081 520.000
73.65076 490.000
73.67070 465.000
73.69065 485.000
73.71060 486.000
73.73054 458.000
73.75049 455.000
73.77044 445.000
73.79038 481.000
73.81033 473.000
73.83028 504.000
73.85022 469.000
73.87017 469.000
73.89012 515.000
73.91007 480.000
73.93001 459.000
73.94996 486.000
73.96991 499.000
73.98985 509.000
74.00980 466.000
74.02975 507.000
74.04969 498.000
74.06964 500.000
74.08959 517.000
74.10954 541.000
74.12948 572.000
74.14943 527.000
74.16938 529.000
74.18932 525.000
74.20927 561.000
74.22922 543.000
74.24916 561.000
74.26911 546.000
74.28906 579.000
74.30900 531.000
74.32895 570.000
74.34890 525.000
74.36885 573.000
74.38879 603.000
74.40874 607.000
74.42869 578.000
74.44863 582.000
74.46858 663.000
74.48853 675.000
74.50847 703.000
74.52842 718.000
74.54837 689.000
74.56832 738.000
74.58826 728.000
74.60821 696.000
74.62816 761.000
74.64810 777.000
74.66805 799.000
74.68800 816.000
74.70794 834.000
74.72789 837.000
74.74784 817.000
74.76778 844.000
74.78773 942.000
74.80768 870.000
74.82763 902.000
74.84757 917.000
74.86752 961.000
74.88747 947.000
74.90741 981.000
74.92736 895.000
74.94731 899.000
74.96725 934.000
74.98720 883.000
75.00715 903.000
75.02710 836.000
75.04704 877.000
75.06699 805.000
75.08694 813.000
75.10688 853.000
75.12683 787.000
75.14678 755.000
75.16672 720.000
75.18667 768.000
75.20662 721.000
75.22657 708.000
75.24651 668.000
75.26646 632.000
75.28641 630.000
75.30635 604.000
75.32630 625.000
75.34625 580.000
75.36619 590.000
75.38614 599.000
75.40609 580.000
75.42603 561.000
75.44598 531.000
75.46593 556.000
75.48588 550.000
75.50582 548.000
75.52577 559.000
75.54572 501.000
75.56566 530.000
75.58561 521.000
75.60556 455.000
75.62550 499.000
75.64545 495.000
75.66540 480.000
75.68535 526.000
75.70529 468.000
75.72524 526.000
75.74519 498.000
75.76513 449.000
75.78508 469.000
75.80503 496.000
75.82497 474.000
75.84492 493.000
75.86487 517.000
75.88481 488.000
75.90476 471.000
75.92471 518.000
75.94466 497.000
75.96460 454.000
75.98455 432.000
76.00450 491.000
76.02444 452.000
76.04439 472.000
76.06434 491.000
76.08428 504.000
76.10423 464.000
76.12418 480.000
76.14413 476.000
76.16407 444.000
76.18402 469.000
76.20397 475.000
76.22391 459.000
76.24386 496.000
76.26381 463.000
76.28375 457.000
76.30370 468.000
76.32365 468.000
76.34359 491.000
76.36354 500.000
76.38349 435.000
76.40344 483.000
76.42338 520.000
76.44333 520.000
76.46328 459.000
76.48322 465.000
76.50317 523.000
76.52312 434.000
76.54306 449.000
76.56301 477.000
76.58296 425.000
76.60291 459.000
76.62285 451.000
76.64280 486.000
76.66275 486.000
76.68269 475.000
76.70264 479.000
76.72259 455.000
76.74253 449.000
76.76248 444.000
76.78243 444.000
76.80238 494.000
76.82232 473.000
76.84227 459.000
76.86222 459.000
76.88216 484.000
76.90211 470.000
76.92206 455.000
76.94200 459.000
76.96195 488.000
76.98190 428.000
77.00184 481.000
77.02179 477.000
77.04174 444.000
77.06169 468.000
77.08163 490.000
77.10158 484.000
77.12153 436.000
77.14147 451.000
77.16142 461.000
77.18137 455.000
77.20131 395.000
77.22126 496.000
77.24121 455.000
77.26116 453.000
77.28110 484.000
77.30105 468.000
77.32100 476.000
77.34094 453.000
77.36089 442.000
77.38084 492.000
77.40078 469.000
77.42073 507.000
77.44068 459.000
77.46062 449.000
77.48057 431.000
77.50052 453.000
77.52047 479.000
77.54041 452.000
77.56036 463.000
77.58031 426.000
77.60025 434.000
77.62020 432.000
77.64015 462.000
77.66009 463.000
77.68004 464.000
77.69999 466.000
77.71994 457.000
77.73988 467.000
77.75983 448.000
77.77978 454.000
77.79972 458.000
77.81967 454.000
77.83962 404.000
77.85956 435.000
77.87951 458.000
77.89946 475.000
77.91940 456.000
77.93935 459.000
77.95930 474.000
77.97925 502.000
77.99919 491.000
78.01914 502.000
78.03909 447.000
78.05903 463.000
78.07898 461.000
78.09893 470.000
78.11887 482.000
78.13882 459.000
78.15877 460.000
78.17872 483.000
78.19866 452.000
78.21861 460.000
78.23856 529.000
78.25850 557.000
78.27845 501.000
78.29840 498.000
78.31834 518.000
78.33829 503.000
78.35824 509.000
78.37819 475.000
78.39813 467.000
78.41808 541.000
78.43803 551.000
78.45797 555.000
78.47792 528.000
78.49787 553.000
78.51781 568.000
78.53776 591.000
78.55771 594.000
78.57765 545.000
78.59760 583.000
78.61755 600.000
78.63750 611.000
78.65744 621.000
78.67739 660.000
78.69734 653.000
78.71728 721.000
78.73723 736.000
78.75718 810.000
78.77712 772.000
78.79707 847.000
78.81702 978.000
78.83697 903.000
78.85691 908.000
78.87686 866.000
78.89681 824.000
78.91675 758.000
78.93670 756.000
78.95665 761.000
78.97659 698.000
78.99654 672.000
79.01649 724.000
79.03643 727.000
79.05638 706.000
79.07633 737.000
79.09628 706.000
79.11622 648.000
79.13617 671.000
79.15612 587.000
79.17606 536.000
79.19601 584.000
79.21596 542.000
79.23590 534.000
79.25585 467.000
79.27580 489.000
79.29575 541.000
79.31569 491.000
79.33564 493.000
79.35559 500.000
79.37553 482.000
79.39548 491.000
79.41543 502.000
79.43537 470.000
79.45532 454.000
79.47527 472.000
79.49521 476.000
79.51516 474.000
79.53511 430.000
79.55506 481.000
79.57500 477.000
79.59495 466.000
79.61490 477.000
79.63484 458.000
79.65479 469.000
79.67474 471.000
79.69468 494.000
79.71463 463.000
79.73458 482.000
79.75453 482.000
79.77447 459.000
79.79442 470.000
79.81437 480.000
79.83431 496.000
79.85426 454.000
79.87421 412.000
79.89415 463.000
79.91410 487.000
79.93405 494.000
79.95399 471.000
79.97394 503.000
79.99389 451.000
80.01384 491.000
80.03378 454.000
80.05373 453.000
80.07368 437.000
80.09362 452.000
80.11357 460.000
80.13352 469.000
80.15346 417.000
80.17341 489.000
80.19336 448.000
80.21331 471.000
80.23325 466.000
80.25320 476.000
80.27315 489.000
80.29309 447.000
80.31304 498.000
80.33299 493.000
80.35293 457.000
80.37288 464.000
80.39283 454.000
80.41278 451.000
80.43272 489.000
80.45267 451.000
80.47262 465.000
80.49256 498.000
80.51251 465.000
80.53246 458.000
80.55240 465.000
80.57235 513.000
80.59230 458.000
80.61224 477.000
80.63219 453.000
80.65214 471.000
80.67209 442.000
80.69203 497.000
80.71198 410.000
80.73193 454.000
80.75187 431.000
80.77182 441.000
80.79177 448.000
80.81171 461.000
80.83166 434.000
80.85161 449.000
80.87156 496.000
80.89150 420.000
80.91145 451.000
80.93140 490.000
80.95134 451.000
80.97129 451.000
80.99124 435.000
81.01118 478.000
81.03113 447.000
81.05108 469.000
81.07102 409.000
81.09097 466.000
81.11092 462.000
81.13087 462.000
81.15081 435.000
81.17076 463.000
81.19071 447.000
81.21065 445.000
81.23060 446.000
81.25055 468.000
81.27049 456.000
81.29044 476.000
81.31039 460.000
81.33034 467.000
81.35028 489.000
81.37023 450.000
81.39018 439.000
81.41012 460.000
81.43007 453.000
81.45002 446.000
81.46996 456.000
81.48991 452.000
81.50986 498.000
81.52980 504.000
81.54975 460.000
81.56970 489.000
81.58965 461.000
81.60959 445.000
81.62954 474.000
81.64949 406.000
81.66943 452.000
81.68938 471.000
81.70933 450.000
81.72927 432.000
81.74922 447.000
81.76917 422.000
81.78912 483.000
81.80906 443.000
81.82901 477.000
81.84896 426.000
81.86890 471.000
81.88885 448.000
81.90880 408.000
81.92874 440.000
81.94869 416.000
81.96864 426.000
81.98859 432.000
82.00853 472.000
82.02848 477.000
82.04843 455.000
82.06837 448.000
82.08832 476.000
82.10827 456.000
82.12821 448.000
82.14816 460.000
82.16811 479.000
82.18805 489.000
82.20800 445.000
82.22795 475.000
82.24790 472.000
82.26784 483.000
82.28779 498.000
82.30774 452.000
82.32768 456.000
82.34763 494.000
82.36758 529.000
82.38752 474.000
82.40747 522.000
82.42742 489.000
82.44737 488.000
82.46731 550.000
82.48726 542.000
82.50721 519.000
82.52715 518.000
82.54710 547.000
82.56705 537.000
82.58699 519.000
82.60694 505.000
82.62689 487.000
82.64683 514.000
82.66678 527.000
82.68673 512.000
82.70668 536.000
82.72662 505.000
82.74657 459.000
82.76652 521.000
82.78646 494.000
82.80641 489.000
82.82636 517.000
82.84630 458.000
82.86625 486.000
82.88620 436.000
82.90615 455.000
82.92609 493.000
82.94604 504.000
82.96599 496.000
82.98593 478.000
83.00588 502.000
83.02583 479.000
83.04577 477.000
83.06572 469.000
83.08567 465.000
83.10561 488.000
83.12556 474.000
83.14551 429.000
83.16546 437.000
83.18540 488.000
83.20535 440.000
83.22530 441.000
83.24524 451.000
83.26519 488.000
83.28514 496.000
83.30508 504.000
83.32503 489.000
83.34498 505.000
83.36493 510.000
83.38487 483.000
83.40482 482.000
83.42477 509.000
83.44471 476.000
83.46466 498.000
83.48461 482.000
83.50455 484.000
83.52450 506.000
83.54445 480.000
83.56440 455.000
83.58434 480.000
83.60429 453.000
83.62424 526.000
83.64418 441.000
83.66413 508.000
83.68408 451.000
83.70402 458.000
83.72397 460.000
83.74392 461.000
83.76386 465.000
83.78381 473.000
83.80376 466.000
83.82371 453.000
83.84365 470.000
83.86360 457.000
83.88355 467.000
83.90349 441.000
83.92344 457.000
83.94339 458.000
83.96333 432.000
83.98328 510.000
84.00323 483.000
84.02318 438.000
84.04312 442.000
84.06307 426.000
84.08302 453.000
84.10296 476.000
84.12291 453.000
84.14286 437.000
84.16280 461.000
84.18275 452.000
84.20270 468.000
84.22264 409.000
84.24259 421.000
84.26254 442.000
84.28249 464.000
84.30243 446.000
84.32238 480.000
84.34233 449.000
84.36227 412.000
84.38222 426.000
84.40217 464.000
84.42211 472.000
84.44206 424.000
84.46201 456.000
84.48196 454.000
84.50190 472.000
84.52185 479.000
84.54180 481.000
84.56174 435.000
84.58169 446.000
84.60164 484.000
84.62158 485.000
84.64153 440.000
84.66148 446.000
84.68142 486.000
84.70137 465.000
84.72132 429.000
84.74127 396.000
84.76121 428.000
84.78116 450.000
84.80111 456.000
84.82105 462.000
84.84100 443.000
84.86095 451.000
84.88089 438.000
84.90084 462.000
84.92079 471.000
84.94074 473.000
84.96068 465.000
84.98063 452.000
85.00058 453.000
85.02052 501.000
85.04047 481.000
85.06042 457.000
85.08036 410.000
85.10031 482.000
85.12026 428.000
85.14021 450.000
85.16015 423.000
85.18010 453.000
85.20005 435.000
85.21999 489.000
85.23994 447.000
85.25989 471.000
85.27983 411.000
85.29978 464.000
85.31973 450.000
85.33967 477.000
85.35962 421.000
85.37957 490.000
85.39952 483.000
85.41946 459.000
85.43941 472.000
85.45936 458.000
85.47930 438.000
85.49925 444.000
85.51920 458.000
85.53914 451.000
85.55909 423.000
85.57904 432.000
85.59899 459.000
85.61893 442.000
85.63888 424.000
85.65883 477.000
85.67877 438.000
85.69872 455.000
85.71867 461.000
85.73861 450.000
85.75856 455.000
85.77851 465.000
85.79845 451.000
85.81840 453.000
85.83835 425.000
85.85830 387.000
85.87824 460.000
85.89819 423.000
85.91814 428.000
85.93808 447.000
85.95803 443.000
85.97798 461.000
85.99792 443.000
86.01787 460.000
86.03782 460.000
86.05777 458.000
86.07771 472.000
86.09766 479.000
86.11761 441.000
86.13755 454.000
86.15750 438.000
86.17745 445.000
86.19739 458.000
86.21734 430.000
86.23729 426.000
86.25723 455.000
86.27718 402.000
86.29713 430.000
86.31708 482.000
86.33702 440.000
86.35697 459.000
86.37692 435.000
86.39686 481.000
86.41681 468.000
86.43676 453.000
86.45670 444.000
86.47665 415.000
86.49660 438.000
86.51655 458.000
86.53649 437.000
86.55644 430.000
86.57639 444.000
86.59633 416.000
86.61628 459.000
86.63623 428.000
86.65617 439.000
86.67612 439.000
86.69607 473.000
86.71602 448.000
86.73596 441.000
86.75591 476.000
86.77586 488.000
86.79580 477.000
86.81575 475.000
86.83570 468.000
86.85564 424.000
86.87559 459.000
86.89554 447.000
86.91548 418.000
86.93543 451.000
86.95538 432.000
86.97533 445.000
86.99527 497.000
87.01522 419.000
87.03517 417.000
87.05511 466.000
87.07506 405.000
87.09501 459.000
87.11495 481.000
87.13490 473.000
87.15485 426.000
87.17480 457.000
87.19474 421.000
87.21469 433.000
87.23464 448.000
87.25458 488.000
87.27453 430.000
87.29448 456.000
87.31442 434.000
87.33437 450.000
87.35432 430.000
87.37426 498.000
87.39421 407.000
87.41416 386.000
87.43411 454.000
87.45405 474.000
87.47400 467.000
87.49395 475.000
87.51389 446.000
87.53384 434.000
87.55379 464.000
87.57373 434.000
87.59368 443.000
87.61363 481.000
87.63358 437.000
87.65352 461.000
87.67347 427.000
87.69342 442.000
87.71336 442.000
87.73331 463.000
87.75326 458.000
87.77320 448.000
87.79315 460.000
87.81310 472.000
87.83304 472.000
87.85299 478.000
87.87294 507.000
87.89289 460.000
87.91283 417.000
87.93278 461.000
87.95273 464.000
87.97267 487.000
87.99262 492.000
88.01257 462.000
88.03251 450.000
88.05246 415.000
88.07241 442.000
88.09236 423.000
88.11230 450.000
88.13225 458.000
88.15220 437.000
88.17214 464.000
88.19209 451.000
88.21204 467.000
88.23198 446.000
88.25193 455.000
88.27188 464.000
88.29183 454.000
88.31177 430.000
88.33172 444.000
88.35167 455.000
88.37161 426.000
88.39156 451.000
88.41151 441.000
88.43145 410.000
88.45140 435.000
88.47135 426.000
88.49129 472.000
88.51124 419.000
88.53119 455.000
88.55114 456.000
88.57108 458.000
88.59103 450.000
88.61098 457.000
88.63092 457.000
88.65087 425.000
88.67082 443.000
88.69076 454.000
88.71071 479.000
88.73066 440.000
88.75061 435.000
88.77055 486.000
88.79050 461.000
88.81045 426.000
88.83039 473.000
88.85034 440.000
88.87029 446.000
88.89023 441.000
88.91018 496.000
88.93013 482.000
88.95007 481.000
88.97002 461.000
88.98997 464.000
89.00992 531.000
89.02986 402.000
89.04981 496.000
89.06976 435.000
89.08970 445.000
89.10965 492.000
89.12960 500.000
89.14954 459.000
89.16949 453.000
89.18944 477.000
89.20939 480.000
89.22933 502.000
89.24928 469.000
89.26923 459.000
89.28917 457.000
89.30912 447.000
89.32907 432.000
89.34901 488.000
89.36896 548.000
89.38891 489.000
89.40885 491.000
89.42880 411.000
89.44875 459.000
89.46870 515.000
89.48864 470.000
89.50859 443.000
89.52854 471.000
89.54848 459.000
89.56843 467.000
89.58838 478.000
89.60832 461.000
89.62827 490.000
89.64822 467.000
89.66817 471.000
89.68811 453.000
89.70806 470.000
89.72801 482.000
89.74795 463.000
89.76790 487.000
89.78785 452.000
89.80779 463.000
89.82774 467.000
89.84769 451.000
89.86764 479.000
89.88758 465.000
89.90753 478.000
89.92748 478.000
89.94742 460.000
89.96737 488.000
89.98732 461.000
90.00726 436.000
