10.00000 87.000
10.01995 79.000
10.03989 72.000
10.05984 87.000
10.07979 73.000
10.09973 81.000
10.11968 92.000
10.13963 87.000
10.15958 74.000
10.17952 73.000
10.19947 89.000
10.21942 77.000
10.23936 85.000
10.25931 92.000
10.27926 73.000
10.29920 87.000
10.31915 80.000
10.33910 91.000
10.35905 75.000
10.37899 82.000
10.39894 87.000
10.41889 79.000
10.43883 77.000
10.45878 82.000
10.47873 80.000
10.49867 81.000
10.51862 93.000
10.53857 94.000
10.55851 66.000
10.57846 93.000
10.59841 83.000
10.61836 89.000
10.63830 72.000
10.65825 64.000
10.67820 91.000
10.69814 74.000
10.71809 76.000
10.73804 62.000
10.75798 73.000
10.77793 78.000
10.79788 68.000
10.81783 78.000
10.83777 76.000
10.85772 86.000
10.87767 64.000
10.89761 92.000
10.91756 79.000
10.93751 78.000
10.95745 77.000
10.97740 84.000
10.99735 77.000
11.01730 90.000
11.03724 73.000
11.05719 68.000
11.07714 79.000
11.09708 84.000
11.11703 75.000
11.13698 91.000
11.15692 76.000
11.17687 87.000
11.19682 84.000
11.21676 93.000
11.23671 68.000
11.25666 93.000
11.27661 77.000
11.29655 74.000
11.31650 81.000
11.33645 85.000
11.35639 68.000
11.37634 86.000
11.39629 71.000
11.41623 76.000
11.43618 81.000
11.45613 79.000
11.47608 81.000
11.49602 67.000
11.51597 67.000
11.53592 83.000
11.55586 80.000
11.57581 82.000
11.59576 88.000
11.61570 78.000
11.63565 79.000
11.65560 102.000
11.67554 78.000
11.69549 73.000
11.71544 59.000
11.73539 72.000
11.75533 95.000
11.77528 88.000
11.79523 93.000
11.81517 80.000
11.83512 98.000
11.85507 70.000
11.87501 76.000
11.89496 73.000
11.91491 88.000
11.93486 82.000
11.95480 72.000
11.97475 98.000
11.99470 78.000
12.01464 82.000
12.03459 90.000
12.05454 85.000
12.07448 77.000
12.09443 91.000
12.11438 68.000
12.13432 85.000
12.15427 88.000
12.17422 79.000
12.19417 99.000
12.21411 82.000
12.23406 93.000
12.25401 84.000
12.27395 87.000
12.29390 94.000
12.31385 75.000
12.33379 86.000
12.35374 84.000
12.37369 79.000
12.39364 84.000
12.41358 86.000
12.43353 85.000
12.45348 85.000
12.47342 65.000
12.49337 82.000
12.51332 102.000
12.53326 81.000
12.55321 75.000
12.57316 90.000
12.59311 72.000
12.61305 83.000
12.63300 76.000
12.65295 79.000
12.67289 86.000
12.69284 74.000
12.71279 89.000
12.73273 76.000
12.75268 71.000
12.77263 79.000
12.79257 71.000
12.81252 87.000
12.83247 89.000
12.85242 91.000
12.87236 86.000
12.89231 84.000
12.91226 77.000
12.93220 68.000
12.95215 79.000
12.97210 80.000
12.99204 62.000
13.01199 92.000
13.03194 82.000
13.05189 72.000
13.07183 79.000
13.09178 78.000
13.11173 102.000
13.13167 92.000
13.15162 88.000
13.17157 71.000
13.19151 78.000
13.21146 75.000
13.23141 79.000
13.25135 78.000
13.27130 76.000
13.29125 75.000
13.31120 79.000
13.33114 82.000
13.35109 81.000
13.37104 75.000
13.39098 73.000
13.41093 78.000
13.43088 77.000
13.45082 81.000
13.47077 81.000
13.49072 84.000
13.51067 85.000
13.53061 80.000
13.55056 93.000
13.57051 85.000
13.59045 80.000
13.61040 86.000
13.63035 80.000
13.65029 90.000
13.67024 86.000
13.69019 73.000
13.71013 82.000
13.73008 83.000
13.75003 67.000
13.76998 103.000
13.78992 65.000
13.80987 79.000
13.82982 84.000
13.84976 91.000
13.86971 79.000
13.88966 96.000
13.90960 88.000
13.92955 92.000
13.94950 79.000
13.96945 81.000
13.98939 85.000
14.00934 87.000
14.02929 107.000
14.04923 75.000
14.06918 85.000
14.08913 77.000
14.10907 87.000
14.12902 73.000
14.14897 85.000
14.16892 89.000
14.18886 64.000
14.20881 90.000
14.22876 70.000
14.24870 90.000
14.26865 107.000
14.28860 81.000
14.30854 107.000
14.32849 89.000
14.34844 85.000
14.36838 84.000
14.38833 95.000
14.40828 91.000
14.42823 85.000
14.44817 94.000
14.46812 95.000
14.48807 97.000
14.50801 86.000
14.52796 84.000
14.54791 88.000
14.56785 87.000
14.58780 98.000
14.60775 107.000
14.62770 92.000
14.64764 91.000
14.66759 94.000
14.68754 91.000
14.70748 63.000
14.72743 87.000
14.74738 88.000
14.76732 87.000
14.78727 94.000
14.80722 93.000
14.82716 99.000
14.84711 102.000
14.86706 102.000
14.88701 104.000
14.90695 88.000
14.92690 86.000
14.94685 100.000
14.96679 104.000
14.98674 103.000
15.00669 101.000
15.02663 99.000
15.04658 103.000
15.06653 115.000
15.08648 113.000
15.10642 112.000
15.12637 117.000
15.14632 117.000
15.16626 112.000
15.18621 123.000
15.20616 136.000
15.22610 141.000
15.24605 126.000
15.26600 131.000
15.28594 154.000
15.30589 138.000
15.32584 145.000
15.34579 165.000
15.36573 177.000
15.38568 151.000
15.40563 169.000
15.42557 159.000
15.44552 174.000
15.46547 190.000
15.48541 205.000
15.50536 214.000
15.52531 200.000
15.54526 233.000
15.56520 232.000
15.58515 289.000
15.60510 256.000
15.62504 292.000
15.64499 335.000
15.66494 381.000
15.68488 458.000
15.70483 577.000
15.72478 699.000
15.74472 989.000
15.76467 1428.000
15.78462 2075.000
15.80457 2838.000
15.82451 4248.000
15.84446 6164.000
15.86441 8359.000
15.88435 10635.000
15.90430 10506.000
15.92425 7734.000
15.94419 5063.000
15.96414 2675.000
15.98409 1306.000
16.00404 890.000
16.02398 692.000
16.04393 583.000
16.06388 601.000
16.08382 541.000
16.10377 558.000
16.12372 575.000
16.14366 553.000
16.16361 580.000
16.18356 475.000
16.20351 461.000
16.22345 387.000
16.24340 362.000
16.26335 283.000
16.28329 228.000
16.30324 221.000
16.32319 179.000
16.34313 223.000
16.36308 163.000
16.38303 173.000
16.40297 179.000
16.42292 151.000
16.44287 170.000
16.46282 146.000
16.48276 131.000
16.50271 128.000
16.52266 127.000
16.54260 158.000
16.56255 111.000
16.58250 121.000
16.60244 123.000
16.62239 124.000
16.64234 130.000
16.66229 106.000
16.68223 117.000
16.70218 121.000
16.72213 117.000
16.74207 113.000
16.76202 111.000
16.78197 116.000
16.80191 117.000
16.82186 116.000
16.84181 129.000
16.86175 127.000
16.88170 124.000
16.90165 117.000
16.92160 110.000
16.94154 96.000
16.96149 106.000
16.98144 104.000
17.00138 104.000
17.02133 94.000
17.04128 111.000
17.06122 95.000
17.08117 85.000
17.10112 86.000
17.12107 84.000
17.14101 92.000
17.16096 78.000
17.18091 109.000
17.20085 95.000
17.22080 97.000
17.24075 90.000
17.26069 79.000
17.28064 107.000
17.30059 85.000
17.32053 97.000
17.34048 94.000
17.36043 82.000
17.38038 83.000
17.40032 80.000
17.42027 66.000
17.44022 74.000
17.46016 86.000
17.48011 86.000
17.50006 99.000
17.52000 78.000
17.53995 76.000
17.55990 77.000
17.57985 87.000
17.59979 68.000
17.61974 85.000
17.63969 95.000
17.65963 103.000
17.67958 84.000
17.69953 67.000
17.71947 52.000
17.73942 94.000
17.75937 72.000
17.77932 88.000
17.79926 70.000
17.81921 93.000
17.83916 83.000
17.85910 81.000
17.87905 67.000
17.89900 82.000
17.91894 88.000
17.93889 72.000
17.95884 83.000
17.97878 81.000
17.99873 80.000
18.01868 65.000
18.03863 68.000
18.05857 92.000
18.07852 93.000
18.09847 69.000
18.11841 63.000
18.13836 84.000
18.15831 74.000
18.17825 68.000
18.19820 86.000
18.21815 82.000
18.23810 102.000
18.25804 96.000
18.27799 73.000
18.29794 97.000
18.31788 86.000
18.33783 106.000
18.35778 147.000
18.37772 199.000
18.39767 304.000
18.41762 449.000
18.43756 475.000
18.45751 379.000
18.47746 315.000
18.49741 225.000
18.51735 134.000
18.53730 100.000
18.55725 90.000
18.57719 94.000
18.59714 82.000
18.61709 81.000
18.63703 82.000
18.65698 75.000
18.67693 91.000
18.69688 75.000
18.71682 97.000
18.73677 70.000
18.75672 58.000
18.77666 91.000
18.79661 72.000
18.81656 102.000
18.83650 71.000
18.85645 75.000
18.87640 77.000
18.89634 89.000
18.91629 80.000
18.93624 103.000
18.95619 85.000
18.97613 85.000
18.99608 100.000
19.01603 67.000
19.03597 80.000
19.05592 73.000
19.07587 81.000
19.09581 88.000
19.11576 83.000
19.13571 76.000
19.15566 76.000
19.17560 77.000
19.19555 86.000
19.21550 68.000
19.23544 75.000
19.25539 78.000
19.27534 83.000
19.29528 68.000
19.31523 83.000
19.33518 90.000
19.35513 88.000
19.37507 81.000
19.39502 86.000
19.41497 69.000
19.43491 82.000
19.45486 71.000
19.47481 63.000
19.49475 77.000
19.51470 65.000
19.53465 70.000
19.55459 72.000
19.57454 77.000
19.59449 77.000
19.61444 86.000
19.63438 74.000
19.65433 80.000
19.67428 83.000
19.69422 72.000
19.71417 70.000
19.73412 74.000
19.75406 80.000
19.77401 84.000
19.79396 93.000
19.81391 87.000
19.83385 65.000
19.85380 72.000
19.87375 74.000
19.89369 70.000
19.91364 70.000
19.93359 85.000
19.95353 71.000
19.97348 79.000
19.99343 66.000
20.01337 94.000
20.03332 86.000
20.05327 60.000
20.07322 79.000
20.09316 78.000
20.11311 63.000
20.13306 81.000
20.15300 80.000
20.17295 89.000
20.19290 76.000
20.21284 71.000
20.23279 96.000
20.25274 89.000
20.27269 87.000
20.29263 72.000
20.31258 72.000
20.33253 89.000
20.35247 81.000
20.37242 84.000
20.39237 74.000
20.41231 85.000
20.43226 60.000
20.45221 89.000
20.47215 88.000
20.49210 71.000
20.51205 82.000
20.53200 70.000
20.55194 68.000
20.57189 86.000
20.59184 84.000
20.61178 95.000
20.63173 80.000
20.65168 82.000
20.67162 93.000
20.69157 77.000
20.71152 87.000
20.73147 82.000
20.75141 99.000
20.77136 98.000
20.79131 98.000
20.81125 115.000
20.83120 126.000
20.85115 136.000
20.87109 153.000
20.89104 146.000
20.91099 157.000
20.93094 167.000
20.95088 160.000
20.97083 139.000
20.99078 146.000
21.01072 147.000
21.03067 141.000
21.05062 117.000
21.07056 146.000
21.09051 153.000
21.11046 137.000
21.13040 118.000
21.15035 92.000
21.17030 112.000
21.19025 103.000
21.21019 78.000
21.23014 95.000
21.25009 79.000
21.27003 84.000
21.28998 78.000
21.30993 74.000
21.32987 63.000
21.34982 62.000
21.36977 79.000
21.38972 76.000
21.40966 82.000
21.42961 78.000
21.44956 78.000
21.46950 76.000
21.48945 91.000
21.50940 82.000
21.52934 82.000
21.54929 69.000
21.56924 80.000
21.58918 77.000
21.60913 84.000
21.62908 84.000
21.64903 67.000
21.66897 81.000
21.68892 94.000
21.70887 70.000
21.72881 70.000
21.74876 92.000
21.76871 84.000
21.78865 79.000
21.80860 77.000
21.82855 83.000
21.84850 76.000
21.86844 71.000
21.88839 95.000
21.90834 66.000
21.92828 79.000
21.94823 90.000
21.96818 71.000
21.98812 85.000
22.00807 64.000
22.02802 70.000
22.04796 78.000
22.06791 77.000
22.08786 90.000
22.10781 64.000
22.12775 78.000
22.14770 71.000
22.16765 85.000
22.18759 87.000
22.20754 90.000
22.22749 85.000
22.24743 95.000
22.26738 83.000
22.28733 92.000
22.30728 79.000
22.32722 92.000
22.34717 82.000
22.36712 67.000
22.38706 74.000
22.40701 83.000
22.42696 66.000
22.44690 85.000
22.46685 72.000
22.48680 92.000
22.50675 82.000
22.52669 80.000
22.54664 78.000
22.56659 73.000
22.58653 82.000
22.60648 70.000
22.62643 89.000
22.64637 67.000
22.66632 80.000
22.68627 78.000
22.70621 73.000
22.72616 84.000
22.74611 82.000
22.76606 71.000
22.78600 73.000
22.80595 77.000
22.82590 81.000
22.84584 75.000
22.86579 76.000
22.88574 77.000
22.90568 76.000
22.92563 83.000
22.94558 78.000
22.96553 84.000
22.98547 85.000
23.00542 86.000
23.02537 78.000
23.04531 76.000
23.06526 70.000
23.08521 77.000
23.10515 61.000
23.12510 68.000
23.14505 80.000
23.16499 81.000
23.18494 86.000
23.20489 97.000
23.22484 74.000
23.24478 85.000
23.26473 78.000
23.28468 62.000
23.30462 49.000
23.32457 77.000
23.34452 78.000
23.36446 68.000
23.38441 66.000
23.40436 78.000
23.42431 83.000
23.44425 79.000
23.46420 73.000
23.48415 88.000
23.50409 75.000
23.52404 90.000
23.54399 97.000
23.56393 79.000
23.58388 83.000
23.60383 73.000
23.62377 80.000
23.64372 78.000
23.66367 84.000
23.68362 65.000
23.70356 64.000
23.72351 80.000
23.74346 74.000
23.76340 92.000
23.78335 68.000
23.80330 79.000
23.82324 76.000
23.84319 72.000
23.86314 80.000
23.88309 80.000
23.90303 68.000
23.92298 80.000
23.94293 90.000
23.96287 75.000
23.98282 66.000
24.00277 78.000
24.02271 81.000
24.04266 70.000
24.06261 74.000
24.08256 87.000
24.10250 101.000
24.12245 89.000
24.14240 75.000
24.16234 85.000
24.18229 74.000
24.20224 75.000
24.22218 87.000
24.24213 75.000
24.26208 81.000
24.28202 85.000
24.30197 75.000
24.32192 88.000
24.34187 81.000
24.36181 71.000
24.38176 73.000
24.40171 80.000
24.42165 73.000
24.44160 88.000
24.46155 84.000
24.48149 83.000
24.50144 83.000
24.52139 78.000
24.54134 85.000
24.56128 77.000
24.58123 76.000
24.60118 68.000
24.62112 81.000
24.64107 72.000
24.66102 78.000
24.68096 83.000
24.70091 84.000
24.72086 80.000
24.74080 76.000
24.76075 91.000
24.78070 71.000
24.80065 79.000
24.82059 75.000
24.84054 90.000
24.86049 76.000
24.88043 78.000
24.90038 92.000
24.92033 89.000
24.94027 100.000
24.96022 85.000
24.98017 98.000
25.00012 129.000
25.02006 94.000
25.04001 87.000
25.05996 101.000
25.07990 90.000
25.09985 93.000
25.11980 100.000
25.13974 94.000
25.15969 83.000
25.17964 72.000
25.19958 79.000
25.21953 79.000
25.23948 74.000
25.25943 72.000
25.27937 63.000
25.29932 64.000
25.31927 86.000
25.33921 94.000
25.35916 85.000
25.37911 75.000
25.39905 76.000
25.41900 91.000
25.43895 90.000
25.45890 75.000
25.47884 98.000
25.49879 76.000
25.51874 75.000
25.53868 67.000
25.55863 87.000
25.57858 77.000
25.59852 82.000
25.61847 77.000
25.63842 73.000
25.65837 73.000
25.67831 78.000
25.69826 78.000
25.71821 68.000
25.73815 77.000
25.75810 79.000
25.77805 78.000
25.79799 77.000
25.81794 89.000
25.83789 76.000
25.85783 96.000
25.87778 76.000
25.89773 106.000
25.91768 85.000
25.93762 96.000
25.95757 88.000
25.97752 88.000
25.99746 79.000
26.01741 74.000
26.03736 85.000
26.05730 85.000
26.07725 80.000
26.09720 82.000
26.11715 81.000
26.13709 79.000
26.15704 93.000
26.17699 87.000
26.19693 90.000
26.21688 82.000
26.23683 83.000
26.25677 82.000
26.27672 94.000
26.29667 62.000
26.31661 78.000
26.33656 88.000
26.35651 86.000
26.37646 77.000
26.39640 88.000
26.41635 100.000
26.43630 94.000
26.45624 80.000
26.47619 77.000
26.49614 77.000
26.51608 93.000
26.53603 66.000
26.55598 104.000
26.57593 77.000
26.59587 79.000
26.61582 86.000
26.63577 85.000
26.65571 86.000
26.67566 86.000
26.69561 74.000
26.71555 71.000
26.73550 82.000
26.75545 94.000
26.77539 72.000
26.79534 98.000
26.81529 89.000
26.83524 83.000
26.85518 79.000
26.87513 85.000
26.89508 97.000
26.91502 65.000
26.93497 77.000
26.95492 83.000
26.97486 90.000
26.99481 94.000
27.01476 96.000
27.03471 79.000
27.05465 93.000
27.07460 91.000
27.09455 85.000
27.11449 82.000
27.13444 73.000
27.15439 77.000
27.17433 93.000
27.19428 91.000
27.21423 89.000
27.23417 95.000
27.25412 78.000
27.27407 72.000
27.29402 93.000
27.31396 92.000
27.33391 80.000
27.35386 81.000
27.37380 75.000
27.39375 107.000
27.41370 91.000
27.43364 90.000
27.45359 76.000
27.47354 77.000
27.49349 65.000
27.51343 84.000
27.53338 76.000
27.55333 104.000
27.57327 76.000
27.59322 104.000
27.61317 88.000
27.63311 94.000
27.65306 103.000
27.67301 103.000
27.69296 87.000
27.71290 99.000
27.73285 97.000
27.75280 87.000
27.77274 89.000
27.79269 88.000
27.81264 95.000
27.83258 73.000
27.85253 86.000
27.87248 88.000
27.89242 87.000
27.91237 96.000
27.93232 100.000
27.95227 94.000
27.97221 81.000
27.99216 95.000
28.01211 82.000
28.03205 80.000
28.05200 87.000
28.07195 91.000
28.09189 93.000
28.11184 90.000
28.13179 81.000
28.15174 83.000
28.17168 93.000
28.19163 88.000
28.21158 89.000
28.23152 105.000
28.25147 81.000
28.27142 94.000
28.29136 97.000
28.31131 88.000
28.33126 88.000
28.35120 84.000
28.37115 86.000
28.39110 93.000
28.41105 84.000
28.43099 106.000
28.45094 93.000
28.47089 96.000
28.49083 86.000
28.51078 85.000
28.53073 75.000
28.55067 94.000
28.57062 97.000
28.59057 83.000
28.61052 82.000
28.63046 88.000
28.65041 79.000
28.67036 94.000
28.69030 88.000
28.71025 87.000
28.73020 88.000
28.75014 88.000
28.77009 100.000
28.79004 88.000
28.80998 82.000
28.82993 85.000
28.84988 97.000
28.86983 73.000
28.88977 85.000
28.90972 94.000
28.92967 95.000
28.94961 91.000
28.96956 103.000
28.98951 91.000
29.00945 73.000
29.02940 82.000
29.04935 98.000
29.06930 97.000
29.08924 80.000
29.10919 80.000
29.12914 101.000
29.14908 95.000
29.16903 103.000
29.18898 107.000
29.20892 95.000
29.22887 93.000
29.24882 104.000
29.26877 102.000
29.28871 117.000
29.30866 122.000
29.32861 155.000
29.34855 141.000
29.36850 140.000
29.38845 141.000
29.40839 131.000
29.42834 142.000
29.44829 137.000
29.46823 111.000
29.48818 103.000
29.50813 132.000
29.52808 107.000
29.54802 114.000
29.56797 100.000
29.58792 103.000
29.60786 99.000
29.62781 108.000
29.64776 107.000
29.66770 115.000
29.68765 95.000
29.70760 106.000
29.72755 105.000
29.74749 91.000
29.76744 97.000
29.78739 93.000
29.80733 108.000
29.82728 98.000
29.84723 99.000
29.86717 92.000
29.88712 79.000
29.90707 90.000
29.92701 108.000
29.94696 93.000
29.96691 100.000
29.98686 99.000
30.00680 100.000
30.02675 85.000
30.04670 81.000
30.06664 99.000
30.08659 116.000
30.10654 114.000
30.12648 135.000
30.14643 142.000
30.16638 169.000
30.18633 162.000
30.20627 194.000
30.22622 215.000
30.24617 292.000
30.26611 487.000
30.28606 751.000
30.30601 1028.000
30.32595 886.000
30.34590 664.000
30.36585 606.000
30.38579 620.000
30.40574 479.000
30.42569 282.000
30.44564 194.000
30.46558 151.000
30.48553 144.000
30.50548 121.000
30.52542 121.000
30.54537 115.000
30.56532 102.000
30.58526 93.000
30.60521 83.000
30.62516 90.000
30.64511 101.000
30.66505 98.000
30.68500 97.000
30.70495 94.000
30.72489 96.000
30.74484 108.000
30.76479 94.000
30.78473 110.000
30.80468 107.000
30.82463 99.000
30.84458 105.000
30.86452 109.000
30.88447 91.000
30.90442 99.000
30.92436 105.000
30.94431 73.000
30.96426 96.000
30.98420 83.000
31.00415 92.000
31.02410 101.000
31.04404 84.000
31.06399 87.000
31.08394 85.000
31.10389 105.000
31.12383 94.000
31.14378 83.000
31.16373 99.000
31.18367 96.000
31.20362 74.000
31.22357 72.000
31.24351 87.000
31.26346 74.000
31.28341 89.000
31.30336 98.000
31.32330 108.000
31.34325 80.000
31.36320 112.000
31.38314 104.000
31.40309 85.000
31.42304 100.000
31.44298 94.000
31.46293 100.000
31.48288 86.000
31.50282 96.000
31.52277 89.000
31.54272 99.000
31.56267 110.000
31.58261 101.000
31.60256 108.000
31.62251 113.000
31.64245 101.000
31.66240 91.000
31.68235 96.000
31.70229 100.000
31.72224 93.000
31.74219 110.000
31.76214 101.000
31.78208 129.000
31.80203 108.000
31.82198 125.000
31.84192 132.000
31.86187 141.000
31.88182 167.000
31.90176 159.000
31.92171 185.000
31.94166 203.000
31.96160 227.000
31.98155 283.000
32.00150 367.000
32.02145 453.000
32.04139 562.000
32.06134 662.000
32.08129 721.000
32.10123 831.000
32.12118 800.000
32.14113 583.000
32.16107 528.000
32.18102 469.000
32.20097 396.000
32.22092 295.000
32.24086 208.000
32.26081 175.000
32.28076 149.000
32.30070 129.000
32.32065 153.000
32.34060 120.000
32.36054 117.000
32.38049 127.000
32.40044 119.000
32.42039 144.000
32.44033 106.000
32.46028 118.000
32.48023 130.000
32.50017 98.000
32.52012 113.000
32.54007 109.000
32.56001 109.000
32.57996 111.000
32.59991 125.000
32.61985 98.000
32.63980 113.000
32.65975 92.000
32.67970 128.000
32.69964 124.000
32.71959 136.000
32.73954 122.000
32.75948 122.000
32.77943 95.000
32.79938 123.000
32.81932 104.000
32.83927 102.000
32.85922 105.000
32.87917 104.000
32.89911 98.000
32.91906 118.000
32.93901 127.000
32.95895 98.000
32.97890 110.000
32.99885 99.000
33.01879 100.000
33.03874 94.000
33.05869 90.000
33.07863 86.000
33.09858 100.000
33.11853 102.000
33.13848 80.000
33.15842 110.000
33.17837 84.000
33.19832 102.000
33.21826 101.000
33.23821 95.000
33.25816 105.000
33.27810 83.000
33.29805 90.000
33.31800 108.000
33.33795 92.000
33.35789 85.000
33.37784 99.000
33.39779 108.000
33.41773 88.000
33.43768 78.000
33.45763 97.000
33.47757 90.000
33.49752 93.000
33.51747 84.000
33.53741 83.000
33.55736 98.000
33.57731 88.000
33.59726 88.000
33.61720 86.000
33.63715 94.000
33.65710 93.000
33.67704 118.000
33.69699 95.000
33.71694 103.000
33.73688 119.000
33.75683 88.000
33.77678 93.000
33.79673 117.000
33.81667 97.000
33.83662 104.000
33.85657 94.000
33.87651 100.000
33.89646 84.000
33.91641 92.000
33.93635 93.000
33.95630 85.000
33.97625 99.000
33.99620 101.000
34.01614 102.000
34.03609 95.000
34.05604 90.000
34.07598 127.000
34.09593 105.000
34.11588 123.000
34.13582 98.000
34.15577 109.000
34.17572 116.000
34.19566 124.000
34.21561 105.000
34.23556 116.000
34.25551 113.000
34.27545 109.000
34.29540 115.000
34.31535 124.000
34.33529 116.000
34.35524 139.000
34.37519 142.000
34.39513 149.000
34.41508 138.000
34.43503 172.000
34.45498 147.000
34.47492 159.000
34.49487 157.000
34.51482 171.000
34.53476 176.000
34.55471 147.000
34.57466 178.000
34.59460 144.000
34.61455 153.000
34.63450 138.000
34.65444 148.000
34.67439 138.000
34.69434 156.000
34.71429 171.000
34.73423 166.000
34.75418 162.000
34.77413 150.000
34.79407 155.000
34.81402 183.000
34.83397 141.000
34.85391 142.000
34.87386 127.000
34.89381 147.000
34.91376 115.000
34.93370 131.000
34.95365 108.000
34.97360 112.000
34.99354 118.000
35.01349 137.000
35.03344 129.000
35.05338 106.000
35.07333 102.000
35.09328 104.000
35.11322 101.000
35.13317 105.000
35.15312 102.000
35.17307 96.000
35.19301 134.000
35.21296 120.000
35.23291 128.000
35.25285 111.000
35.27280 114.000
35.29275 139.000
35.31269 111.000
35.33264 135.000
35.35259 122.000
35.37254 149.000
35.39248 140.000
35.41243 144.000
35.43238 151.000
35.45232 183.000
35.47227 193.000
35.49222 268.000
35.51216 314.000
35.53211 417.000
35.55206 469.000
35.57201 571.000
35.59195 694.000
35.61190 896.000
35.63185 1158.000
35.65179 1563.000
35.67174 2325.000
35.69169 3056.000
35.71163 3082.000
35.73158 2374.000
35.75153 1976.000
35.77147 1907.000
35.79142 1963.000
35.81137 1485.000
35.83132 1104.000
35.85126 781.000
35.87121 623.000
35.89116 466.000
35.91110 381.000
35.93105 357.000
35.95100 300.000
35.97094 271.000
35.99089 229.000
36.01084 188.000
36.03079 191.000
36.05073 132.000
36.07068 134.000
36.09063 139.000
36.11057 131.000
36.13052 116.000
36.15047 139.000
36.17041 119.000
36.19036 116.000
36.21031 123.000
36.23025 125.000
36.25020 108.000
36.27015 125.000
36.29010 124.000
36.31004 97.000
36.32999 115.000
36.34994 106.000
36.36988 94.000
36.38983 102.000
36.40978 123.000
36.42972 114.000
36.44967 118.000
36.46962 125.000
36.48957 114.000
36.50951 116.000
36.52946 139.000
36.54941 124.000
36.56935 139.000
36.58930 122.000
36.60925 124.000
36.62919 131.000
36.64914 131.000
36.66909 151.000
36.68903 133.000
36.70898 134.000
36.72893 126.000
36.74888 127.000
36.76882 144.000
36.78877 126.000
36.80872 133.000
36.82866 145.000
36.84861 145.000
36.86856 154.000
36.88850 161.000
36.90845 166.000
36.92840 158.000
36.94835 152.000
36.96829 155.000
36.98824 183.000
37.00819 179.000
37.02813 185.000
37.04808 161.000
37.06803 161.000
37.08797 158.000
37.10792 162.000
37.12787 214.000
37.14781 248.000
37.16776 312.000
37.18771 410.000
37.20766 496.000
37.22760 580.000
37.24755 587.000
37.26750 555.000
37.28744 526.000
37.30739 563.000
37.32734 587.000
37.34728 576.000
37.36723 438.000
37.38718 355.000
37.40713 304.000
37.42707 263.000
37.44702 239.000
37.46697 198.000
37.48691 156.000
37.50686 147.000
37.52681 134.000
37.54675 117.000
37.56670 142.000
37.58665 94.000
37.60660 98.000
37.62654 99.000
37.64649 108.000
37.66644 107.000
37.68638 86.000
37.70633 96.000
37.72628 107.000
37.74622 101.000
37.76617 94.000
37.78612 100.000
37.80606 111.000
37.82601 82.000
37.84596 107.000
37.86591 104.000
37.88585 97.000
37.90580 89.000
37.92575 81.000
37.94569 90.000
37.96564 100.000
37.98559 88.000
38.00553 113.000
38.02548 93.000
38.04543 111.000
38.06538 104.000
38.08532 107.000
38.10527 131.000
38.12522 104.000
38.14516 103.000
38.16511 78.000
38.18506 91.000
38.20500 95.000
38.22495 100.000
38.24490 101.000
38.26484 80.000
38.28479 90.000
38.30474 97.000
38.32469 96.000
38.34463 83.000
38.36458 76.000
38.38453 93.000
38.40447 94.000
38.42442 100.000
38.44437 111.000
38.46431 98.000
38.48426 84.000
38.50421 78.000
38.52416 93.000
38.54410 108.000
38.56405 114.000
38.58400 97.000
38.60394 94.000
38.62389 109.000
38.64384 96.000
38.66378 100.000
38.68373 102.000
38.70368 82.000
38.72362 120.000
38.74357 118.000
38.76352 122.000
38.78347 105.000
38.80341 109.000
38.82336 104.000
38.84331 127.000
38.86325 130.000
38.88320 122.000
38.90315 137.000
38.92309 167.000
38.94304 166.000
38.96299 148.000
38.98294 158.000
39.00288 151.000
39.02283 167.000
39.04278 196.000
39.06272 201.000
39.08267 286.000
39.10262 327.000
39.12256 450.000
39.14251 532.000
39.16246 646.000
39.18241 705.000
39.20235 811.000
39.22230 921.000
39.24225 918.000
39.26219 891.000
39.28214 835.000
39.30209 778.000
39.32203 748.000
39.34198 691.000
39.36193 662.000
39.38187 636.000
39.40182 605.000
39.42177 580.000
39.44172 490.000
39.46166 477.000
39.48161 411.000
39.50156 360.000
39.52150 312.000
39.54145 305.000
39.56140 263.000
39.58134 228.000
39.60129 208.000
39.62124 173.000
39.64119 160.000
39.66113 131.000
39.68108 131.000
39.70103 142.000
39.72097 154.000
39.74092 107.000
39.76087 99.000
39.78081 102.000
39.80076 107.000
39.82071 94.000
39.84065 117.000
39.86060 108.000
39.88055 109.000
39.90050 107.000
39.92044 98.000
39.94039 88.000
39.96034 84.000
39.98028 101.000
40.00023 87.000
40.02018 92.000
40.04012 92.000
40.06007 69.000
40.08002 88.000
40.09997 105.000
40.11991 76.000
40.13986 92.000
40.15981 91.000
40.17975 86.000
40.19970 94.000
40.21965 92.000
40.23959 83.000
40.25954 91.000
40.27949 87.000
40.29943 86.000
40.31938 96.000
40.33933 90.000
40.35928 103.000
40.37922 100.000
40.39917 79.000
40.41912 82.000
40.43906 107.000
40.45901 70.000
40.47896 107.000
40.49890 89.000
40.51885 87.000
40.53880 93.000
40.55875 96.000
40.57869 94.000
40.59864 93.000
40.61859 92.000
40.63853 97.000
40.65848 80.000
40.67843 96.000
40.69837 80.000
40.71832 80.000
40.73827 83.000
40.75822 88.000
40.77816 86.000
40.79811 86.000
40.81806 108.000
40.83800 89.000
40.85795 109.000
40.87790 96.000
40.89784 98.000
40.91779 101.000
40.93774 89.000
40.95768 84.000
40.97763 87.000
40.99758 86.000
41.01753 76.000
41.03747 92.000
41.05742 95.000
41.07737 87.000
41.09731 91.000
41.11726 86.000
41.13721 88.000
41.15715 82.000
41.17710 99.000
41.19705 104.000
41.21700 112.000
41.23694 109.000
41.25689 114.000
41.27684 95.000
41.29678 99.000
41.31673 91.000
41.33668 104.000
41.35662 91.000
41.37657 80.000
41.39652 95.000
41.41646 113.000
41.43641 121.000
41.45636 128.000
41.47631 113.000
41.49625 106.000
41.51620 105.000
41.53615 144.000
41.55609 106.000
41.57604 147.000
41.59599 166.000
41.61593 149.000
41.63588 195.000
41.65583 261.000
41.67578 323.000
41.69572 366.000
41.71567 410.000
41.73562 439.000
41.75556 396.000
41.77551 360.000
41.79546 354.000
41.81540 335.000
41.83535 320.000
41.85530 274.000
41.87524 228.000
41.89519 216.000
41.91514 172.000
41.93509 156.000
41.95503 126.000
41.97498 119.000
41.99493 134.000
42.01487 117.000
42.03482 129.000
42.05477 126.000
42.07471 101.000
42.09466 97.000
42.11461 114.000
42.13456 106.000
42.15450 106.000
42.17445 97.000
42.19440 112.000
42.21434 109.000
42.23429 85.000
42.25424 94.000
42.27418 85.000
42.29413 103.000
42.31408 101.000
42.33403 97.000
42.35397 84.000
42.37392 88.000
42.39387 99.000
42.41381 95.000
42.43376 99.000
42.45371 103.000
42.47365 105.000
42.49360 100.000
42.51355 110.000
42.53349 102.000
42.55344 115.000
42.57339 94.000
42.59334 103.000
42.61328 101.000
42.63323 91.000
42.65318 101.000
42.67312 92.000
42.69307 113.000
42.71302 119.000
42.73296 106.000
42.75291 97.000
42.77286 98.000
42.79281 122.000
42.81275 79.000
42.83270 102.000
42.85265 117.000
42.87259 112.000
42.89254 93.000
42.91249 106.000
42.93243 93.000
42.95238 112.000
42.97233 115.000
42.99227 113.000
43.01222 123.000
43.03217 153.000
43.05212 148.000
43.07206 144.000
43.09201 157.000
43.11196 179.000
43.13190 205.000
43.15185 247.000
43.17180 312.000
43.19174 466.000
43.21169 595.000
43.23164 802.000
43.25159 930.000
43.27153 1006.000
43.29148 1042.000
43.31143 1105.000
43.33137 1158.000
43.35132 1169.000
43.37127 1339.000
43.39121 1298.000
43.41116 1204.000
43.43111 1074.000
43.45105 796.000
43.47100 784.000
43.49095 711.000
43.51090 712.000
43.53084 619.000
43.55079 500.000
43.57074 391.000
43.59068 328.000
43.61063 280.000
43.63058 231.000
43.65052 220.000
43.67047 219.000
43.69042 184.000
43.71037 153.000
43.73031 137.000
43.75026 137.000
43.77021 131.000
43.79015 130.000
43.81010 116.000
43.83005 128.000
43.84999 87.000
43.86994 103.000
43.88989 113.000
43.90984 117.000
43.92978 98.000
43.94973 107.000
43.96968 88.000
43.98962 94.000
44.00957 87.000
44.02952 100.000
44.04946 93.000
44.06941 97.000
44.08936 90.000
44.10930 96.000
44.12925 91.000
44.14920 85.000
44.16915 100.000
44.18909 97.000
44.20904 71.000
44.22899 70.000
44.24893 87.000
44.26888 94.000
44.28883 99.000
44.30877 89.000
44.32872 106.000
44.34867 93.000
44.36862 98.000
44.38856 86.000
44.40851 80.000
44.42846 82.000
44.44840 102.000
44.46835 98.000
44.48830 92.000
44.50824 87.000
44.52819 98.000
44.54814 90.000
44.56808 99.000
44.58803 107.000
44.60798 95.000
44.62793 82.000
44.64787 95.000
44.66782 74.000
44.68777 102.000
44.70771 82.000
44.72766 83.000
44.74761 94.000
44.76755 81.000
44.78750 96.000
44.80745 87.000
44.82740 90.000
44.84734 100.000
44.86729 106.000
44.88724 89.000
44.90718 89.000
44.92713 83.000
44.94708 62.000
44.96702 102.000
44.98697 81.000
45.00692 92.000
45.02686 103.000
45.04681 104.000
45.06676 77.000
45.08671 100.000
45.10665 88.000
45.12660 101.000
45.14655 89.000
45.16649 79.000
45.18644 102.000
45.20639 106.000
45.22633 89.000
45.24628 91.000
45.26623 75.000
45.28618 99.000
45.30612 84.000
45.32607 88.000
45.34602 76.000
45.36596 82.000
45.38591 88.000
45.40586 86.000
45.42580 78.000
45.44575 82.000
45.46570 84.000
45.48565 67.000
45.50559 89.000
45.52554 93.000
45.54549 93.000
45.56543 69.000
45.58538 90.000
45.60533 85.000
45.62527 84.000
45.64522 77.000
45.66517 83.000
45.68511 90.000
45.70506 105.000
45.72501 85.000
45.74496 65.000
45.76490 99.000
45.78485 78.000
45.80480 82.000
45.82474 79.000
45.84469 93.000
45.86464 76.000
45.88458 89.000
45.90453 84.000
45.92448 86.000
45.94443 73.000
45.96437 86.000
45.98432 94.000
46.00427 88.000
46.02421 90.000
46.04416 78.000
46.06411 81.000
46.08405 84.000
46.10400 83.000
46.12395 93.000
46.14389 80.000
46.16384 105.000
46.18379 72.000
46.20374 86.000
46.22368 77.000
46.24363 81.000
46.26358 94.000
46.28352 79.000
46.30347 79.000
46.32342 74.000
46.34336 90.000
46.36331 96.000
46.38326 79.000
46.40321 81.000
46.42315 72.000
46.44310 73.000
46.46305 87.000
46.48299 78.000
46.50294 83.000
46.52289 81.000
46.54283 83.000
46.56278 96.000
46.58273 101.000
46.60267 106.000
46.62262 86.000
46.64257 98.000
46.66252 84.000
46.68246 97.000
46.70241 59.000
46.72236 84.000
46.74230 80.000
46.76225 76.000
46.78220 94.000
46.80214 83.000
46.82209 80.000
46.84204 83.000
46.86199 67.000
46.88193 81.000
46.90188 82.000
46.92183 71.000
46.94177 64.000
46.96172 61.000
46.98167 77.000
47.00161 68.000
47.02156 103.000
47.04151 90.000
47.06146 84.000
47.08140 89.000
47.10135 76.000
47.12130 81.000
47.14124 79.000
47.16119 79.000
47.18114 71.000
47.20108 84.000
47.22103 62.000
47.24098 82.000
47.26092 74.000
47.28087 81.000
47.30082 85.000
47.32077 98.000
47.34071 95.000
47.36066 74.000
47.38061 100.000
47.40055 102.000
47.42050 90.000
47.44045 100.000
47.46039 86.000
47.48034 95.000
47.50029 82.000
47.52024 94.000
47.54018 94.000
47.56013 103.000
47.58008 100.000
47.60002 104.000
47.61997 91.000
47.63992 99.000
47.65986 97.000
47.67981 96.000
47.69976 97.000
47.71970 108.000
47.73965 112.000
47.75960 78.000
47.77955 84.000
47.79949 94.000
47.81944 106.000
47.83939 96.000
47.85933 111.000
47.87928 93.000
47.89923 95.000
47.91917 79.000
47.93912 109.000
47.95907 100.000
47.97902 121.000
47.99896 104.000
48.01891 127.000
48.03886 124.000
48.05880 112.000
48.07875 107.000
48.09870 99.000
48.11864 105.000
48.13859 112.000
48.15854 115.000
48.17848 98.000
48.19843 102.000
48.21838 105.000
48.23833 128.000
48.25827 111.000
48.27822 115.000
48.29817 131.000
48.31811 121.000
48.33806 134.000
48.35801 135.000
48.37795 118.000
48.39790 125.000
48.41785 171.000
48.43780 152.000
48.45774 178.000
48.47769 159.000
48.49764 193.000
48.51758 229.000
48.53753 261.000
48.55748 286.000
48.57742 386.000
48.59737 378.000
48.61732 556.000
48.63726 678.000
48.65721 742.000
48.67716 835.000
48.69711 902.000
48.71705 937.000
48.73700 835.000
48.75695 828.000
48.77689 876.000
48.79684 838.000
48.81679 798.000
48.83673 757.000
48.85668 680.000
48.87663 589.000
48.89658 501.000
48.91652 484.000
48.93647 412.000
48.95642 375.000
48.97636 263.000
48.99631 282.000
49.01626 224.000
49.03620 198.000
49.05615 177.000
49.07610 155.000
49.09605 134.000
49.11599 147.000
49.13594 146.000
49.15589 130.000
49.17583 128.000
49.19578 120.000
49.21573 98.000
49.23567 123.000
49.25562 117.000
49.27557 101.000
49.29551 97.000
49.31546 118.000
49.33541 105.000
49.35536 113.000
49.37530 95.000
49.39525 95.000
49.41520 92.000
49.43514 84.000
49.45509 96.000
49.47504 104.000
49.49498 118.000
49.51493 111.000
49.53488 87.000
49.55483 98.000
49.57477 101.000
49.59472 114.000
49.61467 85.000
49.63461 74.000
49.65456 90.000
49.67451 94.000
49.69445 99.000
49.71440 106.000
49.73435 87.000
49.75429 111.000
49.77424 86.000
49.79419 104.000
49.81414 102.000
49.83408 96.000
49.85403 94.000
49.87398 109.000
49.89392 103.000
49.91387 87.000
49.93382 104.000
49.95376 85.000
49.97371 98.000
49.99366 80.000
50.01361 74.000
50.03355 123.000
50.05350 89.000
50.07345 82.000
50.09339 79.000
50.11334 81.000
50.13329 84.000
50.15323 93.000
50.17318 75.000
50.19313 87.000
50.21307 67.000
50.23302 82.000
50.25297 66.000
50.27292 88.000
50.29286 96.000
50.31281 79.000
50.33276 74.000
50.35270 81.000
50.37265 85.000
50.39260 93.000
50.41254 62.000
50.43249 73.000
50.45244 77.000
50.47239 77.000
50.49233 71.000
50.51228 89.000
50.53223 74.000
50.55217 62.000
50.57212 84.000
50.59207 75.000
50.61201 74.000
50.63196 80.000
50.65191 69.000
50.67186 87.000
50.69180 81.000
50.71175 95.000
50.73170 87.000
50.75164 87.000
50.77159 83.000
50.79154 85.000
50.81148 87.000
50.83143 93.000
50.85138 79.000
50.87132 84.000
50.89127 73.000
50.91122 73.000
50.93117 85.000
50.95111 101.000
50.97106 79.000
50.99101 82.000
51.01095 87.000
51.03090 99.000
51.05085 78.000
51.07079 71.000
51.09074 70.000
51.11069 87.000
51.13064 93.000
51.15058 76.000
51.17053 86.000
51.19048 85.000
51.21042 97.000
51.23037 87.000
51.25032 56.000
51.27026 98.000
51.29021 84.000
51.31016 105.000
51.33010 98.000
51.35005 80.000
51.37000 82.000
51.38995 87.000
51.40989 86.000
51.42984 79.000
51.44979 85.000
51.46973 86.000
51.48968 85.000
51.50963 68.000
51.52957 83.000
51.54952 84.000
51.56947 76.000
51.58942 88.000
51.60936 101.000
51.62931 96.000
51.64926 93.000
51.66920 88.000
51.68915 63.000
51.70910 64.000
51.72904 78.000
51.74899 86.000
51.76894 79.000
51.78888 78.000
51.80883 92.000
51.82878 78.000
51.84873 91.000
51.86867 83.000
51.88862 69.000
51.90857 83.000
51.92851 92.000
51.94846 82.000
51.96841 83.000
51.98835 87.000
52.00830 83.000
52.02825 94.000
52.04820 103.000
52.06814 97.000
52.08809 99.000
52.10804 94.000
52.12798 105.000
52.14793 86.000
52.16788 96.000
52.18782 112.000
52.20777 103.000
52.22772 85.000
52.24767 93.000
52.26761 87.000
52.28756 94.000
52.30751 97.000
52.32745 96.000
52.34740 79.000
52.36735 90.000
52.38729 90.000
52.40724 87.000
52.42719 78.000
52.44713 74.000
52.46708 77.000
52.48703 80.000
52.50698 100.000
52.52692 85.000
52.54687 92.000
52.56682 90.000
52.58676 76.000
52.60671 73.000
52.62666 81.000
52.64660 78.000
52.66655 82.000
52.68650 75.000
52.70645 76.000
52.72639 83.000
52.74634 100.000
52.76629 85.000
52.78623 106.000
52.80618 87.000
52.82613 99.000
52.84607 89.000
52.86602 113.000
52.88597 83.000
52.90591 86.000
52.92586 91.000
52.94581 103.000
52.96576 123.000
52.98570 103.000
53.00565 132.000
53.02560 95.000
53.04554 115.000
53.06549 109.000
53.08544 123.000
53.10538 102.000
53.12533 99.000
53.14528 99.000
53.16523 92.000
53.18517 92.000
53.20512 83.000
53.22507 103.000
53.24501 114.000
53.26496 85.000
53.28491 107.000
53.30485 86.000
53.32480 76.000
53.34475 89.000
53.36469 93.000
53.38464 93.000
53.40459 92.000
53.42454 80.000
53.44448 94.000
53.46443 88.000
53.48438 97.000
53.50432 89.000
53.52427 87.000
53.54422 91.000
53.56416 82.000
53.58411 73.000
53.60406 112.000
53.62401 78.000
53.64395 87.000
53.66390 101.000
53.68385 96.000
53.70379 107.000
53.72374 121.000
53.74369 108.000
53.76363 144.000
53.78358 164.000
53.80353 211.000
53.82348 241.000
53.84342 297.000
53.86337 253.000
53.88332 189.000
53.90326 209.000
53.92321 182.000
53.94316 169.000
53.96310 192.000
53.98305 211.000
54.00300 169.000
54.02294 162.000
54.04289 125.000
54.06284 112.000
54.08279 109.000
54.10273 97.000
54.12268 89.000
54.14263 101.000
54.16257 89.000
54.18252 96.000
54.20247 93.000
54.22241 73.000
54.24236 83.000
54.26231 90.000
54.28226 87.000
54.30220 68.000
54.32215 78.000
54.34210 107.000
54.36204 85.000
54.38199 90.000
54.40194 86.000
54.42188 66.000
54.44183 76.000
54.46178 83.000
54.48172 75.000
54.50167 87.000
54.52162 73.000
54.54157 69.000
54.56151 82.000
54.58146 96.000
54.60141 90.000
54.62135 91.000
54.64130 77.000
54.66125 77.000
54.68119 91.000
54.70114 99.000
54.72109 81.000
54.74104 94.000
54.76098 77.000
54.78093 86.000
54.80088 70.000
54.82082 75.000
54.84077 74.000
54.86072 79.000
54.88066 81.000
54.90061 67.000
54.92056 69.000
54.94050 66.000
54.96045 95.000
54.98040 92.000
55.00035 75.000
55.02029 80.000
55.04024 85.000
55.06019 76.000
55.08013 86.000
55.10008 86.000
55.12003 87.000
55.13997 73.000
55.15992 74.000
55.17987 73.000
55.19982 82.000
55.21976 78.000
55.23971 62.000
55.25966 72.000
55.27960 84.000
55.29955 67.000
55.31950 78.000
55.33944 81.000
55.35939 80.000
55.37934 94.000
55.39929 72.000
55.41923 62.000
55.43918 72.000
55.45913 90.000
55.47907 89.000
55.49902 62.000
55.51897 73.000
55.53891 82.000
55.55886 87.000
55.57881 81.000
55.59875 75.000
55.61870 90.000
55.63865 92.000
55.65860 70.000
55.67854 89.000
55.69849 82.000
55.71844 79.000
55.73838 68.000
55.75833 74.000
55.77828 71.000
55.79822 99.000
55.81817 85.000
55.83812 85.000
55.85807 80.000
55.87801 72.000
55.89796 82.000
55.91791 100.000
55.93785 82.000
55.95780 84.000
55.97775 79.000
55.99769 77.000
56.01764 84.000
56.03759 79.000
56.05753 101.000
56.07748 70.000
56.09743 70.000
56.11738 70.000
56.13732 75.000
56.15727 84.000
56.17722 73.000
56.19716 82.000
56.21711 92.000
56.23706 76.000
56.25700 85.000
56.27695 86.000
56.29690 71.000
56.31685 89.000
56.33679 94.000
56.35674 90.000
56.37669 89.000
56.39663 76.000
56.41658 80.000
56.43653 77.000
56.45647 68.000
56.47642 86.000
56.49637 72.000
56.51631 89.000
56.53626 83.000
56.55621 85.000
56.57616 71.000
56.59610 98.000
56.61605 87.000
56.63600 94.000
56.65594 85.000
56.67589 71.000
56.69584 81.000
56.71578 94.000
56.73573 79.000
56.75568 85.000
56.77563 86.000
56.79557 86.000
56.81552 68.000
56.83547 77.000
56.85541 75.000
56.87536 76.000
56.89531 74.000
56.91525 86.000
56.93520 85.000
56.95515 94.000
56.97510 103.000
56.99504 90.000
57.01499 106.000
57.03494 78.000
57.05488 98.000
57.07483 95.000
57.09478 87.000
57.11472 113.000
57.13467 103.000
57.15462 118.000
57.17456 140.000
57.19451 122.000
57.21446 119.000
57.23441 143.000
57.25435 155.000
57.27430 184.000
57.29425 237.000
57.31419 244.000
57.33414 357.000
57.35409 489.000
57.37403 569.000
57.39398 659.000
57.41393 646.000
57.43388 538.000
57.45382 493.000
57.47377 378.000
57.49372 363.000
57.51366 413.000
57.53361 402.000
57.55356 439.000
57.57350 422.000
57.59345 354.000
57.61340 323.000
57.63334 250.000
57.65329 234.000
57.67324 183.000
57.69319 168.000
57.71313 163.000
57.73308 156.000
57.75303 152.000
57.77297 162.000
57.79292 135.000
57.81287 127.000
57.83281 128.000
57.85276 140.000
57.87271 100.000
57.89266 114.000
57.91260 132.000
57.93255 100.000
57.95250 93.000
57.97244 100.000
57.99239 89.000
58.01234 63.000
58.03228 100.000
58.05223 89.000
58.07218 95.000
58.09212 89.000
58.11207 94.000
58.13202 88.000
58.15197 95.000
58.17191 93.000
58.19186 82.000
58.21181 85.000
58.23175 93.000
58.25170 82.000
58.27165 81.000
58.29159 91.000
58.31154 91.000
58.33149 88.000
58.35144 75.000
58.37138 79.000
58.39133 79.000
58.41128 85.000
58.43122 85.000
58.45117 93.000
58.47112 104.000
58.49106 77.000
58.51101 76.000
58.53096 84.000
58.55090 78.000
58.57085 99.000
58.59080 83.000
58.61075 94.000
58.63069 96.000
58.65064 77.000
58.67059 87.000
58.69053 80.000
58.71048 78.000
58.73043 86.000
58.75037 72.000
58.77032 84.000
58.79027 90.000
58.81022 77.000
58.83016 68.000
58.85011 86.000
58.87006 104.000
58.89000 97.000
58.90995 101.000
58.92990 69.000
58.94984 81.000
58.96979 80.000
58.98974 90.000
59.00969 89.000
59.02963 79.000
59.04958 87.000
59.06953 76.000
59.08947 65.000
59.10942 89.000
59.12937 86.000
59.14931 88.000
59.16926 78.000
59.18921 96.000
59.20915 73.000
59.22910 82.000
59.24905 77.000
59.26900 71.000
59.28894 82.000
59.30889 79.000
59.32884 68.000
59.34878 61.000
59.36873 95.000
59.38868 92.000
59.40862 71.000
59.42857 78.000
59.44852 73.000
59.46847 86.000
59.48841 79.000
59.50836 83.000
59.52831 69.000
59.54825 88.000
59.56820 77.000
59.58815 93.000
59.60809 93.000
59.62804 90.000
59.64799 96.000
59.66793 73.000
59.68788 71.000
59.70783 77.000
59.72778 75.000
59.74772 91.000
59.76767 79.000
59.78762 84.000
59.80756 86.000
59.82751 86.000
59.84746 73.000
59.86740 84.000
59.88735 83.000
59.90730 78.000
59.92725 84.000
59.94719 85.000
59.96714 88.000
59.98709 89.000
60.00703 100.000
60.02698 93.000
60.04693 76.000
60.06687 95.000
60.08682 77.000
60.10677 95.000
60.12671 98.000
60.14666 77.000
60.16661 93.000
60.18656 105.000
60.20650 86.000
60.22645 97.000
60.24640 102.000
60.26634 69.000
60.28629 88.000
60.30624 86.000
60.32618 83.000
60.34613 67.000
60.36608 83.000
60.38603 83.000
60.40597 91.000
60.42592 102.000
60.44587 79.000
60.46581 88.000
60.48576 78.000
60.50571 110.000
60.52565 89.000
60.54560 94.000
60.56555 79.000
60.58550 90.000
60.60544 89.000
60.62539 80.000
60.64534 90.000
60.66528 98.000
60.68523 88.000
60.70518 86.000
60.72512 99.000
60.74507 81.000
60.76502 93.000
60.78496 70.000
60.80491 80.000
60.82486 82.000
60.84481 74.000
60.86475 84.000
60.88470 100.000
60.90465 96.000
60.92459 86.000
60.94454 94.000
60.96449 90.000
60.98443 85.000
61.00438 94.000
61.02433 86.000
61.04428 93.000
61.06422 77.000
61.08417 88.000
61.10412 82.000
61.12406 79.000
61.14401 69.000
61.16396 91.000
61.18390 89.000
61.20385 96.000
61.22380 98.000
61.24374 89.000
61.26369 87.000
61.28364 84.000
61.30359 85.000
61.32353 85.000
61.34348 87.000
61.36343 92.000
61.38337 87.000
61.40332 99.000
61.42327 108.000
61.44321 79.000
61.46316 95.000
61.48311 97.000
61.50306 103.000
61.52300 105.000
61.54295 94.000
61.56290 94.000
61.58284 113.000
61.60279 118.000
61.62274 116.000
61.64268 127.000
61.66263 110.000
61.68258 118.000
61.70252 115.000
61.72247 144.000
61.74242 155.000
61.76237 137.000
61.78231 153.000
61.80226 178.000
61.82221 153.000
61.84215 186.000
61.86210 174.000
61.88205 233.000
61.90199 238.000
61.92194 281.000
61.94189 327.000
61.96184 368.000
61.98178 406.000
62.00173 418.000
62.02168 454.000
62.04162 508.000
62.06157 457.000
62.08152 403.000
62.10146 364.000
62.12141 354.000
62.14136 394.000
62.16131 390.000
62.18125 354.000
62.20120 337.000
62.22115 287.000
62.24109 303.000
62.26104 223.000
62.28099 219.000
62.30093 247.000
62.32088 177.000
62.34083 179.000
62.36077 147.000
62.38072 159.000
62.40067 147.000
62.42062 156.000
62.44056 134.000
62.46051 129.000
62.48046 121.000
62.50040 128.000
62.52035 122.000
62.54030 136.000
62.56024 111.000
62.58019 109.000
62.60014 135.000
62.62009 161.000
62.64003 138.000
62.65998 150.000
62.67993 177.000
62.69987 182.000
62.71982 228.000
62.73977 238.000
62.75971 255.000
62.77966 326.000
62.79961 338.000
62.81955 352.000
62.83950 400.000
62.85945 390.000
62.87940 429.000
62.89934 444.000
62.91929 476.000
62.93924 447.000
62.95918 577.000
62.97913 624.000
62.99908 803.000
63.01902 895.000
63.03897 1028.000
63.05892 952.000
63.07887 836.000
63.09881 617.000
63.11876 594.000
63.13871 574.000
63.15865 549.000
63.17860 541.000
63.19855 579.000
63.21849 597.000
63.23844 464.000
63.25839 427.000
63.27833 356.000
63.29828 294.000
63.31823 248.000
63.33818 226.000
63.35812 187.000
63.37807 202.000
63.39802 164.000
63.41796 170.000
63.43791 144.000
63.45786 118.000
63.47780 143.000
63.49775 99.000
63.51770 116.000
63.53765 133.000
63.55759 128.000
63.57754 94.000
63.59749 113.000
63.61743 114.000
63.63738 111.000
63.65733 109.000
63.67727 105.000
63.69722 117.000
63.71717 128.000
63.73712 135.000
63.75706 137.000
63.77701 162.000
63.79696 156.000
63.81690 213.000
63.83685 179.000
63.85680 178.000
63.87674 208.000
63.89669 217.000
63.91664 204.000
63.93658 235.000
63.95653 236.000
63.97648 237.000
63.99643 226.000
64.01637 246.000
64.03632 232.000
64.05627 220.000
64.07621 243.000
64.09616 237.000
64.11611 223.000
64.13605 246.000
64.15600 248.000
64.17595 199.000
64.19590 178.000
64.21584 177.000
64.23579 166.000
64.25574 181.000
64.27568 165.000
64.29563 152.000
64.31558 175.000
64.33552 177.000
64.35547 164.000
64.37542 176.000
64.39536 182.000
64.41531 178.000
64.43526 183.000
64.45521 172.000
64.47515 155.000
64.49510 126.000
64.51505 157.000
64.53499 127.000
64.55494 149.000
64.57489 144.000
64.59483 123.000
64.61478 139.000
64.63473 109.000
64.65468 133.000
64.67462 106.000
64.69457 131.000
64.71452 108.000
64.73446 113.000
64.75441 108.000
64.77436 108.000
64.79430 77.000
64.81425 87.000
64.83420 85.000
64.85414 95.000
64.87409 95.000
64.89404 81.000
64.91399 92.000
64.93393 81.000
64.95388 92.000
64.97383 96.000
64.99377 92.000
65.01372 83.000
65.03367 98.000
65.05361 96.000
65.07356 81.000
65.09351 106.000
65.11346 85.000
65.13340 102.000
65.15335 91.000
65.17330 83.000
65.19324 87.000
65.21319 90.000
65.23314 92.000
65.25308 89.000
65.27303 93.000
65.29298 91.000
65.31293 84.000
65.33287 97.000
65.35282 93.000
65.37277 97.000
65.39271 84.000
65.41266 81.000
65.43261 97.000
65.45255 101.000
65.47250 107.000
65.49245 87.000
65.51239 98.000
65.53234 103.000
65.55229 88.000
65.57224 106.000
65.59218 101.000
65.61213 111.000
65.63208 91.000
65.65202 109.000
65.67197 109.000
65.69192 104.000
65.71186 120.000
65.73181 104.000
65.75176 131.000
65.77171 109.000
65.79165 112.000
65.81160 100.000
65.83155 120.000
65.85149 115.000
65.87144 128.000
65.89139 107.000
65.91133 96.000
65.93128 105.000
65.95123 103.000
65.97117 101.000
65.99112 99.000
66.01107 100.000
66.03102 107.000
66.05096 97.000
66.07091 101.000
66.09086 107.000
66.11080 110.000
66.13075 107.000
66.15070 115.000
66.17064 125.000
66.19059 134.000
66.21054 144.000
66.23049 146.000
66.25043 151.000
66.27038 151.000
66.29033 150.000
66.31027 198.000
66.33022 188.000
66.35017 181.000
66.37011 174.000
66.39006 194.000
66.41001 188.000
66.42995 197.000
66.44990 173.000
66.46985 183.000
66.48980 187.000
66.50974 156.000
66.52969 172.000
66.54964 185.000
66.56958 165.000
66.58953 156.000
66.60948 157.000
66.62942 171.000
66.64937 144.000
66.66932 120.000
66.68927 138.000
66.70921 149.000
66.72916 145.000
66.74911 160.000
66.76905 161.000
66.78900 167.000
66.80895 157.000
66.82889 141.000
66.84884 181.000
66.86879 143.000
66.88874 146.000
66.90868 152.000
66.92863 147.000
66.94858 150.000
66.96852 130.000
66.98847 134.000
67.00842 106.000
67.02836 147.000
67.04831 159.000
67.06826 165.000
67.08820 153.000
67.10815 164.000
67.12810 161.000
67.14805 142.000
67.16799 158.000
67.18794 147.000
67.20789 135.000
67.22783 124.000
67.24778 136.000
67.26773 123.000
67.28767 109.000
67.30762 127.000
67.32757 107.000
67.34752 106.000
67.36746 109.000
67.38741 111.000
67.40736 101.000
67.42730 96.000
67.44725 72.000
67.46720 87.000
67.48714 96.000
67.50709 72.000
67.52704 72.000
67.54698 93.000
67.56693 92.000
67.58688 76.000
67.60683 97.000
67.62677 83.000
67.64672 83.000
67.66667 80.000
67.68661 94.000
67.70656 89.000
67.72651 76.000
67.74645 89.000
67.76640 75.000
67.78635 94.000
67.80630 76.000
67.82624 77.000
67.84619 98.000
67.86614 80.000
67.88608 82.000
67.90603 82.000
67.92598 77.000
67.94592 85.000
67.96587 84.000
67.98582 90.000
68.00576 78.000
68.02571 82.000
68.04566 84.000
68.06561 92.000
68.08555 91.000
68.10550 67.000
68.12545 79.000
68.14539 88.000
68.16534 80.000
68.18529 74.000
68.20523 90.000
68.22518 86.000
68.24513 71.000
68.26508 93.000
68.28502 88.000
68.30497 82.000
68.32492 89.000
68.34486 84.000
68.36481 74.000
68.38476 90.000
68.40470 75.000
68.42465 93.000
68.44460 79.000
68.46455 88.000
68.48449 66.000
68.50444 97.000
68.52439 76.000
68.54433 90.000
68.56428 88.000
68.58423 85.000
68.60417 84.000
68.62412 94.000
68.64407 82.000
68.66401 82.000
68.68396 86.000
68.70391 84.000
68.72386 93.000
68.74380 89.000
68.76375 81.000
68.78370 78.000
68.80364 104.000
68.82359 63.000
68.84354 76.000
68.86348 96.000
68.88343 101.000
68.90338 91.000
68.92333 75.000
68.94327 90.000
68.96322 77.000
68.98317 80.000
69.00311 88.000
69.02306 91.000
69.04301 93.000
69.06295 74.000
69.08290 86.000
69.10285 74.000
69.12279 74.000
69.14274 71.000
69.16269 78.000
69.18264 58.000
69.20258 76.000
69.22253 80.000
69.24248 72.000
69.26242 60.000
69.28237 77.000
69.30232 80.000
69.32226 90.000
69.34221 69.000
69.36216 89.000
69.38211 88.000
69.40205 92.000
69.42200 84.000
69.44195 72.000
69.46189 72.000
69.48184 78.000
69.50179 70.000
69.52173 91.000
69.54168 77.000
69.56163 81.000
69.58157 94.000
69.60152 91.000
69.62147 73.000
69.64142 81.000
69.66136 79.000
69.68131 90.000
69.70126 85.000
69.72120 92.000
69.74115 71.000
69.76110 79.000
69.78104 83.000
69.80099 65.000
69.82094 83.000
69.84089 79.000
69.86083 77.000
69.88078 87.000
69.90073 81.000
69.92067 75.000
69.94062 74.000
69.96057 73.000
69.98051 93.000
70.00046 69.000
70.02041 63.000
70.04035 100.000
70.06030 67.000
70.08025 81.000
70.10020 74.000
70.12014 67.000
70.14009 66.000
70.16004 77.000
70.17998 65.000
70.19993 82.000
70.21988 83.000
70.23982 71.000
70.25977 77.000
70.27972 67.000
70.29967 86.000
70.31961 63.000
70.33956 73.000
70.35951 78.000
70.37945 87.000
70.39940 64.000
70.41935 88.000
70.43929 82.000
70.45924 101.000
70.47919 83.000
70.49914 69.000
70.51908 92.000
70.53903 72.000
70.55898 82.000
70.57892 72.000
70.59887 78.000
70.61882 102.000
70.63876 64.000
70.65871 86.000
70.67866 81.000
70.69860 96.000
70.71855 80.000
70.73850 80.000
70.75845 69.000
70.77839 85.000
70.79834 74.000
70.81829 81.000
70.83823 65.000
70.85818 80.000
70.87813 74.000
70.89807 87.000
70.91802 82.000
70.93797 83.000
70.95792 85.000
70.97786 62.000
70.99781 80.000
71.01776 64.000
71.03770 76.000
71.05765 89.000
71.07760 65.000
71.09754 80.000
71.11749 82.000
71.13744 93.000
71.15738 87.000
71.17733 80.000
71.19728 61.000
71.21723 86.000
71.23717 101.000
71.25712 74.000
71.27707 81.000
71.29701 83.000
71.31696 85.000
71.33691 85.000
71.35685 79.000
71.37680 74.000
71.39675 89.000
71.41670 92.000
71.43664 77.000
71.45659 94.000
71.47654 103.000
71.49648 105.000
71.51643 106.000
71.53638 121.000
71.55632 101.000
71.57627 125.000
71.59622 86.000
71.61616 110.000
71.63611 90.000
71.65606 97.000
71.67601 103.000
71.69595 116.000
71.71590 111.000
71.73585 105.000
71.75579 88.000
71.77574 89.000
71.79569 81.000
71.81563 93.000
71.83558 97.000
71.85553 82.000
71.87548 85.000
71.89542 92.000
71.91537 77.000
71.93532 90.000
71.95526 84.000
71.97521 71.000
71.99516 78.000
72.01510 84.000
72.03505 65.000
72.05500 94.000
72.07495 68.000
72.09489 80.000
72.11484 84.000
72.13479 53.000
72.15473 77.000
72.17468 71.000
72.19463 72.000
72.21457 75.000
72.23452 75.000
72.25447 58.000
72.27441 88.000
72.29436 83.000
72.31431 80.000
72.33426 64.000
72.35420 80.000
72.37415 73.000
72.39410 83.000
72.41404 71.000
72.43399 79.000
72.45394 77.000
72.47388 73.000
72.49383 100.000
72.51378 83.000
72.53373 98.000
72.55367 74.000
72.57362 103.000
72.59357 85.000
72.61351 89.000
72.63346 69.000
72.65341 88.000
72.67335 89.000
72.69330 92.000
72.71325 94.000
72.73319 79.000
72.75314 100.000
72.77309 94.000
72.79304 90.000
72.81298 92.000
72.83293 101.000
72.85288 88.000
72.87282 116.000
72.89277 70.000
72.91272 96.000
72.93266 74.000
72.95261 85.000
72.97256 82.000
72.99251 98.000
73.01245 79.000
73.03240 106.000
73.05235 86.000
73.07229 105.000
73.09224 95.000
73.11219 120.000
73.13213 113.000
73.15208 96.000
73.17203 113.000
73.19197 104.000
73.21192 125.000
73.23187 130.000
73.25182 126.000
73.27176 133.000
73.29171 142.000
73.31166 120.000
73.33160 115.000
73.35155 142.000
73.37150 133.000
73.39144 146.000
73.41139 132.000
73.43134 132.000
73.45129 142.000
73.47123 136.000
73.49118 155.000
73.51113 131.000
73.53107 134.000
73.55102 112.000
73.57097 131.000
73.59091 112.000
73.61086 134.000
73.63081 128.000
73.65076 130.000
73.67070 120.000
73.69065 129.000
73.71060 110.000
73.73054 128.000
73.75049 131.000
73.77044 91.000
73.79038 124.000
73.81033 105.000
73.83028 123.000
73.85022 97.000
73.87017 98.000
73.89012 92.000
73.91007 99.000
73.93001 100.000
73.94996 97.000
73.96991 96.000
73.98985 83.000
74.00980 86.000
74.02975 83.000
74.04969 110.000
74.06964 85.000
74.08959 86.000
74.10954 109.000
74.12948 88.000
74.14943 94.000
74.16938 83.000
74.18932 76.000
74.20927 90.000
74.22922 73.000
74.24916 86.000
74.26911 83.000
74.28906 75.000
74.30900 82.000
74.32895 83.000
74.34890 68.000
74.36885 115.000
74.38879 91.000
74.40874 90.000
74.42869 73.000
74.44863 103.000
74.46858 103.000
74.48853 114.000
74.50847 131.000
74.52842 150.000
74.54837 149.000
74.56832 195.000
74.58826 189.000
74.60821 205.000
74.62816 205.000
74.64810 199.000
74.66805 151.000
74.68800 140.000
74.70794 153.000
74.72789 142.000
74.74784 142.000
74.76778 145.000
74.78773 138.000
74.80768 139.000
74.82763 155.000
74.84757 140.000
74.86752 130.000
74.88747 108.000
74.90741 135.000
74.92736 109.000
74.94731 96.000
74.96725 102.000
74.98720 102.000
75.00715 88.000
75.02710 102.000
75.04704 92.000
75.06699 86.000
75.08694 80.000
75.10688 93.000
75.12683 87.000
75.14678 107.000
75.16672 97.000
75.18667 100.000
75.20662 96.000
75.22657 111.000
75.24651 117.000
75.26646 140.000
75.28641 159.000
75.30635 163.000
75.32630 158.000
75.34625 179.000
75.36619 164.000
75.38614 164.000
75.40609 180.000
75.42603 165.000
75.44598 166.000
75.46593 151.000
75.48588 163.000
75.50582 186.000
75.52577 153.000
75.54572 182.000
75.56566 193.000
75.58561 188.000
75.60556 179.000
75.62550 167.000
75.64545 202.000
75.66540 161.000
75.68535 142.000
75.70529 140.000
75.72524 115.000
75.74519 133.000
75.76513 117.000
75.78508 107.000
75.80503 134.000
75.82497 111.000
75.84492 115.000
75.86487 139.000
75.88481 100.000
75.90476 105.000
75.92471 108.000
75.94466 99.000
75.96460 92.000
75.98455 89.000
76.00450 94.000
76.02444 80.000
76.04439 97.000
76.06434 98.000
76.08428 84.000
76.10423 91.000
76.12418 82.000
76.14413 70.000
76.16407 80.000
76.18402 81.000
76.20397 86.000
76.22391 77.000
76.24386 69.000
76.26381 66.000
76.28375 86.000
76.30370 73.000
76.32365 83.000
76.34359 88.000
76.36354 74.000
76.38349 86.000
76.40344 83.000
76.42338 80.000
76.44333 75.000
76.46328 94.000
76.48322 71.000
76.50317 73.000
76.52312 83.000
76.54306 70.000
76.56301 69.000
76.58296 75.000
76.60291 78.000
76.62285 90.000
76.64280 78.000
76.66275 72.000
76.68269 82.000
76.70264 91.000
76.72259 66.000
76.74253 98.000
76.76248 75.000
76.78243 72.000
76.80238 79.000
76.82232 75.000
76.84227 87.000
76.86222 77.000
76.88216 80.000
76.90211 80.000
76.92206 77.000
76.94200 96.000
76.96195 63.000
76.98190 64.000
77.00184 71.000
77.02179 90.000
77.04174 81.000
77.06169 68.000
77.08163 73.000
77.10158 73.000
77.12153 87.000
77.14147 68.000
77.16142 78.000
77.18137 78.000
77.20131 93.000
77.22126 69.000
77.24121 79.000
77.26116 78.000
77.28110 82.000
77.30105 100.000
77.32100 93.000
77.34094 80.000
77.36089 77.000
77.38084 88.000
77.40078 77.000
77.42073 97.000
77.44068 98.000
77.46062 119.000
77.48057 94.000
77.50052 108.000
77.52047 100.000
77.54041 84.000
77.56036 105.000
77.58031 110.000
77.60025 126.000
77.62020 124.000
77.64015 113.000
77.66009 138.000
77.68004 109.000
77.69999 113.000
77.71994 108.000
77.73988 123.000
77.75983 119.000
77.77978 147.000
77.79972 124.000
77.81967 125.000
77.83962 118.000
77.85956 113.000
77.87951 99.000
77.89946 104.000
77.91940 100.000
77.93935 103.000
77.95930 105.000
77.97925 117.000
77.99919 113.000
78.01914 105.000
78.03909 100.000
78.05903 113.000
78.07898 120.000
78.09893 92.000
78.11887 142.000
78.13882 118.000
78.15877 133.000
78.17872 134.000
78.19866 123.000
78.21861 158.000
78.23856 138.000
78.25850 156.000
78.27845 166.000
78.29840 158.000
78.31834 183.000
78.33829 189.000
78.35824 166.000
78.37819 177.000
78.39813 173.000
78.41808 206.000
78.43803 160.000
78.45797 156.000
78.47792 171.000
78.49787 149.000
78.51781 142.000
78.53776 157.000
78.55771 137.000
78.57765 157.000
78.59760 156.000
78.61755 147.000
78.63750 137.000
78.65744 137.000
78.67739 122.000
78.69734 114.000
78.71728 118.000
78.73723 113.000
78.75718 112.000
78.77712 87.000
78.79707 100.000
78.81702 92.000
78.83697 102.000
78.85691 98.000
78.87686 81.000
78.89681 80.000
78.91675 95.000
78.93670 105.000
78.95665 93.000
78.97659 85.000
78.99654 103.000
79.01649 97.000
79.03643 92.000
79.05638 100.000
79.07633 74.000
79.09628 91.000
79.11622 91.000
79.13617 101.000
79.15612 109.000
79.17606 91.000
79.19601 104.000
79.21596 115.000
79.23590 111.000
79.25585 111.000
79.27580 107.000
79.29575 133.000
79.31569 111.000
79.33564 126.000
79.35559 124.000
79.37553 122.000
79.39548 115.000
79.41543 128.000
79.43537 130.000
79.45532 127.000
79.47527 137.000
79.49521 132.000
79.51516 147.000
79.53511 132.000
79.55506 113.000
79.57500 130.000
79.59495 154.000
79.61490 146.000
79.63484 144.000
79.65479 146.000
79.67474 131.000
79.69468 121.000
79.71463 113.000
79.73458 97.000
79.75453 106.000
79.77447 92.000
79.79442 100.000
79.81437 93.000
79.83431 113.000
79.85426 106.000
79.87421 126.000
79.89415 89.000
79.91410 110.000
79.93405 104.000
79.95399 82.000
79.97394 90.000
79.99389 73.000
80.01384 84.000
80.03378 75.000
80.05373 78.000
80.07368 79.000
80.09362 81.000
80.11357 86.000
80.13352 76.000
80.15346 71.000
80.17341 75.000
80.19336 108.000
80.21331 86.000
80.23325 68.000
80.25320 98.000
80.27315 76.000
80.29309 76.000
80.31304 88.000
80.33299 79.000
80.35293 78.000
80.37288 76.000
80.39283 101.000
80.41278 92.000
80.43272 74.000
80.45267 69.000
80.47262 66.000
80.49256 73.000
80.51251 97.000
80.53246 90.000
80.55240 82.000
80.57235 73.000
80.59230 100.000
80.61224 85.000
80.63219 82.000
80.65214 69.000
80.67209 84.000
80.69203 98.000
80.71198 88.000
80.73193 95.000
80.75187 85.000
80.77182 86.000
80.79177 98.000
80.81171 86.000
80.83166 94.000
80.85161 76.000
80.87156 74.000
80.89150 75.000
80.91145 97.000
80.93140 79.000
80.95134 81.000
80.97129 87.000
80.99124 84.000
81.01118 82.000
81.03113 76.000
81.05108 72.000
81.07102 83.000
81.09097 87.000
81.11092 68.000
81.13087 86.000
81.15081 70.000
81.17076 99.000
81.19071 61.000
81.21065 73.000
81.23060 82.000
81.25055 73.000
81.27049 72.000
81.29044 93.000
81.31039 70.000
81.33034 65.000
81.35028 78.000
81.37023 78.000
81.39018 92.000
81.41012 94.000
81.43007 57.000
81.45002 60.000
81.46996 94.000
81.48991 66.000
81.50986 66.000
81.52980 69.000
81.54975 76.000
81.56970 83.000
81.58965 83.000
81.60959 82.000
81.62954 90.000
81.64949 92.000
81.66943 64.000
81.68938 69.000
81.70933 72.000
81.72927 56.000
81.74922 87.000
81.76917 81.000
81.78912 70.000
81.80906 87.000
81.82901 81.000
81.84896 71.000
81.86890 66.000
81.88885 77.000
81.90880 75.000
81.92874 71.000
81.94869 88.000
81.96864 77.000
81.98859 79.000
82.00853 81.000
82.02848 85.000
82.04843 78.000
82.06837 74.000
82.08832 91.000
82.10827 88.000
82.12821 78.000
82.14816 90.000
82.16811 82.000
82.18805 67.000
82.20800 86.000
82.22795 70.000
82.24790 81.000
82.26784 73.000
82.28779 86.000
82.30774 67.000
82.32768 69.000
82.34763 73.000
82.36758 70.000
82.38752 57.000
82.40747 91.000
82.42742 66.000
82.44737 89.000
82.46731 82.000
82.48726 78.000
82.50721 68.000
82.52715 70.000
82.54710 72.000
82.56705 70.000
82.58699 94.000
82.60694 84.000
82.62689 68.000
82.64683 89.000
82.66678 98.000
82.68673 85.000
82.70668 91.000
82.72662 76.000
82.74657 70.000
82.76652 90.000
82.78646 81.000
82.80641 78.000
82.82636 70.000
82.84630 73.000
82.86625 70.000
82.88620 77.000
82.90615 70.000
82.92609 73.000
82.94604 65.000
82.96599 84.000
82.98593 73.000
83.00588 83.000
83.02583 80.000
83.04577 80.000
83.06572 93.000
83.08567 70.000
83.10561 81.000
83.12556 83.000
83.14551 78.000
83.16546 58.000
83.18540 78.000
83.20535 62.000
83.22530 95.000
83.24524 90.000
83.26519 81.000
83.28514 75.000
83.30508 93.000
83.32503 75.000
83.34498 90.000
83.36493 75.000
83.38487 77.000
83.40482 72.000
83.42477 77.000
83.44471 83.000
83.46466 78.000
83.48461 75.000
83.50455 76.000
83.52450 80.000
83.54445 79.000
83.56440 85.000
83.58434 70.000
83.60429 66.000
83.62424 75.000
83.64418 85.000
83.66413 77.000
83.68408 86.000
83.70402 81.000
83.72397 79.000
83.74392 85.000
83.76386 66.000
83.78381 79.000
83.80376 80.000
83.82371 69.000
83.84365 78.000
83.86360 66.000
83.88355 95.000
83.90349 98.000
83.92344 80.000
83.94339 100.000
83.96333 99.000
83.98328 77.000
84.00323 93.000
84.02318 92.000
84.04312 89.000
84.06307 94.000
84.08302 70.000
84.10296 96.000
84.12291 80.000
84.14286 97.000
84.16280 91.000
84.18275 112.000
84.20270 102.000
84.22264 91.000
84.24259 101.000
84.26254 91.000
84.28249 132.000
84.30243 133.000
84.32238 127.000
84.34233 111.000
84.36227 130.000
84.38222 119.000
84.40217 125.000
84.42211 131.000
84.44206 131.000
84.46201 122.000
84.48196 103.000
84.50190 110.000
84.52185 131.000
84.54180 112.000
84.56174 127.000
84.58169 139.000
84.60164 124.000
84.62158 123.000
84.64153 137.000
84.66148 120.000
84.68142 117.000
84.70137 138.000
84.72132 113.000
84.74127 106.000
84.76121 91.000
84.78116 114.000
84.80111 115.000
84.82105 119.000
84.84100 135.000
84.86095 105.000
84.88089 112.000
84.90084 101.000
84.92079 106.000
84.94074 107.000
84.96068 100.000
84.98063 75.000
85.00058 84.000
85.02052 100.000
85.04047 101.000
85.06042 84.000
85.08036 100.000
85.10031 79.000
85.12026 98.000
85.14021 96.000
85.16015 84.000
85.18010 82.000
85.20005 75.000
85.21999 92.000
85.23994 89.000
85.25989 73.000
85.27983 81.000
85.29978 90.000
85.31973 64.000
85.33967 72.000
85.35962 81.000
85.37957 82.000
85.39952 80.000
85.41946 84.000
85.43941 60.000
85.45936 80.000
85.47930 88.000
85.49925 75.000
85.51920 64.000
85.53914 70.000
85.55909 76.000
85.57904 96.000
85.59899 70.000
85.61893 82.000
85.63888 79.000
85.65883 85.000
85.67877 78.000
85.69872 74.000
85.71867 77.000
85.73861 81.000
85.75856 75.000
85.77851 96.000
85.79845 80.000
85.81840 73.000
85.83835 56.000
85.85830 90.000
85.87824 72.000
85.89819 57.000
85.91814 76.000
85.93808 78.000
85.95803 83.000
85.97798 77.000
85.99792 70.000
86.01787 82.000
86.03782 77.000
86.05777 79.000
86.07771 78.000
86.09766 71.000
86.11761 96.000
86.13755 83.000
86.15750 73.000
86.17745 73.000
86.19739 69.000
86.21734 85.000
86.23729 83.000
86.25723 63.000
86.27718 73.000
86.29713 75.000
86.31708 84.000
86.33702 71.000
86.35697 78.000
86.37692 74.000
86.39686 67.000
86.41681 81.000
86.43676 79.000
86.45670 86.000
86.47665 77.000
86.49660 75.000
86.51655 72.000
86.53649 81.000
86.55644 72.000
86.57639 96.000
86.59633 75.000
86.61628 57.000
86.63623 74.000
86.65617 88.000
86.67612 73.000
86.69607 57.000
86.71602 79.000
86.73596 83.000
86.75591 76.000
86.77586 82.000
86.79580 72.000
86.81575 89.000
86.83570 95.000
86.85564 84.000
86.87559 80.000
86.89554 85.000
86.91548 98.000
86.93543 78.000
86.95538 77.000
86.97533 81.000
86.99527 88.000
87.01522 78.000
87.03517 92.000
87.05511 87.000
87.07506 83.000
87.09501 94.000
87.11495 80.000
87.13490 85.000
87.15485 70.000
87.17480 88.000
87.19474 82.000
87.21469 89.000
87.23464 85.000
87.25458 85.000
87.27453 98.000
87.29448 100.000
87.31442 114.000
87.33437 89.000
87.35432 100.000
87.37426 108.000
87.39421 106.000
87.41416 128.000
87.43411 119.000
87.45405 122.000
87.47400 142.000
87.49395 150.000
87.51389 139.000
87.53384 138.000
87.55379 129.000
87.57373 112.000
87.59368 130.000
87.61363 111.000
87.63358 124.000
87.65352 118.000
87.67347 100.000
87.69342 104.000
87.71336 119.000
87.73331 123.000
87.75326 128.000
87.77320 123.000
87.79315 96.000
87.81310 129.000
87.83304 109.000
87.85299 101.000
87.87294 102.000
87.89289 115.000
87.91283 102.000
87.93278 99.000
87.95273 84.000
87.97267 108.000
87.99262 100.000
88.01257 84.000
88.03251 87.000
88.05246 81.000
88.07241 87.000
88.09236 82.000
88.11230 60.000
88.13225 60.000
88.15220 80.000
88.17214 83.000
88.19209 80.000
88.21204 67.000
88.23198 84.000
88.25193 74.000
88.27188 89.000
88.29183 87.000
88.31177 78.000
88.33172 94.000
88.35167 84.000
88.37161 85.000
88.39156 83.000
88.41151 84.000
88.43145 63.000
88.45140 79.000
88.47135 67.000
88.49129 87.000
88.51124 66.000
88.53119 78.000
88.55114 70.000
88.57108 73.000
88.59103 78.000
88.61098 67.000
88.63092 70.000
88.65087 83.000
88.67082 79.000
88.69076 72.000
88.71071 69.000
88.73066 80.000
88.75061 89.000
88.77055 78.000
88.79050 75.000
88.81045 65.000
88.83039 85.000
88.85034 65.000
88.87029 93.000
88.89023 80.000
88.91018 70.000
88.93013 90.000
88.95007 104.000
88.97002 93.000
88.98997 59.000
89.00992 81.000
89.02986 62.000
89.04981 64.000
89.06976 67.000
89.08970 67.000
89.10965 85.000
89.12960 84.000
89.14954 68.000
89.16949 74.000
89.18944 78.000
89.20939 68.000
89.22933 85.000
89.24928 76.000
89.26923 81.000
89.28917 82.000
89.30912 78.000
89.32907 75.000
89.34901 69.000
89.36896 79.000
89.38891 67.000
89.40885 64.000
89.42880 82.000
89.44875 78.000
89.46870 77.000
89.48864 81.000
89.50859 83.000
89.52854 79.000
89.54848 70.000
89.56843 65.000
89.58838 80.000
89.60832 86.000
89.62827 82.000
89.64822 67.000
89.66817 81.000
89.68811 76.000
89.70806 73.000
89.72801 66.000
89.74795 74.000
89.76790 87.000
89.78785 90.000
89.80779 73.000
89.82774 84.000
89.84769 68.000
89.86764 78.000
89.88758 62.000
89.90753 68.000
89.92748 88.000
89.94742 85.000
89.96737 81.000
89.98732 94.000
90.00726 87.000
