10.00000 204.000
10.01995 224.000
10.03989 208.000
10.05984 230.000
10.07979 231.000
10.09973 233.000
10.11968 245.000
10.13963 239.000
10.15958 224.000
10.17952 245.000
10.19947 222.000
10.21942 227.000
10.23936 242.000
10.25931 206.000
10.27926 226.000
10.29920 242.000
10.31915 215.000
10.33910 230.000
10.35905 217.000
10.37899 209.000
10.39894 227.000
10.41889 232.000
10.43883 224.000
10.45878 224.000
10.47873 233.000
10.49867 255.000
10.51862 215.000
10.53857 232.000
10.55851 229.000
10.57846 196.000
10.59841 229.000
10.61836 242.000
10.63830 236.000
10.65825 212.000
10.67820 241.000
10.69814 222.000
10.71809 218.000
10.73804 210.000
10.75798 228.000
10.77793 244.000
10.79788 241.000
10.81783 219.000
10.83777 245.000
10.85772 234.000
10.87767 196.000
10.89761 235.000
10.91756 260.000
10.93751 252.000
10.95745 238.000
10.97740 230.000
10.99735 237.000
11.01730 220.000
11.03724 232.000
11.05719 240.000
11.07714 200.000
11.09708 238.000
11.11703 217.000
11.13698 222.000
11.15692 221.000
11.17687 247.000
11.19682 218.000
11.21676 225.000
11.23671 264.000
11.25666 256.000
11.27661 237.000
11.29655 208.000
11.31650 232.000
11.33645 239.000
11.35639 247.000
11.37634 232.000
11.39629 230.000
11.41623 225.000
11.43618 245.000
11.45613 249.000
11.47608 231.000
11.49602 263.000
11.51597 236.000
11.53592 240.000
11.55586 240.000
11.57581 243.000
11.59576 232.000
11.61570 251.000
11.63565 279.000
11.65560 245.000
11.67554 219.000
11.69549 227.000
11.71544 261.000
11.73539 255.000
11.75533 243.000
11.77528 235.000
11.79523 244.000
11.81517 240.000
11.83512 223.000
11.85507 261.000
11.87501 230.000
11.89496 240.000
11.91491 241.000
11.93486 238.000
11.95480 232.000
11.97475 238.000
11.99470 248.000
12.01464 229.000
12.03459 241.000
12.05454 230.000
12.07448 219.000
12.09443 247.000
12.11438 236.000
12.13432 232.000
12.15427 261.000
12.17422 221.000
12.19417 242.000
12.21411 256.000
12.23406 225.000
12.25401 251.000
12.27395 261.000
12.29390 252.000
12.31385 251.000
12.33379 229.000
12.35374 255.000
12.37369 221.000
12.39364 237.000
12.41358 258.000
12.43353 257.000
12.45348 208.000
12.47342 237.000
12.49337 238.000
12.51332 241.000
12.53326 232.000
12.55321 247.000
12.57316 234.000
12.59311 246.000
12.61305 257.000
12.63300 232.000
12.65295 247.000
12.67289 255.000
12.69284 227.000
12.71279 284.000
12.73273 273.000
12.75268 248.000
12.77263 275.000
12.79257 262.000
12.81252 275.000
12.83247 266.000
12.85242 261.000
12.87236 288.000
12.89231 212.000
12.91226 299.000
12.93220 254.000
12.95215 261.000
12.97210 243.000
12.99204 250.000
13.01199 234.000
13.03194 282.000
13.05189 290.000
13.07183 240.000
13.09178 237.000
13.11173 267.000
13.13167 221.000
13.15162 258.000
13.17157 259.000
13.19151 240.000
13.21146 241.000
13.23141 241.000
13.25135 229.000
13.27130 264.000
13.29125 257.000
13.31120 256.000
13.33114 258.000
13.35109 265.000
13.37104 243.000
13.39098 253.000
13.41093 257.000
13.43088 251.000
13.45082 260.000
13.47077 283.000
13.49072 265.000
13.51067 225.000
13.53061 261.000
13.55056 273.000
13.57051 242.000
13.59045 279.000
13.61040 261.000
13.63035 256.000
13.65029 237.000
13.67024 260.000
13.69019 240.000
13.71013 284.000
13.73008 279.000
13.75003 263.000
13.76998 266.000
13.78992 271.000
13.80987 254.000
13.82982 260.000
13.84976 260.000
13.86971 263.000
13.88966 249.000
13.90960 254.000
13.92955 247.000
13.94950 260.000
13.96945 246.000
13.98939 262.000
14.00934 259.000
14.02929 297.000
14.04923 243.000
14.06918 255.000
14.08913 247.000
14.10907 307.000
14.12902 262.000
14.14897 255.000
14.16892 279.000
14.18886 265.000
14.20881 260.000
14.22876 287.000
14.24870 268.000
14.26865 266.000
14.28860 286.000
14.30854 272.000
14.32849 273.000
14.34844 273.000
14.36838 278.000
14.38833 259.000
14.40828 267.000
14.42823 283.000
14.44817 259.000
14.46812 271.000
14.48807 260.000
14.50801 291.000
14.52796 285.000
14.54791 270.000
14.56785 288.000
14.58780 242.000
14.60775 331.000
14.62770 286.000
14.64764 281.000
14.66759 284.000
14.68754 285.000
14.70748 249.000
14.72743 271.000
14.74738 258.000
14.76732 286.000
14.78727 281.000
14.80722 297.000
14.82716 301.000
14.84711 281.000
14.86706 279.000
14.88701 287.000
14.90695 315.000
14.92690 282.000
14.94685 276.000
14.96679 264.000
14.98674 276.000
15.00669 303.000
15.02663 281.000
15.04658 331.000
15.06653 351.000
15.08648 328.000
15.10642 338.000
15.12637 364.000
15.14632 346.000
15.16626 310.000
15.18621 324.000
15.20616 335.000
15.22610 348.000
15.24605 341.000
15.26600 356.000
15.28594 328.000
15.30589 330.000
15.32584 333.000
15.34579 377.000
15.36573 420.000
15.38568 365.000
15.40563 380.000
15.42557 414.000
15.44552 399.000
15.46547 405.000
15.48541 418.000
15.50536 488.000
15.52531 485.000
15.54526 548.000
15.56520 598.000
15.58515 721.000
15.60510 962.000
15.62504 1252.000
15.64499 1721.000
15.66494 2623.000
15.68488 3946.000
15.70483 5786.000
15.72478 8218.000
15.74472 10394.000
15.76467 11100.000
15.78462 10161.000
15.80457 7777.000
15.82451 5086.000
15.84446 3071.000
15.86441 1729.000
15.88435 1087.000
15.90430 748.000
15.92425 549.000
15.94419 484.000
15.96414 460.000
15.98409 425.000
16.00404 388.000
16.02398 372.000
16.04393 334.000
16.06388 321.000
16.08382 301.000
16.10377 344.000
16.12372 325.000
16.14366 288.000
16.16361 302.000
16.18356 320.000
16.20351 281.000
16.22345 305.000
16.24340 301.000
16.26335 298.000
16.28329 292.000
16.30324 303.000
16.32319 306.000
16.34313 273.000
16.36308 277.000
16.38303 253.000
16.40297 269.000
16.42292 298.000
16.44287 291.000
16.46282 261.000
16.48276 296.000
16.50271 247.000
16.52266 262.000
16.54260 274.000
16.56255 287.000
16.58250 278.000
16.60244 296.000
16.62239 234.000
16.64234 264.000
16.66229 253.000
16.68223 236.000
16.70218 252.000
16.72213 278.000
16.74207 271.000
16.76202 299.000
16.78197 266.000
16.80191 266.000
16.82186 262.000
16.84181 285.000
16.86175 227.000
16.88170 268.000
16.90165 232.000
16.92160 271.000
16.94154 235.000
16.96149 234.000
16.98144 265.000
17.00138 257.000
17.02133 269.000
17.04128 220.000
17.06122 279.000
17.08117 261.000
17.10112 259.000
17.12107 270.000
17.14101 231.000
17.16096 260.000
17.18091 267.000
17.20085 258.000
17.22080 231.000
17.24075 239.000
17.26069 246.000
17.28064 253.000
17.30059 266.000
17.32053 236.000
17.34048 282.000
17.36043 249.000
17.38038 260.000
17.40032 210.000
17.42027 251.000
17.44022 261.000
17.46016 236.000
17.48011 249.000
17.50006 245.000
17.52000 234.000
17.53995 224.000
17.55990 270.000
17.57985 258.000
17.59979 252.000
17.61974 239.000
17.63969 257.000
17.65963 247.000
17.67958 273.000
17.69953 252.000
17.71947 226.000
17.73942 256.000
17.75937 256.000
17.77932 271.000
17.79926 252.000
17.81921 248.000
17.83916 273.000
17.85910 244.000
17.87905 258.000
17.89900 258.000
17.91894 230.000
17.93889 246.000
17.95884 240.000
17.97878 222.000
17.99873 243.000
18.01868 265.000
18.03863 258.000
18.05857 252.000
18.07852 230.000
18.09847 225.000
18.11841 228.000
18.13836 251.000
18.15831 235.000
18.17825 266.000
18.19820 243.000
18.21815 245.000
18.23810 256.000
18.25804 239.000
18.27799 268.000
18.29794 240.000
18.31788 235.000
18.33783 229.000
18.35778 222.000
18.37772 251.000
18.39767 253.000
18.41762 248.000
18.43756 266.000
18.45751 230.000
18.47746 260.000
18.49741 249.000
18.51735 249.000
18.53730 256.000
18.55725 259.000
18.57719 237.000
18.59714 247.000
18.61709 242.000
18.63703 241.000
18.65698 255.000
18.67693 265.000
18.69688 230.000
18.71682 219.000
18.73677 264.000
18.75672 261.000
18.77666 224.000
18.79661 276.000
18.81656 241.000
18.83650 235.000
18.85645 244.000
18.87640 219.000
18.89634 252.000
18.91629 283.000
18.93624 217.000
18.95619 262.000
18.97613 221.000
18.99608 237.000
19.01603 260.000
19.03597 244.000
19.05592 266.000
19.07587 267.000
19.09581 252.000
19.11576 249.000
19.13571 227.000
19.15566 236.000
19.17560 289.000
19.19555 247.000
19.21550 244.000
19.23544 259.000
19.25539 248.000
19.27534 272.000
19.29528 260.000
19.31523 284.000
19.33518 246.000
19.35513 244.000
19.37507 249.000
19.39502 249.000
19.41497 238.000
19.43491 256.000
19.45486 249.000
19.47481 271.000
19.49475 240.000
19.51470 227.000
19.53465 283.000
19.55459 232.000
19.57454 245.000
19.59449 218.000
19.61444 256.000
19.63438 277.000
19.65433 272.000
19.67428 208.000
19.69422 262.000
19.71417 272.000
19.73412 266.000
19.75406 237.000
19.77401 225.000
19.79396 253.000
19.81391 243.000
19.83385 254.000
19.85380 269.000
19.87375 246.000
19.89369 240.000
19.91364 227.000
19.93359 248.000
19.95353 271.000
19.97348 255.000
19.99343 256.000
20.01337 249.000
20.03332 219.000
20.05327 245.000
20.07322 304.000
20.09316 271.000
20.11311 247.000
20.13306 267.000
20.15300 244.000
20.17295 247.000
20.19290 249.000
20.21284 233.000
20.23279 248.000
20.25274 226.000
20.27269 207.000
20.29263 247.000
20.31258 268.000
20.33253 252.000
20.35247 253.000
20.37242 238.000
20.39237 272.000
20.41231 242.000
20.43226 228.000
20.45221 239.000
20.47215 229.000
20.49210 243.000
20.51205 236.000
20.53200 265.000
20.55194 241.000
20.57189 263.000
20.59184 246.000
20.61178 267.000
20.63173 271.000
20.65168 260.000
20.67162 251.000
20.69157 252.000
20.71152 237.000
20.73147 234.000
20.75141 264.000
20.77136 265.000
20.79131 243.000
20.81125 261.000
20.83120 248.000
20.85115 259.000
20.87109 251.000
20.89104 267.000
20.91099 239.000
20.93094 253.000
20.95088 248.000
20.97083 283.000
20.99078 262.000
21.01072 261.000
21.03067 273.000
21.05062 288.000
21.07056 233.000
21.09051 260.000
21.11046 264.000
21.13040 269.000
21.15035 310.000
21.17030 313.000
21.19025 288.000
21.21019 290.000
21.23014 270.000
21.25009 269.000
21.27003 278.000
21.28998 252.000
21.30993 301.000
21.32987 246.000
21.34982 258.000
21.36977 251.000
21.38972 275.000
21.40966 286.000
21.42961 273.000
21.44956 254.000
21.46950 239.000
21.48945 248.000
21.50940 265.000
21.52934 262.000
21.54929 298.000
21.56924 258.000
21.58918 266.000
21.60913 234.000
21.62908 267.000
21.64903 266.000
21.66897 249.000
21.68892 270.000
21.70887 272.000
21.72881 255.000
21.74876 242.000
21.76871 256.000
21.78865 241.000
21.80860 252.000
21.82855 276.000
21.84850 268.000
21.86844 239.000
21.88839 280.000
21.90834 271.000
21.92828 264.000
21.94823 247.000
21.96818 250.000
21.98812 270.000
22.00807 234.000
22.02802 268.000
22.04796 290.000
22.06791 273.000
22.08786 239.000
22.10781 228.000
22.12775 276.000
22.14770 270.000
22.16765 262.000
22.18759 226.000
22.20754 256.000
22.22749 252.000
22.24743 247.000
22.26738 282.000
22.28733 280.000
22.30728 263.000
22.32722 254.000
22.34717 250.000
22.36712 236.000
22.38706 255.000
22.40701 244.000
22.42696 266.000
22.44690 256.000
22.46685 243.000
22.48680 269.000
22.50675 246.000
22.52669 262.000
22.54664 269.000
22.56659 264.000
22.58653 283.000
22.60648 248.000
22.62643 255.000
22.64637 250.000
22.66632 235.000
22.68627 271.000
22.70621 250.000
22.72616 255.000
22.74611 268.000
22.76606 267.000
22.78600 252.000
22.80595 255.000
22.82590 264.000
22.84584 238.000
22.86579 252.000
22.88574 246.000
22.90568 260.000
22.92563 275.000
22.94558 257.000
22.96553 259.000
22.98547 270.000
23.00542 246.000
23.02537 265.000
23.04531 228.000
23.06526 281.000
23.08521 240.000
23.10515 234.000
23.12510 259.000
23.14505 257.000
23.16499 244.000
23.18494 256.000
23.20489 269.000
23.22484 261.000
23.24478 263.000
23.26473 266.000
23.28468 255.000
23.30462 271.000
23.32457 252.000
23.34452 274.000
23.36446 281.000
23.38441 246.000
23.40436 297.000
23.42431 262.000
23.44425 247.000
23.46420 262.000
23.48415 274.000
23.50409 286.000
23.52404 261.000
23.54399 264.000
23.56393 265.000
23.58388 251.000
23.60383 255.000
23.62377 270.000
23.64372 265.000
23.66367 251.000
23.68362 260.000
23.70356 252.000
23.72351 222.000
23.74346 293.000
23.76340 240.000
23.78335 277.000
23.80330 273.000
23.82324 254.000
23.84319 264.000
23.86314 273.000
23.88309 248.000
23.90303 281.000
23.92298 255.000
23.94293 276.000
23.96287 251.000
23.98282 262.000
24.00277 263.000
24.02271 238.000
24.04266 272.000
24.06261 278.000
24.08256 292.000
24.10250 270.000
24.12245 252.000
24.14240 265.000
24.16234 286.000
24.18229 293.000
24.20224 237.000
24.22218 270.000
24.24213 252.000
24.26208 251.000
24.28202 270.000
24.30197 234.000
24.32192 268.000
24.34187 278.000
24.36181 275.000
24.38176 262.000
24.40171 266.000
24.42165 280.000
24.44160 240.000
24.46155 290.000
24.48149 280.000
24.50144 280.000
24.52139 259.000
24.54134 271.000
24.56128 251.000
24.58123 226.000
24.60118 256.000
24.62112 254.000
24.64107 257.000
24.66102 264.000
24.68096 276.000
24.70091 290.000
24.72086 310.000
24.74080 274.000
24.76075 275.000
24.78070 250.000
24.80065 274.000
24.82059 251.000
24.84054 241.000
24.86049 268.000
24.88043 267.000
24.90038 276.000
24.92033 259.000
24.94027 264.000
24.96022 278.000
24.98017 296.000
25.00012 263.000
25.02006 246.000
25.04001 294.000
25.05996 281.000
25.07990 253.000
25.09985 269.000
25.11980 283.000
25.13974 275.000
25.15969 278.000
25.17964 280.000
25.19958 250.000
25.21953 271.000
25.23948 276.000
25.25943 269.000
25.27937 277.000
25.29932 310.000
25.31927 276.000
25.33921 301.000
25.35916 293.000
25.37911 256.000
25.39905 294.000
25.41900 264.000
25.43895 278.000
25.45890 272.000
25.47884 253.000
25.49879 271.000
25.51874 297.000
25.53868 261.000
25.55863 270.000
25.57858 268.000
25.59852 258.000
25.61847 252.000
25.63842 287.000
25.65837 286.000
25.67831 264.000
25.69826 297.000
25.71821 313.000
25.73815 312.000
25.75810 273.000
25.77805 278.000
25.79799 290.000
25.81794 263.000
25.83789 263.000
25.85783 281.000
25.87778 289.000
25.89773 288.000
25.91768 294.000
25.93762 302.000
25.95757 284.000
25.97752 254.000
25.99746 292.000
26.01741 282.000
26.03736 271.000
26.05730 300.000
26.07725 272.000
26.09720 271.000
26.11715 277.000
26.13709 309.000
26.15704 265.000
26.17699 256.000
26.19693 286.000
26.21688 279.000
26.23683 276.000
26.25677 277.000
26.27672 281.000
26.29667 252.000
26.31661 277.000
26.33656 277.000
26.35651 274.000
26.37646 274.000
26.39640 281.000
26.41635 258.000
26.43630 268.000
26.45624 290.000
26.47619 292.000
26.49614 265.000
26.51608 271.000
26.53603 290.000
26.55598 279.000
26.57593 281.000
26.59587 293.000
26.61582 288.000
26.63577 275.000
26.65571 290.000
26.67566 311.000
26.69561 280.000
26.71555 255.000
26.73550 255.000
26.75545 275.000
26.77539 288.000
26.79534 312.000
26.81529 296.000
26.83524 290.000
26.85518 295.000
26.87513 299.000
26.89508 261.000
26.91502 294.000
26.93497 273.000
26.95492 286.000
26.97486 297.000
26.99481 298.000
27.01476 283.000
27.03471 279.000
27.05465 275.000
27.07460 300.000
27.09455 266.000
27.11449 279.000
27.13444 261.000
27.15439 300.000
27.17433 267.000
27.19428 283.000
27.21423 315.000
27.23417 280.000
27.25412 285.000
27.27407 281.000
27.29402 295.000
27.31396 305.000
27.33391 269.000
27.35386 299.000
27.37380 307.000
27.39375 270.000
27.41370 252.000
27.43364 296.000
27.45359 289.000
27.47354 275.000
27.49349 289.000
27.51343 315.000
27.53338 290.000
27.55333 302.000
27.57327 305.000
27.59322 284.000
27.61317 285.000
27.63311 269.000
27.65306 282.000
27.67301 283.000
27.69296 295.000
27.71290 277.000
27.73285 287.000
27.75280 283.000
27.77274 270.000
27.79269 303.000
27.81264 275.000
27.83258 291.000
27.85253 271.000
27.87248 269.000
27.89242 288.000
27.91237 290.000
27.93232 300.000
27.95227 293.000
27.97221 306.000
27.99216 303.000
28.01211 283.000
28.03205 279.000
28.05200 278.000
28.07195 287.000
28.09189 253.000
28.11184 264.000
28.13179 307.000
28.15174 305.000
28.17168 277.000
28.19163 289.000
28.21158 309.000
28.23152 282.000
28.25147 295.000
28.27142 291.000
28.29136 284.000
28.31131 249.000
28.33126 311.000
28.35120 275.000
28.37115 302.000
28.39110 274.000
28.41105 269.000
28.43099 288.000
28.45094 278.000
28.47089 330.000
28.49083 294.000
28.51078 315.000
28.53073 298.000
28.55067 283.000
28.57062 280.000
28.59057 280.000
28.61052 306.000
28.63046 319.000
28.65041 307.000
28.67036 297.000
28.69030 302.000
28.71025 314.000
28.73020 297.000
28.75014 300.000
28.77009 285.000
28.79004 318.000
28.80998 295.000
28.82993 253.000
28.84988 243.000
28.86983 290.000
28.88977 295.000
28.90972 296.000
28.92967 286.000
28.94961 306.000
28.96956 289.000
28.98951 288.000
29.00945 273.000
29.02940 278.000
29.04935 286.000
29.06930 302.000
29.08924 264.000
29.10919 305.000
29.12914 286.000
29.14908 290.000
29.16903 305.000
29.18898 271.000
29.20892 331.000
29.22887 290.000
29.24882 319.000
29.26877 280.000
29.28871 276.000
29.30866 288.000
29.32861 340.000
29.34855 315.000
29.36850 295.000
29.38845 318.000
29.40839 310.000
29.42834 328.000
29.44829 276.000
29.46823 308.000
29.48818 298.000
29.50813 321.000
29.52808 308.000
29.54802 262.000
29.56797 284.000
29.58792 311.000
29.60786 286.000
29.62781 284.000
29.64776 311.000
29.66770 297.000
29.68765 282.000
29.70760 265.000
29.72755 292.000
29.74749 288.000
29.76744 305.000
29.78739 294.000
29.80733 281.000
29.82728 277.000
29.84723 271.000
29.86717 268.000
29.88712 261.000
29.90707 305.000
29.92701 308.000
29.94696 294.000
29.96691 303.000
29.98686 306.000
30.00680 297.000
30.02675 265.000
30.04670 282.000
30.06664 294.000
30.08659 308.000
30.10654 325.000
30.12648 297.000
30.14643 296.000
30.16638 289.000
30.18633 326.000
30.20627 296.000
30.22622 333.000
30.24617 322.000
30.26611 294.000
30.28606 292.000
30.30601 296.000
30.32595 312.000
30.34590 282.000
30.36585 318.000
30.38579 315.000
30.40574 290.000
30.42569 287.000
30.44564 294.000
30.46558 267.000
30.48553 302.000
30.50548 269.000
30.52542 320.000
30.54537 291.000
30.56532 261.000
30.58526 301.000
30.60521 265.000
30.62516 278.000
30.64511 290.000
30.66505 272.000
30.68500 316.000
30.70495 282.000
30.72489 265.000
30.74484 275.000
30.76479 311.000
30.78473 290.000
30.80468 303.000
30.82463 280.000
30.84458 294.000
30.86452 295.000
30.88447 301.000
30.90442 326.000
30.92436 297.000
30.94431 274.000
30.96426 286.000
30.98420 268.000
31.00415 300.000
31.02410 309.000
31.04404 285.000
31.06399 291.000
31.08394 286.000
31.10389 294.000
31.12383 314.000
31.14378 302.000
31.16373 309.000
31.18367 309.000
31.20362 285.000
31.22357 310.000
31.24351 311.000
31.26346 305.000
31.28341 314.000
31.30336 304.000
31.32330 307.000
31.34325 301.000
31.36320 303.000
31.38314 304.000
31.40309 316.000
31.42304 325.000
31.44298 294.000
31.46293 340.000
31.48288 297.000
31.50282 287.000
31.52277 315.000
31.54272 333.000
31.56267 343.000
31.58261 340.000
31.60256 355.000
31.62251 356.000
31.64245 378.000
31.66240 445.000
31.68235 488.000
31.70229 620.000
31.72224 748.000
31.74219 898.000
31.76214 975.000
31.78208 1000.000
31.80203 1055.000
31.82198 948.000
31.84192 920.000
31.86187 845.000
31.88182 746.000
31.90176 658.000
31.92171 502.000
31.94166 441.000
31.96160 432.000
31.98155 395.000
32.00150 374.000
32.02145 373.000
32.04139 333.000
32.06134 332.000
32.08129 360.000
32.10123 324.000
32.12118 303.000
32.14113 318.000
32.16107 309.000
32.18102 264.000
32.20097 315.000
32.22092 304.000
32.24086 343.000
32.26081 318.000
32.28076 286.000
32.30070 320.000
32.32065 286.000
32.34060 302.000
32.36054 331.000
32.38049 316.000
32.40044 328.000
32.42039 307.000
32.44033 329.000
32.46028 356.000
32.48023 348.000
32.50017 358.000
32.52012 421.000
32.54007 457.000
32.56001 484.000
32.57996 489.000
32.59991 470.000
32.61985 413.000
32.63980 420.000
32.65975 411.000
32.67970 354.000
32.69964 340.000
32.71959 268.000
32.73954 336.000
32.75948 312.000
32.77943 306.000
32.79938 274.000
32.81932 289.000
32.83927 300.000
32.85922 326.000
32.87917 330.000
32.89911 304.000
32.91906 322.000
32.93901 283.000
32.95895 301.000
32.97890 302.000
32.99885 317.000
33.01879 300.000
33.03874 289.000
33.05869 287.000
33.07863 304.000
33.09858 312.000
33.11853 317.000
33.13848 308.000
33.15842 286.000
33.17837 268.000
33.19832 298.000
33.21826 325.000
33.23821 305.000
33.25816 320.000
33.27810 295.000
33.29805 315.000
33.31800 290.000
33.33795 305.000
33.35789 309.000
33.37784 294.000
33.39779 318.000
33.41773 315.000
33.43768 277.000
33.45763 289.000
33.47757 330.000
33.49752 301.000
33.51747 262.000
33.53741 290.000
33.55736 293.000
33.57731 301.000
33.59726 286.000
33.61720 292.000
33.63715 289.000
33.65710 272.000
33.67704 287.000
33.69699 252.000
33.71694 315.000
33.73688 291.000
33.75683 297.000
33.77678 299.000
33.79673 296.000
33.81667 292.000
33.83662 324.000
33.85657 280.000
33.87651 307.000
33.89646 307.000
33.91641 310.000
33.93635 284.000
33.95630 297.000
33.97625 321.000
33.99620 277.000
34.01614 286.000
34.03609 331.000
34.05604 300.000
34.07598 283.000
34.09593 332.000
34.11588 300.000
34.13582 317.000
34.15577 340.000
34.17572 295.000
34.19566 311.000
34.21561 281.000
34.23556 305.000
34.25551 298.000
34.27545 284.000
34.29540 288.000
34.31535 314.000
34.33529 313.000
34.35524 304.000
34.37519 291.000
34.39513 275.000
34.41508 298.000
34.43503 298.000
34.45498 312.000
34.47492 319.000
34.49487 321.000
34.51482 316.000
34.53476 327.000
34.55471 306.000
34.57466 314.000
34.59460 323.000
34.61455 306.000
34.63450 278.000
34.65444 355.000
34.67439 314.000
34.69434 299.000
34.71429 308.000
34.73423 290.000
34.75418 329.000
34.77413 313.000
34.79407 332.000
34.81402 322.000
34.83397 326.000
34.85391 313.000
34.87386 371.000
34.89381 365.000
34.91376 380.000
34.93370 338.000
34.95365 313.000
34.97360 300.000
34.99354 331.000
35.01349 348.000
35.03344 307.000
35.05338 296.000
35.07333 329.000
35.09328 298.000
35.11322 338.000
35.13317 353.000
35.15312 367.000
35.17307 318.000
35.19301 334.000
35.21296 378.000
35.23291 397.000
35.25285 405.000
35.27280 370.000
35.29275 372.000
35.31269 400.000
35.33264 387.000
35.35259 439.000
35.37254 466.000
35.39248 549.000
35.41243 674.000
35.43238 822.000
35.45232 1083.000
35.47227 1262.000
35.49222 1345.000
35.51216 1434.000
35.53211 1614.000
35.55206 2060.000
35.57201 2323.000
35.59195 2341.000
35.61190 2173.000
35.63185 1731.000
35.65179 1580.000
35.67174 1517.000
35.69169 1276.000
35.71163 1050.000
35.73158 865.000
35.75153 735.000
35.77147 622.000
35.79142 669.000
35.81137 632.000
35.83132 723.000
35.85126 870.000
35.87121 1008.000
35.89116 1105.000
35.91110 1183.000
35.93105 1110.000
35.95100 1130.000
35.97094 954.000
35.99089 870.000
36.01084 787.000
36.03079 740.000
36.05073 631.000
36.07068 536.000
36.09063 521.000
36.11057 446.000
36.13052 395.000
36.15047 364.000
36.17041 332.000
36.19036 339.000
36.21031 373.000
36.23025 343.000
36.25020 321.000
36.27015 332.000
36.29010 308.000
36.31004 324.000
36.32999 317.000
36.34994 357.000
36.36988 298.000
36.38983 307.000
36.40978 282.000
36.42972 360.000
36.44967 356.000
36.46962 362.000
36.48957 321.000
36.50951 335.000
36.52946 312.000
36.54941 340.000
36.56935 316.000
36.58930 344.000
36.60925 354.000
36.62919 330.000
36.64914 313.000
36.66909 325.000
36.68903 320.000
36.70898 341.000
36.72893 364.000
36.74888 357.000
36.76882 360.000
36.78877 344.000
36.80872 393.000
36.82866 391.000
36.84861 413.000
36.86856 375.000
36.88850 373.000
36.90845 388.000
36.92840 367.000
36.94835 332.000
36.96829 281.000
36.98824 315.000
37.00819 303.000
37.02813 309.000
37.04808 310.000
37.06803 347.000
37.08797 345.000
37.10792 298.000
37.12787 313.000
37.14781 333.000
37.16776 308.000
37.18771 304.000
37.20766 331.000
37.22760 314.000
37.24755 327.000
37.26750 309.000
37.28744 340.000
37.30739 282.000
37.32734 338.000
37.34728 277.000
37.36723 316.000
37.38718 310.000
37.40713 331.000
37.42707 298.000
37.44702 322.000
37.46697 302.000
37.48691 309.000
37.50686 286.000
37.52681 302.000
37.54675 287.000
37.56670 324.000
37.58665 310.000
37.60660 310.000
37.62654 305.000
37.64649 332.000
37.66644 323.000
37.68638 333.000
37.70633 302.000
37.72628 322.000
37.74622 320.000
37.76617 338.000
37.78612 354.000
37.80606 300.000
37.82601 316.000
37.84596 349.000
37.86591 315.000
37.88585 290.000
37.90580 331.000
37.92575 340.000
37.94569 335.000
37.96564 323.000
37.98559 312.000
38.00553 347.000
38.02548 318.000
38.04543 333.000
38.06538 340.000
38.08532 342.000
38.10527 323.000
38.12522 354.000
38.14516 352.000
38.16511 331.000
38.18506 357.000
38.20500 345.000
38.22495 322.000
38.24490 361.000
38.26484 338.000
38.28479 326.000
38.30474 340.000
38.32469 355.000
38.34463 389.000
38.36458 380.000
38.38453 359.000
38.40447 373.000
38.42442 359.000
38.44437 397.000
38.46431 412.000
38.48426 430.000
38.50421 409.000
38.52416 434.000
38.54410 473.000
38.56405 441.000
38.58400 516.000
38.60394 539.000
38.62389 610.000
38.64384 749.000
38.66378 760.000
38.68373 962.000
38.70368 1208.000
38.72362 1458.000
38.74357 1768.000
38.76352 2137.000
38.78347 2200.000
38.80341 2135.000
38.82336 1933.000
38.84331 1779.000
38.86325 1701.000
38.88320 1629.000
38.90315 1523.000
38.92309 1336.000
38.94304 1265.000
38.96299 1126.000
38.98294 1062.000
39.00288 838.000
39.02283 710.000
39.04278 693.000
39.06272 696.000
39.08267 658.000
39.10262 575.000
39.12256 531.000
39.14251 527.000
39.16246 487.000
39.18241 530.000
39.20235 532.000
39.22230 547.000
39.24225 651.000
39.26219 607.000
39.28214 720.000
39.30209 772.000
39.32203 946.000
39.34198 1158.000
39.36193 1323.000
39.38187 1610.000
39.40182 1803.000
39.42177 1891.000
39.44172 1954.000
39.46166 1844.000
39.48161 1656.000
39.50156 1480.000
39.52150 1343.000
39.54145 1213.000
39.56140 1045.000
39.58134 812.000
39.60129 717.000
39.62124 623.000
39.64119 568.000
39.66113 495.000
39.68108 456.000
39.70103 384.000
39.72097 382.000
39.74092 397.000
39.76087 330.000
39.78081 343.000
39.80076 338.000
39.82071 345.000
39.84065 324.000
39.86060 343.000
39.88055 374.000
39.90050 316.000
39.92044 325.000
39.94039 341.000
39.96034 315.000
39.98028 324.000
40.00023 330.000
40.02018 339.000
40.04012 289.000
40.06007 314.000
40.08002 335.000
40.09997 330.000
40.11991 297.000
40.13986 310.000
40.15981 317.000
40.17975 318.000
40.19970 313.000
40.21965 327.000
40.23959 311.000
40.25954 325.000
40.27949 299.000
40.29943 328.000
40.31938 311.000
40.33933 304.000
40.35928 267.000
40.37922 339.000
40.39917 310.000
40.41912 280.000
40.43906 300.000
40.45901 297.000
40.47896 278.000
40.49890 300.000
40.51885 305.000
40.53880 271.000
40.55875 303.000
40.57869 309.000
40.59864 294.000
40.61859 358.000
40.63853 291.000
40.65848 321.000
40.67843 285.000
40.69837 293.000
40.71832 270.000
40.73827 282.000
40.75822 299.000
40.77816 292.000
40.79811 266.000
40.81806 269.000
40.83800 284.000
40.85795 320.000
40.87790 292.000
40.89784 282.000
40.91779 263.000
40.93774 327.000
40.95768 299.000
40.97763 303.000
40.99758 317.000
41.01753 293.000
41.03747 277.000
41.05742 258.000
41.07737 297.000
41.09731 307.000
41.11726 268.000
41.13721 274.000
41.15715 321.000
41.17710 319.000
41.19705 289.000
41.21700 269.000
41.23694 299.000
41.25689 313.000
41.27684 293.000
41.29678 265.000
41.31673 311.000
41.33668 304.000
41.35662 294.000
41.37657 336.000
41.39652 294.000
41.41646 289.000
41.43641 316.000
41.45636 318.000
41.47631 292.000
41.49625 281.000
41.51620 333.000
41.53615 306.000
41.55609 299.000
41.57604 309.000
41.59599 317.000
41.61593 287.000
41.63588 292.000
41.65583 277.000
41.67578 285.000
41.69572 326.000
41.71567 291.000
41.73562 299.000
41.75556 291.000
41.77551 303.000
41.79546 284.000
41.81540 295.000
41.83535 299.000
41.85530 304.000
41.87524 286.000
41.89519 296.000
41.91514 281.000
41.93509 315.000
41.95503 323.000
41.97498 310.000
41.99493 320.000
42.01487 302.000
42.03482 273.000
42.05477 286.000
42.07471 283.000
42.09466 297.000
42.11461 304.000
42.13456 309.000
42.15450 294.000
42.17445 308.000
42.19440 319.000
42.21434 263.000
42.23429 272.000
42.25424 290.000
42.27418 299.000
42.29413 285.000
42.31408 295.000
42.33403 310.000
42.35397 306.000
42.37392 293.000
42.39387 314.000
42.41381 309.000
42.43376 305.000
42.45371 284.000
42.47365 296.000
42.49360 322.000
42.51355 301.000
42.53349 276.000
42.55344 270.000
42.57339 318.000
42.59334 288.000
42.61328 297.000
42.63323 279.000
42.65318 292.000
42.67312 278.000
42.69307 296.000
42.71302 306.000
42.73296 269.000
42.75291 312.000
42.77286 287.000
42.79281 324.000
42.81275 302.000
42.83270 315.000
42.85265 247.000
42.87259 311.000
42.89254 325.000
42.91249 333.000
42.93243 287.000
42.95238 281.000
42.97233 292.000
42.99227 279.000
43.01222 289.000
43.03217 275.000
43.05212 297.000
43.07206 297.000
43.09201 330.000
43.11196 309.000
43.13190 314.000
43.15185 300.000
43.17180 317.000
43.19174 315.000
43.21169 333.000
43.23164 364.000
43.25159 357.000
43.27153 408.000
43.29148 400.000
43.31143 423.000
43.33137 396.000
43.35132 475.000
43.37127 501.000
43.39121 563.000
43.41116 643.000
43.43111 764.000
43.45105 787.000
43.47100 818.000
43.49095 813.000
43.51090 802.000
43.53084 745.000
43.55079 727.000
43.57074 679.000
43.59068 654.000
43.61063 579.000
43.63058 527.000
43.65052 471.000
43.67047 399.000
43.69042 409.000
43.71037 380.000
43.73031 358.000
43.75026 341.000
43.77021 379.000
43.79015 301.000
43.81010 321.000
43.83005 362.000
43.84999 279.000
43.86994 315.000
43.88989 294.000
43.90984 282.000
43.92978 306.000
43.94973 267.000
43.96968 336.000
43.98962 296.000
44.00957 305.000
44.02952 306.000
44.04946 304.000
44.06941 282.000
44.08936 302.000
44.10930 304.000
44.12925 291.000
44.14920 293.000
44.16915 284.000
44.18909 292.000
44.20904 294.000
44.22899 304.000
44.24893 282.000
44.26888 292.000
44.28883 309.000
44.30877 299.000
44.32872 254.000
44.34867 286.000
44.36862 292.000
44.38856 290.000
44.40851 303.000
44.42846 301.000
44.44840 296.000
44.46835 304.000
44.48830 298.000
44.50824 285.000
44.52819 302.000
44.54814 274.000
44.56808 297.000
44.58803 284.000
44.60798 300.000
44.62793 294.000
44.64787 306.000
44.66782 297.000
44.68777 285.000
44.70771 286.000
44.72766 271.000
44.74761 269.000
44.76755 301.000
44.78750 277.000
44.80745 274.000
44.82740 267.000
44.84734 319.000
44.86729 305.000
44.88724 303.000
44.90718 292.000
44.92713 288.000
44.94708 313.000
44.96702 288.000
44.98697 310.000
45.00692 313.000
45.02686 264.000
45.04681 296.000
45.06676 251.000
45.08671 285.000
45.10665 274.000
45.12660 292.000
45.14655 255.000
45.16649 299.000
45.18644 291.000
45.20639 311.000
45.22633 297.000
45.24628 302.000
45.26623 267.000
45.28618 273.000
45.30612 288.000
45.32607 301.000
45.34602 312.000
45.36596 265.000
45.38591 273.000
45.40586 279.000
45.42580 295.000
45.44575 288.000
45.46570 299.000
45.48565 262.000
45.50559 279.000
45.52554 316.000
45.54549 320.000
45.56543 316.000
45.58538 320.000
45.60533 263.000
45.62527 280.000
45.64522 292.000
45.66517 311.000
45.68511 309.000
45.70506 273.000
45.72501 294.000
45.74496 280.000
45.76490 269.000
45.78485 308.000
45.80480 288.000
45.82474 272.000
45.84469 275.000
45.86464 296.000
45.88458 276.000
45.90453 301.000
45.92448 297.000
45.94443 297.000
45.96437 300.000
45.98432 283.000
46.00427 295.000
46.02421 275.000
46.04416 308.000
46.06411 282.000
46.08405 292.000
46.10400 299.000
46.12395 310.000
46.14389 289.000
46.16384 285.000
46.18379 288.000
46.20374 332.000
46.22368 299.000
46.24363 307.000
46.26358 311.000
46.28352 335.000
46.30347 315.000
46.32342 321.000
46.34336 301.000
46.36331 325.000
46.38326 316.000
46.40321 334.000
46.42315 321.000
46.44310 342.000
46.46305 278.000
46.48299 289.000
46.50294 286.000
46.52289 300.000
46.54283 317.000
46.56278 300.000
46.58273 307.000
46.60267 294.000
46.62262 268.000
46.64257 291.000
46.66252 304.000
46.68246 290.000
46.70241 304.000
46.72236 296.000
46.74230 287.000
46.76225 304.000
46.78220 268.000
46.80214 290.000
46.82209 309.000
46.84204 318.000
46.86199 304.000
46.88193 306.000
46.90188 314.000
46.92183 282.000
46.94177 304.000
46.96172 316.000
46.98167 301.000
47.00161 290.000
47.02156 286.000
47.04151 245.000
47.06146 307.000
47.08140 286.000
47.10135 292.000
47.12130 275.000
47.14124 323.000
47.16119 303.000
47.18114 306.000
47.20108 295.000
47.22103 293.000
47.24098 284.000
47.26092 269.000
47.28087 277.000
47.30082 318.000
47.32077 280.000
47.34071 305.000
47.36066 297.000
47.38061 303.000
47.40055 276.000
47.42050 252.000
47.44045 291.000
47.46039 280.000
47.48034 286.000
47.50029 275.000
47.52024 253.000
47.54018 282.000
47.56013 283.000
47.58008 292.000
47.60002 303.000
47.61997 282.000
47.63992 313.000
47.65986 299.000
47.67981 280.000
47.69976 270.000
47.71970 277.000
47.73965 334.000
47.75960 330.000
47.77955 314.000
47.79949 327.000
47.81944 291.000
47.83939 306.000
47.85933 300.000
47.87928 317.000
47.89923 316.000
47.91917 302.000
47.93912 314.000
47.95907 301.000
47.97902 325.000
47.99896 342.000
48.01891 324.000
48.03886 316.000
48.05880 324.000
48.07875 293.000
48.09870 344.000
48.11864 371.000
48.13859 305.000
48.15854 341.000
48.17848 342.000
48.19843 342.000
48.21838 342.000
48.23833 354.000
48.25827 329.000
48.27822 359.000
48.29817 384.000
48.31811 378.000
48.33806 391.000
48.35801 404.000
48.37795 424.000
48.39790 439.000
48.41785 451.000
48.43780 497.000
48.45774 512.000
48.47769 478.000
48.49764 604.000
48.51758 657.000
48.53753 731.000
48.55748 821.000
48.57742 982.000
48.59737 1096.000
48.61732 1340.000
48.63726 1530.000
48.65721 1720.000
48.67716 1921.000
48.69711 1923.000
48.71705 2110.000
48.73700 1950.000
48.75695 1851.000
48.77689 1752.000
48.79684 1579.000
48.81679 1430.000
48.83673 1374.000
48.85668 1214.000
48.87663 1070.000
48.89658 945.000
48.91652 751.000
48.93647 662.000
48.95642 598.000
48.97636 577.000
48.99631 481.000
49.01626 462.000
49.03620 434.000
49.05615 400.000
49.07610 388.000
49.09605 361.000
49.11599 356.000
49.13594 359.000
49.15589 328.000
49.17583 330.000
49.19578 328.000
49.21573 349.000
49.23567 332.000
49.25562 332.000
49.27557 349.000
49.29551 331.000
49.31546 320.000
49.33541 297.000
49.35536 329.000
49.37530 301.000
49.39525 330.000
49.41520 293.000
49.43514 330.000
49.45509 330.000
49.47504 297.000
49.49498 310.000
49.51493 299.000
49.53488 315.000
49.55483 309.000
49.57477 287.000
49.59472 297.000
49.61467 304.000
49.63461 321.000
49.65456 310.000
49.67451 314.000
49.69445 321.000
49.71440 282.000
49.73435 305.000
49.75429 302.000
49.77424 303.000
49.79419 268.000
49.81414 294.000
49.83408 303.000
49.85403 319.000
49.87398 290.000
49.89392 294.000
49.91387 294.000
49.93382 280.000
49.95376 281.000
49.97371 315.000
49.99366 326.000
50.01361 288.000
50.03355 277.000
50.05350 267.000
50.07345 292.000
50.09339 306.000
50.11334 282.000
50.13329 269.000
50.15323 254.000
50.17318 307.000
50.19313 299.000
50.21307 319.000
50.23302 287.000
50.25297 298.000
50.27292 289.000
50.29286 286.000
50.31281 241.000
50.33276 287.000
50.35270 278.000
50.37265 286.000
50.39260 294.000
50.41254 252.000
50.43249 275.000
50.45244 305.000
50.47239 287.000
50.49233 278.000
50.51228 276.000
50.53223 330.000
50.55217 273.000
50.57212 277.000
50.59207 268.000
50.61201 278.000
50.63196 283.000
50.65191 287.000
50.67186 281.000
50.69180 268.000
50.71175 284.000
50.73170 275.000
50.75164 283.000
50.77159 294.000
50.79154 278.000
50.81148 269.000
50.83143 282.000
50.85138 273.000
50.87132 243.000
50.89127 298.000
50.91122 304.000
50.93117 251.000
50.95111 269.000
50.97106 290.000
50.99101 272.000
51.01095 271.000
51.03090 277.000
51.05085 275.000
51.07079 267.000
51.09074 305.000
51.11069 292.000
51.13064 259.000
51.15058 270.000
51.17053 289.000
51.19048 297.000
51.21042 314.000
51.23037 289.000
51.25032 301.000
51.27026 300.000
51.29021 308.000
51.31016 310.000
51.33010 289.000
51.35005 286.000
51.37000 295.000
51.38995 311.000
51.40989 265.000
51.42984 312.000
51.44979 319.000
51.46973 301.000
51.48968 284.000
51.50963 283.000
51.52957 294.000
51.54952 293.000
51.56947 301.000
51.58942 313.000
51.60936 286.000
51.62931 265.000
51.64926 302.000
51.66920 275.000
51.68915 280.000
51.70910 278.000
51.72904 278.000
51.74899 300.000
51.76894 284.000
51.78888 295.000
51.80883 243.000
51.82878 291.000
51.84873 294.000
51.86867 274.000
51.88862 290.000
51.90857 287.000
51.92851 268.000
51.94846 233.000
51.96841 291.000
51.98835 263.000
52.00830 287.000
52.02825 264.000
52.04820 262.000
52.06814 303.000
52.08809 305.000
52.10804 301.000
52.12798 264.000
52.14793 286.000
52.16788 305.000
52.18782 280.000
52.20777 253.000
52.22772 292.000
52.24767 287.000
52.26761 281.000
52.28756 271.000
52.30751 296.000
52.32745 278.000
52.34740 281.000
52.36735 275.000
52.38729 298.000
52.40724 323.000
52.42719 269.000
52.44713 273.000
52.46708 339.000
52.48703 292.000
52.50698 261.000
52.52692 282.000
52.54687 267.000
52.56682 273.000
52.58676 283.000
52.60671 283.000
52.62666 302.000
52.64660 288.000
52.66655 277.000
52.68650 266.000
52.70645 317.000
52.72639 269.000
52.74634 306.000
52.76629 310.000
52.78623 263.000
52.80618 269.000
52.82613 276.000
52.84607 263.000
52.86602 275.000
52.88597 258.000
52.90591 303.000
52.92586 278.000
52.94581 248.000
52.96576 301.000
52.98570 259.000
53.00565 265.000
53.02560 291.000
53.04554 263.000
53.06549 257.000
53.08544 296.000
53.10538 283.000
53.12533 286.000
53.14528 307.000
53.16523 281.000
53.18517 279.000
53.20512 304.000
53.22507 302.000
53.24501 296.000
53.26496 314.000
53.28491 271.000
53.30485 318.000
53.32480 312.000
53.34475 286.000
53.36469 309.000
53.38464 303.000
53.40459 333.000
53.42454 317.000
53.44448 342.000
53.46443 336.000
53.48438 375.000
53.50432 387.000
53.52427 384.000
53.54422 397.000
53.56416 406.000
53.58411 398.000
53.60406 378.000
53.62401 357.000
53.64395 377.000
53.66390 405.000
53.68385 365.000
53.70379 328.000
53.72374 380.000
53.74369 357.000
53.76363 331.000
53.78358 358.000
53.80353 318.000
53.82348 283.000
53.84342 321.000
53.86337 310.000
53.88332 329.000
53.90326 289.000
53.92321 280.000
53.94316 285.000
53.96310 304.000
53.98305 272.000
54.00300 255.000
54.02294 241.000
54.04289 263.000
54.06284 319.000
54.08279 299.000
54.10273 282.000
54.12268 278.000
54.14263 289.000
54.16257 312.000
54.18252 282.000
54.20247 251.000
54.22241 287.000
54.24236 254.000
54.26231 288.000
54.28226 278.000
54.30220 294.000
54.32215 304.000
54.34210 272.000
54.36204 289.000
54.38199 301.000
54.40194 293.000
54.42188 304.000
54.44183 288.000
54.46178 252.000
54.48172 297.000
54.50167 274.000
54.52162 290.000
54.54157 272.000
54.56151 299.000
54.58146 283.000
54.60141 270.000
54.62135 260.000
54.64130 258.000
54.66125 308.000
54.68119 278.000
54.70114 285.000
54.72109 284.000
54.74104 302.000
54.76098 290.000
54.78093 301.000
54.80088 262.000
54.82082 287.000
54.84077 325.000
54.86072 266.000
54.88066 284.000
54.90061 279.000
54.92056 287.000
54.94050 299.000
54.96045 283.000
54.98040 262.000
55.00035 281.000
55.02029 267.000
55.04024 256.000
55.06019 295.000
55.08013 255.000
55.10008 297.000
55.12003 283.000
55.13997 299.000
55.15992 276.000
55.17987 299.000
55.19982 269.000
55.21976 282.000
55.23971 262.000
55.25966 279.000
55.27960 299.000
55.29955 295.000
55.31950 311.000
55.33944 270.000
55.35939 272.000
55.37934 266.000
55.39929 307.000
55.41923 302.000
55.43918 305.000
55.45913 289.000
55.47907 278.000
55.49902 278.000
55.51897 287.000
55.53891 251.000
55.55886 248.000
55.57881 277.000
55.59875 308.000
55.61870 261.000
55.63865 282.000
55.65860 278.000
55.67854 287.000
55.69849 284.000
55.71844 309.000
55.73838 292.000
55.75833 256.000
55.77828 272.000
55.79822 288.000
55.81817 256.000
55.83812 280.000
55.85807 281.000
55.87801 259.000
55.89796 270.000
55.91791 270.000
55.93785 259.000
55.95780 265.000
55.97775 266.000
55.99769 277.000
56.01764 229.000
56.03759 287.000
56.05753 259.000
56.07748 275.000
56.09743 321.000
56.11738 290.000
56.13732 310.000
56.15727 295.000
56.17722 272.000
56.19716 291.000
56.21711 306.000
56.23706 265.000
56.25700 285.000
56.27695 293.000
56.29690 295.000
56.31685 292.000
56.33679 319.000
56.35674 289.000
56.37669 303.000
56.39663 278.000
56.41658 276.000
56.43653 285.000
56.45647 276.000
56.47642 287.000
56.49637 283.000
56.51631 275.000
56.53626 262.000
56.55621 304.000
56.57616 263.000
56.59610 270.000
56.61605 295.000
56.63600 281.000
56.65594 268.000
56.67589 286.000
56.69584 289.000
56.71578 305.000
56.73573 344.000
56.75568 300.000
56.77563 278.000
56.79557 295.000
56.81552 284.000
56.83547 304.000
56.85541 296.000
56.87536 315.000
56.89531 288.000
56.91525 280.000
56.93520 286.000
56.95515 283.000
56.97510 269.000
56.99504 290.000
57.01499 280.000
57.03494 298.000
57.05488 266.000
57.07483 280.000
57.09478 306.000
57.11472 308.000
57.13467 283.000
57.15462 269.000
57.17456 280.000
57.19451 330.000
57.21446 258.000
57.23441 287.000
57.25435 286.000
57.27430 292.000
57.29425 297.000
57.31419 279.000
57.33414 253.000
57.35409 301.000
57.37403 291.000
57.39398 300.000
57.41393 262.000
57.43388 288.000
57.45382 303.000
57.47377 298.000
57.49372 284.000
57.51366 269.000
57.53361 270.000
57.55356 272.000
57.57350 263.000
57.59345 307.000
57.61340 269.000
57.63334 282.000
57.65329 267.000
57.67324 282.000
57.69319 296.000
57.71313 303.000
57.73308 290.000
57.75303 274.000
57.77297 322.000
57.79292 299.000
57.81287 295.000
57.83281 325.000
57.85276 290.000
57.87271 300.000
57.89266 315.000
57.91260 265.000
57.93255 311.000
57.95250 284.000
57.97244 359.000
57.99239 313.000
58.01234 297.000
58.03228 313.000
58.05223 317.000
58.07218 303.000
58.09212 300.000
58.11207 302.000
58.13202 317.000
58.15197 323.000
58.17191 324.000
58.19186 343.000
58.21181 336.000
58.23175 395.000
58.25170 378.000
58.27165 395.000
58.29159 430.000
58.31154 469.000
58.33149 500.000
58.35144 519.000
58.37138 537.000
58.39133 510.000
58.41128 420.000
58.43122 427.000
58.45117 435.000
58.47112 423.000
58.49106 405.000
58.51101 408.000
58.53096 402.000
58.55090 375.000
58.57085 362.000
58.59080 322.000
58.61075 306.000
58.63069 298.000
58.65064 272.000
58.67059 321.000
58.69053 278.000
58.71048 284.000
58.73043 293.000
58.75037 330.000
58.77032 281.000
58.79027 287.000
58.81022 300.000
58.83016 304.000
58.85011 289.000
58.87006 289.000
58.89000 286.000
58.90995 298.000
58.92990 284.000
58.94984 283.000
58.96979 275.000
58.98974 286.000
59.00969 284.000
59.02963 262.000
59.04958 284.000
59.06953 267.000
59.08947 269.000
59.10942 283.000
59.12937 274.000
59.14931 284.000
59.16926 292.000
59.18921 275.000
59.20915 293.000
59.22910 294.000
59.24905 263.000
59.26900 283.000
59.28894 283.000
59.30889 301.000
59.32884 287.000
59.34878 291.000
59.36873 293.000
59.38868 301.000
59.40862 274.000
59.42857 298.000
59.44852 306.000
59.46847 306.000
59.48841 272.000
59.50836 319.000
59.52831 268.000
59.54825 303.000
59.56820 294.000
59.58815 287.000
59.60809 256.000
59.62804 276.000
59.64799 271.000
59.66793 264.000
59.68788 277.000
59.70783 272.000
59.72778 296.000
59.74772 291.000
59.76767 245.000
59.78762 289.000
59.80756 300.000
59.82751 301.000
59.84746 261.000
59.86740 294.000
59.88735 274.000
59.90730 282.000
59.92725 295.000
59.94719 256.000
59.96714 299.000
59.98709 297.000
60.00703 286.000
60.02698 300.000
60.04693 308.000
60.06687 292.000
60.08682 289.000
60.10677 298.000
60.12671 256.000
60.14666 271.000
60.16661 294.000
60.18656 282.000
60.20650 282.000
60.22645 281.000
60.24640 289.000
60.26634 297.000
60.28629 256.000
60.30624 300.000
60.32618 282.000
60.34613 297.000
60.36608 289.000
60.38603 256.000
60.40597 282.000
60.42592 317.000
60.44587 281.000
60.46581 313.000
60.48576 249.000
60.50571 291.000
60.52565 298.000
60.54560 287.000
60.56555 286.000
60.58550 270.000
60.60544 308.000
60.62539 292.000
60.64534 292.000
60.66528 304.000
60.68523 286.000
60.70518 289.000
60.72512 291.000
60.74507 287.000
60.76502 302.000
60.78496 276.000
60.80491 268.000
60.82486 291.000
60.84481 301.000
60.86475 289.000
60.88470 302.000
60.90465 277.000
60.92459 258.000
60.94454 292.000
60.96449 338.000
60.98443 282.000
61.00438 281.000
61.02433 286.000
61.04428 297.000
61.06422 336.000
61.08417 308.000
61.10412 299.000
61.12406 293.000
61.14401 306.000
61.16396 300.000
61.18390 306.000
61.20385 327.000
61.22380 330.000
61.24374 340.000
61.26369 327.000
61.28364 330.000
61.30359 334.000
61.32353 322.000
61.34348 334.000
61.36343 373.000
61.38337 343.000
61.40332 383.000
61.42327 424.000
61.44321 431.000
61.46316 399.000
61.48311 466.000
61.50306 538.000
61.52300 611.000
61.54295 666.000
61.56290 709.000
61.58284 777.000
61.60279 792.000
61.62274 775.000
61.64268 769.000
61.66263 788.000
61.68258 852.000
61.70252 946.000
61.72247 921.000
61.74242 973.000
61.76237 905.000
61.78231 924.000
61.80226 850.000
61.82221 842.000
61.84215 734.000
61.86210 703.000
61.88205 690.000
61.90199 719.000
61.92194 621.000
61.94189 593.000
61.96184 547.000
61.98178 531.000
62.00173 504.000
62.02168 480.000
62.04162 458.000
62.06157 394.000
62.08152 367.000
62.10146 384.000
62.12141 386.000
62.14136 322.000
62.16131 395.000
62.18125 344.000
62.20120 334.000
62.22115 337.000
62.24109 323.000
62.26104 356.000
62.28099 308.000
62.30093 302.000
62.32088 324.000
62.34083 309.000
62.36077 301.000
62.38072 306.000
62.40067 312.000
62.42062 304.000
62.44056 318.000
62.46051 326.000
62.48046 317.000
62.50040 292.000
62.52035 288.000
62.54030 298.000
62.56024 307.000
62.58019 306.000
62.60014 299.000
62.62009 313.000
62.64003 274.000
62.65998 294.000
62.67993 307.000
62.69987 334.000
62.71982 279.000
62.73977 308.000
62.75971 298.000
62.77966 294.000
62.79961 312.000
62.81955 294.000
62.83950 295.000
62.85945 281.000
62.87940 297.000
62.89934 316.000
62.91929 292.000
62.93924 302.000
62.95918 290.000
62.97913 291.000
62.99908 295.000
63.01902 290.000
63.03897 293.000
63.05892 291.000
63.07887 262.000
63.09881 270.000
63.11876 274.000
63.13871 274.000
63.15865 293.000
63.17860 260.000
63.19855 302.000
63.21849 318.000
63.23844 301.000
63.25839 310.000
63.27833 290.000
63.29828 290.000
63.31823 323.000
63.33818 288.000
63.35812 290.000
63.37807 302.000
63.39802 297.000
63.41796 291.000
63.43791 305.000
63.45786 284.000
63.47780 281.000
63.49775 271.000
63.51770 311.000
63.53765 268.000
63.55759 314.000
63.57754 328.000
63.59749 323.000
63.61743 305.000
63.63738 331.000
63.65733 318.000
63.67727 288.000
63.69722 288.000
63.71717 292.000
63.73712 311.000
63.75706 284.000
63.77701 294.000
63.79696 284.000
63.81690 322.000
63.83685 300.000
63.85680 307.000
63.87674 282.000
63.89669 292.000
63.91664 296.000
63.93658 304.000
63.95653 307.000
63.97648 324.000
63.99643 323.000
64.01637 349.000
64.03632 281.000
64.05627 312.000
64.07621 331.000
64.09616 311.000
64.11611 322.000
64.13605 322.000
64.15600 337.000
64.17595 300.000
64.19590 342.000
64.21584 339.000
64.23579 374.000
64.25574 325.000
64.27568 351.000
64.29563 347.000
64.31558 405.000
64.33552 417.000
64.35547 413.000
64.37542 458.000
64.39536 465.000
64.41531 482.000
64.43526 549.000
64.45521 577.000
64.47515 622.000
64.49510 654.000
64.51505 671.000
64.53499 665.000
64.55494 645.000
64.57489 575.000
64.59483 516.000
64.61478 589.000
64.63473 551.000
64.65468 525.000
64.67462 534.000
64.69457 510.000
64.71452 533.000
64.73446 481.000
64.75441 430.000
64.77436 404.000
64.79430 372.000
64.81425 374.000
64.83420 329.000
64.85414 358.000
64.87409 324.000
64.89404 364.000
64.91399 290.000
64.93393 299.000
64.95388 338.000
64.97383 313.000
64.99377 291.000
65.01372 314.000
65.03367 295.000
65.05361 306.000
65.07356 295.000
65.09351 297.000
65.11346 295.000
65.13340 296.000
65.15335 317.000
65.17330 346.000
65.19324 308.000
65.21319 298.000
65.23314 300.000
65.25308 310.000
65.27303 294.000
65.29298 298.000
65.31293 292.000
65.33287 285.000
65.35282 300.000
65.37277 309.000
65.39271 282.000
65.41266 294.000
65.43261 334.000
65.45255 277.000
65.47250 302.000
65.49245 288.000
65.51239 315.000
65.53234 330.000
65.55229 329.000
65.57224 310.000
65.59218 352.000
65.61213 323.000
65.63208 330.000
65.65202 365.000
65.67197 350.000
65.69192 343.000
65.71186 344.000
65.73181 390.000
65.75176 383.000
65.77171 366.000
65.79165 415.000
65.81160 437.000
65.83155 449.000
65.85149 469.000
65.87144 469.000
65.89139 479.000
65.91133 488.000
65.93128 463.000
65.95123 447.000
65.97117 451.000
65.99112 458.000
66.01107 454.000
66.03102 482.000
66.05096 448.000
66.07091 452.000
66.09086 452.000
66.11080 458.000
66.13075 463.000
66.15070 444.000
66.17064 477.000
66.19059 550.000
66.21054 572.000
66.23049 649.000
66.25043 674.000
66.27038 589.000
66.29033 571.000
66.31027 540.000
66.33022 530.000
66.35017 478.000
66.37011 496.000
66.39006 537.000
66.41001 470.000
66.42995 519.000
66.44990 515.000
66.46985 516.000
66.48980 505.000
66.50974 448.000
66.52969 429.000
66.54964 425.000
66.56958 429.000
66.58953 416.000
66.60948 399.000
66.62942 433.000
66.64937 447.000
66.66932 393.000
66.68927 474.000
66.70921 450.000
66.72916 457.000
66.74911 459.000
66.76905 504.000
66.78900 504.000
66.80895 546.000
66.82889 554.000
66.84884 572.000
66.86879 563.000
66.88874 572.000
66.90868 518.000
66.92863 512.000
66.94858 538.000
66.96852 450.000
66.98847 481.000
67.00842 440.000
67.02836 456.000
67.04831 472.000
67.06826 444.000
67.08820 458.000
67.10815 414.000
67.12810 386.000
67.14805 375.000
67.16799 385.000
67.18794 371.000
67.20789 315.000
67.22783 340.000
67.24778 287.000
67.26773 316.000
67.28767 303.000
67.30762 297.000
67.32757 290.000
67.34752 308.000
67.36746 317.000
67.38741 292.000
67.40736 324.000
67.42730 283.000
67.44725 294.000
67.46720 327.000
67.48714 289.000
67.50709 268.000
67.52704 293.000
67.54698 339.000
67.56693 331.000
67.58688 327.000
67.60683 309.000
67.62677 285.000
67.64672 289.000
67.66667 299.000
67.68661 309.000
67.70656 285.000
67.72651 309.000
67.74645 309.000
67.76640 347.000
67.78635 299.000
67.80630 323.000
67.82624 344.000
67.84619 370.000
67.86614 357.000
67.88608 353.000
67.90603 342.000
67.92598 408.000
67.94592 387.000
67.96587 405.000
67.98582 410.000
68.00576 480.000
68.02571 477.000
68.04566 432.000
68.06561 448.000
68.08555 460.000
68.10550 525.000
68.12545 526.000
68.14539 613.000
68.16534 567.000
68.18529 519.000
68.20523 518.000
68.22518 470.000
68.24513 399.000
68.26508 433.000
68.28502 410.000
68.30497 455.000
68.32492 449.000
68.34486 458.000
68.36481 398.000
68.38476 415.000
68.40470 386.000
68.42465 329.000
68.44460 316.000
68.46455 311.000
68.48449 341.000
68.50444 305.000
68.52439 347.000
68.54433 320.000
68.56428 323.000
68.58423 311.000
68.60417 253.000
68.62412 293.000
68.64407 294.000
68.66401 263.000
68.68396 296.000
68.70391 287.000
68.72386 278.000
68.74380 299.000
68.76375 272.000
68.78370 313.000
68.80364 266.000
68.82359 289.000
68.84354 265.000
68.86348 301.000
68.88343 275.000
68.90338 308.000
68.92333 293.000
68.94327 312.000
68.96322 284.000
68.98317 277.000
69.00311 282.000
69.02306 300.000
69.04301 311.000
69.06295 301.000
69.08290 284.000
69.10285 281.000
69.12279 274.000
69.14274 250.000
69.16269 288.000
69.18264 286.000
69.20258 284.000
69.22253 285.000
69.24248 252.000
69.26242 297.000
69.28237 267.000
69.30232 274.000
69.32226 279.000
69.34221 257.000
69.36216 281.000
69.38211 277.000
69.40205 297.000
69.42200 289.000
69.44195 333.000
69.46189 289.000
69.48184 304.000
69.50179 277.000
69.52173 303.000
69.54168 280.000
69.56163 285.000
69.58157 306.000
69.60152 285.000
69.62147 309.000
69.64142 263.000
69.66136 295.000
69.68131 301.000
69.70126 283.000
69.72120 281.000
69.74115 281.000
69.76110 300.000
69.78104 285.000
69.80099 299.000
69.82094 309.000
69.84089 263.000
69.86083 277.000
69.88078 276.000
69.90073 310.000
69.92067 276.000
69.94062 282.000
69.96057 297.000
69.98051 299.000
70.00046 276.000
70.02041 298.000
70.04035 275.000
70.06030 292.000
70.08025 290.000
70.10020 296.000
70.12014 308.000
70.14009 279.000
70.16004 280.000
70.17998 252.000
70.19993 240.000
70.21988 263.000
70.23982 296.000
70.25977 257.000
70.27972 288.000
70.29967 303.000
70.31961 285.000
70.33956 285.000
70.35951 239.000
70.37945 277.000
70.39940 276.000
70.41935 286.000
70.43929 290.000
70.45924 286.000
70.47919 276.000
70.49914 265.000
70.51908 297.000
70.53903 285.000
70.55898 288.000
70.57892 297.000
70.59887 304.000
70.61882 287.000
70.63876 294.000
70.65871 281.000
70.67866 287.000
70.69860 275.000
70.71855 319.000
70.73850 263.000
70.75845 304.000
70.77839 273.000
70.79834 286.000
70.81829 279.000
70.83823 275.000
70.85818 281.000
70.87813 295.000
70.89807 277.000
70.91802 313.000
70.93797 236.000
70.95792 308.000
70.97786 259.000
70.99781 284.000
71.01776 272.000
71.03770 262.000
71.05765 259.000
71.07760 289.000
71.09754 279.000
71.11749 280.000
71.13744 273.000
71.15738 269.000
71.17733 297.000
71.19728 298.000
71.21723 303.000
71.23717 288.000
71.25712 261.000
71.27707 282.000
71.29701 269.000
71.31696 255.000
71.33691 284.000
71.35685 296.000
71.37680 280.000
71.39675 284.000
71.41670 287.000
71.43664 271.000
71.45659 271.000
71.47654 280.000
71.49648 265.000
71.51643 301.000
71.53638 286.000
71.55632 241.000
71.57627 261.000
71.59622 289.000
71.61616 291.000
71.63611 264.000
71.65606 274.000
71.67601 275.000
71.69595 282.000
71.71590 298.000
71.73585 281.000
71.75579 283.000
71.77574 290.000
71.79569 260.000
71.81563 307.000
71.83558 285.000
71.85553 325.000
71.87548 285.000
71.89542 278.000
71.91537 282.000
71.93532 264.000
71.95526 253.000
71.97521 283.000
71.99516 285.000
72.01510 280.000
72.03505 283.000
72.05500 272.000
72.07495 278.000
72.09489 275.000
72.11484 296.000
72.13479 284.000
72.15473 291.000
72.17468 281.000
72.19463 298.000
72.21457 345.000
72.23452 303.000
72.25447 313.000
72.27441 330.000
72.29436 287.000
72.31431 335.000
72.33426 311.000
72.35420 358.000
72.37415 344.000
72.39410 360.000
72.41404 386.000
72.43399 366.000
72.45394 359.000
72.47388 382.000
72.49383 349.000
72.51378 300.000
72.53373 342.000
72.55367 350.000
72.57362 346.000
72.59357 341.000
72.61351 345.000
72.63346 335.000
72.65341 339.000
72.67335 321.000
72.69330 312.000
72.71325 315.000
72.73319 314.000
72.75314 316.000
72.77309 277.000
72.79304 307.000
72.81298 250.000
72.83293 293.000
72.85288 313.000
72.87282 317.000
72.89277 295.000
72.91272 278.000
72.93266 290.000
72.95261 299.000
72.97256 284.000
72.99251 289.000
73.01245 274.000
73.03240 279.000
73.05235 264.000
73.07229 282.000
73.09224 313.000
73.11219 295.000
73.13213 293.000
73.15208 289.000
73.17203 301.000
73.19197 299.000
73.21192 263.000
73.23187 291.000
73.25182 297.000
73.27176 287.000
73.29171 278.000
73.31166 283.000
73.33160 319.000
73.35155 309.000
73.37150 272.000
73.39144 312.000
73.41139 309.000
73.43134 301.000
73.45129 321.000
73.47123 313.000
73.49118 294.000
73.51113 307.000
73.53107 371.000
73.55102 335.000
73.57097 351.000
73.59091 369.000
73.61086 391.000
73.63081 377.000
73.65076 349.000
73.67070 383.000
73.69065 368.000
73.71060 411.000
73.73054 378.000
73.75049 381.000
73.77044 373.000
73.79038 319.000
73.81033 349.000
73.83028 346.000
73.85022 340.000
73.87017 363.000
73.89012 351.000
73.91007 358.000
73.93001 353.000
73.94996 301.000
73.96991 325.000
73.98985 308.000
74.00980 312.000
74.02975 308.000
74.04969 288.000
74.06964 309.000
74.08959 294.000
74.10954 303.000
74.12948 301.000
74.14943 319.000
74.16938 278.000
74.18932 275.000
74.20927 295.000
74.22922 300.000
74.24916 274.000
74.26911 301.000
74.28906 265.000
74.30900 296.000
74.32895 297.000
74.34890 286.000
74.36885 288.000
74.38879 279.000
74.40874 262.000
74.42869 273.000
74.44863 273.000
74.46858 303.000
74.48853 296.000
74.50847 287.000
74.52842 287.000
74.54837 303.000
74.56832 304.000
74.58826 306.000
74.60821 288.000
74.62816 307.000
74.64810 292.000
74.66805 268.000
74.68800 305.000
74.70794 309.000
74.72789 274.000
74.74784 284.000
74.76778 290.000
74.78773 283.000
74.80768 273.000
74.82763 298.000
74.84757 310.000
74.86752 305.000
74.88747 283.000
74.90741 290.000
74.92736 320.000
74.94731 324.000
74.96725 347.000
74.98720 365.000
75.00715 342.000
75.02710 405.000
75.04704 344.000
75.06699 350.000
75.08694 339.000
75.10688 398.000
75.12683 359.000
75.14678 355.000
75.16672 349.000
75.18667 344.000
75.20662 389.000
75.22657 374.000
75.24651 404.000
75.26646 391.000
75.28641 393.000
75.30635 389.000
75.32630 368.000
75.34625 354.000
75.36619 344.000
75.38614 371.000
75.40609 328.000
75.42603 337.000
75.44598 340.000
75.46593 336.000
75.48588 312.000
75.50582 362.000
75.52577 315.000
75.54572 353.000
75.56566 300.000
75.58561 325.000
75.60556 308.000
75.62550 308.000
75.64545 306.000
75.66540 292.000
75.68535 295.000
75.70529 296.000
75.72524 306.000
75.74519 305.000
75.76513 337.000
75.78508 314.000
75.80503 260.000
75.82497 347.000
75.84492 298.000
75.86487 312.000
75.88481 293.000
75.90476 276.000
75.92471 283.000
75.94466 305.000
75.96460 315.000
75.98455 321.000
76.00450 335.000
76.02444 303.000
76.04439 334.000
76.06434 351.000
76.08428 305.000
76.10423 359.000
76.12418 339.000
76.14413 311.000
76.16407 331.000
76.18402 305.000
76.20397 349.000
76.22391 296.000
76.24386 308.000
76.26381 266.000
76.28375 309.000
76.30370 324.000
76.32365 317.000
76.34359 316.000
76.36354 327.000
76.38349 284.000
76.40344 319.000
76.42338 262.000
76.44333 276.000
76.46328 289.000
76.48322 308.000
76.50317 286.000
76.52312 292.000
76.54306 312.000
76.56301 277.000
76.58296 291.000
76.60291 285.000
76.62285 268.000
76.64280 291.000
76.66275 271.000
76.68269 269.000
76.70264 253.000
76.72259 264.000
76.74253 291.000
76.76248 277.000
76.78243 304.000
76.80238 263.000
76.82232 290.000
76.84227 305.000
76.86222 288.000
76.88216 280.000
76.90211 302.000
76.92206 302.000
76.94200 289.000
76.96195 286.000
76.98190 323.000
77.00184 282.000
77.02179 289.000
77.04174 276.000
77.06169 299.000
77.08163 255.000
77.10158 261.000
77.12153 289.000
77.14147 273.000
77.16142 271.000
77.18137 265.000
77.20131 263.000
77.22126 297.000
77.24121 292.000
77.26116 286.000
77.28110 283.000
77.30105 278.000
77.32100 287.000
77.34094 291.000
77.36089 292.000
77.38084 287.000
77.40078 281.000
77.42073 303.000
77.44068 279.000
77.46062 337.000
77.48057 314.000
77.50052 294.000
77.52047 284.000
77.54041 302.000
77.56036 319.000
77.58031 345.000
77.60025 349.000
77.62020 364.000
77.64015 336.000
77.66009 376.000
77.68004 402.000
77.69999 382.000
77.71994 380.000
77.73988 414.000
77.75983 371.000
77.77978 431.000
77.79972 399.000
77.81967 379.000
77.83962 433.000
77.85956 410.000
77.87951 361.000
77.89946 390.000
77.91940 403.000
77.93935 366.000
77.95930 323.000
77.97925 366.000
77.99919 385.000
78.01914 387.000
78.03909 382.000
78.05903 389.000
78.07898 394.000
78.09893 392.000
78.11887 376.000
78.13882 383.000
78.15877 372.000
78.17872 364.000
78.19866 429.000
78.21861 418.000
78.23856 390.000
78.25850 356.000
78.27845 376.000
78.29840 403.000
78.31834 410.000
78.33829 353.000
78.35824 377.000
78.37819 350.000
78.39813 390.000
78.41808 348.000
78.43803 375.000
78.45797 359.000
78.47792 336.000
78.49787 372.000
78.51781 406.000
78.53776 344.000
78.55771 336.000
78.57765 357.000
78.59760 287.000
78.61755 314.000
78.63750 330.000
78.65744 334.000
78.67739 271.000
78.69734 308.000
78.71728 320.000
78.73723 269.000
78.75718 302.000
78.77712 296.000
78.79707 309.000
78.81702 290.000
78.83697 274.000
78.85691 328.000
78.87686 288.000
78.89681 297.000
78.91675 289.000
78.93670 268.000
78.95665 282.000
78.97659 304.000
78.99654 263.000
79.01649 293.000
79.03643 255.000
79.05638 279.000
79.07633 259.000
79.09628 272.000
79.11622 291.000
79.13617 254.000
79.15612 291.000
79.17606 282.000
79.19601 312.000
79.21596 287.000
79.23590 296.000
79.25585 291.000
79.27580 282.000
79.29575 293.000
79.31569 285.000
79.33564 298.000
79.35559 299.000
79.37553 283.000
79.39548 275.000
79.41543 248.000
79.43537 297.000
79.45532 262.000
79.47527 268.000
79.49521 292.000
79.51516 287.000
79.53511 306.000
79.55506 255.000
79.57500 285.000
79.59495 300.000
79.61490 266.000
79.63484 267.000
79.65479 287.000
79.67474 305.000
79.69468 303.000
79.71463 263.000
79.73458 281.000
79.75453 260.000
79.77447 271.000
79.79442 308.000
79.81437 257.000
79.83431 295.000
79.85426 255.000
79.87421 296.000
79.89415 263.000
79.91410 286.000
79.93405 290.000
79.95399 302.000
79.97394 289.000
79.99389 264.000
80.01384 287.000
80.03378 284.000
80.05373 270.000
80.07368 297.000
80.09362 302.000
80.11357 279.000
80.13352 330.000
80.15346 316.000
80.17341 279.000
80.19336 312.000
80.21331 295.000
80.23325 315.000
80.25320 284.000
80.27315 283.000
80.29309 290.000
80.31304 292.000
80.33299 263.000
80.35293 288.000
80.37288 284.000
80.39283 308.000
80.41278 298.000
80.43272 315.000
80.45267 300.000
80.47262 298.000
80.49256 320.000
80.51251 289.000
80.53246 287.000
80.55240 287.000
80.57235 257.000
80.59230 258.000
80.61224 273.000
80.63219 290.000
80.65214 285.000
80.67209 304.000
80.69203 285.000
80.71198 307.000
80.73193 294.000
80.75187 288.000
80.77182 299.000
80.79177 281.000
80.81171 257.000
80.83166 284.000
80.85161 258.000
80.87156 297.000
80.89150 312.000
80.91145 291.000
80.93140 307.000
80.95134 321.000
80.97129 312.000
80.99124 271.000
81.01118 287.000
81.03113 310.000
81.05108 306.000
81.07102 283.000
81.09097 275.000
81.11092 259.000
81.13087 269.000
81.15081 312.000
81.17076 287.000
81.19071 263.000
81.21065 288.000
81.23060 292.000
81.25055 303.000
81.27049 303.000
81.29044 299.000
81.31039 277.000
81.33034 270.000
81.35028 302.000
81.37023 269.000
81.39018 272.000
81.41012 320.000
81.43007 298.000
81.45002 283.000
81.46996 284.000
81.48991 280.000
81.50986 289.000
81.52980 319.000
81.54975 292.000
81.56970 263.000
81.58965 283.000
81.60959 284.000
81.62954 274.000
81.64949 317.000
81.66943 263.000
81.68938 294.000
81.70933 287.000
81.72927 302.000
81.74922 242.000
81.76917 258.000
81.78912 262.000
81.80906 294.000
81.82901 281.000
81.84896 287.000
81.86890 279.000
81.88885 273.000
81.90880 253.000
81.92874 304.000
81.94869 267.000
81.96864 299.000
81.98859 308.000
82.00853 283.000
82.02848 293.000
82.04843 287.000
82.06837 290.000
82.08832 287.000
82.10827 308.000
82.12821 265.000
82.14816 268.000
82.16811 274.000
82.18805 293.000
82.20800 322.000
82.22795 312.000
82.24790 296.000
82.26784 314.000
82.28779 349.000
82.30774 322.000
82.32768 318.000
82.34763 330.000
82.36758 335.000
82.38752 327.000
82.40747 340.000
82.42742 303.000
82.44737 332.000
82.46731 326.000
82.48726 310.000
82.50721 310.000
82.52715 311.000
82.54710 298.000
82.56705 304.000
82.58699 350.000
82.60694 326.000
82.62689 320.000
82.64683 323.000
82.66678 319.000
82.68673 308.000
82.70668 299.000
82.72662 288.000
82.74657 306.000
82.76652 311.000
82.78646 299.000
82.80641 282.000
82.82636 292.000
82.84630 290.000
82.86625 279.000
82.88620 304.000
82.90615 293.000
82.92609 300.000
82.94604 319.000
82.96599 312.000
82.98593 293.000
83.00588 280.000
83.02583 301.000
83.04577 288.000
83.06572 315.000
83.08567 296.000
83.10561 325.000
83.12556 326.000
83.14551 327.000
83.16546 342.000
83.18540 334.000
83.20535 324.000
83.22530 294.000
83.24524 322.000
83.26519 326.000
83.28514 337.000
83.30508 298.000
83.32503 313.000
83.34498 329.000
83.36493 357.000
83.38487 310.000
83.40482 336.000
83.42477 323.000
83.44471 329.000
83.46466 346.000
83.48461 317.000
83.50455 334.000
83.52450 341.000
83.54445 345.000
83.56440 312.000
83.58434 323.000
83.60429 337.000
83.62424 310.000
83.64418 332.000
83.66413 307.000
83.68408 277.000
83.70402 299.000
83.72397 337.000
83.74392 327.000
83.76386 276.000
83.78381 316.000
83.80376 288.000
83.82371 324.000
83.84365 297.000
83.86360 299.000
83.88355 289.000
83.90349 315.000
83.92344 319.000
83.94339 314.000
83.96333 304.000
83.98328 293.000
84.00323 272.000
84.02318 309.000
84.04312 311.000
84.06307 290.000
84.08302 288.000
84.10296 315.000
84.12291 290.000
84.14286 309.000
84.16280 298.000
84.18275 305.000
84.20270 279.000
84.22264 270.000
84.24259 280.000
84.26254 290.000
84.28249 290.000
84.30243 286.000
84.32238 238.000
84.34233 308.000
84.36227 336.000
84.38222 312.000
84.40217 315.000
84.42211 318.000
84.44206 331.000
84.46201 299.000
84.48196 304.000
84.50190 332.000
84.52185 321.000
84.54180 333.000
84.56174 335.000
84.58169 322.000
84.60164 342.000
84.62158 351.000
84.64153 364.000
84.66148 338.000
84.68142 353.000
84.70137 430.000
84.72132 393.000
84.74127 396.000
84.76121 417.000
84.78116 404.000
84.80111 409.000
84.82105 361.000
84.84100 372.000
84.86095 397.000
84.88089 347.000
84.90084 380.000
84.92079 342.000
84.94074 348.000
84.96068 355.000
84.98063 303.000
85.00058 349.000
85.02052 351.000
85.04047 369.000
85.06042 347.000
85.08036 320.000
85.10031 313.000
85.12026 312.000
85.14021 290.000
85.16015 312.000
85.18010 295.000
85.20005 300.000
85.21999 321.000
85.23994 324.000
85.25989 320.000
85.27983 314.000
85.29978 279.000
85.31973 279.000
85.33967 290.000
85.35962 277.000
85.37957 285.000
85.39952 292.000
85.41946 286.000
85.43941 278.000
85.45936 277.000
85.47930 274.000
85.49925 306.000
85.51920 269.000
85.53914 287.000
85.55909 281.000
85.57904 283.000
85.59899 285.000
85.61893 271.000
85.63888 291.000
85.65883 317.000
85.67877 277.000
85.69872 268.000
85.71867 275.000
85.73861 282.000
85.75856 272.000
85.77851 284.000
85.79845 237.000
85.81840 277.000
85.83835 307.000
85.85830 271.000
85.87824 279.000
85.89819 264.000
85.91814 300.000
85.93808 289.000
85.95803 259.000
85.97798 306.000
85.99792 272.000
86.01787 279.000
86.03782 292.000
86.05777 299.000
86.07771 297.000
86.09766 278.000
86.11761 266.000
86.13755 275.000
86.15750 293.000
86.17745 279.000
86.19739 284.000
86.21734 309.000
86.23729 294.000
86.25723 277.000
86.27718 276.000
86.29713 292.000
86.31708 303.000
86.33702 307.000
86.35697 304.000
86.37692 301.000
86.39686 303.000
86.41681 297.000
86.43676 304.000
86.45670 306.000
86.47665 285.000
86.49660 275.000
86.51655 289.000
86.53649 297.000
86.55644 338.000
86.57639 279.000
86.59633 300.000
86.61628 295.000
86.63623 282.000
86.65617 296.000
86.67612 301.000
86.69607 301.000
86.71602 303.000
86.73596 307.000
86.75591 298.000
86.77586 304.000
86.79580 283.000
86.81575 295.000
86.83570 290.000
86.85564 334.000
86.87559 265.000
86.89554 265.000
86.91548 274.000
86.93543 332.000
86.95538 282.000
86.97533 286.000
86.99527 326.000
87.01522 282.000
87.03517 314.000
87.05511 282.000
87.07506 287.000
87.09501 317.000
87.11495 293.000
87.13490 286.000
87.15485 315.000
87.17480 304.000
87.19474 304.000
87.21469 279.000
87.23464 279.000
87.25458 255.000
87.27453 286.000
87.29448 281.000
87.31442 295.000
87.33437 276.000
87.35432 314.000
87.37426 306.000
87.39421 314.000
87.41416 262.000
87.43411 264.000
87.45405 288.000
87.47400 289.000
87.49395 272.000
87.51389 297.000
87.53384 279.000
87.55379 287.000
87.57373 296.000
87.59368 298.000
87.61363 274.000
87.63358 274.000
87.65352 264.000
87.67347 268.000
87.69342 284.000
87.71336 281.000
87.73331 261.000
87.75326 268.000
87.77320 257.000
87.79315 285.000
87.81310 251.000
87.83304 270.000
87.85299 280.000
87.87294 296.000
87.89289 271.000
87.91283 256.000
87.93278 293.000
87.95273 266.000
87.97267 274.000
87.99262 303.000
88.01257 262.000
88.03251 296.000
88.05246 290.000
88.07241 284.000
88.09236 281.000
88.11230 273.000
88.13225 297.000
88.15220 281.000
88.17214 257.000
88.19209 276.000
88.21204 299.000
88.23198 284.000
88.25193 277.000
88.27188 288.000
88.29183 274.000
88.31177 310.000
88.33172 282.000
88.35167 256.000
88.37161 294.000
88.39156 303.000
88.41151 295.000
88.43145 278.000
88.45140 273.000
88.47135 273.000
88.49129 278.000
88.51124 290.000
88.53119 301.000
88.55114 273.000
88.57108 277.000
88.59103 276.000
88.61098 281.000
88.63092 302.000
88.65087 238.000
88.67082 264.000
88.69076 276.000
88.71071 282.000
88.73066 280.000
88.75061 307.000
88.77055 304.000
88.79050 277.000
88.81045 239.000
88.83039 295.000
88.85034 276.000
88.87029 262.000
88.89023 279.000
88.91018 270.000
88.93013 257.000
88.95007 283.000
88.97002 290.000
88.98997 249.000
89.00992 298.000
89.02986 283.000
89.04981 281.000
89.06976 277.000
89.08970 265.000
89.10965 317.000
89.12960 253.000
89.14954 290.000
89.16949 303.000
89.18944 298.000
89.20939 285.000
89.22933 293.000
89.24928 295.000
89.26923 264.000
89.28917 273.000
89.30912 284.000
89.32907 267.000
89.34901 296.000
89.36896 270.000
89.38891 287.000
89.40885 279.000
89.42880 312.000
89.44875 292.000
89.46870 292.000
89.48864 279.000
89.50859 268.000
89.52854 290.000
89.54848 322.000
89.56843 276.000
89.58838 283.000
89.60832 293.000
89.62827 296.000
89.64822 281.000
89.66817 282.000
89.68811 316.000
89.70806 330.000
89.72801 282.000
89.74795 315.000
89.76790 347.000
89.78785 323.000
89.80779 324.000
89.82774 326.000
89.84769 328.000
89.86764 340.000
89.88758 285.000
89.90753 318.000
89.92748 301.000
89.94742 335.000
89.96737 332.000
89.98732 338.000
90.00726 323.000
