10.00000 112.000
10.01995 111.000
10.03989 130.000
10.05984 101.000
10.07979 105.000
10.09973 133.000
10.11968 118.000
10.13963 109.000
10.15958 110.000
10.17952 130.000
10.19947 116.000
10.21942 119.000
10.23936 118.000
10.25931 96.000
10.27926 109.000
10.29920 122.000
10.31915 127.000
10.33910 104.000
10.35905 114.000
10.37899 111.000
10.39894 120.000
10.41889 135.000
10.43883 115.000
10.45878 119.000
10.47873 116.000
10.49867 97.000
10.51862 96.000
10.53857 134.000
10.55851 116.000
10.57846 123.000
10.59841 127.000
10.61836 117.000
10.63830 113.000
10.65825 109.000
10.67820 130.000
10.69814 106.000
10.71809 113.000
10.73804 137.000
10.75798 124.000
10.77793 109.000
10.79788 110.000
10.81783 128.000
10.83777 117.000
10.85772 115.000
10.87767 101.000
10.89761 120.000
10.91756 116.000
10.93751 111.000
10.95745 124.000
10.97740 113.000
10.99735 113.000
11.01730 114.000
11.03724 104.000
11.05719 132.000
11.07714 102.000
11.09708 108.000
11.11703 126.000
11.13698 95.000
11.15692 108.000
11.17687 112.000
11.19682 109.000
11.21676 104.000
11.23671 114.000
11.25666 121.000
11.27661 113.000
11.29655 132.000
11.31650 104.000
11.33645 114.000
11.35639 94.000
11.37634 131.000
11.39629 127.000
11.41623 120.000
11.43618 126.000
11.45613 110.000
11.47608 120.000
11.49602 113.000
11.51597 93.000
11.53592 107.000
11.55586 108.000
11.57581 114.000
11.59576 96.000
11.61570 101.000
11.63565 103.000
11.65560 114.000
11.67554 114.000
11.69549 97.000
11.71544 115.000
11.73539 108.000
11.75533 109.000
11.77528 95.000
11.79523 105.000
11.81517 112.000
11.83512 123.000
11.85507 90.000
11.87501 113.000
11.89496 125.000
11.91491 105.000
11.93486 108.000
11.95480 116.000
11.97475 110.000
11.99470 111.000
12.01464 123.000
12.03459 133.000
12.05454 119.000
12.07448 106.000
12.09443 130.000
12.11438 109.000
12.13432 109.000
12.15427 118.000
12.17422 116.000
12.19417 114.000
12.21411 82.000
12.23406 116.000
12.25401 116.000
12.27395 92.000
12.29390 109.000
12.31385 89.000
12.33379 101.000
12.35374 100.000
12.37369 111.000
12.39364 92.000
12.41358 94.000
12.43353 109.000
12.45348 119.000
12.47342 109.000
12.49337 100.000
12.51332 105.000
12.53326 101.000
12.55321 132.000
12.57316 104.000
12.59311 122.000
12.61305 117.000
12.63300 110.000
12.65295 115.000
12.67289 96.000
12.69284 86.000
12.71279 110.000
12.73273 121.000
12.75268 102.000
12.77263 105.000
12.79257 106.000
12.81252 100.000
12.83247 95.000
12.85242 101.000
12.87236 110.000
12.89231 116.000
12.91226 97.000
12.93220 111.000
12.95215 115.000
12.97210 115.000
12.99204 97.000
13.01199 109.000
13.03194 97.000
13.05189 112.000
13.07183 113.000
13.09178 118.000
13.11173 106.000
13.13167 107.000
13.15162 116.000
13.17157 106.000
13.19151 113.000
13.21146 109.000
13.23141 109.000
13.25135 100.000
13.27130 112.000
13.29125 98.000
13.31120 98.000
13.33114 127.000
13.35109 110.000
13.37104 119.000
13.39098 100.000
13.41093 102.000
13.43088 110.000
13.45082 94.000
13.47077 108.000
13.49072 115.000
13.51067 113.000
13.53061 115.000
13.55056 93.000
13.57051 126.000
13.59045 92.000
13.61040 108.000
13.63035 87.000
13.65029 103.000
13.67024 118.000
13.69019 84.000
13.71013 106.000
13.73008 96.000
13.75003 120.000
13.76998 91.000
13.78992 108.000
13.80987 101.000
13.82982 124.000
13.84976 100.000
13.86971 115.000
13.88966 110.000
13.90960 97.000
13.92955 100.000
13.94950 93.000
13.96945 110.000
13.98939 127.000
14.00934 109.000
14.02929 113.000
14.04923 125.000
14.06918 102.000
14.08913 116.000
14.10907 94.000
14.12902 109.000
14.14897 127.000
14.16892 103.000
14.18886 112.000
14.20881 125.000
14.22876 129.000
14.24870 106.000
14.26865 92.000
14.28860 94.000
14.30854 117.000
14.32849 94.000
14.34844 105.000
14.36838 123.000
14.38833 128.000
14.40828 111.000
14.42823 127.000
14.44817 119.000
14.46812 120.000
14.48807 135.000
14.50801 123.000
14.52796 121.000
14.54791 133.000
14.56785 169.000
14.58780 169.000
14.60775 187.000
14.62770 185.000
14.64764 187.000
14.66759 219.000
14.68754 252.000
14.70748 246.000
14.72743 242.000
14.74738 228.000
14.76732 212.000
14.78727 204.000
14.80722 186.000
14.82716 160.000
14.84711 167.000
14.86706 150.000
14.88701 109.000
14.90695 143.000
14.92690 127.000
14.94685 134.000
14.96679 138.000
14.98674 116.000
15.00669 126.000
15.02663 139.000
15.04658 120.000
15.06653 125.000
15.08648 146.000
15.10642 123.000
15.12637 97.000
15.14632 120.000
15.16626 113.000
15.18621 101.000
15.20616 129.000
15.22610 110.000
15.24605 109.000
15.26600 102.000
15.28594 104.000
15.30589 86.000
15.32584 123.000
15.34579 120.000
15.36573 110.000
15.38568 119.000
15.40563 99.000
15.42557 121.000
15.44552 105.000
15.46547 105.000
15.48541 109.000
15.50536 110.000
15.52531 107.000
15.54526 122.000
15.56520 111.000
15.58515 132.000
15.60510 124.000
15.62504 122.000
15.64499 160.000
15.66494 136.000
15.68488 140.000
15.70483 140.000
15.72478 124.000
15.74472 107.000
15.76467 127.000
15.78462 121.000
15.80457 139.000
15.82451 121.000
15.84446 118.000
15.86441 89.000
15.88435 117.000
15.90430 132.000
15.92425 145.000
15.94419 102.000
15.96414 112.000
15.98409 109.000
16.00404 114.000
16.02398 98.000
16.04393 114.000
16.06388 98.000
16.08382 106.000
16.10377 103.000
16.12372 108.000
16.14366 118.000
16.16361 106.000
16.18356 102.000
16.20351 106.000
16.22345 126.000
16.24340 112.000
16.26335 115.000
16.28329 108.000
16.30324 107.000
16.32319 104.000
16.34313 112.000
16.36308 100.000
16.38303 118.000
16.40297 95.000
16.42292 108.000
16.44287 112.000
16.46282 112.000
16.48276 110.000
16.50271 120.000
16.52266 109.000
16.54260 123.000
16.56255 129.000
16.58250 109.000
16.60244 114.000
16.62239 110.000
16.64234 120.000
16.66229 116.000
16.68223 124.000
16.70218 102.000
16.72213 135.000
16.74207 118.000
16.76202 119.000
16.78197 116.000
16.80191 162.000
16.82186 119.000
16.84181 132.000
16.86175 141.000
16.88170 137.000
16.90165 122.000
16.92160 129.000
16.94154 125.000
16.96149 119.000
16.98144 136.000
17.00138 126.000
17.02133 120.000
17.04128 142.000
17.06122 116.000
17.08117 132.000
17.10112 140.000
17.12107 147.000
17.14101 149.000
17.16096 146.000
17.18091 159.000
17.20085 153.000
17.22080 161.000
17.24075 175.000
17.26069 156.000
17.28064 169.000
17.30059 159.000
17.32053 164.000
17.34048 158.000
17.36043 153.000
17.38038 145.000
17.40032 137.000
17.42027 124.000
17.44022 123.000
17.46016 119.000
17.48011 140.000
17.50006 122.000
17.52000 129.000
17.53995 109.000
17.55990 101.000
17.57985 127.000
17.59979 136.000
17.61974 113.000
17.63969 122.000
17.65963 111.000
17.67958 93.000
17.69953 96.000
17.71947 113.000
17.73942 122.000
17.75937 111.000
17.77932 107.000
17.79926 104.000
17.81921 119.000
17.83916 104.000
17.85910 120.000
17.87905 87.000
17.89900 117.000
17.91894 109.000
17.93889 96.000
17.95884 118.000
17.97878 116.000
17.99873 117.000
18.01868 112.000
18.03863 111.000
18.05857 117.000
18.07852 133.000
18.09847 109.000
18.11841 121.000
18.13836 111.000
18.15831 131.000
18.17825 116.000
18.19820 118.000
18.21815 114.000
18.23810 117.000
18.25804 121.000
18.27799 120.000
18.29794 117.000
18.31788 131.000
18.33783 130.000
18.35778 175.000
18.37772 208.000
18.39767 230.000
18.41762 253.000
18.43756 233.000
18.45751 188.000
18.47746 182.000
18.49741 145.000
18.51735 131.000
18.53730 115.000
18.55725 132.000
18.57719 112.000
18.59714 117.000
18.61709 98.000
18.63703 105.000
18.65698 121.000
18.67693 127.000
18.69688 121.000
18.71682 130.000
18.73677 118.000
18.75672 116.000
18.77666 115.000
18.79661 105.000
18.81656 114.000
18.83650 100.000
18.85645 104.000
18.87640 102.000
18.89634 100.000
18.91629 122.000
18.93624 128.000
18.95619 111.000
18.97613 120.000
18.99608 106.000
19.01603 124.000
19.03597 112.000
19.05592 105.000
19.07587 122.000
19.09581 117.000
19.11576 105.000
19.13571 120.000
19.15566 126.000
19.17560 121.000
19.19555 119.000
19.21550 126.000
19.23544 102.000
19.25539 105.000
19.27534 119.000
19.29528 122.000
19.31523 117.000
19.33518 124.000
19.35513 119.000
19.37507 106.000
19.39502 111.000
19.41497 131.000
19.43491 126.000
19.45486 91.000
19.47481 107.000
19.49475 128.000
19.51470 104.000
19.53465 98.000
19.55459 112.000
19.57454 98.000
19.59449 118.000
19.61444 116.000
19.63438 120.000
19.65433 115.000
19.67428 114.000
19.69422 127.000
19.71417 109.000
19.73412 93.000
19.75406 118.000
19.77401 121.000
19.79396 122.000
19.81391 102.000
19.83385 127.000
19.85380 119.000
19.87375 123.000
19.89369 134.000
19.91364 165.000
19.93359 191.000
19.95353 265.000
19.97348 242.000
19.99343 241.000
20.01337 247.000
20.03332 179.000
20.05327 164.000
20.07322 142.000
20.09316 131.000
20.11311 146.000
20.13306 127.000
20.15300 106.000
20.17295 133.000
20.19290 131.000
20.21284 130.000
20.23279 123.000
20.25274 126.000
20.27269 129.000
20.29263 122.000
20.31258 133.000
20.33253 128.000
20.35247 126.000
20.37242 145.000
20.39237 148.000
20.41231 172.000
20.43226 186.000
20.45221 235.000
20.47215 235.000
20.49210 194.000
20.51205 238.000
20.53200 257.000
20.55194 260.000
20.57189 325.000
20.59184 344.000
20.61178 325.000
20.63173 357.000
20.65168 331.000
20.67162 287.000
20.69157 227.000
20.71152 242.000
20.73147 192.000
20.75141 174.000
20.77136 189.000
20.79131 183.000
20.81125 161.000
20.83120 159.000
20.85115 167.000
20.87109 150.000
20.89104 150.000
20.91099 194.000
20.93094 179.000
20.95088 190.000
20.97083 173.000
20.99078 170.000
21.01072 147.000
21.03067 151.000
21.05062 135.000
21.07056 136.000
21.09051 131.000
21.11046 143.000
21.13040 131.000
21.15035 113.000
21.17030 121.000
21.19025 117.000
21.21019 134.000
21.23014 105.000
21.25009 110.000
21.27003 118.000
21.28998 118.000
21.30993 105.000
21.32987 108.000
21.34982 134.000
21.36977 113.000
21.38972 115.000
21.40966 118.000
21.42961 120.000
21.44956 142.000
21.46950 140.000
21.48945 112.000
21.50940 111.000
21.52934 123.000
21.54929 107.000
21.56924 116.000
21.58918 119.000
21.60913 96.000
21.62908 113.000
21.64903 109.000
21.66897 115.000
21.68892 120.000
21.70887 110.000
21.72881 125.000
21.74876 110.000
21.76871 126.000
21.78865 117.000
21.80860 101.000
21.82855 90.000
21.84850 124.000
21.86844 122.000
21.88839 125.000
21.90834 101.000
21.92828 118.000
21.94823 109.000
21.96818 137.000
21.98812 106.000
22.00807 135.000
22.02802 105.000
22.04796 135.000
22.06791 136.000
22.08786 124.000
22.10781 148.000
22.12775 129.000
22.14770 127.000
22.16765 155.000
22.18759 138.000
22.20754 115.000
22.22749 120.000
22.24743 118.000
22.26738 111.000
22.28733 115.000
22.30728 104.000
22.32722 116.000
22.34717 135.000
22.36712 99.000
22.38706 118.000
22.40701 119.000
22.42696 120.000
22.44690 111.000
22.46685 121.000
22.48680 115.000
22.50675 109.000
22.52669 101.000
22.54664 114.000
22.56659 108.000
22.58653 111.000
22.60648 113.000
22.62643 103.000
22.64637 105.000
22.66632 123.000
22.68627 112.000
22.70621 123.000
22.72616 120.000
22.74611 123.000
22.76606 130.000
22.78600 123.000
22.80595 118.000
22.82590 108.000
22.84584 108.000
22.86579 133.000
22.88574 127.000
22.90568 108.000
22.92563 111.000
22.94558 115.000
22.96553 122.000
22.98547 112.000
23.00542 111.000
23.02537 106.000
23.04531 125.000
23.06526 108.000
23.08521 103.000
23.10515 130.000
23.12510 118.000
23.14505 99.000
23.16499 122.000
23.18494 105.000
23.20489 113.000
23.22484 112.000
23.24478 116.000
23.26473 120.000
23.28468 124.000
23.30462 116.000
23.32457 107.000
23.34452 125.000
23.36446 120.000
23.38441 107.000
23.40436 103.000
23.42431 107.000
23.44425 121.000
23.46420 107.000
23.48415 117.000
23.50409 111.000
23.52404 105.000
23.54399 111.000
23.56393 112.000
23.58388 111.000
23.60383 129.000
23.62377 147.000
23.64372 111.000
23.66367 115.000
23.68362 98.000
23.70356 121.000
23.72351 110.000
23.74346 109.000
23.76340 113.000
23.78335 102.000
23.80330 105.000
23.82324 113.000
23.84319 110.000
23.86314 120.000
23.88309 117.000
23.90303 108.000
23.92298 105.000
23.94293 112.000
23.96287 123.000
23.98282 145.000
24.00277 132.000
24.02271 123.000
24.04266 126.000
24.06261 131.000
24.08256 104.000
24.10250 129.000
24.12245 106.000
24.14240 127.000
24.16234 115.000
24.18229 106.000
24.20224 114.000
24.22218 146.000
24.24213 120.000
24.26208 125.000
24.28202 110.000
24.30197 119.000
24.32192 113.000
24.34187 113.000
24.36181 127.000
24.38176 112.000
24.40171 147.000
24.42165 110.000
24.44160 116.000
24.46155 118.000
24.48149 134.000
24.50144 124.000
24.52139 122.000
24.54134 97.000
24.56128 124.000
24.58123 135.000
24.60118 109.000
24.62112 134.000
24.64107 141.000
24.66102 117.000
24.68096 143.000
24.70091 95.000
24.72086 127.000
24.74080 105.000
24.76075 120.000
24.78070 122.000
24.80065 99.000
24.82059 141.000
24.84054 103.000
24.86049 110.000
24.88043 131.000
24.90038 124.000
24.92033 144.000
24.94027 118.000
24.96022 125.000
24.98017 105.000
25.00012 125.000
25.02006 120.000
25.04001 107.000
25.05996 109.000
25.07990 110.000
25.09985 118.000
25.11980 128.000
25.13974 94.000
25.15969 102.000
25.17964 117.000
25.19958 126.000
25.21953 125.000
25.23948 117.000
25.25943 121.000
25.27937 124.000
25.29932 126.000
25.31927 114.000
25.33921 124.000
25.35916 129.000
25.37911 120.000
25.39905 115.000
25.41900 121.000
25.43895 113.000
25.45890 110.000
25.47884 126.000
25.49879 99.000
25.51874 133.000
25.53868 122.000
25.55863 115.000
25.57858 145.000
25.59852 115.000
25.61847 117.000
25.63842 133.000
25.65837 123.000
25.67831 131.000
25.69826 125.000
25.71821 133.000
25.73815 126.000
25.75810 138.000
25.77805 97.000
25.79799 127.000
25.81794 128.000
25.83789 132.000
25.85783 132.000
25.87778 136.000
25.89773 149.000
25.91768 140.000
25.93762 132.000
25.95757 135.000
25.97752 166.000
25.99746 167.000
26.01741 157.000
26.03736 149.000
26.05730 179.000
26.07725 148.000
26.09720 139.000
26.11715 126.000
26.13709 141.000
26.15704 123.000
26.17699 109.000
26.19693 108.000
26.21688 141.000
26.23683 141.000
26.25677 120.000
26.27672 114.000
26.29667 142.000
26.31661 135.000
26.33656 143.000
26.35651 109.000
26.37646 117.000
26.39640 127.000
26.41635 112.000
26.43630 134.000
26.45624 135.000
26.47619 118.000
26.49614 131.000
26.51608 128.000
26.53603 149.000
26.55598 140.000
26.57593 127.000
26.59587 127.000
26.61582 147.000
26.63577 120.000
26.65571 130.000
26.67566 125.000
26.69561 129.000
26.71555 124.000
26.73550 122.000
26.75545 135.000
26.77539 138.000
26.79534 121.000
26.81529 111.000
26.83524 132.000
26.85518 134.000
26.87513 118.000
26.89508 129.000
26.91502 112.000
26.93497 132.000
26.95492 113.000
26.97486 112.000
26.99481 137.000
27.01476 110.000
27.03471 134.000
27.05465 130.000
27.07460 119.000
27.09455 121.000
27.11449 135.000
27.13444 131.000
27.15439 117.000
27.17433 132.000
27.19428 112.000
27.21423 144.000
27.23417 116.000
27.25412 134.000
27.27407 114.000
27.29402 129.000
27.31396 137.000
27.33391 130.000
27.35386 127.000
27.37380 121.000
27.39375 122.000
27.41370 123.000
27.43364 118.000
27.45359 152.000
27.47354 135.000
27.49349 123.000
27.51343 129.000
27.53338 150.000
27.55333 141.000
27.57327 132.000
27.59322 124.000
27.61317 147.000
27.63311 136.000
27.65306 115.000
27.67301 130.000
27.69296 131.000
27.71290 137.000
27.73285 128.000
27.75280 124.000
27.77274 113.000
27.79269 141.000
27.81264 138.000
27.83258 137.000
27.85253 151.000
27.87248 127.000
27.89242 132.000
27.91237 133.000
27.93232 128.000
27.95227 116.000
27.97221 138.000
27.99216 124.000
28.01211 135.000
28.03205 124.000
28.05200 161.000
28.07195 103.000
28.09189 124.000
28.11184 124.000
28.13179 133.000
28.15174 148.000
28.17168 140.000
28.19163 111.000
28.21158 155.000
28.23152 116.000
28.25147 144.000
28.27142 127.000
28.29136 159.000
28.31131 145.000
28.33126 151.000
28.35120 114.000
28.37115 123.000
28.39110 102.000
28.41105 136.000
28.43099 158.000
28.45094 148.000
28.47089 144.000
28.49083 117.000
28.51078 128.000
28.53073 141.000
28.55067 134.000
28.57062 129.000
28.59057 147.000
28.61052 154.000
28.63046 145.000
28.65041 126.000
28.67036 143.000
28.69030 123.000
28.71025 128.000
28.73020 111.000
28.75014 142.000
28.77009 134.000
28.79004 129.000
28.80998 151.000
28.82993 125.000
28.84988 137.000
28.86983 127.000
28.88977 130.000
28.90972 142.000
28.92967 163.000
28.94961 152.000
28.96956 152.000
28.98951 138.000
29.00945 145.000
29.02940 156.000
29.04935 126.000
29.06930 124.000
29.08924 121.000
29.10919 158.000
29.12914 138.000
29.14908 154.000
29.16903 187.000
29.18898 162.000
29.20892 159.000
29.22887 158.000
29.24882 158.000
29.26877 188.000
29.28871 189.000
29.30866 186.000
29.32861 202.000
29.34855 191.000
29.36850 208.000
29.38845 199.000
29.40839 202.000
29.42834 193.000
29.44829 237.000
29.46823 261.000
29.48818 291.000
29.50813 315.000
29.52808 304.000
29.54802 308.000
29.56797 318.000
29.58792 280.000
29.60786 283.000
29.62781 289.000
29.64776 283.000
29.66770 299.000
29.68765 269.000
29.70760 294.000
29.72755 262.000
29.74749 252.000
29.76744 223.000
29.78739 202.000
29.80733 171.000
29.82728 212.000
29.84723 197.000
29.86717 174.000
29.88712 165.000
29.90707 191.000
29.92701 168.000
29.94696 212.000
29.96691 146.000
29.98686 175.000
30.00680 189.000
30.02675 187.000
30.04670 196.000
30.06664 199.000
30.08659 198.000
30.10654 236.000
30.12648 231.000
30.14643 228.000
30.16638 217.000
30.18633 255.000
30.20627 258.000
30.22622 315.000
30.24617 329.000
30.26611 404.000
30.28606 434.000
30.30601 418.000
30.32595 399.000
30.34590 362.000
30.36585 369.000
30.38579 325.000
30.40574 229.000
30.42569 211.000
30.44564 186.000
30.46558 175.000
30.48553 179.000
30.50548 155.000
30.52542 145.000
30.54537 149.000
30.56532 144.000
30.58526 165.000
30.60521 161.000
30.62516 132.000
30.64511 150.000
30.66505 144.000
30.68500 138.000
30.70495 133.000
30.72489 152.000
30.74484 157.000
30.76479 150.000
30.78473 145.000
30.80468 155.000
30.82463 138.000
30.84458 131.000
30.86452 143.000
30.88447 140.000
30.90442 134.000
30.92436 153.000
30.94431 139.000
30.96426 133.000
30.98420 138.000
31.00415 137.000
31.02410 139.000
31.04404 151.000
31.06399 143.000
31.08394 124.000
31.10389 131.000
31.12383 146.000
31.14378 143.000
31.16373 134.000
31.18367 155.000
31.20362 121.000
31.22357 147.000
31.24351 149.000
31.26346 145.000
31.28341 106.000
31.30336 163.000
31.32330 134.000
31.34325 152.000
31.36320 123.000
31.38314 145.000
31.40309 153.000
31.42304 176.000
31.44298 152.000
31.46293 174.000
31.48288 181.000
31.50282 204.000
31.52277 202.000
31.54272 181.000
31.56267 195.000
31.58261 213.000
31.60256 194.000
31.62251 195.000
31.64245 164.000
31.66240 179.000
31.68235 173.000
31.70229 183.000
31.72224 158.000
31.74219 152.000
31.76214 171.000
31.78208 138.000
31.80203 169.000
31.82198 167.000
31.84192 148.000
31.86187 143.000
31.88182 154.000
31.90176 157.000
31.92171 140.000
31.94166 152.000
31.96160 140.000
31.98155 155.000
32.00150 161.000
32.02145 153.000
32.04139 126.000
32.06134 154.000
32.08129 133.000
32.10123 150.000
32.12118 154.000
32.14113 153.000
32.16107 141.000
32.18102 153.000
32.20097 158.000
32.22092 132.000
32.24086 161.000
32.26081 144.000
32.28076 133.000
32.30070 154.000
32.32065 136.000
32.34060 168.000
32.36054 132.000
32.38049 137.000
32.40044 125.000
32.42039 129.000
32.44033 146.000
32.46028 118.000
32.48023 154.000
32.50017 138.000
32.52012 151.000
32.54007 145.000
32.56001 136.000
32.57996 111.000
32.59991 129.000
32.61985 136.000
32.63980 135.000
32.65975 136.000
32.67970 126.000
32.69964 146.000
32.71959 135.000
32.73954 166.000
32.75948 147.000
32.77943 143.000
32.79938 142.000
32.81932 142.000
32.83927 146.000
32.85922 161.000
32.87917 138.000
32.89911 132.000
32.91906 143.000
32.93901 126.000
32.95895 159.000
32.97890 138.000
32.99885 146.000
33.01879 163.000
33.03874 152.000
33.05869 154.000
33.07863 163.000
33.09858 177.000
33.11853 151.000
33.13848 179.000
33.15842 194.000
33.17837 218.000
33.19832 255.000
33.21826 242.000
33.23821 275.000
33.25816 261.000
33.27810 260.000
33.29805 234.000
33.31800 260.000
33.33795 227.000
33.35789 218.000
33.37784 192.000
33.39779 197.000
33.41773 219.000
33.43768 183.000
33.45763 162.000
33.47757 146.000
33.49752 165.000
33.51747 160.000
33.53741 180.000
33.55736 171.000
33.57731 161.000
33.59726 161.000
33.61720 162.000
33.63715 177.000
33.65710 182.000
33.67704 194.000
33.69699 200.000
33.71694 223.000
33.73688 231.000
33.75683 235.000
33.77678 220.000
33.79673 228.000
33.81667 236.000
33.83662 249.000
33.85657 266.000
33.87651 301.000
33.89646 338.000
33.91641 315.000
33.93635 346.000
33.95630 394.000
33.97625 410.000
33.99620 428.000
34.01614 356.000
34.03609 353.000
34.05604 343.000
34.07598 342.000
34.09593 306.000
34.11588 270.000
34.13582 239.000
34.15577 270.000
34.17572 253.000
34.19566 242.000
34.21561 208.000
34.23556 217.000
34.25551 253.000
34.27545 217.000
34.29540 237.000
34.31535 225.000
34.33529 216.000
34.35524 234.000
34.37519 222.000
34.39513 239.000
34.41508 219.000
34.43503 229.000
34.45498 270.000
34.47492 257.000
34.49487 231.000
34.51482 275.000
34.53476 251.000
34.55471 260.000
34.57466 247.000
34.59460 232.000
34.61455 253.000
34.63450 210.000
34.65444 233.000
34.67439 226.000
34.69434 254.000
34.71429 224.000
34.73423 205.000
34.75418 222.000
34.77413 219.000
34.79407 200.000
34.81402 238.000
34.83397 216.000
34.85391 222.000
34.87386 260.000
34.89381 266.000
34.91376 273.000
34.93370 294.000
34.95365 309.000
34.97360 325.000
34.99354 359.000
35.01349 325.000
35.03344 368.000
35.05338 347.000
35.07333 370.000
35.09328 376.000
35.11322 408.000
35.13317 424.000
35.15312 401.000
35.17307 429.000
35.19301 412.000
35.21296 452.000
35.23291 445.000
35.25285 414.000
35.27280 380.000
35.29275 412.000
35.31269 362.000
35.33264 348.000
35.35259 350.000
35.37254 327.000
35.39248 269.000
35.41243 270.000
35.43238 282.000
35.45232 261.000
35.47227 292.000
35.49222 289.000
35.51216 332.000
35.53211 367.000
35.55206 375.000
35.57201 436.000
35.59195 546.000
35.61190 591.000
35.63185 806.000
35.65179 908.000
35.67174 1100.000
35.69169 1063.000
35.71163 1047.000
35.73158 965.000
35.75153 846.000
35.77147 802.000
35.79142 713.000
35.81137 541.000
35.83132 435.000
35.85126 366.000
35.87121 315.000
35.89116 265.000
35.91110 288.000
35.93105 233.000
35.95100 238.000
35.97094 230.000
35.99089 192.000
36.01084 201.000
36.03079 210.000
36.05073 192.000
36.07068 198.000
36.09063 201.000
36.11057 184.000
36.13052 180.000
36.15047 210.000
36.17041 180.000
36.19036 223.000
36.21031 179.000
36.23025 192.000
36.25020 179.000
36.27015 229.000
36.29010 222.000
36.31004 205.000
36.32999 239.000
36.34994 266.000
36.36988 299.000
36.38983 316.000
36.40978 368.000
36.42972 360.000
36.44967 431.000
36.46962 375.000
36.48957 421.000
36.50951 357.000
36.52946 351.000
36.54941 282.000
36.56935 288.000
36.58930 274.000
36.60925 239.000
36.62919 208.000
36.64914 215.000
36.66909 179.000
36.68903 190.000
36.70898 187.000
36.72893 202.000
36.74888 192.000
36.76882 182.000
36.78877 182.000
36.80872 197.000
36.82866 191.000
36.84861 177.000
36.86856 193.000
36.88850 205.000
36.90845 212.000
36.92840 204.000
36.94835 218.000
36.96829 268.000
36.98824 249.000
37.00819 249.000
37.02813 248.000
37.04808 315.000
37.06803 353.000
37.08797 406.000
37.10792 509.000
37.12787 671.000
37.14781 744.000
37.16776 886.000
37.18771 930.000
37.20766 1003.000
37.22760 1089.000
37.24755 1015.000
37.26750 996.000
37.28744 855.000
37.30739 788.000
37.32734 695.000
37.34728 635.000
37.36723 524.000
37.38718 457.000
37.40713 367.000
37.42707 333.000
37.44702 324.000
37.46697 333.000
37.48691 317.000
37.50686 334.000
37.52681 292.000
37.54675 298.000
37.56670 291.000
37.58665 281.000
37.60660 271.000
37.62654 282.000
37.64649 268.000
37.66644 272.000
37.68638 252.000
37.70633 264.000
37.72628 225.000
37.74622 230.000
37.76617 217.000
37.78612 232.000
37.80606 201.000
37.82601 195.000
37.84596 194.000
37.86591 164.000
37.88585 171.000
37.90580 143.000
37.92575 197.000
37.94569 153.000
37.96564 191.000
37.98559 187.000
38.00553 168.000
38.02548 169.000
38.04543 179.000
38.06538 174.000
38.08532 168.000
38.10527 174.000
38.12522 164.000
38.14516 149.000
38.16511 163.000
38.18506 139.000
38.20500 131.000
38.22495 157.000
38.24490 152.000
38.26484 126.000
38.28479 135.000
38.30474 124.000
38.32469 129.000
38.34463 146.000
38.36458 147.000
38.38453 116.000
38.40447 137.000
38.42442 157.000
38.44437 120.000
38.46431 131.000
38.48426 136.000
38.50421 129.000
38.52416 139.000
38.54410 123.000
38.56405 126.000
38.58400 149.000
38.60394 124.000
38.62389 113.000
38.64384 141.000
38.66378 126.000
38.68373 146.000
38.70368 135.000
38.72362 111.000
38.74357 143.000
38.76352 140.000
38.78347 130.000
38.80341 139.000
38.82336 137.000
38.84331 129.000
38.86325 121.000
38.88320 139.000
38.90315 128.000
38.92309 150.000
38.94304 143.000
38.96299 109.000
38.98294 112.000
39.00288 147.000
39.02283 121.000
39.04278 152.000
39.06272 136.000
39.08267 136.000
39.10262 126.000
39.12256 106.000
39.14251 133.000
39.16246 115.000
39.18241 132.000
39.20235 122.000
39.22230 146.000
39.24225 146.000
39.26219 119.000
39.28214 122.000
39.30209 123.000
39.32203 145.000
39.34198 145.000
39.36193 125.000
39.38187 118.000
39.40182 125.000
39.42177 152.000
39.44172 112.000
39.46166 143.000
39.48161 105.000
39.50156 118.000
39.52150 110.000
39.54145 124.000
39.56140 111.000
39.58134 125.000
39.60129 151.000
39.62124 135.000
39.64119 143.000
39.66113 113.000
39.68108 123.000
39.70103 141.000
39.72097 141.000
39.74092 136.000
39.76087 121.000
39.78081 128.000
39.80076 123.000
39.82071 159.000
39.84065 135.000
39.86060 142.000
39.88055 139.000
39.90050 137.000
39.92044 142.000
39.94039 127.000
39.96034 118.000
39.98028 142.000
40.00023 122.000
40.02018 144.000
40.04012 131.000
40.06007 137.000
40.08002 147.000
40.09997 143.000
40.11991 136.000
40.13986 138.000
40.15981 142.000
40.17975 126.000
40.19970 127.000
40.21965 129.000
40.23959 138.000
40.25954 135.000
40.27949 130.000
40.29943 114.000
40.31938 121.000
40.33933 139.000
40.35928 139.000
40.37922 129.000
40.39917 119.000
40.41912 139.000
40.43906 136.000
40.45901 154.000
40.47896 143.000
40.49890 141.000
40.51885 130.000
40.53880 127.000
40.55875 155.000
40.57869 159.000
40.59864 149.000
40.61859 152.000
40.63853 160.000
40.65848 157.000
40.67843 146.000
40.69837 165.000
40.71832 150.000
40.73827 151.000
40.75822 162.000
40.77816 160.000
40.79811 156.000
40.81806 161.000
40.83800 149.000
40.85795 169.000
40.87790 159.000
40.89784 174.000
40.91779 211.000
40.93774 209.000
40.95768 193.000
40.97763 194.000
40.99758 208.000
41.01753 230.000
41.03747 259.000
41.05742 308.000
41.07737 307.000
41.09731 294.000
41.11726 333.000
41.13721 351.000
41.15715 366.000
41.17710 428.000
41.19705 410.000
41.21700 450.000
41.23694 447.000
41.25689 466.000
41.27684 470.000
41.29678 499.000
41.31673 469.000
41.33668 496.000
41.35662 456.000
41.37657 476.000
41.39652 487.000
41.41646 487.000
41.43641 443.000
41.45636 434.000
41.47631 438.000
41.49625 443.000
41.51620 394.000
41.53615 402.000
41.55609 385.000
41.57604 373.000
41.59599 385.000
41.61593 366.000
41.63588 386.000
41.65583 348.000
41.67578 372.000
41.69572 394.000
41.71567 362.000
41.73562 424.000
41.75556 437.000
41.77551 464.000
41.79546 511.000
41.81540 523.000
41.83535 607.000
41.85530 680.000
41.87524 800.000
41.89519 777.000
41.91514 794.000
41.93509 705.000
41.95503 748.000
41.97498 700.000
41.99493 651.000
42.01487 588.000
42.03482 497.000
42.05477 460.000
42.07471 390.000
42.09466 341.000
42.11461 282.000
42.13456 252.000
42.15450 226.000
42.17445 185.000
42.19440 188.000
42.21434 201.000
42.23429 162.000
42.25424 162.000
42.27418 172.000
42.29413 149.000
42.31408 155.000
42.33403 141.000
42.35397 157.000
42.37392 171.000
42.39387 165.000
42.41381 175.000
42.43376 162.000
42.45371 177.000
42.47365 149.000
42.49360 150.000
42.51355 165.000
42.53349 157.000
42.55344 145.000
42.57339 147.000
42.59334 143.000
42.61328 155.000
42.63323 160.000
42.65318 175.000
42.67312 154.000
42.69307 178.000
42.71302 165.000
42.73296 162.000
42.75291 173.000
42.77286 197.000
42.79281 194.000
42.81275 183.000
42.83270 187.000
42.85265 227.000
42.87259 205.000
42.89254 200.000
42.91249 219.000
42.93243 237.000
42.95238 238.000
42.97233 243.000
42.99227 273.000
43.01222 281.000
43.03217 302.000
43.05212 315.000
43.07206 387.000
43.09201 458.000
43.11196 575.000
43.13190 724.000
43.15185 930.000
43.17180 1147.000
43.19174 1128.000
43.21169 1287.000
43.23164 1340.000
43.25159 1438.000
43.27153 1533.000
43.29148 1460.000
43.31143 1282.000
43.33137 1169.000
43.35132 1077.000
43.37127 954.000
43.39121 835.000
43.41116 725.000
43.43111 623.000
43.45105 470.000
43.47100 409.000
43.49095 325.000
43.51090 325.000
43.53084 272.000
43.55079 235.000
43.57074 243.000
43.59068 197.000
43.61063 204.000
43.63058 172.000
43.65052 159.000
43.67047 167.000
43.69042 145.000
43.71037 165.000
43.73031 151.000
43.75026 159.000
43.77021 178.000
43.79015 162.000
43.81010 138.000
43.83005 128.000
43.84999 160.000
43.86994 138.000
43.88989 143.000
43.90984 144.000
43.92978 108.000
43.94973 156.000
43.96968 136.000
43.98962 126.000
44.00957 138.000
44.02952 136.000
44.04946 126.000
44.06941 117.000
44.08936 154.000
44.10930 122.000
44.12925 118.000
44.14920 105.000
44.16915 129.000
44.18909 133.000
44.20904 147.000
44.22899 132.000
44.24893 136.000
44.26888 126.000
44.28883 113.000
44.30877 139.000
44.32872 116.000
44.34867 118.000
44.36862 125.000
44.38856 140.000
44.40851 128.000
44.42846 140.000
44.44840 134.000
44.46835 145.000
44.48830 153.000
44.50824 137.000
44.52819 141.000
44.54814 145.000
44.56808 139.000
44.58803 141.000
44.60798 139.000
44.62793 148.000
44.64787 110.000
44.66782 137.000
44.68777 131.000
44.70771 128.000
44.72766 148.000
44.74761 154.000
44.76755 121.000
44.78750 135.000
44.80745 137.000
44.82740 140.000
44.84734 119.000
44.86729 132.000
44.88724 118.000
44.90718 116.000
44.92713 124.000
44.94708 126.000
44.96702 138.000
44.98697 160.000
45.00692 157.000
45.02686 161.000
45.04681 174.000
45.06676 180.000
45.08671 147.000
45.10665 132.000
45.12660 148.000
45.14655 135.000
45.16649 150.000
45.18644 145.000
45.20639 168.000
45.22633 157.000
45.24628 139.000
45.26623 121.000
45.28618 124.000
45.30612 146.000
45.32607 128.000
45.34602 128.000
45.36596 127.000
45.38591 133.000
45.40586 154.000
45.42580 122.000
45.44575 130.000
45.46570 129.000
45.48565 150.000
45.50559 140.000
45.52554 138.000
45.54549 139.000
45.56543 160.000
45.58538 159.000
45.60533 155.000
45.62527 166.000
45.64522 156.000
45.66517 172.000
45.68511 149.000
45.70506 126.000
45.72501 171.000
45.74496 168.000
45.76490 188.000
45.78485 201.000
45.80480 182.000
45.82474 153.000
45.84469 175.000
45.86464 166.000
45.88458 170.000
45.90453 217.000
45.92448 203.000
45.94443 233.000
45.96437 225.000
45.98432 213.000
46.00427 223.000
46.02421 235.000
46.04416 238.000
46.06411 228.000
46.08405 235.000
46.10400 216.000
46.12395 231.000
46.14389 216.000
46.16384 227.000
46.18379 218.000
46.20374 192.000
46.22368 194.000
46.24363 202.000
46.26358 200.000
46.28352 213.000
46.30347 196.000
46.32342 196.000
46.34336 157.000
46.36331 185.000
46.38326 172.000
46.40321 168.000
46.42315 194.000
46.44310 164.000
46.46305 166.000
46.48299 171.000
46.50294 174.000
46.52289 163.000
46.54283 171.000
46.56278 187.000
46.58273 128.000
46.60267 156.000
46.62262 150.000
46.64257 149.000
46.66252 156.000
46.68246 162.000
46.70241 142.000
46.72236 146.000
46.74230 143.000
46.76225 138.000
46.78220 138.000
46.80214 136.000
46.82209 117.000
46.84204 114.000
46.86199 117.000
46.88193 118.000
46.90188 110.000
46.92183 125.000
46.94177 117.000
46.96172 125.000
46.98167 125.000
47.00161 123.000
47.02156 125.000
47.04151 121.000
47.06146 115.000
47.08140 103.000
47.10135 116.000
47.12130 127.000
47.14124 131.000
47.16119 137.000
47.18114 126.000
47.20108 111.000
47.22103 129.000
47.24098 137.000
47.26092 112.000
47.28087 140.000
47.30082 115.000
47.32077 108.000
47.34071 136.000
47.36066 118.000
47.38061 117.000
47.40055 137.000
47.42050 134.000
47.44045 127.000
47.46039 123.000
47.48034 120.000
47.50029 137.000
47.52024 135.000
47.54018 118.000
47.56013 126.000
47.58008 139.000
47.60002 140.000
47.61997 116.000
47.63992 132.000
47.65986 134.000
47.67981 136.000
47.69976 140.000
47.71970 132.000
47.73965 138.000
47.75960 156.000
47.77955 121.000
47.79949 128.000
47.81944 134.000
47.83939 132.000
47.85933 130.000
47.87928 133.000
47.89923 146.000
47.91917 129.000
47.93912 134.000
47.95907 135.000
47.97902 137.000
47.99896 119.000
48.01891 133.000
48.03886 122.000
48.05880 112.000
48.07875 148.000
48.09870 123.000
48.11864 112.000
48.13859 127.000
48.15854 118.000
48.17848 130.000
48.19843 139.000
48.21838 117.000
48.23833 128.000
48.25827 143.000
48.27822 111.000
48.29817 125.000
48.31811 141.000
48.33806 131.000
48.35801 139.000
48.37795 135.000
48.39790 108.000
48.41785 119.000
48.43780 142.000
48.45774 140.000
48.47769 124.000
48.49764 123.000
48.51758 119.000
48.53753 106.000
48.55748 108.000
48.57742 147.000
48.59737 114.000
48.61732 113.000
48.63726 113.000
48.65721 126.000
48.67716 104.000
48.69711 126.000
48.71705 114.000
48.73700 114.000
48.75695 123.000
48.77689 131.000
48.79684 114.000
48.81679 107.000
48.83673 107.000
48.85668 106.000
48.87663 131.000
48.89658 112.000
48.91652 116.000
48.93647 141.000
48.95642 94.000
48.97636 101.000
48.99631 124.000
49.01626 120.000
49.03620 133.000
49.05615 124.000
49.07610 146.000
49.09605 120.000
49.11599 114.000
49.13594 116.000
49.15589 112.000
49.17583 98.000
49.19578 109.000
49.21573 137.000
49.23567 123.000
49.25562 109.000
49.27557 119.000
49.29551 128.000
49.31546 108.000
49.33541 119.000
49.35536 118.000
49.37530 115.000
49.39525 116.000
49.41520 110.000
49.43514 113.000
49.45509 125.000
49.47504 124.000
49.49498 107.000
49.51493 104.000
49.53488 139.000
49.55483 123.000
49.57477 118.000
49.59472 116.000
49.61467 111.000
49.63461 128.000
49.65456 131.000
49.67451 111.000
49.69445 119.000
49.71440 109.000
49.73435 104.000
49.75429 103.000
49.77424 120.000
49.79419 132.000
49.81414 114.000
49.83408 107.000
49.85403 104.000
49.87398 128.000
49.89392 123.000
49.91387 112.000
49.93382 112.000
49.95376 125.000
49.97371 115.000
49.99366 130.000
50.01361 108.000
50.03355 114.000
50.05350 118.000
50.07345 108.000
50.09339 120.000
50.11334 120.000
50.13329 119.000
50.15323 107.000
50.17318 117.000
50.19313 102.000
50.21307 114.000
50.23302 115.000
50.25297 117.000
50.27292 115.000
50.29286 117.000
50.31281 110.000
50.33276 108.000
50.35270 105.000
50.37265 106.000
50.39260 142.000
50.41254 114.000
50.43249 126.000
50.45244 89.000
50.47239 119.000
50.49233 105.000
50.51228 119.000
50.53223 107.000
50.55217 101.000
50.57212 131.000
50.59207 116.000
50.61201 113.000
50.63196 104.000
50.65191 95.000
50.67186 118.000
50.69180 112.000
50.71175 127.000
50.73170 125.000
50.75164 107.000
50.77159 119.000
50.79154 125.000
50.81148 96.000
50.83143 143.000
50.85138 123.000
50.87132 106.000
50.89127 124.000
50.91122 165.000
50.93117 139.000
50.95111 129.000
50.97106 134.000
50.99101 130.000
51.01095 139.000
51.03090 115.000
51.05085 129.000
51.07079 141.000
51.09074 125.000
51.11069 140.000
51.13064 134.000
51.15058 128.000
51.17053 110.000
51.19048 120.000
51.21042 130.000
51.23037 125.000
51.25032 124.000
51.27026 104.000
51.29021 118.000
51.31016 113.000
51.33010 118.000
51.35005 116.000
51.37000 105.000
51.38995 131.000
51.40989 107.000
51.42984 102.000
51.44979 115.000
51.46973 147.000
51.48968 121.000
51.50963 138.000
51.52957 118.000
51.54952 89.000
51.56947 116.000
51.58942 123.000
51.60936 109.000
51.62931 126.000
51.64926 137.000
51.66920 119.000
51.68915 99.000
51.70910 128.000
51.72904 133.000
51.74899 117.000
51.76894 123.000
51.78888 120.000
51.80883 127.000
51.82878 121.000
51.84873 128.000
51.86867 99.000
51.88862 125.000
51.90857 116.000
51.92851 122.000
51.94846 110.000
51.96841 123.000
51.98835 132.000
52.00830 124.000
52.02825 122.000
52.04820 105.000
52.06814 112.000
52.08809 124.000
52.10804 112.000
52.12798 119.000
52.14793 133.000
52.16788 122.000
52.18782 122.000
52.20777 121.000
52.22772 117.000
52.24767 110.000
52.26761 113.000
52.28756 134.000
52.30751 126.000
52.32745 114.000
52.34740 101.000
52.36735 135.000
52.38729 124.000
52.40724 113.000
52.42719 108.000
52.44713 126.000
52.46708 104.000
52.48703 117.000
52.50698 137.000
52.52692 109.000
52.54687 118.000
52.56682 122.000
52.58676 124.000
52.60671 113.000
52.62666 114.000
52.64660 117.000
52.66655 102.000
52.68650 118.000
52.70645 118.000
52.72639 102.000
52.74634 98.000
52.76629 106.000
52.78623 105.000
52.80618 132.000
52.82613 127.000
52.84607 141.000
52.86602 123.000
52.88597 107.000
52.90591 126.000
52.92586 108.000
52.94581 121.000
52.96576 96.000
52.98570 125.000
53.00565 112.000
53.02560 125.000
53.04554 129.000
53.06549 105.000
53.08544 122.000
53.10538 126.000
53.12533 110.000
53.14528 120.000
53.16523 133.000
53.18517 114.000
53.20512 120.000
53.22507 132.000
53.24501 119.000
53.26496 88.000
53.28491 116.000
53.30485 131.000
53.32480 129.000
53.34475 112.000
53.36469 113.000
53.38464 128.000
53.40459 121.000
53.42454 107.000
53.44448 136.000
53.46443 138.000
53.48438 118.000
53.50432 112.000
53.52427 115.000
53.54422 144.000
53.56416 137.000
53.58411 111.000
53.60406 148.000
53.62401 144.000
53.64395 128.000
53.66390 138.000
53.68385 137.000
53.70379 132.000
53.72374 147.000
53.74369 134.000
53.76363 170.000
53.78358 187.000
53.80353 185.000
53.82348 198.000
53.84342 170.000
53.86337 191.000
53.88332 169.000
53.90326 145.000
53.92321 175.000
53.94316 168.000
53.96310 176.000
53.98305 175.000
54.00300 151.000
54.02294 148.000
54.04289 124.000
54.06284 143.000
54.08279 127.000
54.10273 120.000
54.12268 125.000
54.14263 125.000
54.16257 99.000
54.18252 123.000
54.20247 126.000
54.22241 124.000
54.24236 123.000
54.26231 101.000
54.28226 141.000
54.30220 120.000
54.32215 111.000
54.34210 135.000
54.36204 117.000
54.38199 121.000
54.40194 120.000
54.42188 128.000
54.44183 109.000
54.46178 121.000
54.48172 114.000
54.50167 129.000
54.52162 138.000
54.54157 112.000
54.56151 128.000
54.58146 134.000
54.60141 133.000
54.62135 130.000
54.64130 123.000
54.66125 139.000
54.68119 126.000
54.70114 122.000
54.72109 120.000
54.74104 128.000
54.76098 104.000
54.78093 136.000
54.80088 125.000
54.82082 136.000
54.84077 155.000
54.86072 145.000
54.88066 152.000
54.90061 154.000
54.92056 169.000
54.94050 139.000
54.96045 156.000
54.98040 129.000
55.00035 145.000
55.02029 141.000
55.04024 147.000
55.06019 143.000
55.08013 147.000
55.10008 136.000
55.12003 146.000
55.13997 140.000
55.15992 137.000
55.17987 108.000
55.19982 140.000
55.21976 131.000
55.23971 119.000
55.25966 144.000
55.27960 128.000
55.29955 123.000
55.31950 108.000
55.33944 148.000
55.35939 145.000
55.37934 134.000
55.39929 122.000
55.41923 109.000
55.43918 121.000
55.45913 129.000
55.47907 119.000
55.49902 112.000
55.51897 97.000
55.53891 97.000
55.55886 108.000
55.57881 127.000
55.59875 120.000
55.61870 116.000
55.63865 126.000
55.65860 94.000
55.67854 114.000
55.69849 106.000
55.71844 116.000
55.73838 116.000
55.75833 116.000
55.77828 103.000
55.79822 97.000
55.81817 109.000
55.83812 117.000
55.85807 103.000
55.87801 109.000
55.89796 123.000
55.91791 140.000
55.93785 97.000
55.95780 124.000
55.97775 130.000
55.99769 122.000
56.01764 93.000
56.03759 103.000
56.05753 113.000
56.07748 121.000
56.09743 123.000
56.11738 113.000
56.13732 122.000
56.15727 116.000
56.17722 117.000
56.19716 114.000
56.21711 122.000
56.23706 121.000
56.25700 133.000
56.27695 127.000
56.29690 119.000
56.31685 105.000
56.33679 116.000
56.35674 119.000
56.37669 127.000
56.39663 109.000
56.41658 100.000
56.43653 120.000
56.45647 110.000
56.47642 105.000
56.49637 118.000
56.51631 124.000
56.53626 103.000
56.55621 131.000
56.57616 107.000
56.59610 131.000
56.61605 132.000
56.63600 98.000
56.65594 105.000
56.67589 118.000
56.69584 128.000
56.71578 97.000
56.73573 112.000
56.75568 108.000
56.77563 110.000
56.79557 116.000
56.81552 119.000
56.83547 148.000
56.85541 139.000
56.87536 127.000
56.89531 110.000
56.91525 111.000
56.93520 136.000
56.95515 139.000
56.97510 128.000
56.99504 142.000
57.01499 160.000
57.03494 117.000
57.05488 142.000
57.07483 143.000
57.09478 140.000
57.11472 152.000
57.13467 157.000
57.15462 180.000
57.17456 151.000
57.19451 171.000
57.21446 195.000
57.23441 198.000
57.25435 218.000
57.27430 220.000
57.29425 250.000
57.31419 253.000
57.33414 289.000
57.35409 325.000
57.37403 312.000
57.39398 318.000
57.41393 328.000
57.43388 290.000
57.45382 291.000
57.47377 295.000
57.49372 286.000
57.51366 251.000
57.53361 248.000
57.55356 224.000
57.57350 242.000
57.59345 235.000
57.61340 201.000
57.63334 203.000
57.65329 177.000
57.67324 172.000
57.69319 191.000
57.71313 195.000
57.73308 155.000
57.75303 171.000
57.77297 152.000
57.79292 164.000
57.81287 175.000
57.83281 133.000
57.85276 162.000
57.87271 155.000
57.89266 167.000
57.91260 149.000
57.93255 178.000
57.95250 155.000
57.97244 174.000
57.99239 163.000
58.01234 169.000
58.03228 155.000
58.05223 151.000
58.07218 176.000
58.09212 159.000
58.11207 161.000
58.13202 158.000
58.15197 171.000
58.17191 184.000
58.19186 187.000
58.21181 147.000
58.23175 163.000
58.25170 144.000
58.27165 133.000
58.29159 156.000
58.31154 151.000
58.33149 158.000
58.35144 160.000
58.37138 150.000
58.39133 136.000
58.41128 139.000
58.43122 138.000
58.45117 139.000
58.47112 138.000
58.49106 138.000
58.51101 128.000
58.53096 153.000
58.55090 153.000
58.57085 138.000
58.59080 139.000
58.61075 127.000
58.63069 129.000
58.65064 122.000
58.67059 115.000
58.69053 128.000
58.71048 125.000
58.73043 114.000
58.75037 135.000
58.77032 120.000
58.79027 124.000
58.81022 130.000
58.83016 132.000
58.85011 113.000
58.87006 121.000
58.89000 137.000
58.90995 130.000
58.92990 118.000
58.94984 142.000
58.96979 126.000
58.98974 119.000
59.00969 120.000
59.02963 128.000
59.04958 114.000
59.06953 139.000
59.08947 136.000
59.10942 131.000
59.12937 148.000
59.14931 130.000
59.16926 119.000
59.18921 129.000
59.20915 137.000
59.22910 131.000
59.24905 135.000
59.26900 155.000
59.28894 136.000
59.30889 158.000
59.32884 159.000
59.34878 145.000
59.36873 126.000
59.38868 145.000
59.40862 131.000
59.42857 149.000
59.44852 145.000
59.46847 126.000
59.48841 139.000
59.50836 149.000
59.52831 145.000
59.54825 164.000
59.56820 161.000
59.58815 159.000
59.60809 165.000
59.62804 169.000
59.64799 154.000
59.66793 182.000
59.68788 201.000
59.70783 204.000
59.72778 201.000
59.74772 247.000
59.76767 238.000
59.78762 221.000
59.80756 222.000
59.82751 271.000
59.84746 252.000
59.86740 250.000
59.88735 245.000
59.90730 245.000
59.92725 253.000
59.94719 200.000
59.96714 218.000
59.98709 196.000
60.00703 228.000
60.02698 194.000
60.04693 211.000
60.06687 185.000
60.08682 166.000
60.10677 161.000
60.12671 160.000
60.14666 167.000
60.16661 146.000
60.18656 152.000
60.20650 173.000
60.22645 158.000
60.24640 161.000
60.26634 166.000
60.28629 154.000
60.30624 150.000
60.32618 134.000
60.34613 137.000
60.36608 124.000
60.38603 146.000
60.40597 143.000
60.42592 165.000
60.44587 168.000
60.46581 146.000
60.48576 127.000
60.50571 129.000
60.52565 128.000
60.54560 156.000
60.56555 129.000
60.58550 134.000
60.60544 165.000
60.62539 142.000
60.64534 122.000
60.66528 123.000
60.68523 123.000
60.70518 155.000
60.72512 150.000
60.74507 127.000
60.76502 135.000
60.78496 164.000
60.80491 130.000
60.82486 153.000
60.84481 136.000
60.86475 133.000
60.88470 127.000
60.90465 151.000
60.92459 131.000
60.94454 135.000
60.96449 150.000
60.98443 138.000
61.00438 157.000
61.02433 156.000
61.04428 144.000
61.06422 159.000
61.08417 144.000
61.10412 160.000
61.12406 153.000
61.14401 145.000
61.16396 165.000
61.18390 175.000
61.20385 160.000
61.22380 150.000
61.24374 160.000
61.26369 191.000
61.28364 192.000
61.30359 203.000
61.32353 190.000
61.34348 197.000
61.36343 196.000
61.38337 218.000
61.40332 200.000
61.42327 216.000
61.44321 222.000
61.46316 238.000
61.48311 276.000
61.50306 284.000
61.52300 299.000
61.54295 327.000
61.56290 322.000
61.58284 330.000
61.60279 327.000
61.62274 316.000
61.64268 350.000
61.66263 384.000
61.68258 407.000
61.70252 386.000
61.72247 405.000
61.74242 401.000
61.76237 357.000
61.78231 367.000
61.80226 354.000
61.82221 341.000
61.84215 328.000
61.86210 321.000
61.88205 336.000
61.90199 271.000
61.92194 266.000
61.94189 253.000
61.96184 249.000
61.98178 229.000
62.00173 257.000
62.02168 258.000
62.04162 225.000
62.06157 239.000
62.08152 200.000
62.10146 183.000
62.12141 211.000
62.14136 212.000
62.16131 202.000
62.18125 205.000
62.20120 199.000
62.22115 196.000
62.24109 185.000
62.26104 183.000
62.28099 194.000
62.30093 180.000
62.32088 198.000
62.34083 191.000
62.36077 200.000
62.38072 206.000
62.40067 216.000
62.42062 194.000
62.44056 225.000
62.46051 227.000
62.48046 199.000
62.50040 214.000
62.52035 240.000
62.54030 215.000
62.56024 233.000
62.58019 251.000
62.60014 298.000
62.62009 317.000
62.64003 352.000
62.65998 408.000
62.67993 437.000
62.69987 514.000
62.71982 514.000
62.73977 555.000
62.75971 590.000
62.77966 632.000
62.79961 613.000
62.81955 656.000
62.83950 625.000
62.85945 657.000
62.87940 680.000
62.89934 652.000
62.91929 649.000
62.93924 629.000
62.95918 616.000
62.97913 657.000
62.99908 687.000
63.01902 650.000
63.03897 606.000
63.05892 563.000
63.07887 487.000
63.09881 427.000
63.11876 428.000
63.13871 397.000
63.15865 372.000
63.17860 370.000
63.19855 360.000
63.21849 299.000
63.23844 301.000
63.25839 240.000
63.27833 260.000
63.29828 189.000
63.31823 184.000
63.33818 186.000
63.35812 165.000
63.37807 187.000
63.39802 145.000
63.41796 149.000
63.43791 179.000
63.45786 146.000
63.47780 142.000
63.49775 148.000
63.51770 152.000
63.53765 146.000
63.55759 170.000
63.57754 130.000
63.59749 135.000
63.61743 126.000
63.63738 138.000
63.65733 137.000
63.67727 133.000
63.69722 135.000
63.71717 135.000
63.73712 144.000
63.75706 138.000
63.77701 138.000
63.79696 132.000
63.81690 142.000
63.83685 138.000
63.85680 161.000
63.87674 143.000
63.89669 158.000
63.91664 152.000
63.93658 141.000
63.95653 126.000
63.97648 154.000
63.99643 150.000
64.01637 135.000
64.03632 160.000
64.05627 166.000
64.07621 119.000
64.09616 118.000
64.11611 139.000
64.13605 142.000
64.15600 130.000
64.17595 152.000
64.19590 154.000
64.21584 146.000
64.23579 117.000
64.25574 117.000
64.27568 117.000
64.29563 125.000
64.31558 140.000
64.33552 159.000
64.35547 125.000
64.37542 123.000
64.39536 120.000
64.41531 146.000
64.43526 131.000
64.45521 145.000
64.47515 137.000
64.49510 129.000
64.51505 130.000
64.53499 134.000
64.55494 164.000
64.57489 151.000
64.59483 127.000
64.61478 157.000
64.63473 141.000
64.65468 147.000
64.67462 134.000
64.69457 144.000
64.71452 145.000
64.73446 161.000
64.75441 148.000
64.77436 132.000
64.79430 157.000
64.81425 144.000
64.83420 162.000
64.85414 151.000
64.87409 151.000
64.89404 164.000
64.91399 145.000
64.93393 141.000
64.95388 143.000
64.97383 157.000
64.99377 154.000
65.01372 142.000
65.03367 168.000
65.05361 174.000
65.07356 143.000
65.09351 149.000
65.11346 134.000
65.13340 163.000
65.15335 164.000
65.17330 154.000
65.19324 144.000
65.21319 167.000
65.23314 157.000
65.25308 144.000
65.27303 146.000
65.29298 166.000
65.31293 103.000
65.33287 127.000
65.35282 123.000
65.37277 129.000
65.39271 126.000
65.41266 140.000
65.43261 140.000
65.45255 141.000
65.47250 139.000
65.49245 142.000
65.51239 133.000
65.53234 113.000
65.55229 143.000
65.57224 132.000
65.59218 137.000
65.61213 145.000
65.63208 136.000
65.65202 130.000
65.67197 136.000
65.69192 145.000
65.71186 137.000
65.73181 135.000
65.75176 140.000
65.77171 148.000
65.79165 160.000
65.81160 137.000
65.83155 143.000
65.85149 126.000
65.87144 151.000
65.89139 150.000
65.91133 149.000
65.93128 125.000
65.95123 157.000
65.97117 115.000
65.99112 134.000
66.01107 120.000
66.03102 131.000
66.05096 126.000
66.07091 129.000
66.09086 120.000
66.11080 107.000
66.13075 129.000
66.15070 111.000
66.17064 123.000
66.19059 120.000
66.21054 115.000
66.23049 123.000
66.25043 127.000
66.27038 121.000
66.29033 140.000
66.31027 112.000
66.33022 113.000
66.35017 128.000
66.37011 124.000
66.39006 123.000
66.41001 119.000
66.42995 104.000
66.44990 137.000
66.46985 111.000
66.48980 106.000
66.50974 126.000
66.52969 111.000
66.54964 107.000
66.56958 106.000
66.58953 112.000
66.60948 119.000
66.62942 106.000
66.64937 112.000
66.66932 106.000
66.68927 111.000
66.70921 106.000
66.72916 93.000
66.74911 123.000
66.76905 119.000
66.78900 109.000
66.80895 88.000
66.82889 100.000
66.84884 116.000
66.86879 120.000
66.88874 120.000
66.90868 99.000
66.92863 112.000
66.94858 118.000
66.96852 111.000
66.98847 110.000
67.00842 111.000
67.02836 98.000
67.04831 118.000
67.06826 107.000
67.08820 101.000
67.10815 124.000
67.12810 117.000
67.14805 102.000
67.16799 116.000
67.18794 129.000
67.20789 111.000
67.22783 100.000
67.24778 107.000
67.26773 125.000
67.28767 118.000
67.30762 108.000
67.32757 102.000
67.34752 113.000
67.36746 125.000
67.38741 101.000
67.40736 128.000
67.42730 108.000
67.44725 122.000
67.46720 122.000
67.48714 118.000
67.50709 117.000
67.52704 107.000
67.54698 136.000
67.56693 111.000
67.58688 96.000
67.60683 119.000
67.62677 104.000
67.64672 97.000
67.66667 105.000
67.68661 133.000
67.70656 118.000
67.72651 105.000
67.74645 106.000
67.76640 107.000
67.78635 113.000
67.80630 123.000
67.82624 115.000
67.84619 101.000
67.86614 98.000
67.88608 98.000
67.90603 108.000
67.92598 119.000
67.94592 90.000
67.96587 99.000
67.98582 116.000
68.00576 112.000
68.02571 117.000
68.04566 113.000
68.06561 118.000
68.08555 106.000
68.10550 121.000
68.12545 108.000
68.14539 140.000
68.16534 130.000
68.18529 122.000
68.20523 131.000
68.22518 138.000
68.24513 140.000
68.26508 130.000
68.28502 115.000
68.30497 117.000
68.32492 120.000
68.34486 111.000
68.36481 105.000
68.38476 120.000
68.40470 142.000
68.42465 125.000
68.44460 114.000
68.46455 148.000
68.48449 117.000
68.50444 133.000
68.52439 113.000
68.54433 114.000
68.56428 109.000
68.58423 116.000
68.60417 104.000
68.62412 113.000
68.64407 118.000
68.66401 117.000
68.68396 118.000
68.70391 116.000
68.72386 114.000
68.74380 115.000
68.76375 118.000
68.78370 109.000
68.80364 105.000
68.82359 117.000
68.84354 119.000
68.86348 122.000
68.88343 101.000
68.90338 97.000
68.92333 93.000
68.94327 119.000
68.96322 110.000
68.98317 103.000
69.00311 108.000
69.02306 121.000
69.04301 103.000
69.06295 119.000
69.08290 102.000
69.10285 136.000
69.12279 121.000
69.14274 115.000
69.16269 110.000
69.18264 124.000
69.20258 102.000
69.22253 110.000
69.24248 130.000
69.26242 114.000
69.28237 110.000
69.30232 114.000
69.32226 106.000
69.34221 125.000
69.36216 115.000
69.38211 116.000
69.40205 111.000
69.42200 101.000
69.44195 105.000
69.46189 115.000
69.48184 102.000
69.50179 143.000
69.52173 119.000
69.54168 90.000
69.56163 119.000
69.58157 103.000
69.60152 88.000
69.62147 118.000
69.64142 127.000
69.66136 126.000
69.68131 103.000
69.70126 114.000
69.72120 112.000
69.74115 127.000
69.76110 114.000
69.78104 124.000
69.80099 118.000
69.82094 120.000
69.84089 114.000
69.86083 149.000
69.88078 123.000
69.90073 136.000
69.92067 110.000
69.94062 139.000
69.96057 121.000
69.98051 102.000
70.00046 133.000
70.02041 127.000
70.04035 131.000
70.06030 148.000
70.08025 146.000
70.10020 143.000
70.12014 118.000
70.14009 125.000
70.16004 110.000
70.17998 125.000
70.19993 119.000
70.21988 116.000
70.23982 139.000
70.25977 117.000
70.27972 110.000
70.29967 107.000
70.31961 123.000
70.33956 106.000
70.35951 122.000
70.37945 116.000
70.39940 113.000
70.41935 119.000
70.43929 120.000
70.45924 115.000
70.47919 110.000
70.49914 132.000
70.51908 123.000
70.53903 120.000
70.55898 104.000
70.57892 121.000
70.59887 121.000
70.61882 117.000
70.63876 130.000
70.65871 104.000
70.67866 104.000
70.69860 110.000
70.71855 145.000
70.73850 124.000
70.75845 106.000
70.77839 128.000
70.79834 125.000
70.81829 105.000
70.83823 102.000
70.85818 113.000
70.87813 111.000
70.89807 119.000
70.91802 141.000
70.93797 126.000
70.95792 119.000
70.97786 124.000
70.99781 108.000
71.01776 137.000
71.03770 117.000
71.05765 114.000
71.07760 134.000
71.09754 112.000
71.11749 113.000
71.13744 142.000
71.15738 139.000
71.17733 131.000
71.19728 125.000
71.21723 148.000
71.23717 139.000
71.25712 149.000
71.27707 143.000
71.29701 143.000
71.31696 139.000
71.33691 139.000
71.35685 124.000
71.37680 126.000
71.39675 151.000
71.41670 139.000
71.43664 147.000
71.45659 142.000
71.47654 152.000
71.49648 187.000
71.51643 160.000
71.53638 130.000
71.55632 152.000
71.57627 143.000
71.59622 131.000
71.61616 128.000
71.63611 139.000
71.65606 145.000
71.67601 141.000
71.69595 117.000
71.71590 140.000
71.73585 150.000
71.75579 144.000
71.77574 129.000
71.79569 100.000
71.81563 116.000
71.83558 113.000
71.85553 110.000
71.87548 123.000
71.89542 121.000
71.91537 131.000
71.93532 118.000
71.95526 116.000
71.97521 119.000
71.99516 117.000
72.01510 124.000
72.03505 109.000
72.05500 97.000
72.07495 104.000
72.09489 127.000
72.11484 137.000
72.13479 129.000
72.15473 105.000
72.17468 122.000
72.19463 127.000
72.21457 134.000
72.23452 122.000
72.25447 114.000
72.27441 126.000
72.29436 113.000
72.31431 126.000
72.33426 120.000
72.35420 117.000
72.37415 126.000
72.39410 139.000
72.41404 142.000
72.43399 145.000
72.45394 139.000
72.47388 121.000
72.49383 138.000
72.51378 141.000
72.53373 121.000
72.55367 138.000
72.57362 124.000
72.59357 141.000
72.61351 134.000
72.63346 129.000
72.65341 130.000
72.67335 152.000
72.69330 130.000
72.71325 142.000
72.73319 131.000
72.75314 128.000
72.77309 145.000
72.79304 158.000
72.81298 143.000
72.83293 156.000
72.85288 149.000
72.87282 172.000
72.89277 156.000
72.91272 162.000
72.93266 166.000
72.95261 160.000
72.97256 180.000
72.99251 149.000
73.01245 168.000
73.03240 178.000
73.05235 169.000
73.07229 154.000
73.09224 173.000
73.11219 149.000
73.13213 171.000
73.15208 155.000
73.17203 150.000
73.19197 143.000
73.21192 148.000
73.23187 143.000
73.25182 162.000
73.27176 150.000
73.29171 130.000
73.31166 135.000
73.33160 131.000
73.35155 123.000
73.37150 124.000
73.39144 127.000
73.41139 117.000
73.43134 143.000
73.45129 122.000
73.47123 129.000
73.49118 135.000
73.51113 106.000
73.53107 121.000
73.55102 127.000
73.57097 137.000
73.59091 134.000
73.61086 126.000
73.63081 118.000
73.65076 117.000
73.67070 113.000
73.69065 142.000
73.71060 143.000
73.73054 117.000
73.75049 127.000
73.77044 152.000
73.79038 147.000
73.81033 148.000
73.83028 132.000
73.85022 173.000
73.87017 164.000
73.89012 144.000
73.91007 148.000
73.93001 163.000
73.94996 154.000
73.96991 137.000
73.98985 144.000
74.00980 143.000
74.02975 148.000
74.04969 160.000
74.06964 147.000
74.08959 154.000
74.10954 148.000
74.12948 162.000
74.14943 152.000
74.16938 120.000
74.18932 148.000
74.20927 143.000
74.22922 129.000
74.24916 147.000
74.26911 129.000
74.28906 150.000
74.30900 146.000
74.32895 148.000
74.34890 147.000
74.36885 153.000
74.38879 145.000
74.40874 162.000
74.42869 162.000
74.44863 166.000
74.46858 160.000
74.48853 131.000
74.50847 186.000
74.52842 168.000
74.54837 182.000
74.56832 175.000
74.58826 182.000
74.60821 165.000
74.62816 192.000
74.64810 155.000
74.66805 151.000
74.68800 163.000
74.70794 162.000
74.72789 175.000
74.74784 161.000
74.76778 161.000
74.78773 144.000
74.80768 158.000
74.82763 151.000
74.84757 137.000
74.86752 147.000
74.88747 136.000
74.90741 143.000
74.92736 140.000
74.94731 159.000
74.96725 126.000
74.98720 148.000
75.00715 146.000
75.02710 130.000
75.04704 151.000
75.06699 156.000
75.08694 171.000
75.10688 173.000
75.12683 151.000
75.14678 170.000
75.16672 190.000
75.18667 212.000
75.20662 205.000
75.22657 199.000
75.24651 213.000
75.26646 219.000
75.28641 223.000
75.30635 253.000
75.32630 229.000
75.34625 223.000
75.36619 221.000
75.38614 281.000
75.40609 282.000
75.42603 238.000
75.44598 242.000
75.46593 249.000
75.48588 218.000
75.50582 193.000
75.52577 215.000
75.54572 212.000
75.56566 182.000
75.58561 210.000
75.60556 209.000
75.62550 186.000
75.64545 162.000
75.66540 173.000
75.68535 139.000
75.70529 146.000
75.72524 127.000
75.74519 147.000
75.76513 151.000
75.78508 136.000
75.80503 126.000
75.82497 128.000
75.84492 107.000
75.86487 111.000
75.88481 110.000
75.90476 122.000
75.92471 112.000
75.94466 106.000
75.96460 126.000
75.98455 113.000
76.00450 118.000
76.02444 115.000
76.04439 99.000
76.06434 120.000
76.08428 110.000
76.10423 109.000
76.12418 119.000
76.14413 110.000
76.16407 106.000
76.18402 97.000
76.20397 108.000
76.22391 105.000
76.24386 115.000
76.26381 117.000
76.28375 112.000
76.30370 104.000
76.32365 123.000
76.34359 120.000
76.36354 119.000
76.38349 111.000
76.40344 109.000
76.42338 130.000
76.44333 106.000
76.46328 124.000
76.48322 100.000
76.50317 131.000
76.52312 111.000
76.54306 129.000
76.56301 114.000
76.58296 131.000
76.60291 136.000
76.62285 147.000
76.64280 122.000
76.66275 119.000
76.68269 134.000
76.70264 148.000
76.72259 124.000
76.74253 122.000
76.76248 117.000
76.78243 130.000
76.80238 130.000
76.82232 139.000
76.84227 131.000
76.86222 120.000
76.88216 146.000
76.90211 145.000
76.92206 144.000
76.94200 137.000
76.96195 148.000
76.98190 144.000
77.00184 142.000
77.02179 131.000
77.04174 152.000
77.06169 146.000
77.08163 135.000
77.10158 144.000
77.12153 145.000
77.14147 134.000
77.16142 151.000
77.18137 143.000
77.20131 136.000
77.22126 143.000
77.24121 137.000
77.26116 144.000
77.28110 144.000
77.30105 159.000
77.32100 147.000
77.34094 162.000
77.36089 156.000
77.38084 162.000
77.40078 161.000
77.42073 183.000
77.44068 168.000
77.46062 164.000
77.48057 159.000
77.50052 152.000
77.52047 160.000
77.54041 157.000
77.56036 149.000
77.58031 147.000
77.60025 137.000
77.62020 138.000
77.64015 147.000
77.66009 149.000
77.68004 136.000
77.69999 130.000
77.71994 145.000
77.73988 139.000
77.75983 122.000
77.77978 139.000
77.79972 132.000
77.81967 134.000
77.83962 109.000
77.85956 110.000
77.87951 106.000
77.89946 121.000
77.91940 117.000
77.93935 113.000
77.95930 114.000
77.97925 120.000
77.99919 118.000
78.01914 112.000
78.03909 111.000
78.05903 100.000
78.07898 120.000
78.09893 120.000
78.11887 97.000
78.13882 85.000
78.15877 105.000
78.17872 121.000
78.19866 111.000
78.21861 104.000
78.23856 106.000
78.25850 106.000
78.27845 109.000
78.29840 104.000
78.31834 107.000
78.33829 117.000
78.35824 125.000
78.37819 98.000
78.39813 120.000
78.41808 113.000
78.43803 105.000
78.45797 110.000
78.47792 116.000
78.49787 101.000
78.51781 95.000
78.53776 105.000
78.55771 100.000
78.57765 99.000
78.59760 107.000
78.61755 107.000
78.63750 110.000
78.65744 118.000
78.67739 113.000
78.69734 104.000
78.71728 116.000
78.73723 104.000
78.75718 105.000
78.77712 89.000
78.79707 122.000
78.81702 100.000
78.83697 131.000
78.85691 105.000
78.87686 134.000
78.89681 139.000
78.91675 129.000
78.93670 109.000
78.95665 122.000
78.97659 141.000
78.99654 127.000
79.01649 108.000
79.03643 138.000
79.05638 134.000
79.07633 139.000
79.09628 158.000
79.11622 142.000
79.13617 163.000
79.15612 193.000
79.17606 197.000
79.19601 191.000
79.21596 190.000
79.23590 188.000
79.25585 213.000
79.27580 221.000
79.29575 197.000
79.31569 214.000
79.33564 195.000
79.35559 243.000
79.37553 221.000
79.39548 187.000
79.41543 219.000
79.43537 210.000
79.45532 213.000
79.47527 214.000
79.49521 169.000
79.51516 167.000
79.53511 210.000
79.55506 175.000
79.57500 178.000
79.59495 171.000
79.61490 190.000
79.63484 162.000
79.65479 162.000
79.67474 165.000
79.69468 157.000
79.71463 139.000
79.73458 150.000
79.75453 134.000
79.77447 157.000
79.79442 170.000
79.81437 141.000
79.83431 109.000
79.85426 144.000
79.87421 121.000
79.89415 117.000
79.91410 129.000
79.93405 123.000
79.95399 128.000
79.97394 143.000
79.99389 101.000
80.01384 111.000
80.03378 142.000
80.05373 122.000
80.07368 136.000
80.09362 121.000
80.11357 147.000
80.13352 121.000
80.15346 113.000
80.17341 103.000
80.19336 121.000
80.21331 101.000
80.23325 128.000
80.25320 116.000
80.27315 118.000
80.29309 110.000
80.31304 115.000
80.33299 128.000
80.35293 115.000
80.37288 119.000
80.39283 106.000
80.41278 105.000
80.43272 116.000
80.45267 124.000
80.47262 122.000
80.49256 129.000
80.51251 111.000
80.53246 114.000
80.55240 105.000
80.57235 115.000
80.59230 114.000
80.61224 103.000
80.63219 122.000
80.65214 124.000
80.67209 97.000
80.69203 114.000
80.71198 107.000
80.73193 110.000
80.75187 115.000
80.77182 107.000
80.79177 128.000
80.81171 101.000
80.83166 121.000
80.85161 115.000
80.87156 102.000
80.89150 128.000
80.91145 89.000
80.93140 116.000
80.95134 104.000
80.97129 118.000
80.99124 105.000
81.01118 115.000
81.03113 104.000
81.05108 128.000
81.07102 114.000
81.09097 113.000
81.11092 122.000
81.13087 120.000
81.15081 109.000
81.17076 119.000
81.19071 101.000
81.21065 101.000
81.23060 103.000
81.25055 112.000
81.27049 95.000
81.29044 109.000
81.31039 110.000
81.33034 111.000
81.35028 128.000
81.37023 98.000
81.39018 120.000
81.41012 104.000
81.43007 112.000
81.45002 123.000
81.46996 105.000
81.48991 113.000
81.50986 117.000
81.52980 110.000
81.54975 114.000
81.56970 109.000
81.58965 98.000
81.60959 114.000
81.62954 130.000
81.64949 105.000
81.66943 122.000
81.68938 101.000
81.70933 111.000
81.72927 103.000
81.74922 103.000
81.76917 122.000
81.78912 107.000
81.80906 114.000
81.82901 110.000
81.84896 131.000
81.86890 110.000
81.88885 119.000
81.90880 110.000
81.92874 104.000
81.94869 91.000
81.96864 91.000
81.98859 105.000
82.00853 92.000
82.02848 101.000
82.04843 90.000
82.06837 114.000
82.08832 103.000
82.10827 98.000
82.12821 99.000
82.14816 122.000
82.16811 122.000
82.18805 104.000
82.20800 90.000
82.22795 113.000
82.24790 101.000
82.26784 119.000
82.28779 98.000
82.30774 102.000
82.32768 100.000
82.34763 92.000
82.36758 99.000
82.38752 102.000
82.40747 103.000
82.42742 120.000
82.44737 100.000
82.46731 99.000
82.48726 94.000
82.50721 129.000
82.52715 95.000
82.54710 109.000
82.56705 88.000
82.58699 101.000
82.60694 99.000
82.62689 117.000
82.64683 96.000
82.66678 95.000
82.68673 87.000
82.70668 114.000
82.72662 117.000
82.74657 105.000
82.76652 119.000
82.78646 121.000
82.80641 108.000
82.82636 123.000
82.84630 103.000
82.86625 104.000
82.88620 102.000
82.90615 105.000
82.92609 108.000
82.94604 85.000
82.96599 104.000
82.98593 108.000
83.00588 101.000
83.02583 109.000
83.04577 95.000
83.06572 90.000
83.08567 95.000
83.10561 110.000
83.12556 107.000
83.14551 87.000
83.16546 104.000
83.18540 108.000
83.20535 101.000
83.22530 88.000
83.24524 104.000
83.26519 108.000
83.28514 101.000
83.30508 104.000
83.32503 95.000
83.34498 102.000
83.36493 110.000
83.38487 96.000
83.40482 106.000
83.42477 114.000
83.44471 124.000
83.46466 105.000
83.48461 103.000
83.50455 106.000
83.52450 118.000
83.54445 97.000
83.56440 110.000
83.58434 105.000
83.60429 115.000
83.62424 97.000
83.64418 105.000
83.66413 107.000
83.68408 118.000
83.70402 101.000
83.72397 92.000
83.74392 103.000
83.76386 98.000
83.78381 108.000
83.80376 93.000
83.82371 108.000
83.84365 112.000
83.86360 104.000
83.88355 95.000
83.90349 109.000
83.92344 101.000
83.94339 122.000
83.96333 119.000
83.98328 92.000
84.00323 89.000
84.02318 99.000
84.04312 108.000
84.06307 121.000
84.08302 98.000
84.10296 89.000
84.12291 101.000
84.14286 95.000
84.16280 100.000
84.18275 99.000
84.20270 103.000
84.22264 97.000
84.24259 98.000
84.26254 95.000
84.28249 102.000
84.30243 110.000
84.32238 123.000
84.34233 118.000
84.36227 104.000
84.38222 109.000
84.40217 105.000
84.42211 112.000
84.44206 101.000
84.46201 103.000
84.48196 95.000
84.50190 115.000
84.52185 108.000
84.54180 111.000
84.56174 119.000
84.58169 99.000
84.60164 111.000
84.62158 94.000
84.64153 94.000
84.66148 119.000
84.68142 110.000
84.70137 102.000
84.72132 108.000
84.74127 115.000
84.76121 113.000
84.78116 105.000
84.80111 110.000
84.82105 94.000
84.84100 117.000
84.86095 106.000
84.88089 109.000
84.90084 101.000
84.92079 104.000
84.94074 119.000
84.96068 87.000
84.98063 108.000
85.00058 103.000
85.02052 107.000
85.04047 137.000
85.06042 104.000
85.08036 113.000
85.10031 108.000
85.12026 122.000
85.14021 107.000
85.16015 107.000
85.18010 98.000
85.20005 81.000
85.21999 110.000
85.23994 102.000
85.25989 110.000
85.27983 113.000
85.29978 110.000
85.31973 109.000
85.33967 99.000
85.35962 115.000
85.37957 125.000
85.39952 108.000
85.41946 103.000
85.43941 102.000
85.45936 93.000
85.47930 119.000
85.49925 108.000
85.51920 124.000
85.53914 93.000
85.55909 106.000
85.57904 80.000
85.59899 120.000
85.61893 108.000
85.63888 108.000
85.65883 110.000
85.67877 107.000
85.69872 108.000
85.71867 93.000
85.73861 97.000
85.75856 81.000
85.77851 102.000
85.79845 93.000
85.81840 103.000
85.83835 95.000
85.85830 115.000
85.87824 107.000
85.89819 108.000
85.91814 111.000
85.93808 96.000
85.95803 96.000
85.97798 87.000
85.99792 102.000
86.01787 123.000
86.03782 107.000
86.05777 102.000
86.07771 122.000
86.09766 103.000
86.11761 108.000
86.13755 107.000
86.15750 109.000
86.17745 97.000
86.19739 97.000
86.21734 103.000
86.23729 97.000
86.25723 102.000
86.27718 97.000
86.29713 115.000
86.31708 100.000
86.33702 103.000
86.35697 131.000
86.37692 110.000
86.39686 101.000
86.41681 115.000
86.43676 107.000
86.45670 113.000
86.47665 104.000
86.49660 79.000
86.51655 111.000
86.53649 111.000
86.55644 117.000
86.57639 101.000
86.59633 96.000
86.61628 90.000
86.63623 115.000
86.65617 121.000
86.67612 132.000
86.69607 116.000
86.71602 107.000
86.73596 90.000
86.75591 77.000
86.77586 83.000
86.79580 105.000
86.81575 102.000
86.83570 108.000
86.85564 105.000
86.87559 114.000
86.89554 119.000
86.91548 103.000
86.93543 117.000
86.95538 85.000
86.97533 107.000
86.99527 82.000
87.01522 126.000
87.03517 107.000
87.05511 102.000
87.07506 119.000
87.09501 115.000
87.11495 98.000
87.13490 101.000
87.15485 148.000
87.17480 102.000
87.19474 117.000
87.21469 110.000
87.23464 107.000
87.25458 107.000
87.27453 104.000
87.29448 112.000
87.31442 104.000
87.33437 110.000
87.35432 141.000
87.37426 110.000
87.39421 117.000
87.41416 108.000
87.43411 125.000
87.45405 126.000
87.47400 119.000
87.49395 109.000
87.51389 109.000
87.53384 112.000
87.55379 118.000
87.57373 138.000
87.59368 118.000
87.61363 137.000
87.63358 108.000
87.65352 107.000
87.67347 128.000
87.69342 112.000
87.71336 111.000
87.73331 119.000
87.75326 114.000
87.77320 106.000
87.79315 105.000
87.81310 110.000
87.83304 93.000
87.85299 108.000
87.87294 123.000
87.89289 127.000
87.91283 102.000
87.93278 107.000
87.95273 111.000
87.97267 105.000
87.99262 124.000
88.01257 82.000
88.03251 99.000
88.05246 120.000
88.07241 119.000
88.09236 101.000
88.11230 109.000
88.13225 112.000
88.15220 86.000
88.17214 108.000
88.19209 104.000
88.21204 103.000
88.23198 110.000
88.25193 104.000
88.27188 107.000
88.29183 113.000
88.31177 109.000
88.33172 106.000
88.35167 118.000
88.37161 108.000
88.39156 110.000
88.41151 107.000
88.43145 109.000
88.45140 96.000
88.47135 100.000
88.49129 92.000
88.51124 98.000
88.53119 108.000
88.55114 103.000
88.57108 94.000
88.59103 94.000
88.61098 116.000
88.63092 114.000
88.65087 114.000
88.67082 91.000
88.69076 97.000
88.71071 84.000
88.73066 102.000
88.75061 95.000
88.77055 81.000
88.79050 100.000
88.81045 96.000
88.83039 98.000
88.85034 98.000
88.87029 113.000
88.89023 100.000
88.91018 98.000
88.93013 102.000
88.95007 101.000
88.97002 118.000
88.98997 91.000
89.00992 97.000
89.02986 100.000
89.04981 110.000
89.06976 108.000
89.08970 106.000
89.10965 104.000
89.12960 97.000
89.14954 106.000
89.16949 118.000
89.18944 108.000
89.20939 104.000
89.22933 111.000
89.24928 113.000
89.26923 114.000
89.28917 110.000
89.30912 114.000
89.32907 114.000
89.34901 95.000
89.36896 111.000
89.38891 100.000
89.40885 111.000
89.42880 113.000
89.44875 118.000
89.46870 100.000
89.48864 100.000
89.50859 115.000
89.52854 110.000
89.54848 125.000
89.56843 112.000
89.58838 113.000
89.60832 107.000
89.62827 113.000
89.64822 101.000
89.66817 98.000
89.68811 111.000
89.70806 107.000
89.72801 109.000
89.74795 104.000
89.76790 142.000
89.78785 99.000
89.80779 111.000
89.82774 107.000
89.84769 104.000
89.86764 97.000
89.88758 113.000
89.90753 102.000
89.92748 119.000
89.94742 115.000
89.96737 124.000
89.98732 121.000
90.00726 128.000
