10.00000 247.000
10.01995 238.000
10.03989 242.000
10.05984 230.000
10.07979 231.000
10.09973 242.000
10.11968 231.000
10.13963 236.000
10.15958 224.000
10.17952 227.000
10.19947 230.000
10.21942 238.000
10.23936 242.000
10.25931 235.000
10.27926 213.000
10.29920 230.000
10.31915 261.000
10.33910 234.000
10.35905 220.000
10.37899 240.000
10.39894 240.000
10.41889 235.000
10.43883 211.000
10.45878 238.000
10.47873 233.000
10.49867 242.000
10.51862 222.000
10.53857 236.000
10.55851 227.000
10.57846 210.000
10.59841 234.000
10.61836 232.000
10.63830 233.000
10.65825 208.000
10.67820 222.000
10.69814 219.000
10.71809 226.000
10.73804 245.000
10.75798 221.000
10.77793 212.000
10.79788 226.000
10.81783 231.000
10.83777 235.000
10.85772 216.000
10.87767 215.000
10.89761 233.000
10.91756 251.000
10.93751 235.000
10.95745 213.000
10.97740 239.000
10.99735 240.000
11.01730 238.000
11.03724 205.000
11.05719 229.000
11.07714 242.000
11.09708 273.000
11.11703 183.000
11.13698 245.000
11.15692 250.000
11.17687 253.000
11.19682 242.000
11.21676 213.000
11.23671 237.000
11.25666 224.000
11.27661 235.000
11.29655 249.000
11.31650 210.000
11.33645 249.000
11.35639 224.000
11.37634 222.000
11.39629 230.000
11.41623 208.000
11.43618 207.000
11.45613 233.000
11.47608 201.000
11.49602 213.000
11.51597 216.000
11.53592 243.000
11.55586 252.000
11.57581 225.000
11.59576 231.000
11.61570 217.000
11.63565 229.000
11.65560 240.000
11.67554 264.000
11.69549 241.000
11.71544 213.000
11.73539 204.000
11.75533 216.000
11.77528 262.000
11.79523 252.000
11.81517 237.000
11.83512 270.000
11.85507 225.000
11.87501 237.000
11.89496 235.000
11.91491 223.000
11.93486 253.000
11.95480 232.000
11.97475 254.000
11.99470 254.000
12.01464 230.000
12.03459 230.000
12.05454 249.000
12.07448 211.000
12.09443 244.000
12.11438 222.000
12.13432 231.000
12.15427 239.000
12.17422 228.000
12.19417 256.000
12.21411 195.000
12.23406 260.000
12.25401 253.000
12.27395 236.000
12.29390 229.000
12.31385 225.000
12.33379 238.000
12.35374 227.000
12.37369 229.000
12.39364 218.000
12.41358 243.000
12.43353 238.000
12.45348 252.000
12.47342 236.000
12.49337 247.000
12.51332 230.000
12.53326 263.000
12.55321 224.000
12.57316 224.000
12.59311 223.000
12.61305 235.000
12.63300 242.000
12.65295 242.000
12.67289 239.000
12.69284 206.000
12.71279 260.000
12.73273 220.000
12.75268 218.000
12.77263 209.000
12.79257 237.000
12.81252 218.000
12.83247 213.000
12.85242 243.000
12.87236 228.000
12.89231 230.000
12.91226 240.000
12.93220 242.000
12.95215 214.000
12.97210 232.000
12.99204 222.000
13.01199 232.000
13.03194 226.000
13.05189 233.000
13.07183 233.000
13.09178 243.000
13.11173 234.000
13.13167 221.000
13.15162 264.000
13.17157 208.000
13.19151 206.000
13.21146 214.000
13.23141 224.000
13.25135 201.000
13.27130 242.000
13.29125 213.000
13.31120 247.000
13.33114 243.000
13.35109 217.000
13.37104 213.000
13.39098 224.000
13.41093 245.000
13.43088 208.000
13.45082 208.000
13.47077 268.000
13.49072 240.000
13.51067 233.000
13.53061 211.000
13.55056 257.000
13.57051 232.000
13.59045 231.000
13.61040 241.000
13.63035 214.000
13.65029 262.000
13.67024 211.000
13.69019 226.000
13.71013 200.000
13.73008 222.000
13.75003 201.000
13.76998 232.000
13.78992 234.000
13.80987 220.000
13.82982 229.000
13.84976 219.000
13.86971 242.000
13.88966 223.000
13.90960 224.000
13.92955 220.000
13.94950 247.000
13.96945 249.000
13.98939 203.000
14.00934 222.000
14.02929 226.000
14.04923 218.000
14.06918 237.000
14.08913 242.000
14.10907 219.000
14.12902 240.000
14.14897 218.000
14.16892 238.000
14.18886 215.000
14.20881 219.000
14.22876 234.000
14.24870 247.000
14.26865 216.000
14.28860 214.000
14.30854 227.000
14.32849 215.000
14.34844 222.000
14.36838 236.000
14.38833 228.000
14.40828 219.000
14.42823 227.000
14.44817 231.000
14.46812 213.000
14.48807 232.000
14.50801 240.000
14.52796 234.000
14.54791 206.000
14.56785 252.000
14.58780 238.000
14.60775 253.000
14.62770 230.000
14.64764 210.000
14.66759 204.000
14.68754 254.000
14.70748 221.000
14.72743 215.000
14.74738 223.000
14.76732 230.000
14.78727 234.000
14.80722 236.000
14.82716 263.000
14.84711 241.000
14.86706 225.000
14.88701 195.000
14.90695 249.000
14.92690 237.000
14.94685 228.000
14.96679 248.000
14.98674 210.000
15.00669 237.000
15.02663 250.000
15.04658 217.000
15.06653 234.000
15.08648 216.000
15.10642 227.000
15.12637 230.000
15.14632 233.000
15.16626 229.000
15.18621 231.000
15.20616 209.000
15.22610 228.000
15.24605 223.000
15.26600 222.000
15.28594 210.000
15.30589 235.000
15.32584 231.000
15.34579 210.000
15.36573 240.000
15.38568 231.000
15.40563 205.000
15.42557 222.000
15.44552 220.000
15.46547 237.000
15.48541 223.000
15.50536 233.000
15.52531 211.000
15.54526 243.000
15.56520 194.000
15.58515 242.000
15.60510 223.000
15.62504 226.000
15.64499 228.000
15.66494 218.000
15.68488 222.000
15.70483 249.000
15.72478 236.000
15.74472 217.000
15.76467 213.000
15.78462 241.000
15.80457 238.000
15.82451 234.000
15.84446 207.000
15.86441 222.000
15.88435 237.000
15.90430 201.000
15.92425 187.000
15.94419 219.000
15.96414 256.000
15.98409 213.000
16.00404 238.000
16.02398 231.000
16.04393 224.000
16.06388 238.000
16.08382 254.000
16.10377 212.000
16.12372 240.000
16.14366 230.000
16.16361 211.000
16.18356 207.000
16.20351 229.000
16.22345 260.000
16.24340 210.000
16.26335 220.000
16.28329 234.000
16.30324 241.000
16.32319 198.000
16.34313 276.000
16.36308 231.000
16.38303 224.000
16.40297 227.000
16.42292 208.000
16.44287 224.000
16.46282 233.000
16.48276 242.000
16.50271 249.000
16.52266 217.000
16.54260 253.000
16.56255 232.000
16.58250 248.000
16.60244 229.000
16.62239 243.000
16.64234 240.000
16.66229 249.000
16.68223 222.000
16.70218 233.000
16.72213 271.000
16.74207 228.000
16.76202 250.000
16.78197 259.000
16.80191 251.000
16.82186 234.000
16.84181 262.000
16.86175 266.000
16.88170 245.000
16.90165 237.000
16.92160 215.000
16.94154 223.000
16.96149 248.000
16.98144 229.000
17.00138 214.000
17.02133 211.000
17.04128 229.000
17.06122 232.000
17.08117 230.000
17.10112 232.000
17.12107 228.000
17.14101 213.000
17.16096 203.000
17.18091 223.000
17.20085 201.000
17.22080 230.000
17.24075 234.000
17.26069 221.000
17.28064 244.000
17.30059 224.000
17.32053 213.000
17.34048 243.000
17.36043 234.000
17.38038 211.000
17.40032 223.000
17.42027 255.000
17.44022 240.000
17.46016 249.000
17.48011 238.000
17.50006 224.000
17.52000 240.000
17.53995 207.000
17.55990 231.000
17.57985 259.000
17.59979 234.000
17.61974 244.000
17.63969 253.000
17.65963 236.000
17.67958 243.000
17.69953 251.000
17.71947 251.000
17.73942 242.000
17.75937 274.000
17.77932 231.000
17.79926 260.000
17.81921 246.000
17.83916 231.000
17.85910 202.000
17.87905 238.000
17.89900 250.000
17.91894 244.000
17.93889 233.000
17.95884 238.000
17.97878 219.000
17.99873 229.000
18.01868 250.000
18.03863 241.000
18.05857 250.000
18.07852 230.000
18.09847 224.000
18.11841 230.000
18.13836 224.000
18.15831 228.000
18.17825 211.000
18.19820 228.000
18.21815 226.000
18.23810 231.000
18.25804 246.000
18.27799 225.000
18.29794 249.000
18.31788 214.000
18.33783 219.000
18.35778 209.000
18.37772 206.000
18.39767 224.000
18.41762 248.000
18.43756 239.000
18.45751 229.000
18.47746 236.000
18.49741 264.000
18.51735 248.000
18.53730 198.000
18.55725 229.000
18.57719 251.000
18.59714 185.000
18.61709 250.000
18.63703 225.000
18.65698 248.000
18.67693 213.000
18.69688 227.000
18.71682 234.000
18.73677 230.000
18.75672 226.000
18.77666 246.000
18.79661 230.000
18.81656 225.000
18.83650 228.000
18.85645 231.000
18.87640 217.000
18.89634 226.000
18.91629 228.000
18.93624 226.000
18.95619 248.000
18.97613 257.000
18.99608 222.000
19.01603 235.000
19.03597 206.000
19.05592 251.000
19.07587 244.000
19.09581 214.000
19.11576 224.000
19.13571 254.000
19.15566 220.000
19.17560 229.000
19.19555 213.000
19.21550 219.000
19.23544 213.000
19.25539 256.000
19.27534 236.000
19.29528 231.000
19.31523 237.000
19.33518 245.000
19.35513 282.000
19.37507 226.000
19.39502 230.000
19.41497 258.000
19.43491 266.000
19.45486 225.000
19.47481 247.000
19.49475 225.000
19.51470 235.000
19.53465 251.000
19.55459 233.000
19.57454 235.000
19.59449 286.000
19.61444 262.000
19.63438 261.000
19.65433 230.000
19.67428 251.000
19.69422 263.000
19.71417 265.000
19.73412 266.000
19.75406 222.000
19.77401 224.000
19.79396 228.000
19.81391 250.000
19.83385 241.000
19.85380 223.000
19.87375 289.000
19.89369 252.000
19.91364 278.000
19.93359 346.000
19.95353 374.000
19.97348 424.000
19.99343 413.000
20.01337 454.000
20.03332 516.000
20.05327 630.000
20.07322 673.000
20.09316 698.000
20.11311 679.000
20.13306 617.000
20.15300 578.000
20.17295 550.000
20.19290 529.000
20.21284 512.000
20.23279 522.000
20.25274 488.000
20.27269 442.000
20.29263 423.000
20.31258 354.000
20.33253 356.000
20.35247 354.000
20.37242 341.000
20.39237 382.000
20.41231 435.000
20.43226 509.000
20.45221 626.000
20.47215 729.000
20.49210 904.000
20.51205 986.000
20.53200 1040.000
20.55194 1077.000
20.57189 1115.000
20.59184 1177.000
20.61178 1330.000
20.63173 1477.000
20.65168 1647.000
20.67162 1630.000
20.69157 1571.000
20.71152 1323.000
20.73147 1141.000
20.75141 893.000
20.77136 741.000
20.79131 635.000
20.81125 564.000
20.83120 477.000
20.85115 415.000
20.87109 396.000
20.89104 390.000
20.91099 354.000
20.93094 345.000
20.95088 329.000
20.97083 297.000
20.99078 286.000
21.01072 282.000
21.03067 284.000
21.05062 284.000
21.07056 281.000
21.09051 284.000
21.11046 281.000
21.13040 301.000
21.15035 296.000
21.17030 252.000
21.19025 274.000
21.21019 261.000
21.23014 251.000
21.25009 253.000
21.27003 242.000
21.28998 212.000
21.30993 230.000
21.32987 266.000
21.34982 252.000
21.36977 261.000
21.38972 261.000
21.40966 234.000
21.42961 230.000
21.44956 234.000
21.46950 240.000
21.48945 260.000
21.50940 240.000
21.52934 256.000
21.54929 231.000
21.56924 226.000
21.58918 236.000
21.60913 268.000
21.62908 238.000
21.64903 217.000
21.66897 271.000
21.68892 230.000
21.70887 257.000
21.72881 265.000
21.74876 233.000
21.76871 238.000
21.78865 255.000
21.80860 244.000
21.82855 270.000
21.84850 228.000
21.86844 243.000
21.88839 223.000
21.90834 260.000
21.92828 231.000
21.94823 212.000
21.96818 246.000
21.98812 259.000
22.00807 232.000
22.02802 208.000
22.04796 239.000
22.06791 223.000
22.08786 255.000
22.10781 231.000
22.12775 242.000
22.14770 270.000
22.16765 241.000
22.18759 237.000
22.20754 223.000
22.22749 237.000
22.24743 240.000
22.26738 233.000
22.28733 230.000
22.30728 237.000
22.32722 220.000
22.34717 205.000
22.36712 224.000
22.38706 219.000
22.40701 236.000
22.42696 234.000
22.44690 244.000
22.46685 229.000
22.48680 228.000
22.50675 240.000
22.52669 214.000
22.54664 234.000
22.56659 233.000
22.58653 237.000
22.60648 256.000
22.62643 224.000
22.64637 234.000
22.66632 231.000
22.68627 220.000
22.70621 269.000
22.72616 228.000
22.74611 211.000
22.76606 261.000
22.78600 210.000
22.80595 249.000
22.82590 228.000
22.84584 239.000
22.86579 220.000
22.88574 275.000
22.90568 251.000
22.92563 265.000
22.94558 251.000
22.96553 228.000
22.98547 255.000
23.00542 239.000
23.02537 233.000
23.04531 241.000
23.06526 234.000
23.08521 242.000
23.10515 222.000
23.12510 248.000
23.14505 239.000
23.16499 256.000
23.18494 235.000
23.20489 227.000
23.22484 206.000
23.24478 226.000
23.26473 227.000
23.28468 241.000
23.30462 245.000
23.32457 268.000
23.34452 236.000
23.36446 255.000
23.38441 209.000
23.40436 248.000
23.42431 246.000
23.44425 237.000
23.46420 235.000
23.48415 261.000
23.50409 250.000
23.52404 262.000
23.54399 239.000
23.56393 233.000
23.58388 228.000
23.60383 249.000
23.62377 234.000
23.64372 241.000
23.66367 226.000
23.68362 234.000
23.70356 247.000
23.72351 235.000
23.74346 236.000
23.76340 270.000
23.78335 260.000
23.80330 258.000
23.82324 229.000
23.84319 233.000
23.86314 243.000
23.88309 252.000
23.90303 249.000
23.92298 267.000
23.94293 279.000
23.96287 230.000
23.98282 241.000
24.00277 269.000
24.02271 259.000
24.04266 256.000
24.06261 268.000
24.08256 228.000
24.10250 252.000
24.12245 250.000
24.14240 219.000
24.16234 253.000
24.18229 242.000
24.20224 230.000
24.22218 248.000
24.24213 253.000
24.26208 245.000
24.28202 237.000
24.30197 238.000
24.32192 243.000
24.34187 238.000
24.36181 242.000
24.38176 239.000
24.40171 244.000
24.42165 232.000
24.44160 220.000
24.46155 251.000
24.48149 206.000
24.50144 232.000
24.52139 222.000
24.54134 237.000
24.56128 232.000
24.58123 274.000
24.60118 282.000
24.62112 246.000
24.64107 277.000
24.66102 300.000
24.68096 278.000
24.70091 285.000
24.72086 281.000
24.74080 262.000
24.76075 272.000
24.78070 280.000
24.80065 259.000
24.82059 264.000
24.84054 296.000
24.86049 243.000
24.88043 251.000
24.90038 237.000
24.92033 237.000
24.94027 256.000
24.96022 270.000
24.98017 223.000
25.00012 271.000
25.02006 235.000
25.04001 253.000
25.05996 278.000
25.07990 285.000
25.09985 259.000
25.11980 239.000
25.13974 231.000
25.15969 246.000
25.17964 241.000
25.19958 227.000
25.21953 260.000
25.23948 229.000
25.25943 248.000
25.27937 228.000
25.29932 237.000
25.31927 230.000
25.33921 220.000
25.35916 256.000
25.37911 239.000
25.39905 221.000
25.41900 284.000
25.43895 259.000
25.45890 248.000
25.47884 249.000
25.49879 256.000
25.51874 275.000
25.53868 226.000
25.55863 258.000
25.57858 242.000
25.59852 262.000
25.61847 246.000
25.63842 251.000
25.65837 233.000
25.67831 257.000
25.69826 286.000
25.71821 258.000
25.73815 235.000
25.75810 256.000
25.77805 251.000
25.79799 288.000
25.81794 282.000
25.83789 274.000
25.85783 254.000
25.87778 252.000
25.89773 252.000
25.91768 288.000
25.93762 272.000
25.95757 303.000
25.97752 303.000
25.99746 286.000
26.01741 301.000
26.03736 306.000
26.05730 309.000
26.07725 356.000
26.09720 346.000
26.11715 341.000
26.13709 307.000
26.15704 311.000
26.17699 323.000
26.19693 320.000
26.21688 339.000
26.23683 300.000
26.25677 307.000
26.27672 292.000
26.29667 265.000
26.31661 267.000
26.33656 296.000
26.35651 265.000
26.37646 285.000
26.39640 241.000
26.41635 264.000
26.43630 289.000
26.45624 265.000
26.47619 239.000
26.49614 277.000
26.51608 265.000
26.53603 272.000
26.55598 272.000
26.57593 268.000
26.59587 223.000
26.61582 268.000
26.63577 271.000
26.65571 270.000
26.67566 244.000
26.69561 261.000
26.71555 274.000
26.73550 262.000
26.75545 289.000
26.77539 231.000
26.79534 279.000
26.81529 237.000
26.83524 239.000
26.85518 232.000
26.87513 239.000
26.89508 246.000
26.91502 267.000
26.93497 259.000
26.95492 278.000
26.97486 259.000
26.99481 239.000
27.01476 231.000
27.03471 264.000
27.05465 268.000
27.07460 251.000
27.09455 231.000
27.11449 267.000
27.13444 260.000
27.15439 253.000
27.17433 270.000
27.19428 293.000
27.21423 270.000
27.23417 254.000
27.25412 262.000
27.27407 254.000
27.29402 272.000
27.31396 256.000
27.33391 294.000
27.35386 228.000
27.37380 255.000
27.39375 265.000
27.41370 256.000
27.43364 258.000
27.45359 261.000
27.47354 285.000
27.49349 264.000
27.51343 254.000
27.53338 226.000
27.55333 266.000
27.57327 219.000
27.59322 279.000
27.61317 237.000
27.63311 273.000
27.65306 287.000
27.67301 243.000
27.69296 264.000
27.71290 230.000
27.73285 248.000
27.75280 233.000
27.77274 241.000
27.79269 263.000
27.81264 256.000
27.83258 252.000
27.85253 218.000
27.87248 247.000
27.89242 268.000
27.91237 248.000
27.93232 279.000
27.95227 238.000
27.97221 268.000
27.99216 255.000
28.01211 250.000
28.03205 266.000
28.05200 255.000
28.07195 254.000
28.09189 272.000
28.11184 263.000
28.13179 255.000
28.15174 253.000
28.17168 249.000
28.19163 229.000
28.21158 261.000
28.23152 235.000
28.25147 277.000
28.27142 243.000
28.29136 242.000
28.31131 283.000
28.33126 265.000
28.35120 266.000
28.37115 289.000
28.39110 286.000
28.41105 269.000
28.43099 273.000
28.45094 271.000
28.47089 257.000
28.49083 261.000
28.51078 275.000
28.53073 275.000
28.55067 272.000
28.57062 260.000
28.59057 237.000
28.61052 279.000
28.63046 255.000
28.65041 301.000
28.67036 247.000
28.69030 238.000
28.71025 262.000
28.73020 273.000
28.75014 256.000
28.77009 260.000
28.79004 263.000
28.80998 236.000
28.82993 286.000
28.84988 235.000
28.86983 269.000
28.88977 281.000
28.90972 273.000
28.92967 273.000
28.94961 279.000
28.96956 262.000
28.98951 270.000
29.00945 245.000
29.02940 272.000
29.04935 303.000
29.06930 256.000
29.08924 273.000
29.10919 257.000
29.12914 266.000
29.14908 274.000
29.16903 258.000
29.18898 268.000
29.20892 249.000
29.22887 250.000
29.24882 280.000
29.26877 282.000
29.28871 320.000
29.30866 301.000
29.32861 333.000
29.34855 348.000
29.36850 327.000
29.38845 332.000
29.40839 343.000
29.42834 356.000
29.44829 378.000
29.46823 457.000
29.48818 501.000
29.50813 608.000
29.52808 718.000
29.54802 829.000
29.56797 807.000
29.58792 748.000
29.60786 727.000
29.62781 643.000
29.64776 587.000
29.66770 516.000
29.68765 421.000
29.70760 376.000
29.72755 345.000
29.74749 334.000
29.76744 312.000
29.78739 325.000
29.80733 301.000
29.82728 330.000
29.84723 292.000
29.86717 351.000
29.88712 339.000
29.90707 303.000
29.92701 295.000
29.94696 317.000
29.96691 324.000
29.98686 276.000
30.00680 301.000
30.02675 294.000
30.04670 302.000
30.06664 279.000
30.08659 288.000
30.10654 269.000
30.12648 289.000
30.14643 277.000
30.16638 267.000
30.18633 307.000
30.20627 281.000
30.22622 277.000
30.24617 275.000
30.26611 273.000
30.28606 272.000
30.30601 285.000
30.32595 300.000
30.34590 280.000
30.36585 255.000
30.38579 280.000
30.40574 278.000
30.42569 253.000
30.44564 284.000
30.46558 263.000
30.48553 265.000
30.50548 285.000
30.52542 287.000
30.54537 280.000
30.56532 271.000
30.58526 283.000
30.60521 284.000
30.62516 280.000
30.64511 292.000
30.66505 304.000
30.68500 353.000
30.70495 304.000
30.72489 301.000
30.74484 315.000
30.76479 310.000
30.78473 281.000
30.80468 301.000
30.82463 278.000
30.84458 316.000
30.86452 300.000
30.88447 266.000
30.90442 344.000
30.92436 308.000
30.94431 308.000
30.96426 277.000
30.98420 290.000
31.00415 293.000
31.02410 262.000
31.04404 303.000
31.06399 285.000
31.08394 278.000
31.10389 269.000
31.12383 285.000
31.14378 291.000
31.16373 257.000
31.18367 283.000
31.20362 272.000
31.22357 275.000
31.24351 277.000
31.26346 273.000
31.28341 264.000
31.30336 267.000
31.32330 283.000
31.34325 283.000
31.36320 282.000
31.38314 282.000
31.40309 293.000
31.42304 249.000
31.44298 301.000
31.46293 276.000
31.48288 334.000
31.50282 352.000
31.52277 322.000
31.54272 317.000
31.56267 300.000
31.58261 332.000
31.60256 278.000
31.62251 332.000
31.64245 309.000
31.66240 305.000
31.68235 308.000
31.70229 324.000
31.72224 343.000
31.74219 330.000
31.76214 430.000
31.78208 388.000
31.80203 425.000
31.82198 444.000
31.84192 442.000
31.86187 406.000
31.88182 427.000
31.90176 395.000
31.92171 414.000
31.94166 379.000
31.96160 367.000
31.98155 323.000
32.00150 369.000
32.02145 397.000
32.04139 339.000
32.06134 347.000
32.08129 365.000
32.10123 346.000
32.12118 359.000
32.14113 319.000
32.16107 325.000
32.18102 349.000
32.20097 342.000
32.22092 360.000
32.24086 365.000
32.26081 356.000
32.28076 359.000
32.30070 410.000
32.32065 394.000
32.34060 409.000
32.36054 367.000
32.38049 411.000
32.40044 407.000
32.42039 401.000
32.44033 433.000
32.46028 461.000
32.48023 533.000
32.50017 604.000
32.52012 581.000
32.54007 558.000
32.56001 499.000
32.57996 488.000
32.59991 491.000
32.61985 403.000
32.63980 375.000
32.65975 336.000
32.67970 299.000
32.69964 316.000
32.71959 285.000
32.73954 307.000
32.75948 289.000
32.77943 287.000
32.79938 314.000
32.81932 281.000
32.83927 286.000
32.85922 267.000
32.87917 316.000
32.89911 274.000
32.91906 321.000
32.93901 281.000
32.95895 260.000
32.97890 297.000
32.99885 305.000
33.01879 262.000
33.03874 293.000
33.05869 261.000
33.07863 305.000
33.09858 304.000
33.11853 320.000
33.13848 330.000
33.15842 377.000
33.17837 360.000
33.19832 453.000
33.21826 461.000
33.23821 473.000
33.25816 550.000
33.27810 579.000
33.29805 610.000
33.31800 729.000
33.33795 822.000
33.35789 820.000
33.37784 799.000
33.39779 721.000
33.41773 823.000
33.43768 784.000
33.45763 758.000
33.47757 716.000
33.49752 706.000
33.51747 641.000
33.53741 632.000
33.55736 556.000
33.57731 517.000
33.59726 530.000
33.61720 512.000
33.63715 458.000
33.65710 420.000
33.67704 511.000
33.69699 535.000
33.71694 485.000
33.73688 481.000
33.75683 520.000
33.77678 579.000
33.79673 581.000
33.81667 547.000
33.83662 602.000
33.85657 635.000
33.87651 711.000
33.89646 709.000
33.91641 778.000
33.93635 862.000
33.95630 1047.000
33.97625 1219.000
33.99620 1372.000
34.01614 1609.000
34.03609 1642.000
34.05604 1715.000
34.07598 1627.000
34.09593 1567.000
34.11588 1482.000
34.13582 1472.000
34.15577 1202.000
34.17572 1149.000
34.19566 1009.000
34.21561 915.000
34.23556 834.000
34.25551 721.000
34.27545 631.000
34.29540 596.000
34.31535 537.000
34.33529 539.000
34.35524 489.000
34.37519 475.000
34.39513 445.000
34.41508 457.000
34.43503 423.000
34.45498 407.000
34.47492 401.000
34.49487 359.000
34.51482 394.000
34.53476 348.000
34.55471 385.000
34.57466 392.000
34.59460 341.000
34.61455 368.000
34.63450 363.000
34.65444 352.000
34.67439 349.000
34.69434 375.000
34.71429 362.000
34.73423 366.000
34.75418 324.000
34.77413 336.000
34.79407 341.000
34.81402 348.000
34.83397 350.000
34.85391 344.000
34.87386 331.000
34.89381 346.000
34.91376 346.000
34.93370 326.000
34.95365 391.000
34.97360 358.000
34.99354 366.000
35.01349 355.000
35.03344 358.000
35.05338 376.000
35.07333 320.000
35.09328 366.000
35.11322 354.000
35.13317 368.000
35.15312 414.000
35.17307 413.000
35.19301 393.000
35.21296 402.000
35.23291 444.000
35.25285 475.000
35.27280 451.000
35.29275 496.000
35.31269 531.000
35.33264 600.000
35.35259 692.000
35.37254 774.000
35.39248 924.000
35.41243 1155.000
35.43238 1552.000
35.45232 1580.000
35.47227 1637.000
35.49222 2027.000
35.51216 2792.000
35.53211 3440.000
35.55206 2993.000
35.57201 2148.000
35.59195 1870.000
35.61190 1976.000
35.63185 1927.000
35.65179 1387.000
35.67174 1013.000
35.69169 821.000
35.71163 691.000
35.73158 624.000
35.75153 534.000
35.77147 512.000
35.79142 491.000
35.81137 463.000
35.83132 453.000
35.85126 405.000
35.87121 375.000
35.89116 426.000
35.91110 384.000
35.93105 353.000
35.95100 373.000
35.97094 410.000
35.99089 411.000
36.01084 400.000
36.03079 385.000
36.05073 409.000
36.07068 412.000
36.09063 317.000
36.11057 317.000
36.13052 345.000
36.15047 391.000
36.17041 370.000
36.19036 313.000
36.21031 351.000
36.23025 335.000
36.25020 381.000
36.27015 311.000
36.29010 295.000
36.31004 350.000
36.32999 309.000
36.34994 338.000
36.36988 304.000
36.38983 311.000
36.40978 319.000
36.42972 277.000
36.44967 321.000
36.46962 318.000
36.48957 289.000
36.50951 343.000
36.52946 328.000
36.54941 312.000
36.56935 308.000
36.58930 313.000
36.60925 267.000
36.62919 291.000
36.64914 309.000
36.66909 314.000
36.68903 273.000
36.70898 260.000
36.72893 282.000
36.74888 302.000
36.76882 288.000
36.78877 266.000
36.80872 267.000
36.82866 271.000
36.84861 296.000
36.86856 282.000
36.88850 290.000
36.90845 260.000
36.92840 280.000
36.94835 283.000
36.96829 318.000
36.98824 312.000
37.00819 297.000
37.02813 268.000
37.04808 288.000
37.06803 309.000
37.08797 262.000
37.10792 305.000
37.12787 277.000
37.14781 315.000
37.16776 297.000
37.18771 288.000
37.20766 313.000
37.22760 290.000
37.24755 301.000
37.26750 252.000
37.28744 301.000
37.30739 276.000
37.32734 281.000
37.34728 265.000
37.36723 263.000
37.38718 317.000
37.40713 303.000
37.42707 267.000
37.44702 284.000
37.46697 287.000
37.48691 284.000
37.50686 278.000
37.52681 275.000
37.54675 279.000
37.56670 281.000
37.58665 277.000
37.60660 279.000
37.62654 292.000
37.64649 267.000
37.66644 293.000
37.68638 268.000
37.70633 287.000
37.72628 300.000
37.74622 282.000
37.76617 309.000
37.78612 292.000
37.80606 291.000
37.82601 318.000
37.84596 298.000
37.86591 327.000
37.88585 303.000
37.90580 295.000
37.92575 337.000
37.94569 316.000
37.96564 292.000
37.98559 299.000
38.00553 313.000
38.02548 308.000
38.04543 307.000
38.06538 327.000
38.08532 333.000
38.10527 329.000
38.12522 303.000
38.14516 338.000
38.16511 335.000
38.18506 324.000
38.20500 347.000
38.22495 352.000
38.24490 356.000
38.26484 359.000
38.28479 354.000
38.30474 354.000
38.32469 353.000
38.34463 376.000
38.36458 377.000
38.38453 415.000
38.40447 401.000
38.42442 405.000
38.44437 433.000
38.46431 449.000
38.48426 476.000
38.50421 498.000
38.52416 524.000
38.54410 609.000
38.56405 647.000
38.58400 688.000
38.60394 796.000
38.62389 944.000
38.64384 1069.000
38.66378 1252.000
38.68373 1632.000
38.70368 2186.000
38.72362 2525.000
38.74357 2507.000
38.76352 2319.000
38.78347 2005.000
38.80341 1923.000
38.82336 1912.000
38.84331 1840.000
38.86325 1549.000
38.88320 1381.000
38.90315 1266.000
38.92309 1202.000
38.94304 1045.000
38.96299 869.000
38.98294 778.000
39.00288 841.000
39.02283 730.000
39.04278 667.000
39.06272 587.000
39.08267 475.000
39.10262 468.000
39.12256 448.000
39.14251 373.000
39.16246 413.000
39.18241 362.000
39.20235 379.000
39.22230 377.000
39.24225 382.000
39.26219 377.000
39.28214 322.000
39.30209 345.000
39.32203 308.000
39.34198 315.000
39.36193 322.000
39.38187 311.000
39.40182 330.000
39.42177 321.000
39.44172 302.000
39.46166 305.000
39.48161 317.000
39.50156 297.000
39.52150 296.000
39.54145 306.000
39.56140 324.000
39.58134 282.000
39.60129 304.000
39.62124 321.000
39.64119 256.000
39.66113 282.000
39.68108 274.000
39.70103 307.000
39.72097 275.000
39.74092 297.000
39.76087 310.000
39.78081 277.000
39.80076 279.000
39.82071 290.000
39.84065 294.000
39.86060 306.000
39.88055 271.000
39.90050 302.000
39.92044 278.000
39.94039 294.000
39.96034 310.000
39.98028 254.000
40.00023 271.000
40.02018 279.000
40.04012 283.000
40.06007 286.000
40.08002 306.000
40.09997 277.000
40.11991 267.000
40.13986 252.000
40.15981 290.000
40.17975 279.000
40.19970 278.000
40.21965 262.000
40.23959 281.000
40.25954 258.000
40.27949 291.000
40.29943 262.000
40.31938 271.000
40.33933 257.000
40.35928 273.000
40.37922 261.000
40.39917 259.000
40.41912 320.000
40.43906 244.000
40.45901 288.000
40.47896 258.000
40.49890 260.000
40.51885 302.000
40.53880 236.000
40.55875 236.000
40.57869 255.000
40.59864 276.000
40.61859 253.000
40.63853 241.000
40.65848 245.000
40.67843 257.000
40.69837 257.000
40.71832 263.000
40.73827 270.000
40.75822 264.000
40.77816 268.000
40.79811 278.000
40.81806 271.000
40.83800 277.000
40.85795 300.000
40.87790 267.000
40.89784 284.000
40.91779 265.000
40.93774 256.000
40.95768 275.000
40.97763 277.000
40.99758 258.000
41.01753 256.000
41.03747 283.000
41.05742 276.000
41.07737 266.000
41.09731 271.000
41.11726 266.000
41.13721 261.000
41.15715 268.000
41.17710 261.000
41.19705 288.000
41.21700 297.000
41.23694 263.000
41.25689 296.000
41.27684 298.000
41.29678 264.000
41.31673 277.000
41.33668 289.000
41.35662 300.000
41.37657 289.000
41.39652 311.000
41.41646 288.000
41.43641 286.000
41.45636 297.000
41.47631 289.000
41.49625 280.000
41.51620 266.000
41.53615 259.000
41.55609 268.000
41.57604 240.000
41.59599 237.000
41.61593 263.000
41.63588 273.000
41.65583 271.000
41.67578 286.000
41.69572 288.000
41.71567 268.000
41.73562 289.000
41.75556 282.000
41.77551 290.000
41.79546 261.000
41.81540 272.000
41.83535 268.000
41.85530 253.000
41.87524 300.000
41.89519 256.000
41.91514 242.000
41.93509 264.000
41.95503 266.000
41.97498 261.000
41.99493 281.000
42.01487 282.000
42.03482 289.000
42.05477 280.000
42.07471 283.000
42.09466 294.000
42.11461 267.000
42.13456 266.000
42.15450 265.000
42.17445 278.000
42.19440 277.000
42.21434 298.000
42.23429 297.000
42.25424 286.000
42.27418 282.000
42.29413 261.000
42.31408 292.000
42.33403 258.000
42.35397 267.000
42.37392 272.000
42.39387 253.000
42.41381 259.000
42.43376 243.000
42.45371 256.000
42.47365 276.000
42.49360 277.000
42.51355 272.000
42.53349 234.000
42.55344 232.000
42.57339 221.000
42.59334 220.000
42.61328 275.000
42.63323 271.000
42.65318 280.000
42.67312 277.000
42.69307 248.000
42.71302 267.000
42.73296 259.000
42.75291 264.000
42.77286 245.000
42.79281 257.000
42.81275 270.000
42.83270 242.000
42.85265 249.000
42.87259 268.000
42.89254 265.000
42.91249 241.000
42.93243 267.000
42.95238 246.000
42.97233 268.000
42.99227 278.000
43.01222 277.000
43.03217 235.000
43.05212 255.000
43.07206 252.000
43.09201 242.000
43.11196 260.000
43.13190 250.000
43.15185 260.000
43.17180 286.000
43.19174 281.000
43.21169 295.000
43.23164 283.000
43.25159 303.000
43.27153 287.000
43.29148 263.000
43.31143 286.000
43.33137 269.000
43.35132 293.000
43.37127 273.000
43.39121 262.000
43.41116 273.000
43.43111 235.000
43.45105 269.000
43.47100 253.000
43.49095 267.000
43.51090 243.000
43.53084 268.000
43.55079 266.000
43.57074 259.000
43.59068 229.000
43.61063 288.000
43.63058 250.000
43.65052 273.000
43.67047 267.000
43.69042 261.000
43.71037 257.000
43.73031 230.000
43.75026 240.000
43.77021 276.000
43.79015 269.000
43.81010 248.000
43.83005 257.000
43.84999 219.000
43.86994 273.000
43.88989 240.000
43.90984 240.000
43.92978 223.000
43.94973 285.000
43.96968 237.000
43.98962 243.000
44.00957 254.000
44.02952 269.000
44.04946 276.000
44.06941 255.000
44.08936 235.000
44.10930 292.000
44.12925 255.000
44.14920 257.000
44.16915 259.000
44.18909 300.000
44.20904 275.000
44.22899 255.000
44.24893 255.000
44.26888 243.000
44.28883 261.000
44.30877 279.000
44.32872 294.000
44.34867 263.000
44.36862 260.000
44.38856 308.000
44.40851 266.000
44.42846 293.000
44.44840 302.000
44.46835 290.000
44.48830 280.000
44.50824 298.000
44.52819 336.000
44.54814 312.000
44.56808 303.000
44.58803 280.000
44.60798 267.000
44.62793 302.000
44.64787 284.000
44.66782 307.000
44.68777 267.000
44.70771 294.000
44.72766 249.000
44.74761 278.000
44.76755 273.000
44.78750 235.000
44.80745 260.000
44.82740 269.000
44.84734 224.000
44.86729 263.000
44.88724 254.000
44.90718 247.000
44.92713 262.000
44.94708 286.000
44.96702 253.000
44.98697 246.000
45.00692 289.000
45.02686 276.000
45.04681 300.000
45.06676 313.000
45.08671 314.000
45.10665 318.000
45.12660 326.000
45.14655 341.000
45.16649 347.000
45.18644 344.000
45.20639 364.000
45.22633 330.000
45.24628 341.000
45.26623 347.000
45.28618 331.000
45.30612 359.000
45.32607 315.000
45.34602 307.000
45.36596 279.000
45.38591 255.000
45.40586 296.000
45.42580 278.000
45.44575 270.000
45.46570 283.000
45.48565 277.000
45.50559 261.000
45.52554 281.000
45.54549 243.000
45.56543 254.000
45.58538 252.000
45.60533 248.000
45.62527 234.000
45.64522 246.000
45.66517 256.000
45.68511 253.000
45.70506 252.000
45.72501 284.000
45.74496 285.000
45.76490 229.000
45.78485 230.000
45.80480 247.000
45.82474 266.000
45.84469 281.000
45.86464 243.000
45.88458 247.000
45.90453 256.000
45.92448 249.000
45.94443 256.000
45.96437 257.000
45.98432 250.000
46.00427 272.000
46.02421 255.000
46.04416 271.000
46.06411 265.000
46.08405 276.000
46.10400 256.000
46.12395 272.000
46.14389 269.000
46.16384 269.000
46.18379 285.000
46.20374 277.000
46.22368 293.000
46.24363 296.000
46.26358 311.000
46.28352 283.000
46.30347 272.000
46.32342 285.000
46.34336 300.000
46.36331 296.000
46.38326 296.000
46.40321 277.000
46.42315 278.000
46.44310 261.000
46.46305 284.000
46.48299 280.000
46.50294 301.000
46.52289 277.000
46.54283 298.000
46.56278 284.000
46.58273 254.000
46.60267 286.000
46.62262 267.000
46.64257 251.000
46.66252 272.000
46.68246 278.000
46.70241 300.000
46.72236 273.000
46.74230 290.000
46.76225 294.000
46.78220 291.000
46.80214 260.000
46.82209 270.000
46.84204 314.000
46.86199 296.000
46.88193 279.000
46.90188 287.000
46.92183 277.000
46.94177 319.000
46.96172 280.000
46.98167 289.000
47.00161 275.000
47.02156 267.000
47.04151 302.000
47.06146 285.000
47.08140 257.000
47.10135 285.000
47.12130 294.000
47.14124 271.000
47.16119 276.000
47.18114 275.000
47.20108 261.000
47.22103 278.000
47.24098 286.000
47.26092 269.000
47.28087 279.000
47.30082 297.000
47.32077 286.000
47.34071 266.000
47.36066 265.000
47.38061 244.000
47.40055 289.000
47.42050 255.000
47.44045 254.000
47.46039 273.000
47.48034 275.000
47.50029 271.000
47.52024 267.000
47.54018 259.000
47.56013 267.000
47.58008 280.000
47.60002 297.000
47.61997 258.000
47.63992 253.000
47.65986 255.000
47.67981 250.000
47.69976 258.000
47.71970 264.000
47.73965 247.000
47.75960 269.000
47.77955 280.000
47.79949 275.000
47.81944 284.000
47.83939 258.000
47.85933 263.000
47.87928 280.000
47.89923 294.000
47.91917 262.000
47.93912 282.000
47.95907 309.000
47.97902 282.000
47.99896 304.000
48.01891 308.000
48.03886 273.000
48.05880 288.000
48.07875 280.000
48.09870 280.000
48.11864 256.000
48.13859 263.000
48.15854 281.000
48.17848 287.000
48.19843 289.000
48.21838 285.000
48.23833 295.000
48.25827 294.000
48.27822 251.000
48.29817 319.000
48.31811 288.000
48.33806 281.000
48.35801 282.000
48.37795 331.000
48.39790 294.000
48.41785 297.000
48.43780 321.000
48.45774 350.000
48.47769 344.000
48.49764 316.000
48.51758 344.000
48.53753 351.000
48.55748 386.000
48.57742 375.000
48.59737 451.000
48.61732 513.000
48.63726 615.000
48.65721 740.000
48.67716 889.000
48.69711 965.000
48.71705 1013.000
48.73700 844.000
48.75695 774.000
48.77689 671.000
48.79684 681.000
48.81679 698.000
48.83673 732.000
48.85668 632.000
48.87663 554.000
48.89658 500.000
48.91652 493.000
48.93647 397.000
48.95642 385.000
48.97636 352.000
48.99631 372.000
49.01626 356.000
49.03620 353.000
49.05615 350.000
49.07610 326.000
49.09605 338.000
49.11599 320.000
49.13594 318.000
49.15589 359.000
49.17583 304.000
49.19578 328.000
49.21573 292.000
49.23567 309.000
49.25562 334.000
49.27557 301.000
49.29551 285.000
49.31546 281.000
49.33541 244.000
49.35536 306.000
49.37530 285.000
49.39525 261.000
49.41520 263.000
49.43514 271.000
49.45509 282.000
49.47504 309.000
49.49498 284.000
49.51493 280.000
49.53488 293.000
49.55483 290.000
49.57477 267.000
49.59472 261.000
49.61467 282.000
49.63461 269.000
49.65456 269.000
49.67451 240.000
49.69445 240.000
49.71440 278.000
49.73435 266.000
49.75429 299.000
49.77424 287.000
49.79419 263.000
49.81414 284.000
49.83408 321.000
49.85403 271.000
49.87398 260.000
49.89392 292.000
49.91387 288.000
49.93382 257.000
49.95376 288.000
49.97371 306.000
49.99366 290.000
50.01361 300.000
50.03355 305.000
50.05350 294.000
50.07345 258.000
50.09339 289.000
50.11334 283.000
50.13329 316.000
50.15323 287.000
50.17318 259.000
50.19313 288.000
50.21307 287.000
50.23302 302.000
50.25297 259.000
50.27292 272.000
50.29286 271.000
50.31281 289.000
50.33276 250.000
50.35270 282.000
50.37265 257.000
50.39260 260.000
50.41254 268.000
50.43249 248.000
50.45244 294.000
50.47239 285.000
50.49233 266.000
50.51228 278.000
50.53223 303.000
50.55217 289.000
50.57212 295.000
50.59207 296.000
50.61201 278.000
50.63196 290.000
50.65191 309.000
50.67186 308.000
50.69180 302.000
50.71175 320.000
50.73170 284.000
50.75164 306.000
50.77159 324.000
50.79154 348.000
50.81148 291.000
50.83143 309.000
50.85138 346.000
50.87132 326.000
50.89127 316.000
50.91122 338.000
50.93117 358.000
50.95111 345.000
50.97106 372.000
50.99101 362.000
51.01095 384.000
51.03090 356.000
51.05085 331.000
51.07079 352.000
51.09074 331.000
51.11069 328.000
51.13064 310.000
51.15058 318.000
51.17053 310.000
51.19048 294.000
51.21042 275.000
51.23037 273.000
51.25032 282.000
51.27026 298.000
51.29021 272.000
51.31016 240.000
51.33010 277.000
51.35005 250.000
51.37000 286.000
51.38995 263.000
51.40989 262.000
51.42984 311.000
51.44979 269.000
51.46973 298.000
51.48968 217.000
51.50963 275.000
51.52957 276.000
51.54952 251.000
51.56947 266.000
51.58942 304.000
51.60936 270.000
51.62931 283.000
51.64926 254.000
51.66920 243.000
51.68915 234.000
51.70910 273.000
51.72904 232.000
51.74899 238.000
51.76894 238.000
51.78888 252.000
51.80883 252.000
51.82878 262.000
51.84873 280.000
51.86867 268.000
51.88862 283.000
51.90857 277.000
51.92851 263.000
51.94846 263.000
51.96841 218.000
51.98835 266.000
52.00830 264.000
52.02825 243.000
52.04820 265.000
52.06814 265.000
52.08809 261.000
52.10804 239.000
52.12798 246.000
52.14793 242.000
52.16788 251.000
52.18782 286.000
52.20777 263.000
52.22772 264.000
52.24767 277.000
52.26761 269.000
52.28756 270.000
52.30751 243.000
52.32745 255.000
52.34740 256.000
52.36735 259.000
52.38729 276.000
52.40724 258.000
52.42719 291.000
52.44713 242.000
52.46708 289.000
52.48703 265.000
52.50698 277.000
52.52692 265.000
52.54687 263.000
52.56682 276.000
52.58676 259.000
52.60671 271.000
52.62666 263.000
52.64660 273.000
52.66655 247.000
52.68650 269.000
52.70645 289.000
52.72639 301.000
52.74634 271.000
52.76629 286.000
52.78623 281.000
52.80618 276.000
52.82613 287.000
52.84607 295.000
52.86602 277.000
52.88597 285.000
52.90591 268.000
52.92586 272.000
52.94581 276.000
52.96576 295.000
52.98570 287.000
53.00565 238.000
53.02560 277.000
53.04554 315.000
53.06549 298.000
53.08544 270.000
53.10538 303.000
53.12533 290.000
53.14528 285.000
53.16523 276.000
53.18517 284.000
53.20512 295.000
53.22507 305.000
53.24501 305.000
53.26496 308.000
53.28491 316.000
53.30485 345.000
53.32480 299.000
53.34475 301.000
53.36469 340.000
53.38464 353.000
53.40459 337.000
53.42454 390.000
53.44448 400.000
53.46443 432.000
53.48438 405.000
53.50432 398.000
53.52427 426.000
53.54422 432.000
53.56416 363.000
53.58411 407.000
53.60406 380.000
53.62401 414.000
53.64395 353.000
53.66390 368.000
53.68385 312.000
53.70379 343.000
53.72374 287.000
53.74369 316.000
53.76363 317.000
53.78358 304.000
53.80353 335.000
53.82348 328.000
53.84342 316.000
53.86337 287.000
53.88332 302.000
53.90326 294.000
53.92321 320.000
53.94316 285.000
53.96310 300.000
53.98305 311.000
54.00300 302.000
54.02294 294.000
54.04289 308.000
54.06284 292.000
54.08279 302.000
54.10273 271.000
54.12268 252.000
54.14263 291.000
54.16257 272.000
54.18252 248.000
54.20247 293.000
54.22241 252.000
54.24236 264.000
54.26231 282.000
54.28226 237.000
54.30220 226.000
54.32215 263.000
54.34210 265.000
54.36204 249.000
54.38199 273.000
54.40194 270.000
54.42188 259.000
54.44183 251.000
54.46178 263.000
54.48172 242.000
54.50167 244.000
54.52162 230.000
54.54157 287.000
54.56151 277.000
54.58146 241.000
54.60141 266.000
54.62135 266.000
54.64130 254.000
54.66125 298.000
54.68119 251.000
54.70114 236.000
54.72109 237.000
54.74104 266.000
54.76098 263.000
54.78093 268.000
54.80088 262.000
54.82082 286.000
54.84077 280.000
54.86072 280.000
54.88066 296.000
54.90061 275.000
54.92056 290.000
54.94050 262.000
54.96045 279.000
54.98040 284.000
55.00035 281.000
55.02029 273.000
55.04024 287.000
55.06019 287.000
55.08013 272.000
55.10008 289.000
55.12003 271.000
55.13997 307.000
55.15992 281.000
55.17987 300.000
55.19982 303.000
55.21976 287.000
55.23971 314.000
55.25966 288.000
55.27960 320.000
55.29955 296.000
55.31950 331.000
55.33944 274.000
55.35939 323.000
55.37934 304.000
55.39929 277.000
55.41923 335.000
55.43918 281.000
55.45913 294.000
55.47907 330.000
55.49902 313.000
55.51897 312.000
55.53891 303.000
55.55886 296.000
55.57881 309.000
55.59875 322.000
55.61870 292.000
55.63865 285.000
55.65860 319.000
55.67854 286.000
55.69849 297.000
55.71844 303.000
55.73838 297.000
55.75833 302.000
55.77828 307.000
55.79822 288.000
55.81817 294.000
55.83812 296.000
55.85807 313.000
55.87801 281.000
55.89796 314.000
55.91791 288.000
55.93785 283.000
55.95780 303.000
55.97775 261.000
55.99769 287.000
56.01764 305.000
56.03759 294.000
56.05753 308.000
56.07748 298.000
56.09743 293.000
56.11738 262.000
56.13732 296.000
56.15727 294.000
56.17722 284.000
56.19716 275.000
56.21711 231.000
56.23706 263.000
56.25700 255.000
56.27695 271.000
56.29690 294.000
56.31685 263.000
56.33679 250.000
56.35674 302.000
56.37669 266.000
56.39663 282.000
56.41658 279.000
56.43653 276.000
56.45647 269.000
56.47642 254.000
56.49637 306.000
56.51631 287.000
56.53626 265.000
56.55621 276.000
56.57616 290.000
56.59610 272.000
56.61605 252.000
56.63600 301.000
56.65594 269.000
56.67589 277.000
56.69584 288.000
56.71578 292.000
56.73573 290.000
56.75568 273.000
56.77563 238.000
56.79557 275.000
56.81552 251.000
56.83547 262.000
56.85541 247.000
56.87536 286.000
56.89531 249.000
56.91525 252.000
56.93520 249.000
56.95515 250.000
56.97510 268.000
56.99504 234.000
57.01499 268.000
57.03494 272.000
57.05488 269.000
57.07483 247.000
57.09478 248.000
57.11472 254.000
57.13467 248.000
57.15462 290.000
57.17456 277.000
57.19451 265.000
57.21446 261.000
57.23441 239.000
57.25435 245.000
57.27430 222.000
57.29425 258.000
57.31419 252.000
57.33414 261.000
57.35409 235.000
57.37403 260.000
57.39398 262.000
57.41393 276.000
57.43388 279.000
57.45382 273.000
57.47377 312.000
57.49372 293.000
57.51366 270.000
57.53361 247.000
57.55356 267.000
57.57350 291.000
57.59345 254.000
57.61340 275.000
57.63334 249.000
57.65329 274.000
57.67324 262.000
57.69319 291.000
57.71313 279.000
57.73308 263.000
57.75303 271.000
57.77297 288.000
57.79292 293.000
57.81287 281.000
57.83281 295.000
57.85276 264.000
57.87271 281.000
57.89266 258.000
57.91260 292.000
57.93255 296.000
57.95250 276.000
57.97244 296.000
57.99239 299.000
58.01234 277.000
58.03228 302.000
58.05223 300.000
58.07218 335.000
58.09212 315.000
58.11207 318.000
58.13202 356.000
58.15197 312.000
58.17191 358.000
58.19186 380.000
58.21181 388.000
58.23175 377.000
58.25170 380.000
58.27165 408.000
58.29159 457.000
58.31154 466.000
58.33149 442.000
58.35144 462.000
58.37138 439.000
58.39133 424.000
58.41128 373.000
58.43122 374.000
58.45117 378.000
58.47112 401.000
58.49106 348.000
58.51101 364.000
58.53096 321.000
58.55090 318.000
58.57085 332.000
58.59080 324.000
58.61075 322.000
58.63069 307.000
58.65064 265.000
58.67059 258.000
58.69053 276.000
58.71048 252.000
58.73043 255.000
58.75037 287.000
58.77032 284.000
58.79027 266.000
58.81022 289.000
58.83016 276.000
58.85011 253.000
58.87006 282.000
58.89000 291.000
58.90995 286.000
58.92990 276.000
58.94984 280.000
58.96979 280.000
58.98974 255.000
59.00969 277.000
59.02963 259.000
59.04958 288.000
59.06953 269.000
59.08947 275.000
59.10942 280.000
59.12937 264.000
59.14931 272.000
59.16926 261.000
59.18921 257.000
59.20915 258.000
59.22910 242.000
59.24905 280.000
59.26900 280.000
59.28894 265.000
59.30889 259.000
59.32884 281.000
59.34878 252.000
59.36873 266.000
59.38868 251.000
59.40862 246.000
59.42857 301.000
59.44852 271.000
59.46847 264.000
59.48841 256.000
59.50836 245.000
59.52831 257.000
59.54825 260.000
59.56820 273.000
59.58815 289.000
59.60809 274.000
59.62804 273.000
59.64799 279.000
59.66793 297.000
59.68788 285.000
59.70783 290.000
59.72778 269.000
59.74772 307.000
59.76767 282.000
59.78762 305.000
59.80756 289.000
59.82751 309.000
59.84746 289.000
59.86740 325.000
59.88735 349.000
59.90730 352.000
59.92725 330.000
59.94719 348.000
59.96714 318.000
59.98709 358.000
60.00703 389.000
60.02698 419.000
60.04693 382.000
60.06687 408.000
60.08682 429.000
60.10677 388.000
60.12671 409.000
60.14666 406.000
60.16661 390.000
60.18656 397.000
60.20650 367.000
60.22645 380.000
60.24640 404.000
60.26634 381.000
60.28629 398.000
60.30624 362.000
60.32618 386.000
60.34613 327.000
60.36608 349.000
60.38603 349.000
60.40597 332.000
60.42592 377.000
60.44587 312.000
60.46581 349.000
60.48576 359.000
60.50571 345.000
60.52565 320.000
60.54560 331.000
60.56555 329.000
60.58550 323.000
60.60544 325.000
60.62539 353.000
60.64534 321.000
60.66528 314.000
60.68523 301.000
60.70518 328.000
60.72512 307.000
60.74507 313.000
60.76502 311.000
60.78496 321.000
60.80491 330.000
60.82486 337.000
60.84481 321.000
60.86475 360.000
60.88470 328.000
60.90465 339.000
60.92459 355.000
60.94454 346.000
60.96449 333.000
60.98443 327.000
61.00438 393.000
61.02433 381.000
61.04428 355.000
61.06422 374.000
61.08417 373.000
61.10412 408.000
61.12406 395.000
61.14401 374.000
61.16396 411.000
61.18390 382.000
61.20385 368.000
61.22380 380.000
61.24374 411.000
61.26369 427.000
61.28364 419.000
61.30359 441.000
61.32353 443.000
61.34348 456.000
61.36343 475.000
61.38337 444.000
61.40332 464.000
61.42327 520.000
61.44321 491.000
61.46316 562.000
61.48311 616.000
61.50306 747.000
61.52300 743.000
61.54295 720.000
61.56290 624.000
61.58284 629.000
61.60279 551.000
61.62274 502.000
61.64268 553.000
61.66263 522.000
61.68258 563.000
61.70252 590.000
61.72247 545.000
61.74242 461.000
61.76237 416.000
61.78231 391.000
61.80226 373.000
61.82221 357.000
61.84215 344.000
61.86210 323.000
61.88205 329.000
61.90199 340.000
61.92194 301.000
61.94189 308.000
61.96184 338.000
61.98178 319.000
62.00173 353.000
62.02168 304.000
62.04162 322.000
62.06157 304.000
62.08152 305.000
62.10146 336.000
62.12141 316.000
62.14136 338.000
62.16131 349.000
62.18125 326.000
62.20120 312.000
62.22115 354.000
62.24109 330.000
62.26104 372.000
62.28099 342.000
62.30093 348.000
62.32088 362.000
62.34083 314.000
62.36077 350.000
62.38072 291.000
62.40067 320.000
62.42062 266.000
62.44056 328.000
62.46051 341.000
62.48046 269.000
62.50040 317.000
62.52035 280.000
62.54030 290.000
62.56024 307.000
62.58019 275.000
62.60014 295.000
62.62009 253.000
62.64003 284.000
62.65998 286.000
62.67993 278.000
62.69987 262.000
62.71982 257.000
62.73977 258.000
62.75971 281.000
62.77966 294.000
62.79961 317.000
62.81955 261.000
62.83950 299.000
62.85945 301.000
62.87940 258.000
62.89934 264.000
62.91929 266.000
62.93924 293.000
62.95918 258.000
62.97913 280.000
62.99908 293.000
63.01902 268.000
63.03897 285.000
63.05892 283.000
63.07887 278.000
63.09881 283.000
63.11876 287.000
63.13871 280.000
63.15865 258.000
63.17860 268.000
63.19855 263.000
63.21849 250.000
63.23844 270.000
63.25839 252.000
63.27833 283.000
63.29828 284.000
63.31823 268.000
63.33818 284.000
63.35812 280.000
63.37807 299.000
63.39802 275.000
63.41796 263.000
63.43791 264.000
63.45786 256.000
63.47780 279.000
63.49775 266.000
63.51770 247.000
63.53765 290.000
63.55759 297.000
63.57754 256.000
63.59749 280.000
63.61743 275.000
63.63738 244.000
63.65733 268.000
63.67727 259.000
63.69722 292.000
63.71717 249.000
63.73712 273.000
63.75706 266.000
63.77701 256.000
63.79696 262.000
63.81690 283.000
63.83685 276.000
63.85680 273.000
63.87674 264.000
63.89669 264.000
63.91664 297.000
63.93658 330.000
63.95653 251.000
63.97648 301.000
63.99643 290.000
64.01637 322.000
64.03632 348.000
64.05627 315.000
64.07621 276.000
64.09616 300.000
64.11611 302.000
64.13605 290.000
64.15600 290.000
64.17595 262.000
64.19590 291.000
64.21584 277.000
64.23579 275.000
64.25574 297.000
64.27568 264.000
64.29563 274.000
64.31558 296.000
64.33552 288.000
64.35547 286.000
64.37542 267.000
64.39536 223.000
64.41531 263.000
64.43526 292.000
64.45521 306.000
64.47515 280.000
64.49510 246.000
64.51505 248.000
64.53499 279.000
64.55494 278.000
64.57489 264.000
64.59483 266.000
64.61478 303.000
64.63473 280.000
64.65468 295.000
64.67462 246.000
64.69457 302.000
64.71452 269.000
64.73446 271.000
64.75441 281.000
64.77436 279.000
64.79430 276.000
64.81425 309.000
64.83420 274.000
64.85414 256.000
64.87409 277.000
64.89404 275.000
64.91399 275.000
64.93393 253.000
64.95388 299.000
64.97383 294.000
64.99377 284.000
65.01372 256.000
65.03367 300.000
65.05361 292.000
65.07356 260.000
65.09351 306.000
65.11346 298.000
65.13340 315.000
65.15335 275.000
65.17330 277.000
65.19324 305.000
65.21319 273.000
65.23314 308.000
65.25308 314.000
65.27303 296.000
65.29298 290.000
65.31293 330.000
65.33287 329.000
65.35282 296.000
65.37277 304.000
65.39271 277.000
65.41266 292.000
65.43261 288.000
65.45255 305.000
65.47250 292.000
65.49245 327.000
65.51239 294.000
65.53234 324.000
65.55229 341.000
65.57224 304.000
65.59218 369.000
65.61213 309.000
65.63208 348.000
65.65202 338.000
65.67197 381.000
65.69192 379.000
65.71186 375.000
65.73181 413.000
65.75176 426.000
65.77171 451.000
65.79165 437.000
65.81160 454.000
65.83155 444.000
65.85149 469.000
65.87144 492.000
65.89139 416.000
65.91133 459.000
65.93128 418.000
65.95123 469.000
65.97117 422.000
65.99112 445.000
66.01107 500.000
66.03102 436.000
66.05096 433.000
66.07091 460.000
66.09086 439.000
66.11080 469.000
66.13075 484.000
66.15070 541.000
66.17064 573.000
66.19059 618.000
66.21054 702.000
66.23049 669.000
66.25043 602.000
66.27038 553.000
66.29033 506.000
66.31027 495.000
66.33022 445.000
66.35017 511.000
66.37011 473.000
66.39006 511.000
66.41001 487.000
66.42995 482.000
66.44990 429.000
66.46985 397.000
66.48980 363.000
66.50974 370.000
66.52969 361.000
66.54964 332.000
66.56958 366.000
66.58953 324.000
66.60948 311.000
66.62942 334.000
66.64937 333.000
66.66932 318.000
66.68927 336.000
66.70921 324.000
66.72916 278.000
66.74911 319.000
66.76905 285.000
66.78900 299.000
66.80895 304.000
66.82889 317.000
66.84884 275.000
66.86879 299.000
66.88874 292.000
66.90868 307.000
66.92863 296.000
66.94858 288.000
66.96852 299.000
66.98847 265.000
67.00842 297.000
67.02836 272.000
67.04831 290.000
67.06826 305.000
67.08820 296.000
67.10815 304.000
67.12810 245.000
67.14805 307.000
67.16799 305.000
67.18794 288.000
67.20789 294.000
67.22783 275.000
67.24778 290.000
67.26773 282.000
67.28767 301.000
67.30762 271.000
67.32757 296.000
67.34752 266.000
67.36746 291.000
67.38741 296.000
67.40736 297.000
67.42730 297.000
67.44725 295.000
67.46720 283.000
67.48714 275.000
67.50709 306.000
67.52704 289.000
67.54698 319.000
67.56693 318.000
67.58688 317.000
67.60683 309.000
67.62677 310.000
67.64672 340.000
67.66667 286.000
67.68661 296.000
67.70656 321.000
67.72651 331.000
67.74645 297.000
67.76640 296.000
67.78635 330.000
67.80630 342.000
67.82624 326.000
67.84619 361.000
67.86614 391.000
67.88608 380.000
67.90603 405.000
67.92598 410.000
67.94592 430.000
67.96587 398.000
67.98582 466.000
68.00576 458.000
68.02571 458.000
68.04566 509.000
68.06561 515.000
68.08555 542.000
68.10550 580.000
68.12545 605.000
68.14539 547.000
68.16534 464.000
68.18529 465.000
68.20523 438.000
68.22518 399.000
68.24513 454.000
68.26508 453.000
68.28502 403.000
68.30497 413.000
68.32492 424.000
68.34486 401.000
68.36481 385.000
68.38476 339.000
68.40470 328.000
68.42465 277.000
68.44460 346.000
68.46455 312.000
68.48449 329.000
68.50444 304.000
68.52439 289.000
68.54433 279.000
68.56428 268.000
68.58423 265.000
68.60417 300.000
68.62412 292.000
68.64407 270.000
68.66401 276.000
68.68396 264.000
68.70391 239.000
68.72386 243.000
68.74380 259.000
68.76375 277.000
68.78370 253.000
68.80364 247.000
68.82359 276.000
68.84354 281.000
68.86348 296.000
68.88343 290.000
68.90338 240.000
68.92333 268.000
68.94327 253.000
68.96322 238.000
68.98317 279.000
69.00311 278.000
69.02306 253.000
69.04301 302.000
69.06295 280.000
69.08290 271.000
69.10285 276.000
69.12279 279.000
69.14274 256.000
69.16269 266.000
69.18264 259.000
69.20258 263.000
69.22253 298.000
69.24248 252.000
69.26242 271.000
69.28237 263.000
69.30232 238.000
69.32226 263.000
69.34221 259.000
69.36216 265.000
69.38211 226.000
69.40205 258.000
69.42200 313.000
69.44195 257.000
69.46189 243.000
69.48184 252.000
69.50179 250.000
69.52173 258.000
69.54168 237.000
69.56163 242.000
69.58157 229.000
69.60152 254.000
69.62147 266.000
69.64142 293.000
69.66136 300.000
69.68131 261.000
69.70126 262.000
69.72120 263.000
69.74115 241.000
69.76110 262.000
69.78104 255.000
69.80099 252.000
69.82094 237.000
69.84089 247.000
69.86083 282.000
69.88078 268.000
69.90073 250.000
69.92067 248.000
69.94062 269.000
69.96057 251.000
69.98051 278.000
70.00046 276.000
70.02041 299.000
70.04035 254.000
70.06030 262.000
70.08025 252.000
70.10020 252.000
70.12014 256.000
70.14009 269.000
70.16004 232.000
70.17998 237.000
70.19993 256.000
70.21988 243.000
70.23982 285.000
70.25977 263.000
70.27972 268.000
70.29967 233.000
70.31961 259.000
70.33956 274.000
70.35951 275.000
70.37945 260.000
70.39940 252.000
70.41935 254.000
70.43929 262.000
70.45924 256.000
70.47919 271.000
70.49914 240.000
70.51908 267.000
70.53903 240.000
70.55898 226.000
70.57892 279.000
70.59887 241.000
70.61882 241.000
70.63876 250.000
70.65871 267.000
70.67866 244.000
70.69860 254.000
70.71855 278.000
70.73850 229.000
70.75845 248.000
70.77839 256.000
70.79834 272.000
70.81829 271.000
70.83823 248.000
70.85818 289.000
70.87813 235.000
70.89807 232.000
70.91802 232.000
70.93797 256.000
70.95792 265.000
70.97786 266.000
70.99781 267.000
71.01776 274.000
71.03770 258.000
71.05765 256.000
71.07760 267.000
71.09754 258.000
71.11749 265.000
71.13744 279.000
71.15738 299.000
71.17733 240.000
71.19728 254.000
71.21723 272.000
71.23717 243.000
71.25712 262.000
71.27707 266.000
71.29701 277.000
71.31696 261.000
71.33691 255.000
71.35685 281.000
71.37680 279.000
71.39675 270.000
71.41670 262.000
71.43664 253.000
71.45659 274.000
71.47654 243.000
71.49648 256.000
71.51643 284.000
71.53638 286.000
71.55632 278.000
71.57627 311.000
71.59622 278.000
71.61616 268.000
71.63611 291.000
71.65606 304.000
71.67601 287.000
71.69595 299.000
71.71590 276.000
71.73585 301.000
71.75579 295.000
71.77574 279.000
71.79569 301.000
71.81563 306.000
71.83558 297.000
71.85553 305.000
71.87548 315.000
71.89542 300.000
71.91537 265.000
71.93532 293.000
71.95526 286.000
71.97521 280.000
71.99516 262.000
72.01510 283.000
72.03505 307.000
72.05500 301.000
72.07495 287.000
72.09489 296.000
72.11484 275.000
72.13479 299.000
72.15473 285.000
72.17468 273.000
72.19463 262.000
72.21457 259.000
72.23452 283.000
72.25447 282.000
72.27441 273.000
72.29436 294.000
72.31431 286.000
72.33426 328.000
72.35420 323.000
72.37415 328.000
72.39410 338.000
72.41404 342.000
72.43399 374.000
72.45394 292.000
72.47388 320.000
72.49383 297.000
72.51378 315.000
72.53373 317.000
72.55367 294.000
72.57362 291.000
72.59357 318.000
72.61351 307.000
72.63346 318.000
72.65341 279.000
72.67335 256.000
72.69330 296.000
72.71325 285.000
72.73319 273.000
72.75314 296.000
72.77309 269.000
72.79304 293.000
72.81298 281.000
72.83293 260.000
72.85288 269.000
72.87282 261.000
72.89277 235.000
72.91272 231.000
72.93266 244.000
72.95261 253.000
72.97256 276.000
72.99251 297.000
73.01245 264.000
73.03240 237.000
73.05235 275.000
73.07229 225.000
73.09224 261.000
73.11219 250.000
73.13213 253.000
73.15208 270.000
73.17203 269.000
73.19197 242.000
73.21192 258.000
73.23187 238.000
73.25182 282.000
73.27176 246.000
73.29171 246.000
73.31166 264.000
73.33160 248.000
73.35155 259.000
73.37150 254.000
73.39144 246.000
73.41139 247.000
73.43134 264.000
73.45129 253.000
73.47123 257.000
73.49118 271.000
73.51113 236.000
73.53107 248.000
73.55102 248.000
73.57097 259.000
73.59091 253.000
73.61086 257.000
73.63081 260.000
73.65076 260.000
73.67070 259.000
73.69065 252.000
73.71060 273.000
73.73054 245.000
73.75049 234.000
73.77044 217.000
73.79038 258.000
73.81033 283.000
73.83028 248.000
73.85022 242.000
73.87017 230.000
73.89012 270.000
73.91007 252.000
73.93001 266.000
73.94996 257.000
73.96991 263.000
73.98985 228.000
74.00980 252.000
74.02975 257.000
74.04969 250.000
74.06964 245.000
74.08959 240.000
74.10954 247.000
74.12948 279.000
74.14943 243.000
74.16938 239.000
74.18932 258.000
74.20927 270.000
74.22922 283.000
74.24916 260.000
74.26911 260.000
74.28906 254.000
74.30900 229.000
74.32895 270.000
74.34890 274.000
74.36885 275.000
74.38879 290.000
74.40874 291.000
74.42869 261.000
74.44863 254.000
74.46858 285.000
74.48853 258.000
74.50847 260.000
74.52842 256.000
74.54837 254.000
74.56832 257.000
74.58826 271.000
74.60821 257.000
74.62816 252.000
74.64810 285.000
74.66805 269.000
74.68800 271.000
74.70794 265.000
74.72789 273.000
74.74784 236.000
74.76778 278.000
74.78773 265.000
74.80768 269.000
74.82763 264.000
74.84757 317.000
74.86752 265.000
74.88747 306.000
74.90741 289.000
74.92736 311.000
74.94731 288.000
74.96725 298.000
74.98720 350.000
75.00715 343.000
75.02710 334.000
75.04704 342.000
75.06699 313.000
75.08694 306.000
75.10688 335.000
75.12683 330.000
75.14678 364.000
75.16672 345.000
75.18667 379.000
75.20662 405.000
75.22657 405.000
75.24651 375.000
75.26646 411.000
75.28641 400.000
75.30635 345.000
75.32630 347.000
75.34625 327.000
75.36619 325.000
75.38614 321.000
75.40609 337.000
75.42603 325.000
75.44598 341.000
75.46593 330.000
75.48588 299.000
75.50582 293.000
75.52577 342.000
75.54572 284.000
75.56566 305.000
75.58561 275.000
75.60556 279.000
75.62550 247.000
75.64545 267.000
75.66540 253.000
75.68535 248.000
75.70529 250.000
75.72524 235.000
75.74519 251.000
75.76513 239.000
75.78508 250.000
75.80503 243.000
75.82497 261.000
75.84492 228.000
75.86487 243.000
75.88481 283.000
75.90476 247.000
75.92471 256.000
75.94466 262.000
75.96460 265.000
75.98455 261.000
76.00450 268.000
76.02444 251.000
76.04439 264.000
76.06434 258.000
76.08428 245.000
76.10423 256.000
76.12418 250.000
76.14413 253.000
76.16407 239.000
76.18402 244.000
76.20397 262.000
76.22391 252.000
76.24386 269.000
76.26381 233.000
76.28375 270.000
76.30370 262.000
76.32365 234.000
76.34359 249.000
76.36354 272.000
76.38349 234.000
76.40344 273.000
76.42338 256.000
76.44333 229.000
76.46328 222.000
76.48322 254.000
76.50317 234.000
76.52312 265.000
76.54306 256.000
76.56301 234.000
76.58296 251.000
76.60291 260.000
76.62285 247.000
76.64280 224.000
76.66275 264.000
76.68269 231.000
76.70264 255.000
76.72259 240.000
76.74253 275.000
76.76248 247.000
76.78243 239.000
76.80238 234.000
76.82232 259.000
76.84227 238.000
76.86222 248.000
76.88216 244.000
76.90211 259.000
76.92206 252.000
76.94200 252.000
76.96195 228.000
76.98190 246.000
77.00184 260.000
77.02179 267.000
77.04174 268.000
77.06169 244.000
77.08163 278.000
77.10158 265.000
77.12153 258.000
77.14147 235.000
77.16142 230.000
77.18137 243.000
77.20131 272.000
77.22126 233.000
77.24121 239.000
77.26116 243.000
77.28110 242.000
77.30105 253.000
77.32100 224.000
77.34094 252.000
77.36089 266.000
77.38084 242.000
77.40078 248.000
77.42073 235.000
77.44068 241.000
77.46062 281.000
77.48057 240.000
77.50052 243.000
77.52047 211.000
77.54041 233.000
77.56036 226.000
77.58031 255.000
77.60025 251.000
77.62020 245.000
77.64015 264.000
77.66009 236.000
77.68004 252.000
77.69999 235.000
77.71994 249.000
77.73988 208.000
77.75983 251.000
77.77978 249.000
77.79972 258.000
77.81967 228.000
77.83962 267.000
77.85956 266.000
77.87951 275.000
77.89946 241.000
77.91940 263.000
77.93935 249.000
77.95930 275.000
77.97925 227.000
77.99919 247.000
78.01914 246.000
78.03909 252.000
78.05903 249.000
78.07898 248.000
78.09893 238.000
78.11887 234.000
78.13882 250.000
78.15877 255.000
78.17872 249.000
78.19866 248.000
78.21861 274.000
78.23856 256.000
78.25850 256.000
78.27845 245.000
78.29840 266.000
78.31834 248.000
78.33829 235.000
78.35824 239.000
78.37819 245.000
78.39813 254.000
78.41808 255.000
78.43803 250.000
78.45797 226.000
78.47792 253.000
78.49787 268.000
78.51781 260.000
78.53776 235.000
78.55771 248.000
78.57765 260.000
78.59760 247.000
78.61755 244.000
78.63750 246.000
78.65744 233.000
78.67739 232.000
78.69734 248.000
78.71728 236.000
78.73723 258.000
78.75718 248.000
78.77712 241.000
78.79707 250.000
78.81702 243.000
78.83697 253.000
78.85691 235.000
78.87686 242.000
78.89681 244.000
78.91675 250.000
78.93670 252.000
78.95665 236.000
78.97659 257.000
78.99654 261.000
79.01649 230.000
79.03643 258.000
79.05638 262.000
79.07633 278.000
79.09628 240.000
79.11622 263.000
79.13617 255.000
79.15612 250.000
79.17606 279.000
79.19601 248.000
79.21596 257.000
79.23590 263.000
79.25585 221.000
79.27580 269.000
79.29575 268.000
79.31569 250.000
79.33564 270.000
79.35559 282.000
79.37553 270.000
79.39548 252.000
79.41543 261.000
79.43537 277.000
79.45532 251.000
79.47527 247.000
79.49521 237.000
79.51516 228.000
79.53511 267.000
79.55506 273.000
79.57500 254.000
79.59495 247.000
79.61490 243.000
79.63484 279.000
79.65479 250.000
79.67474 251.000
79.69468 253.000
79.71463 256.000
79.73458 269.000
79.75453 253.000
79.77447 242.000
79.79442 257.000
79.81437 251.000
79.83431 249.000
79.85426 274.000
79.87421 260.000
79.89415 242.000
79.91410 249.000
79.93405 252.000
79.95399 262.000
79.97394 251.000
79.99389 275.000
80.01384 301.000
80.03378 265.000
80.05373 283.000
80.07368 259.000
80.09362 275.000
80.11357 267.000
80.13352 235.000
80.15346 239.000
80.17341 263.000
80.19336 281.000
80.21331 280.000
80.23325 239.000
80.25320 269.000
80.27315 272.000
80.29309 255.000
80.31304 267.000
80.33299 245.000
80.35293 295.000
80.37288 242.000
80.39283 263.000
80.41278 264.000
80.43272 225.000
80.45267 265.000
80.47262 261.000
80.49256 266.000
80.51251 238.000
80.53246 242.000
80.55240 243.000
80.57235 286.000
80.59230 257.000
80.61224 262.000
80.63219 273.000
80.65214 295.000
80.67209 231.000
80.69203 263.000
80.71198 228.000
80.73193 235.000
80.75187 248.000
80.77182 278.000
80.79177 246.000
80.81171 246.000
80.83166 238.000
80.85161 252.000
80.87156 265.000
80.89150 227.000
80.91145 261.000
80.93140 260.000
80.95134 286.000
80.97129 261.000
80.99124 236.000
81.01118 240.000
81.03113 212.000
81.05108 267.000
81.07102 260.000
81.09097 251.000
81.11092 260.000
81.13087 264.000
81.15081 234.000
81.17076 256.000
81.19071 247.000
81.21065 255.000
81.23060 255.000
81.25055 261.000
81.27049 222.000
81.29044 251.000
81.31039 261.000
81.33034 251.000
81.35028 256.000
81.37023 247.000
81.39018 278.000
81.41012 248.000
81.43007 243.000
81.45002 251.000
81.46996 226.000
81.48991 277.000
81.50986 257.000
81.52980 266.000
81.54975 268.000
81.56970 267.000
81.58965 268.000
81.60959 238.000
81.62954 258.000
81.64949 240.000
81.66943 271.000
81.68938 265.000
81.70933 270.000
81.72927 287.000
81.74922 268.000
81.76917 299.000
81.78912 244.000
81.80906 243.000
81.82901 281.000
81.84896 255.000
81.86890 261.000
81.88885 249.000
81.90880 229.000
81.92874 290.000
81.94869 249.000
81.96864 240.000
81.98859 245.000
82.00853 270.000
82.02848 285.000
82.04843 256.000
82.06837 253.000
82.08832 272.000
82.10827 278.000
82.12821 296.000
82.14816 270.000
82.16811 261.000
82.18805 273.000
82.20800 252.000
82.22795 287.000
82.24790 306.000
82.26784 301.000
82.28779 341.000
82.30774 299.000
82.32768 329.000
82.34763 292.000
82.36758 328.000
82.38752 287.000
82.40747 276.000
82.42742 302.000
82.44737 276.000
82.46731 280.000
82.48726 305.000
82.50721 298.000
82.52715 309.000
82.54710 322.000
82.56705 291.000
82.58699 276.000
82.60694 318.000
82.62689 288.000
82.64683 320.000
82.66678 259.000
82.68673 266.000
82.70668 255.000
82.72662 264.000
82.74657 246.000
82.76652 283.000
82.78646 296.000
82.80641 265.000
82.82636 259.000
82.84630 266.000
82.86625 292.000
82.88620 286.000
82.90615 301.000
82.92609 263.000
82.94604 302.000
82.96599 288.000
82.98593 268.000
83.00588 273.000
83.02583 311.000
83.04577 314.000
83.06572 282.000
83.08567 311.000
83.10561 336.000
83.12556 292.000
83.14551 351.000
83.16546 299.000
83.18540 284.000
83.20535 298.000
83.22530 296.000
83.24524 298.000
83.26519 278.000
83.28514 285.000
83.30508 281.000
83.32503 307.000
83.34498 268.000
83.36493 275.000
83.38487 302.000
83.40482 284.000
83.42477 293.000
83.44471 322.000
83.46466 297.000
83.48461 321.000
83.50455 285.000
83.52450 295.000
83.54445 331.000
83.56440 333.000
83.58434 311.000
83.60429 316.000
83.62424 321.000
83.64418 320.000
83.66413 310.000
83.68408 296.000
83.70402 327.000
83.72397 311.000
83.74392 275.000
83.76386 273.000
83.78381 322.000
83.80376 288.000
83.82371 325.000
83.84365 297.000
83.86360 300.000
83.88355 310.000
83.90349 303.000
83.92344 283.000
83.94339 266.000
83.96333 255.000
83.98328 276.000
84.00323 277.000
84.02318 262.000
84.04312 278.000
84.06307 291.000
84.08302 261.000
84.10296 250.000
84.12291 252.000
84.14286 241.000
84.16280 269.000
84.18275 284.000
84.20270 240.000
84.22264 261.000
84.24259 261.000
84.26254 275.000
84.28249 255.000
84.30243 223.000
84.32238 253.000
84.34233 270.000
84.36227 258.000
84.38222 273.000
84.40217 250.000
84.42211 260.000
84.44206 277.000
84.46201 282.000
84.48196 271.000
84.50190 290.000
84.52185 264.000
84.54180 244.000
84.56174 254.000
84.58169 262.000
84.60164 301.000
84.62158 253.000
84.64153 262.000
84.66148 268.000
84.68142 252.000
84.70137 277.000
84.72132 259.000
84.74127 270.000
84.76121 246.000
84.78116 266.000
84.80111 236.000
84.82105 286.000
84.84100 238.000
84.86095 283.000
84.88089 266.000
84.90084 291.000
84.92079 272.000
84.94074 263.000
84.96068 283.000
84.98063 264.000
85.00058 260.000
85.02052 253.000
85.04047 276.000
85.06042 265.000
85.08036 270.000
85.10031 245.000
85.12026 266.000
85.14021 291.000
85.16015 263.000
85.18010 269.000
85.20005 269.000
85.21999 265.000
85.23994 239.000
85.25989 257.000
85.27983 248.000
85.29978 274.000
85.31973 290.000
85.33967 248.000
85.35962 231.000
85.37957 251.000
85.39952 233.000
85.41946 229.000
85.43941 288.000
85.45936 260.000
85.47930 265.000
85.49925 275.000
85.51920 243.000
85.53914 246.000
85.55909 259.000
85.57904 260.000
85.59899 278.000
85.61893 254.000
85.63888 275.000
85.65883 258.000
85.67877 259.000
85.69872 234.000
85.71867 252.000
85.73861 236.000
85.75856 252.000
85.77851 247.000
85.79845 245.000
85.81840 250.000
85.83835 247.000
85.85830 232.000
85.87824 237.000
85.89819 234.000
85.91814 244.000
85.93808 223.000
85.95803 243.000
85.97798 257.000
85.99792 257.000
86.01787 240.000
86.03782 254.000
86.05777 264.000
86.07771 230.000
86.09766 248.000
86.11761 234.000
86.13755 236.000
86.15750 268.000
86.17745 274.000
86.19739 223.000
86.21734 242.000
86.23729 249.000
86.25723 248.000
86.27718 245.000
86.29713 286.000
86.31708 295.000
86.33702 239.000
86.35697 265.000
86.37692 277.000
86.39686 238.000
86.41681 253.000
86.43676 267.000
86.45670 237.000
86.47665 284.000
86.49660 271.000
86.51655 275.000
86.53649 247.000
86.55644 246.000
86.57639 274.000
86.59633 285.000
86.61628 250.000
86.63623 265.000
86.65617 249.000
86.67612 234.000
86.69607 259.000
86.71602 249.000
86.73596 222.000
86.75591 254.000
86.77586 298.000
86.79580 257.000
86.81575 257.000
86.83570 235.000
86.85564 230.000
86.87559 268.000
86.89554 230.000
86.91548 271.000
86.93543 256.000
86.95538 232.000
86.97533 266.000
86.99527 248.000
87.01522 253.000
87.03517 250.000
87.05511 246.000
87.07506 278.000
87.09501 241.000
87.11495 242.000
87.13490 222.000
87.15485 266.000
87.17480 280.000
87.19474 224.000
87.21469 270.000
87.23464 256.000
87.25458 251.000
87.27453 258.000
87.29448 257.000
87.31442 226.000
87.33437 268.000
87.35432 258.000
87.37426 252.000
87.39421 216.000
87.41416 259.000
87.43411 226.000
87.45405 266.000
87.47400 262.000
87.49395 230.000
87.51389 271.000
87.53384 245.000
87.55379 232.000
87.57373 244.000
87.59368 258.000
87.61363 237.000
87.63358 280.000
87.65352 232.000
87.67347 264.000
87.69342 247.000
87.71336 211.000
87.73331 246.000
87.75326 280.000
87.77320 267.000
87.79315 258.000
87.81310 275.000
87.83304 263.000
87.85299 248.000
87.87294 276.000
87.89289 249.000
87.91283 242.000
87.93278 231.000
87.95273 270.000
87.97267 229.000
87.99262 248.000
88.01257 270.000
88.03251 234.000
88.05246 248.000
88.07241 253.000
88.09236 239.000
88.11230 267.000
88.13225 233.000
88.15220 264.000
88.17214 250.000
88.19209 243.000
88.21204 253.000
88.23198 231.000
88.25193 280.000
88.27188 260.000
88.29183 251.000
88.31177 247.000
88.33172 239.000
88.35167 258.000
88.37161 230.000
88.39156 263.000
88.41151 238.000
88.43145 263.000
88.45140 231.000
88.47135 255.000
88.49129 265.000
88.51124 249.000
88.53119 288.000
88.55114 259.000
88.57108 234.000
88.59103 258.000
88.61098 249.000
88.63092 245.000
88.65087 246.000
88.67082 250.000
88.69076 262.000
88.71071 254.000
88.73066 275.000
88.75061 229.000
88.77055 243.000
88.79050 284.000
88.81045 275.000
88.83039 256.000
88.85034 266.000
88.87029 265.000
88.89023 279.000
88.91018 250.000
88.93013 230.000
88.95007 246.000
88.97002 240.000
88.98997 265.000
89.00992 256.000
89.02986 238.000
89.04981 273.000
89.06976 244.000
89.08970 257.000
89.10965 257.000
89.12960 232.000
89.14954 269.000
89.16949 255.000
89.18944 245.000
89.20939 253.000
89.22933 267.000
89.24928 276.000
89.26923 228.000
89.28917 233.000
89.30912 269.000
89.32907 283.000
89.34901 260.000
89.36896 249.000
89.38891 262.000
89.40885 236.000
89.42880 245.000
89.44875 250.000
89.46870 294.000
89.48864 241.000
89.50859 248.000
89.52854 285.000
89.54848 227.000
89.56843 278.000
89.58838 298.000
89.60832 254.000
89.62827 286.000
89.64822 265.000
89.66817 278.000
89.68811 272.000
89.70806 283.000
89.72801 304.000
89.74795 300.000
89.76790 289.000
89.78785 282.000
89.80779 325.000
89.82774 334.000
89.84769 259.000
89.86764 278.000
89.88758 315.000
89.90753 276.000
89.92748 301.000
89.94742 278.000
89.96737 266.000
89.98732 298.000
90.00726 280.000
