10.00000 85.000
10.01995 93.000
10.03989 81.000
10.05984 77.000
10.07979 82.000
10.09973 92.000
10.11968 79.000
10.13963 85.000
10.15958 72.000
10.17952 87.000
10.19947 82.000
10.21942 76.000
10.23936 93.000
10.25931 73.000
10.27926 101.000
10.29920 87.000
10.31915 85.000
10.33910 83.000
10.35905 83.000
10.37899 92.000
10.39894 116.000
10.41889 79.000
10.43883 93.000
10.45878 82.000
10.47873 106.000
10.49867 77.000
10.51862 75.000
10.53857 80.000
10.55851 85.000
10.57846 83.000
10.59841 81.000
10.61836 83.000
10.63830 97.000
10.65825 101.000
10.67820 84.000
10.69814 76.000
10.71809 82.000
10.73804 88.000
10.75798 82.000
10.77793 96.000
10.79788 95.000
10.81783 113.000
10.83777 70.000
10.85772 107.000
10.87767 81.000
10.89761 87.000
10.91756 95.000
10.93751 97.000
10.95745 73.000
10.97740 107.000
10.99735 80.000
11.01730 81.000
11.03724 91.000
11.05719 78.000
11.07714 92.000
11.09708 88.000
11.11703 75.000
11.13698 101.000
11.15692 105.000
11.17687 77.000
11.19682 105.000
11.21676 88.000
11.23671 86.000
11.25666 95.000
11.27661 89.000
11.29655 104.000
11.31650 91.000
11.33645 93.000
11.35639 89.000
11.37634 79.000
11.39629 93.000
11.41623 87.000
11.43618 94.000
11.45613 97.000
11.47608 116.000
11.49602 83.000
11.51597 103.000
11.53592 90.000
11.55586 102.000
11.57581 116.000
11.59576 85.000
11.61570 92.000
11.63565 113.000
11.65560 83.000
11.67554 86.000
11.69549 110.000
11.71544 105.000
11.73539 97.000
11.75533 88.000
11.77528 96.000
11.79523 86.000
11.81517 99.000
11.83512 92.000
11.85507 98.000
11.87501 100.000
11.89496 107.000
11.91491 85.000
11.93486 98.000
11.95480 95.000
11.97475 96.000
11.99470 100.000
12.01464 107.000
12.03459 87.000
12.05454 104.000
12.07448 102.000
12.09443 90.000
12.11438 105.000
12.13432 110.000
12.15427 95.000
12.17422 103.000
12.19417 118.000
12.21411 87.000
12.23406 91.000
12.25401 117.000
12.27395 85.000
12.29390 97.000
12.31385 105.000
12.33379 96.000
12.35374 93.000
12.37369 85.000
12.39364 103.000
12.41358 93.000
12.43353 90.000
12.45348 111.000
12.47342 107.000
12.49337 106.000
12.51332 121.000
12.53326 110.000
12.55321 92.000
12.57316 108.000
12.59311 96.000
12.61305 101.000
12.63300 100.000
12.65295 84.000
12.67289 101.000
12.69284 98.000
12.71279 109.000
12.73273 85.000
12.75268 124.000
12.77263 99.000
12.79257 96.000
12.81252 105.000
12.83247 112.000
12.85242 106.000
12.87236 85.000
12.89231 99.000
12.91226 112.000
12.93220 99.000
12.95215 109.000
12.97210 100.000
12.99204 92.000
13.01199 93.000
13.03194 92.000
13.05189 103.000
13.07183 94.000
13.09178 100.000
13.11173 92.000
13.13167 89.000
13.15162 96.000
13.17157 108.000
13.19151 101.000
13.21146 113.000
13.23141 97.000
13.25135 105.000
13.27130 95.000
13.29125 107.000
13.31120 102.000
13.33114 114.000
13.35109 116.000
13.37104 85.000
13.39098 96.000
13.41093 95.000
13.43088 104.000
13.45082 118.000
13.47077 78.000
13.49072 94.000
13.51067 106.000
13.53061 100.000
13.55056 101.000
13.57051 101.000
13.59045 93.000
13.61040 106.000
13.63035 119.000
13.65029 102.000
13.67024 106.000
13.69019 105.000
13.71013 113.000
13.73008 114.000
13.75003 107.000
13.76998 96.000
13.78992 116.000
13.80987 135.000
13.82982 132.000
13.84976 119.000
13.86971 116.000
13.88966 117.000
13.90960 118.000
13.92955 117.000
13.94950 105.000
13.96945 105.000
13.98939 111.000
14.00934 124.000
14.02929 108.000
14.04923 126.000
14.06918 102.000
14.08913 119.000
14.10907 106.000
14.12902 117.000
14.14897 121.000
14.16892 123.000
14.18886 117.000
14.20881 121.000
14.22876 124.000
14.24870 128.000
14.26865 117.000
14.28860 124.000
14.30854 115.000
14.32849 108.000
14.34844 114.000
14.36838 88.000
14.38833 119.000
14.40828 132.000
14.42823 118.000
14.44817 122.000
14.46812 101.000
14.48807 132.000
14.50801 110.000
14.52796 124.000
14.54791 119.000
14.56785 126.000
14.58780 143.000
14.60775 114.000
14.62770 140.000
14.64764 129.000
14.66759 116.000
14.68754 111.000
14.70748 115.000
14.72743 124.000
14.74738 131.000
14.76732 129.000
14.78727 103.000
14.80722 161.000
14.82716 115.000
14.84711 115.000
14.86706 126.000
14.88701 113.000
14.90695 133.000
14.92690 126.000
14.94685 114.000
14.96679 121.000
14.98674 120.000
15.00669 125.000
15.02663 146.000
15.04658 136.000
15.06653 128.000
15.08648 100.000
15.10642 119.000
15.12637 108.000
15.14632 138.000
15.16626 111.000
15.18621 141.000
15.20616 114.000
15.22610 135.000
15.24605 116.000
15.26600 125.000
15.28594 152.000
15.30589 139.000
15.32584 115.000
15.34579 112.000
15.36573 138.000
15.38568 131.000
15.40563 140.000
15.42557 121.000
15.44552 123.000
15.46547 130.000
15.48541 139.000
15.50536 156.000
15.52531 139.000
15.54526 138.000
15.56520 120.000
15.58515 136.000
15.60510 130.000
15.62504 150.000
15.64499 101.000
15.66494 149.000
15.68488 125.000
15.70483 134.000
15.72478 150.000
15.74472 141.000
15.76467 147.000
15.78462 169.000
15.80457 137.000
15.82451 140.000
15.84446 149.000
15.86441 157.000
15.88435 162.000
15.90430 146.000
15.92425 178.000
15.94419 131.000
15.96414 154.000
15.98409 156.000
16.00404 127.000
16.02398 140.000
16.04393 143.000
16.06388 169.000
16.08382 145.000
16.10377 161.000
16.12372 161.000
16.14366 133.000
16.16361 187.000
16.18356 142.000
16.20351 144.000
16.22345 160.000
16.24340 148.000
16.26335 195.000
16.28329 172.000
16.30324 160.000
16.32319 133.000
16.34313 177.000
16.36308 159.000
16.38303 171.000
16.40297 161.000
16.42292 158.000
16.44287 163.000
16.46282 144.000
16.48276 182.000
16.50271 171.000
16.52266 163.000
16.54260 170.000
16.56255 185.000
16.58250 153.000
16.60244 173.000
16.62239 182.000
16.64234 172.000
16.66229 175.000
16.68223 191.000
16.70218 188.000
16.72213 163.000
16.74207 198.000
16.76202 179.000
16.78197 172.000
16.80191 181.000
16.82186 195.000
16.84181 179.000
16.86175 214.000
16.88170 198.000
16.90165 192.000
16.92160 195.000
16.94154 199.000
16.96149 184.000
16.98144 166.000
17.00138 190.000
17.02133 188.000
17.04128 202.000
17.06122 201.000
17.08117 188.000
17.10112 181.000
17.12107 215.000
17.14101 172.000
17.16096 189.000
17.18091 200.000
17.20085 204.000
17.22080 204.000
17.24075 165.000
17.26069 213.000
17.28064 202.000
17.30059 196.000
17.32053 223.000
17.34048 193.000
17.36043 227.000
17.38038 200.000
17.40032 204.000
17.42027 211.000
17.44022 206.000
17.46016 230.000
17.48011 203.000
17.50006 211.000
17.52000 258.000
17.53995 230.000
17.55990 195.000
17.57985 247.000
17.59979 231.000
17.61974 270.000
17.63969 222.000
17.65963 253.000
17.67958 202.000
17.69953 214.000
17.71947 254.000
17.73942 240.000
17.75937 232.000
17.77932 248.000
17.79926 231.000
17.81921 238.000
17.83916 243.000
17.85910 246.000
17.87905 262.000
17.89900 260.000
17.91894 291.000
17.93889 256.000
17.95884 245.000
17.97878 275.000
17.99873 259.000
18.01868 270.000
18.03863 241.000
18.05857 222.000
18.07852 247.000
18.09847 257.000
18.11841 289.000
18.13836 260.000
18.15831 259.000
18.17825 283.000
18.19820 302.000
18.21815 261.000
18.23810 275.000
18.25804 272.000
18.27799 270.000
18.29794 256.000
18.31788 294.000
18.33783 267.000
18.35778 291.000
18.37772 281.000
18.39767 235.000
18.41762 270.000
18.43756 257.000
18.45751 286.000
18.47746 272.000
18.49741 276.000
18.51735 292.000
18.53730 290.000
18.55725 311.000
18.57719 293.000
18.59714 303.000
18.61709 298.000
18.63703 298.000
18.65698 322.000
18.67693 265.000
18.69688 297.000
18.71682 293.000
18.73677 324.000
18.75672 324.000
18.77666 334.000
18.79661 332.000
18.81656 334.000
18.83650 325.000
18.85645 310.000
18.87640 306.000
18.89634 301.000
18.91629 310.000
18.93624 319.000
18.95619 294.000
18.97613 308.000
18.99608 318.000
19.01603 288.000
19.03597 291.000
19.05592 301.000
19.07587 301.000
19.09581 350.000
19.11576 300.000
19.13571 316.000
19.15566 285.000
19.17560 325.000
19.19555 322.000
19.21550 325.000
19.23544 335.000
19.25539 337.000
19.27534 346.000
19.29528 331.000
19.31523 354.000
19.33518 333.000
19.35513 347.000
19.37507 370.000
19.39502 333.000
19.41497 355.000
19.43491 351.000
19.45486 320.000
19.47481 327.000
19.49475 348.000
19.51470 325.000
19.53465 338.000
19.55459 352.000
19.57454 330.000
19.59449 325.000
19.61444 354.000
19.63438 371.000
19.65433 334.000
19.67428 320.000
19.69422 344.000
19.71417 400.000
19.73412 355.000
19.75406 352.000
19.77401 350.000
19.79396 375.000
19.81391 364.000
19.83385 382.000
19.85380 368.000
19.87375 385.000
19.89369 364.000
19.91364 429.000
19.93359 334.000
19.95353 387.000
19.97348 376.000
19.99343 365.000
20.01337 387.000
20.03332 382.000
20.05327 390.000
20.07322 343.000
20.09316 384.000
20.11311 358.000
20.13306 412.000
20.15300 389.000
20.17295 344.000
20.19290 379.000
20.21284 389.000
20.23279 377.000
20.25274 421.000
20.27269 439.000
20.29263 398.000
20.31258 418.000
20.33253 415.000
20.35247 350.000
20.37242 401.000
20.39237 407.000
20.41231 388.000
20.43226 410.000
20.45221 375.000
20.47215 395.000
20.49210 399.000
20.51205 395.000
20.53200 405.000
20.55194 428.000
20.57189 389.000
20.59184 424.000
20.61178 378.000
20.63173 428.000
20.65168 408.000
20.67162 413.000
20.69157 416.000
20.71152 374.000
20.73147 367.000
20.75141 371.000
20.77136 394.000
20.79131 437.000
20.81125 429.000
20.83120 421.000
20.85115 449.000
20.87109 433.000
20.89104 408.000
20.91099 430.000
20.93094 417.000
20.95088 402.000
20.97083 428.000
20.99078 430.000
21.01072 413.000
21.03067 436.000
21.05062 414.000
21.07056 405.000
21.09051 447.000
21.11046 424.000
21.13040 421.000
21.15035 455.000
21.17030 428.000
21.19025 424.000
21.21019 394.000
21.23014 449.000
21.25009 434.000
21.27003 422.000
21.28998 454.000
21.30993 421.000
21.32987 437.000
21.34982 459.000
21.36977 442.000
21.38972 444.000
21.40966 439.000
21.42961 445.000
21.44956 480.000
21.46950 437.000
21.48945 442.000
21.50940 452.000
21.52934 440.000
21.54929 443.000
21.56924 463.000
21.58918 443.000
21.60913 432.000
21.62908 441.000
21.64903 395.000
21.66897 476.000
21.68892 452.000
21.70887 433.000
21.72881 434.000
21.74876 445.000
21.76871 442.000
21.78865 461.000
21.80860 452.000
21.82855 426.000
21.84850 462.000
21.86844 453.000
21.88839 480.000
21.90834 453.000
21.92828 483.000
21.94823 439.000
21.96818 426.000
21.98812 470.000
22.00807 435.000
22.02802 483.000
22.04796 466.000
22.06791 459.000
22.08786 472.000
22.10781 465.000
22.12775 460.000
22.14770 477.000
22.16765 477.000
22.18759 494.000
22.20754 439.000
22.22749 471.000
22.24743 474.000
22.26738 439.000
22.28733 471.000
22.30728 463.000
22.32722 487.000
22.34717 480.000
22.36712 520.000
22.38706 510.000
22.40701 504.000
22.42696 494.000
22.44690 493.000
22.46685 518.000
22.48680 471.000
22.50675 511.000
22.52669 502.000
22.54664 512.000
22.56659 474.000
22.58653 536.000
22.60648 475.000
22.62643 516.000
22.64637 509.000
22.66632 522.000
22.68627 516.000
22.70621 593.000
22.72616 502.000
22.74611 502.000
22.76606 502.000
22.78600 490.000
22.80595 528.000
22.82590 516.000
22.84584 510.000
22.86579 546.000
22.88574 515.000
22.90568 537.000
22.92563 513.000
22.94558 489.000
22.96553 535.000
22.98547 502.000
23.00542 520.000
23.02537 532.000
23.04531 577.000
23.06526 495.000
23.08521 498.000
23.10515 523.000
23.12510 518.000
23.14505 529.000
23.16499 549.000
23.18494 507.000
23.20489 530.000
23.22484 539.000
23.24478 512.000
23.26473 535.000
23.28468 528.000
23.30462 578.000
23.32457 532.000
23.34452 551.000
23.36446 560.000
23.38441 570.000
23.40436 564.000
23.42431 544.000
23.44425 554.000
23.46420 545.000
23.48415 539.000
23.50409 555.000
23.52404 541.000
23.54399 544.000
23.56393 532.000
23.58388 511.000
23.60383 556.000
23.62377 593.000
23.64372 558.000
23.66367 564.000
23.68362 551.000
23.70356 551.000
23.72351 601.000
23.74346 564.000
23.76340 561.000
23.78335 552.000
23.80330 576.000
23.82324 586.000
23.84319 591.000
23.86314 568.000
23.88309 580.000
23.90303 602.000
23.92298 594.000
23.94293 594.000
23.96287 546.000
23.98282 558.000
24.00277 582.000
24.02271 625.000
24.04266 575.000
24.06261 631.000
24.08256 595.000
24.10250 572.000
24.12245 574.000
24.14240 591.000
24.16234 621.000
24.18229 590.000
24.20224 585.000
24.22218 553.000
24.24213 617.000
24.26208 619.000
24.28202 636.000
24.30197 600.000
24.32192 542.000
24.34187 569.000
24.36181 650.000
24.38176 603.000
24.40171 615.000
24.42165 605.000
24.44160 621.000
24.46155 649.000
24.48149 591.000
24.50144 591.000
24.52139 635.000
24.54134 620.000
24.56128 597.000
24.58123 609.000
24.60118 583.000
24.62112 615.000
24.64107 661.000
24.66102 606.000
24.68096 679.000
24.70091 709.000
24.72086 695.000
24.74080 673.000
24.76075 664.000
24.78070 638.000
24.80065 645.000
24.82059 642.000
24.84054 649.000
24.86049 679.000
24.88043 707.000
24.90038 656.000
24.92033 619.000
24.94027 625.000
24.96022 676.000
24.98017 651.000
25.00012 647.000
25.02006 664.000
25.04001 680.000
25.05996 703.000
25.07990 717.000
25.09985 644.000
25.11980 721.000
25.13974 746.000
25.15969 742.000
25.17964 671.000
25.19958 671.000
25.21953 661.000
25.23948 714.000
25.25943 725.000
25.27937 680.000
25.29932 698.000
25.31927 705.000
25.33921 716.000
25.35916 739.000
25.37911 777.000
25.39905 676.000
25.41900 683.000
25.43895 714.000
25.45890 755.000
25.47884 692.000
25.49879 747.000
25.51874 758.000
25.53868 772.000
25.55863 761.000
25.57858 749.000
25.59852 695.000
25.61847 661.000
25.63842 776.000
25.65837 714.000
25.67831 734.000
25.69826 762.000
25.71821 733.000
25.73815 773.000
25.75810 755.000
25.77805 775.000
25.79799 733.000
25.81794 754.000
25.83789 764.000
25.85783 778.000
25.87778 759.000
25.89773 767.000
25.91768 757.000
25.93762 761.000
25.95757 823.000
25.97752 770.000
25.99746 804.000
26.01741 758.000
26.03736 725.000
26.05730 762.000
26.07725 772.000
26.09720 853.000
26.11715 833.000
26.13709 799.000
26.15704 766.000
26.17699 833.000
26.19693 821.000
26.21688 838.000
26.23683 806.000
26.25677 803.000
26.27672 843.000
26.29667 813.000
26.31661 832.000
26.33656 842.000
26.35651 844.000
26.37646 786.000
26.39640 813.000
26.41635 820.000
26.43630 843.000
26.45624 889.000
26.47619 849.000
26.49614 830.000
26.51608 799.000
26.53603 812.000
26.55598 828.000
26.57593 883.000
26.59587 892.000
26.61582 877.000
26.63577 817.000
26.65571 853.000
26.67566 918.000
26.69561 888.000
26.71555 846.000
26.73550 893.000
26.75545 849.000
26.77539 870.000
26.79534 872.000
26.81529 914.000
26.83524 847.000
26.85518 893.000
26.87513 874.000
26.89508 855.000
26.91502 974.000
26.93497 876.000
26.95492 893.000
26.97486 846.000
26.99481 918.000
27.01476 926.000
27.03471 894.000
27.05465 883.000
27.07460 883.000
27.09455 951.000
27.11449 947.000
27.13444 945.000
27.15439 909.000
27.17433 912.000
27.19428 928.000
27.21423 954.000
27.23417 920.000
27.25412 893.000
27.27407 934.000
27.29402 961.000
27.31396 888.000
27.33391 936.000
27.35386 929.000
27.37380 935.000
27.39375 960.000
27.41370 945.000
27.43364 946.000
27.45359 967.000
27.47354 952.000
27.49349 997.000
27.51343 964.000
27.53338 946.000
27.55333 944.000
27.57327 978.000
27.59322 1006.000
27.61317 935.000
27.63311 940.000
27.65306 920.000
27.67301 976.000
27.69296 994.000
27.71290 907.000
27.73285 999.000
27.75280 970.000
27.77274 965.000
27.79269 1006.000
27.81264 1007.000
27.83258 1030.000
27.85253 964.000
27.87248 985.000
27.89242 1012.000
27.91237 999.000
27.93232 963.000
27.95227 1027.000
27.97221 1023.000
27.99216 970.000
28.01211 1042.000
28.03205 948.000
28.05200 1020.000
28.07195 1016.000
28.09189 1033.000
28.11184 1053.000
28.13179 1018.000
28.15174 1026.000
28.17168 941.000
28.19163 1041.000
28.21158 987.000
28.23152 1008.000
28.25147 1013.000
28.27142 952.000
28.29136 1024.000
28.31131 1081.000
28.33126 1065.000
28.35120 1023.000
28.37115 1038.000
28.39110 1020.000
28.41105 1077.000
28.43099 999.000
28.45094 1024.000
28.47089 989.000
28.49083 985.000
28.51078 1097.000
28.53073 1034.000
28.55067 983.000
28.57062 1063.000
28.59057 1015.000
28.61052 1024.000
28.63046 1016.000
28.65041 1032.000
28.67036 1097.000
28.69030 1053.000
28.71025 1015.000
28.73020 1037.000
28.75014 1018.000
28.77009 1094.000
28.79004 998.000
28.80998 1041.000
28.82993 993.000
28.84988 1032.000
28.86983 1114.000
28.88977 1080.000
28.90972 1067.000
28.92967 1079.000
28.94961 1079.000
28.96956 1101.000
28.98951 1056.000
29.00945 1017.000
29.02940 1066.000
29.04935 1088.000
29.06930 1084.000
29.08924 1110.000
29.10919 1095.000
29.12914 1037.000
29.14908 1080.000
29.16903 1046.000
29.18898 1057.000
29.20892 1105.000
29.22887 1067.000
29.24882 1086.000
29.26877 1039.000
29.28871 1111.000
29.30866 1063.000
29.32861 1097.000
29.34855 1046.000
29.36850 1082.000
29.38845 1055.000
29.40839 1067.000
29.42834 1060.000
29.44829 1095.000
29.46823 1109.000
29.48818 1047.000
29.50813 1099.000
29.52808 1050.000
29.54802 1062.000
29.56797 1102.000
29.58792 1044.000
29.60786 1123.000
29.62781 1094.000
29.64776 1050.000
29.66770 1086.000
29.68765 1100.000
29.70760 1031.000
29.72755 1120.000
29.74749 1103.000
29.76744 1071.000
29.78739 1116.000
29.80733 1099.000
29.82728 1071.000
29.84723 1083.000
29.86717 1138.000
29.88712 1097.000
29.90707 1132.000
29.92701 1106.000
29.94696 1061.000
29.96691 1048.000
29.98686 1076.000
30.00680 1065.000
30.02675 1034.000
30.04670 1045.000
30.06664 1100.000
30.08659 1041.000
30.10654 1081.000
30.12648 1099.000
30.14643 1082.000
30.16638 1082.000
30.18633 1096.000
30.20627 1060.000
30.22622 1007.000
30.24617 1091.000
30.26611 1057.000
30.28606 1035.000
30.30601 1074.000
30.32595 1057.000
30.34590 1030.000
30.36585 1078.000
30.38579 1038.000
30.40574 1053.000
30.42569 1044.000
30.44564 1095.000
30.46558 1050.000
30.48553 1036.000
30.50548 1036.000
30.52542 1033.000
30.54537 1009.000
30.56532 1037.000
30.58526 1037.000
30.60521 1084.000
30.62516 992.000
30.64511 1071.000
30.66505 1039.000
30.68500 1093.000
30.70495 1046.000
30.72489 1039.000
30.74484 1050.000
30.76479 1082.000
30.78473 1035.000
30.80468 1044.000
30.82463 1073.000
30.84458 1058.000
30.86452 1069.000
30.88447 999.000
30.90442 1068.000
30.92436 1064.000
30.94431 1034.000
30.96426 1047.000
30.98420 1020.000
31.00415 1051.000
31.02410 1030.000
31.04404 1060.000
31.06399 1018.000
31.08394 1055.000
31.10389 971.000
31.12383 1011.000
31.14378 1051.000
31.16373 1051.000
31.18367 1036.000
31.20362 1078.000
31.22357 1013.000
31.24351 1068.000
31.26346 999.000
31.28341 1020.000
31.30336 1067.000
31.32330 1028.000
31.34325 1061.000
31.36320 1049.000
31.38314 1026.000
31.40309 1023.000
31.42304 1063.000
31.44298 1010.000
31.46293 993.000
31.48288 956.000
31.50282 1042.000
31.52277 955.000
31.54272 1016.000
31.56267 1022.000
31.58261 950.000
31.60256 1072.000
31.62251 998.000
31.64245 1029.000
31.66240 996.000
31.68235 971.000
31.70229 1032.000
31.72224 953.000
31.74219 1012.000
31.76214 993.000
31.78208 1014.000
31.80203 948.000
31.82198 957.000
31.84192 976.000
31.86187 1003.000
31.88182 997.000
31.90176 1065.000
31.92171 960.000
31.94166 1011.000
31.96160 966.000
31.98155 969.000
32.00150 956.000
32.02145 963.000
32.04139 951.000
32.06134 993.000
32.08129 922.000
32.10123 986.000
32.12118 918.000
32.14113 984.000
32.16107 977.000
32.18102 964.000
32.20097 901.000
32.22092 952.000
32.24086 894.000
32.26081 914.000
32.28076 993.000
32.30070 1001.000
32.32065 924.000
32.34060 910.000
32.36054 964.000
32.38049 912.000
32.40044 927.000
32.42039 945.000
32.44033 959.000
32.46028 959.000
32.48023 938.000
32.50017 907.000
32.52012 898.000
32.54007 932.000
32.56001 948.000
32.57996 875.000
32.59991 958.000
32.61985 954.000
32.63980 924.000
32.65975 932.000
32.67970 892.000
32.69964 870.000
32.71959 929.000
32.73954 953.000
32.75948 883.000
32.77943 978.000
32.79938 891.000
32.81932 926.000
32.83927 900.000
32.85922 904.000
32.87917 892.000
32.89911 937.000
32.91906 917.000
32.93901 934.000
32.95895 870.000
32.97890 867.000
32.99885 877.000
33.01879 979.000
33.03874 846.000
33.05869 880.000
33.07863 900.000
33.09858 879.000
33.11853 868.000
33.13848 831.000
33.15842 838.000
33.17837 851.000
33.19832 832.000
33.21826 854.000
33.23821 877.000
33.25816 883.000
33.27810 881.000
33.29805 857.000
33.31800 893.000
33.33795 888.000
33.35789 963.000
33.37784 767.000
33.39779 874.000
33.41773 837.000
33.43768 852.000
33.45763 825.000
33.47757 891.000
33.49752 914.000
33.51747 848.000
33.53741 844.000
33.55736 840.000
33.57731 812.000
33.59726 831.000
33.61720 843.000
33.63715 833.000
33.65710 803.000
33.67704 870.000
33.69699 832.000
33.71694 841.000
33.73688 812.000
33.75683 828.000
33.77678 810.000
33.79673 837.000
33.81667 777.000
33.83662 817.000
33.85657 881.000
33.87651 789.000
33.89646 834.000
33.91641 796.000
33.93635 795.000
33.95630 772.000
33.97625 826.000
33.99620 828.000
34.01614 832.000
34.03609 798.000
34.05604 827.000
34.07598 765.000
34.09593 773.000
34.11588 820.000
34.13582 792.000
34.15577 818.000
34.17572 828.000
34.19566 767.000
34.21561 792.000
34.23556 789.000
34.25551 773.000
34.27545 777.000
34.29540 795.000
34.31535 842.000
34.33529 783.000
34.35524 804.000
34.37519 818.000
34.39513 727.000
34.41508 782.000
34.43503 838.000
34.45498 814.000
34.47492 760.000
34.49487 770.000
34.51482 736.000
34.53476 813.000
34.55471 762.000
34.57466 761.000
34.59460 760.000
34.61455 758.000
34.63450 789.000
34.65444 763.000
34.67439 810.000
34.69434 762.000
34.71429 779.000
34.73423 754.000
34.75418 779.000
34.77413 737.000
34.79407 747.000
34.81402 754.000
34.83397 712.000
34.85391 799.000
34.87386 756.000
34.89381 742.000
34.91376 759.000
34.93370 809.000
34.95365 707.000
34.97360 762.000
34.99354 731.000
35.01349 755.000
35.03344 728.000
35.05338 714.000
35.07333 706.000
35.09328 801.000
35.11322 721.000
35.13317 724.000
35.15312 738.000
35.17307 728.000
35.19301 729.000
35.21296 742.000
35.23291 749.000
35.25285 764.000
35.27280 691.000
35.29275 754.000
35.31269 700.000
35.33264 747.000
35.35259 739.000
35.37254 720.000
35.39248 728.000
35.41243 658.000
35.43238 692.000
35.45232 704.000
35.47227 723.000
35.49222 745.000
35.51216 700.000
35.53211 748.000
35.55206 716.000
35.57201 646.000
35.59195 701.000
35.61190 652.000
35.63185 707.000
35.65179 719.000
35.67174 713.000
35.69169 719.000
35.71163 643.000
35.73158 695.000
35.75153 694.000
35.77147 689.000
35.79142 716.000
35.81137 714.000
35.83132 726.000
35.85126 646.000
35.87121 703.000
35.89116 648.000
35.91110 692.000
35.93105 704.000
35.95100 724.000
35.97094 677.000
35.99089 668.000
36.01084 709.000
36.03079 720.000
36.05073 702.000
36.07068 731.000
36.09063 709.000
36.11057 692.000
36.13052 735.000
36.15047 695.000
36.17041 666.000
36.19036 712.000
36.21031 714.000
36.23025 727.000
36.25020 758.000
36.27015 738.000
36.29010 764.000
36.31004 801.000
36.32999 779.000
36.34994 785.000
36.36988 805.000
36.38983 782.000
36.40978 815.000
36.42972 803.000
36.44967 858.000
36.46962 767.000
36.48957 778.000
36.50951 778.000
36.52946 875.000
36.54941 850.000
36.56935 878.000
36.58930 917.000
36.60925 988.000
36.62919 1039.000
36.64914 1092.000
36.66909 1160.000
36.68903 1266.000
36.70898 1316.000
36.72893 1251.000
36.74888 1364.000
36.76882 1419.000
36.78877 1504.000
36.80872 1620.000
36.82866 1766.000
36.84861 1979.000
36.86856 2320.000
36.88850 2666.000
36.90845 3084.000
36.92840 3585.000
36.94835 4016.000
36.96829 4413.000
36.98824 4438.000
37.00819 4240.000
37.02813 3834.000
37.04808 3513.000
37.06803 3164.000
37.08797 2723.000
37.10792 2379.000
37.12787 1898.000
37.14781 1554.000
37.16776 1339.000
37.18771 1127.000
37.20766 1016.000
37.22760 931.000
37.24755 850.000
37.26750 787.000
37.28744 858.000
37.30739 762.000
37.32734 748.000
37.34728 747.000
37.36723 713.000
37.38718 743.000
37.40713 701.000
37.42707 708.000
37.44702 649.000
37.46697 752.000
37.48691 714.000
37.50686 675.000
37.52681 692.000
37.54675 680.000
37.56670 673.000
37.58665 666.000
37.60660 657.000
37.62654 670.000
37.64649 667.000
37.66644 641.000
37.68638 655.000
37.70633 670.000
37.72628 665.000
37.74622 645.000
37.76617 628.000
37.78612 638.000
37.80606 645.000
37.82601 652.000
37.84596 678.000
37.86591 675.000
37.88585 637.000
37.90580 617.000
37.92575 649.000
37.94569 633.000
37.96564 627.000
37.98559 637.000
38.00553 664.000
38.02548 642.000
38.04543 625.000
38.06538 650.000
38.08532 679.000
38.10527 620.000
38.12522 625.000
38.14516 636.000
38.16511 678.000
38.18506 702.000
38.20500 607.000
38.22495 662.000
38.24490 653.000
38.26484 646.000
38.28479 680.000
38.30474 619.000
38.32469 618.000
38.34463 694.000
38.36458 657.000
38.38453 671.000
38.40447 634.000
38.42442 641.000
38.44437 611.000
38.46431 645.000
38.48426 657.000
38.50421 644.000
38.52416 678.000
38.54410 635.000
38.56405 675.000
38.58400 655.000
38.60394 687.000
38.62389 636.000
38.64384 633.000
38.66378 618.000
38.68373 624.000
38.70368 684.000
38.72362 606.000
38.74357 616.000
38.76352 607.000
38.78347 602.000
38.80341 633.000
38.82336 646.000
38.84331 621.000
38.86325 637.000
38.88320 654.000
38.90315 613.000
38.92309 689.000
38.94304 613.000
38.96299 630.000
38.98294 653.000
39.00288 632.000
39.02283 627.000
39.04278 656.000
39.06272 640.000
39.08267 645.000
39.10262 676.000
39.12256 644.000
39.14251 618.000
39.16246 579.000
39.18241 681.000
39.20235 639.000
39.22230 667.000
39.24225 628.000
39.26219 653.000
39.28214 611.000
39.30209 686.000
39.32203 645.000
39.34198 618.000
39.36193 619.000
39.38187 645.000
39.40182 634.000
39.42177 638.000
39.44172 619.000
39.46166 652.000
39.48161 624.000
39.50156 626.000
39.52150 618.000
39.54145 621.000
39.56140 652.000
39.58134 632.000
39.60129 629.000
39.62124 651.000
39.64119 623.000
39.66113 657.000
39.68108 642.000
39.70103 604.000
39.72097 599.000
39.74092 604.000
39.76087 654.000
39.78081 635.000
39.80076 644.000
39.82071 652.000
39.84065 630.000
39.86060 647.000
39.88055 616.000
39.90050 656.000
39.92044 690.000
39.94039 622.000
39.96034 642.000
39.98028 651.000
40.00023 564.000
40.02018 614.000
40.04012 685.000
40.06007 587.000
40.08002 643.000
40.09997 641.000
40.11991 649.000
40.13986 677.000
40.15981 606.000
40.17975 603.000
40.19970 628.000
40.21965 613.000
40.23959 655.000
40.25954 634.000
40.27949 592.000
40.29943 635.000
40.31938 616.000
40.33933 655.000
40.35928 602.000
40.37922 622.000
40.39917 615.000
40.41912 621.000
40.43906 685.000
40.45901 669.000
40.47896 627.000
40.49890 626.000
40.51885 645.000
40.53880 668.000
40.55875 603.000
40.57869 637.000
40.59864 622.000
40.61859 638.000
40.63853 654.000
40.65848 641.000
40.67843 642.000
40.69837 608.000
40.71832 619.000
40.73827 620.000
40.75822 585.000
40.77816 633.000
40.79811 630.000
40.81806 606.000
40.83800 622.000
40.85795 634.000
40.87790 618.000
40.89784 612.000
40.91779 643.000
40.93774 621.000
40.95768 645.000
40.97763 626.000
40.99758 637.000
41.01753 681.000
41.03747 643.000
41.05742 597.000
41.07737 572.000
41.09731 619.000
41.11726 643.000
41.13721 638.000
41.15715 660.000
41.17710 690.000
41.19705 623.000
41.21700 609.000
41.23694 646.000
41.25689 640.000
41.27684 633.000
41.29678 648.000
41.31673 626.000
41.33668 622.000
41.35662 646.000
41.37657 627.000
41.39652 639.000
41.41646 624.000
41.43641 697.000
41.45636 658.000
41.47631 611.000
41.49625 610.000
41.51620 614.000
41.53615 648.000
41.55609 617.000
41.57604 612.000
41.59599 673.000
41.61593 593.000
41.63588 593.000
41.65583 663.000
41.67578 630.000
41.69572 572.000
41.71567 635.000
41.73562 635.000
41.75556 635.000
41.77551 613.000
41.79546 614.000
41.81540 647.000
41.83535 619.000
41.85530 603.000
41.87524 644.000
41.89519 634.000
41.91514 642.000
41.93509 640.000
41.95503 578.000
41.97498 602.000
41.99493 658.000
42.01487 653.000
42.03482 651.000
42.05477 605.000
42.07471 662.000
42.09466 606.000
42.11461 678.000
42.13456 617.000
42.15450 684.000
42.17445 610.000
42.19440 646.000
42.21434 680.000
42.23429 685.000
42.25424 695.000
42.27418 692.000
42.29413 732.000
42.31408 777.000
42.33403 743.000
42.35397 820.000
42.37392 807.000
42.39387 843.000
42.41381 857.000
42.43376 833.000
42.45371 822.000
42.47365 910.000
42.49360 941.000
42.51355 937.000
42.53349 982.000
42.55344 1045.000
42.57339 1035.000
42.59334 1069.000
42.61328 1170.000
42.63323 1177.000
42.65318 1260.000
42.67312 1370.000
42.69307 1423.000
42.71302 1552.000
42.73296 1643.000
42.75291 1789.000
42.77286 1923.000
42.79281 1915.000
42.81275 2020.000
42.83270 2164.000
42.85265 2419.000
42.87259 2777.000
42.89254 3162.000
42.91249 3893.000
42.93243 4567.000
42.95238 5370.000
42.97233 6446.000
42.99227 7163.000
43.01222 7393.000
43.03217 7452.000
43.05212 6902.000
43.07206 6089.000
43.09201 5384.000
43.11196 4944.000
43.13190 4378.000
43.15185 3907.000
43.17180 3168.000
43.19174 2559.000
43.21169 1890.000
43.23164 1609.000
43.25159 1278.000
43.27153 1142.000
43.29148 971.000
43.31143 956.000
43.33137 828.000
43.35132 882.000
43.37127 778.000
43.39121 783.000
43.41116 739.000
43.43111 733.000
43.45105 772.000
43.47100 711.000
43.49095 685.000
43.51090 672.000
43.53084 685.000
43.55079 679.000
43.57074 649.000
43.59068 616.000
43.61063 629.000
43.63058 637.000
43.65052 655.000
43.67047 613.000
43.69042 623.000
43.71037 640.000
43.73031 625.000
43.75026 648.000
43.77021 591.000
43.79015 630.000
43.81010 617.000
43.83005 619.000
43.84999 602.000
43.86994 608.000
43.88989 633.000
43.90984 602.000
43.92978 581.000
43.94973 649.000
43.96968 595.000
43.98962 549.000
44.00957 606.000
44.02952 555.000
44.04946 545.000
44.06941 587.000
44.08936 567.000
44.10930 596.000
44.12925 558.000
44.14920 533.000
44.16915 565.000
44.18909 553.000
44.20904 613.000
44.22899 607.000
44.24893 604.000
44.26888 594.000
44.28883 559.000
44.30877 583.000
44.32872 576.000
44.34867 609.000
44.36862 541.000
44.38856 506.000
44.40851 552.000
44.42846 534.000
44.44840 564.000
44.46835 494.000
44.48830 561.000
44.50824 502.000
44.52819 593.000
44.54814 562.000
44.56808 579.000
44.58803 516.000
44.60798 499.000
44.62793 519.000
44.64787 567.000
44.66782 522.000
44.68777 537.000
44.70771 522.000
44.72766 532.000
44.74761 542.000
44.76755 500.000
44.78750 564.000
44.80745 515.000
44.82740 506.000
44.84734 509.000
44.86729 542.000
44.88724 552.000
44.90718 533.000
44.92713 502.000
44.94708 504.000
44.96702 530.000
44.98697 504.000
45.00692 535.000
45.02686 485.000
45.04681 511.000
45.06676 513.000
45.08671 519.000
45.10665 503.000
45.12660 510.000
45.14655 517.000
45.16649 502.000
45.18644 513.000
45.20639 503.000
45.22633 536.000
45.24628 532.000
45.26623 507.000
45.28618 479.000
45.30612 516.000
45.32607 465.000
45.34602 511.000
45.36596 523.000
45.38591 523.000
45.40586 500.000
45.42580 516.000
45.44575 566.000
45.46570 461.000
45.48565 467.000
45.50559 460.000
45.52554 498.000
45.54549 510.000
45.56543 457.000
45.58538 481.000
45.60533 528.000
45.62527 478.000
45.64522 471.000
45.66517 520.000
45.68511 449.000
45.70506 475.000
45.72501 511.000
45.74496 458.000
45.76490 504.000
45.78485 456.000
45.80480 486.000
45.82474 474.000
45.84469 472.000
45.86464 411.000
45.88458 489.000
45.90453 512.000
45.92448 482.000
45.94443 491.000
45.96437 459.000
45.98432 489.000
46.00427 465.000
46.02421 453.000
46.04416 469.000
46.06411 459.000
46.08405 480.000
46.10400 475.000
46.12395 473.000
46.14389 458.000
46.16384 503.000
46.18379 484.000
46.20374 456.000
46.22368 480.000
46.24363 426.000
46.26358 452.000
46.28352 466.000
46.30347 465.000
46.32342 452.000
46.34336 472.000
46.36331 481.000
46.38326 468.000
46.40321 440.000
46.42315 422.000
46.44310 421.000
46.46305 470.000
46.48299 428.000
46.50294 462.000
46.52289 486.000
46.54283 460.000
46.56278 457.000
46.58273 478.000
46.60267 412.000
46.62262 430.000
46.64257 452.000
46.66252 471.000
46.68246 456.000
46.70241 413.000
46.72236 456.000
46.74230 435.000
46.76225 407.000
46.78220 492.000
46.80214 419.000
46.82209 443.000
46.84204 473.000
46.86199 417.000
46.88193 454.000
46.90188 455.000
46.92183 449.000
46.94177 469.000
46.96172 445.000
46.98167 412.000
47.00161 465.000
47.02156 447.000
47.04151 425.000
47.06146 416.000
47.08140 446.000
47.10135 415.000
47.12130 447.000
47.14124 426.000
47.16119 425.000
47.18114 430.000
47.20108 477.000
47.22103 434.000
47.24098 448.000
47.26092 411.000
47.28087 413.000
47.30082 451.000
47.32077 449.000
47.34071 396.000
47.36066 427.000
47.38061 406.000
47.40055 429.000
47.42050 430.000
47.44045 413.000
47.46039 453.000
47.48034 422.000
47.50029 466.000
47.52024 419.000
47.54018 449.000
47.56013 401.000
47.58008 424.000
47.60002 455.000
47.61997 480.000
47.63992 399.000
47.65986 439.000
47.67981 409.000
47.69976 444.000
47.71970 445.000
47.73965 461.000
47.75960 415.000
47.77955 410.000
47.79949 419.000
47.81944 431.000
47.83939 451.000
47.85933 427.000
47.87928 440.000
47.89923 380.000
47.91917 427.000
47.93912 415.000
47.95907 448.000
47.97902 436.000
47.99896 412.000
48.01891 451.000
48.03886 409.000
48.05880 418.000
48.07875 411.000
48.09870 412.000
48.11864 431.000
48.13859 432.000
48.15854 409.000
48.17848 428.000
48.19843 398.000
48.21838 418.000
48.23833 433.000
48.25827 420.000
48.27822 422.000
48.29817 417.000
48.31811 435.000
48.33806 412.000
48.35801 449.000
48.37795 431.000
48.39790 437.000
48.41785 424.000
48.43780 418.000
48.45774 405.000
48.47769 411.000
48.49764 426.000
48.51758 413.000
48.53753 432.000
48.55748 385.000
48.57742 401.000
48.59737 395.000
48.61732 397.000
48.63726 420.000
48.65721 413.000
48.67716 403.000
48.69711 439.000
48.71705 375.000
48.73700 416.000
48.75695 403.000
48.77689 368.000
48.79684 406.000
48.81679 388.000
48.83673 414.000
48.85668 392.000
48.87663 375.000
48.89658 406.000
48.91652 388.000
48.93647 402.000
48.95642 374.000
48.97636 401.000
48.99631 372.000
49.01626 391.000
49.03620 364.000
49.05615 389.000
49.07610 435.000
49.09605 420.000
49.11599 408.000
49.13594 396.000
49.15589 390.000
49.17583 410.000
49.19578 403.000
49.21573 414.000
49.23567 398.000
49.25562 408.000
49.27557 425.000
49.29551 403.000
49.31546 350.000
49.33541 373.000
49.35536 426.000
49.37530 422.000
49.39525 441.000
49.41520 410.000
49.43514 401.000
49.45509 402.000
49.47504 415.000
49.49498 398.000
49.51493 411.000
49.53488 420.000
49.55483 407.000
49.57477 394.000
49.59472 396.000
49.61467 371.000
49.63461 403.000
49.65456 370.000
49.67451 432.000
49.69445 375.000
49.71440 417.000
49.73435 373.000
49.75429 423.000
49.77424 367.000
49.79419 381.000
49.81414 424.000
49.83408 385.000
49.85403 408.000
49.87398 397.000
49.89392 399.000
49.91387 383.000
49.93382 404.000
49.95376 404.000
49.97371 422.000
49.99366 378.000
50.01361 407.000
50.03355 385.000
50.05350 403.000
50.07345 399.000
50.09339 364.000
50.11334 397.000
50.13329 416.000
50.15323 380.000
50.17318 394.000
50.19313 400.000
50.21307 391.000
50.23302 386.000
50.25297 406.000
50.27292 406.000
50.29286 374.000
50.31281 400.000
50.33276 394.000
50.35270 405.000
50.37265 391.000
50.39260 404.000
50.41254 389.000
50.43249 422.000
50.45244 407.000
50.47239 384.000
50.49233 381.000
50.51228 396.000
50.53223 360.000
50.55217 409.000
50.57212 387.000
50.59207 394.000
50.61201 354.000
50.63196 410.000
50.65191 399.000
50.67186 422.000
50.69180 376.000
50.71175 384.000
50.73170 335.000
50.75164 425.000
50.77159 367.000
50.79154 412.000
50.81148 388.000
50.83143 387.000
50.85138 402.000
50.87132 394.000
50.89127 355.000
50.91122 369.000
50.93117 415.000
50.95111 391.000
50.97106 377.000
50.99101 353.000
51.01095 353.000
51.03090 392.000
51.05085 390.000
51.07079 387.000
51.09074 411.000
51.11069 348.000
51.13064 338.000
51.15058 408.000
51.17053 398.000
51.19048 364.000
51.21042 354.000
51.23037 382.000
51.25032 376.000
51.27026 370.000
51.29021 355.000
51.31016 423.000
51.33010 384.000
51.35005 371.000
51.37000 383.000
51.38995 388.000
51.40989 368.000
51.42984 389.000
51.44979 355.000
51.46973 421.000
51.48968 413.000
51.50963 406.000
51.52957 384.000
51.54952 380.000
51.56947 355.000
51.58942 381.000
51.60936 400.000
51.62931 378.000
51.64926 357.000
51.66920 381.000
51.68915 367.000
51.70910 394.000
51.72904 385.000
51.74899 356.000
51.76894 386.000
51.78888 372.000
51.80883 390.000
51.82878 385.000
51.84873 367.000
51.86867 368.000
51.88862 411.000
51.90857 421.000
51.92851 405.000
51.94846 364.000
51.96841 378.000
51.98835 370.000
52.00830 403.000
52.02825 381.000
52.04820 360.000
52.06814 381.000
52.08809 401.000
52.10804 369.000
52.12798 382.000
52.14793 394.000
52.16788 416.000
52.18782 387.000
52.20777 383.000
52.22772 357.000
52.24767 369.000
52.26761 378.000
52.28756 384.000
52.30751 367.000
52.32745 359.000
52.34740 386.000
52.36735 417.000
52.38729 389.000
52.40724 370.000
52.42719 379.000
52.44713 368.000
52.46708 366.000
52.48703 375.000
52.50698 368.000
52.52692 363.000
52.54687 372.000
52.56682 363.000
52.58676 353.000
52.60671 362.000
52.62666 378.000
52.64660 364.000
52.66655 357.000
52.68650 345.000
52.70645 388.000
52.72639 398.000
52.74634 335.000
52.76629 389.000
52.78623 382.000
52.80618 379.000
52.82613 332.000
52.84607 400.000
52.86602 356.000
52.88597 323.000
52.90591 387.000
52.92586 366.000
52.94581 395.000
52.96576 338.000
52.98570 394.000
53.00565 359.000
53.02560 357.000
53.04554 319.000
53.06549 383.000
53.08544 350.000
53.10538 377.000
53.12533 362.000
53.14528 342.000
53.16523 410.000
53.18517 418.000
53.20512 342.000
53.22507 359.000
53.24501 395.000
53.26496 372.000
53.28491 412.000
53.30485 369.000
53.32480 344.000
53.34475 320.000
53.36469 408.000
53.38464 344.000
53.40459 366.000
53.42454 356.000
53.44448 386.000
53.46443 347.000
53.48438 351.000
53.50432 383.000
53.52427 385.000
53.54422 348.000
53.56416 338.000
53.58411 399.000
53.60406 368.000
53.62401 389.000
53.64395 380.000
53.66390 361.000
53.68385 361.000
53.70379 389.000
53.72374 387.000
53.74369 334.000
53.76363 356.000
53.78358 353.000
53.80353 380.000
53.82348 384.000
53.84342 314.000
53.86337 376.000
53.88332 332.000
53.90326 384.000
53.92321 430.000
53.94316 365.000
53.96310 331.000
53.98305 402.000
54.00300 342.000
54.02294 354.000
54.04289 370.000
54.06284 363.000
54.08279 405.000
54.10273 354.000
54.12268 326.000
54.14263 357.000
54.16257 370.000
54.18252 392.000
54.20247 330.000
54.22241 347.000
54.24236 331.000
54.26231 328.000
54.28226 382.000
54.30220 360.000
54.32215 359.000
54.34210 379.000
54.36204 378.000
54.38199 381.000
54.40194 333.000
54.42188 383.000
54.44183 333.000
54.46178 351.000
54.48172 340.000
54.50167 363.000
54.52162 347.000
54.54157 360.000
54.56151 356.000
54.58146 347.000
54.60141 367.000
54.62135 374.000
54.64130 336.000
54.66125 355.000
54.68119 333.000
54.70114 319.000
54.72109 359.000
54.74104 366.000
54.76098 344.000
54.78093 365.000
54.80088 365.000
54.82082 343.000
54.84077 346.000
54.86072 331.000
54.88066 312.000
54.90061 352.000
54.92056 355.000
54.94050 339.000
54.96045 372.000
54.98040 374.000
55.00035 328.000
55.02029 335.000
55.04024 363.000
55.06019 374.000
55.08013 336.000
55.10008 339.000
55.12003 389.000
55.13997 344.000
55.15992 331.000
55.17987 359.000
55.19982 361.000
55.21976 366.000
55.23971 346.000
55.25966 339.000
55.27960 336.000
55.29955 350.000
55.31950 359.000
55.33944 354.000
55.35939 335.000
55.37934 337.000
55.39929 350.000
55.41923 351.000
55.43918 393.000
55.45913 358.000
55.47907 369.000
55.49902 376.000
55.51897 343.000
55.53891 379.000
55.55886 357.000
55.57881 316.000
55.59875 367.000
55.61870 380.000
55.63865 381.000
55.65860 345.000
55.67854 367.000
55.69849 381.000
55.71844 368.000
55.73838 367.000
55.75833 346.000
55.77828 362.000
55.79822 354.000
55.81817 384.000
55.83812 320.000
55.85807 357.000
55.87801 359.000
55.89796 341.000
55.91791 351.000
55.93785 354.000
55.95780 363.000
55.97775 355.000
55.99769 343.000
56.01764 375.000
56.03759 334.000
56.05753 370.000
56.07748 370.000
56.09743 351.000
56.11738 353.000
56.13732 300.000
56.15727 355.000
56.17722 353.000
56.19716 365.000
56.21711 339.000
56.23706 354.000
56.25700 340.000
56.27695 338.000
56.29690 347.000
56.31685 350.000
56.33679 361.000
56.35674 337.000
56.37669 350.000
56.39663 367.000
56.41658 359.000
56.43653 369.000
56.45647 320.000
56.47642 400.000
56.49637 374.000
56.51631 354.000
56.53626 370.000
56.55621 351.000
56.57616 379.000
56.59610 355.000
56.61605 358.000
56.63600 351.000
56.65594 342.000
56.67589 322.000
56.69584 310.000
56.71578 337.000
56.73573 381.000
56.75568 361.000
56.77563 334.000
56.79557 345.000
56.81552 324.000
56.83547 341.000
56.85541 321.000
56.87536 365.000
56.89531 387.000
56.91525 367.000
56.93520 377.000
56.95515 360.000
56.97510 339.000
56.99504 358.000
57.01499 317.000
57.03494 340.000
57.05488 300.000
57.07483 347.000
57.09478 360.000
57.11472 348.000
57.13467 360.000
57.15462 319.000
57.17456 352.000
57.19451 333.000
57.21446 350.000
57.23441 373.000
57.25435 339.000
57.27430 347.000
57.29425 324.000
57.31419 347.000
57.33414 339.000
57.35409 350.000
57.37403 333.000
57.39398 356.000
57.41393 354.000
57.43388 332.000
57.45382 356.000
57.47377 364.000
57.49372 334.000
57.51366 356.000
57.53361 357.000
57.55356 323.000
57.57350 362.000
57.59345 343.000
57.61340 308.000
57.63334 334.000
57.65329 331.000
57.67324 330.000
57.69319 362.000
57.71313 341.000
57.73308 368.000
57.75303 377.000
57.77297 345.000
57.79292 302.000
57.81287 373.000
57.83281 300.000
57.85276 335.000
57.87271 322.000
57.89266 337.000
57.91260 335.000
57.93255 351.000
57.95250 328.000
57.97244 360.000
57.99239 348.000
58.01234 367.000
58.03228 363.000
58.05223 331.000
58.07218 354.000
58.09212 294.000
58.11207 326.000
58.13202 329.000
58.15197 324.000
58.17191 340.000
58.19186 334.000
58.21181 331.000
58.23175 348.000
58.25170 348.000
58.27165 351.000
58.29159 328.000
58.31154 358.000
58.33149 331.000
58.35144 323.000
58.37138 340.000
58.39133 342.000
58.41128 347.000
58.43122 330.000
58.45117 320.000
58.47112 332.000
58.49106 348.000
58.51101 334.000
58.53096 345.000
58.55090 306.000
58.57085 368.000
58.59080 358.000
58.61075 356.000
58.63069 314.000
58.65064 303.000
58.67059 295.000
58.69053 360.000
58.71048 345.000
58.73043 311.000
58.75037 334.000
58.77032 365.000
58.79027 356.000
58.81022 357.000
58.83016 337.000
58.85011 327.000
58.87006 351.000
58.89000 370.000
58.90995 354.000
58.92990 323.000
58.94984 350.000
58.96979 366.000
58.98974 310.000
59.00969 343.000
59.02963 339.000
59.04958 320.000
59.06953 303.000
59.08947 317.000
59.10942 328.000
59.12937 381.000
59.14931 329.000
59.16926 335.000
59.18921 329.000
59.20915 330.000
59.22910 319.000
59.24905 351.000
59.26900 340.000
59.28894 356.000
59.30889 307.000
59.32884 352.000
59.34878 346.000
59.36873 358.000
59.38868 343.000
59.40862 355.000
59.42857 349.000
59.44852 359.000
59.46847 342.000
59.48841 332.000
59.50836 346.000
59.52831 339.000
59.54825 364.000
59.56820 325.000
59.58815 382.000
59.60809 351.000
59.62804 342.000
59.64799 329.000
59.66793 333.000
59.68788 351.000
59.70783 313.000
59.72778 316.000
59.74772 348.000
59.76767 322.000
59.78762 350.000
59.80756 352.000
59.82751 307.000
59.84746 332.000
59.86740 335.000
59.88735 334.000
59.90730 355.000
59.92725 342.000
59.94719 329.000
59.96714 321.000
59.98709 326.000
60.00703 316.000
60.02698 320.000
60.04693 322.000
60.06687 314.000
60.08682 331.000
60.10677 324.000
60.12671 310.000
60.14666 363.000
60.16661 339.000
60.18656 321.000
60.20650 306.000
60.22645 323.000
60.24640 334.000
60.26634 374.000
60.28629 320.000
60.30624 370.000
60.32618 332.000
60.34613 344.000
60.36608 351.000
60.38603 324.000
60.40597 347.000
60.42592 370.000
60.44587 345.000
60.46581 366.000
60.48576 359.000
60.50571 358.000
60.52565 368.000
60.54560 339.000
60.56555 350.000
60.58550 377.000
60.60544 296.000
60.62539 331.000
60.64534 323.000
60.66528 313.000
60.68523 330.000
60.70518 340.000
60.72512 331.000
60.74507 336.000
60.76502 356.000
60.78496 348.000
60.80491 354.000
60.82486 329.000
60.84481 334.000
60.86475 347.000
60.88470 332.000
60.90465 320.000
60.92459 341.000
60.94454 350.000
60.96449 334.000
60.98443 321.000
61.00438 308.000
61.02433 377.000
61.04428 346.000
61.06422 351.000
61.08417 355.000
61.10412 328.000
61.12406 320.000
61.14401 349.000
61.16396 382.000
61.18390 342.000
61.20385 363.000
61.22380 332.000
61.24374 340.000
61.26369 341.000
61.28364 376.000
61.30359 370.000
61.32353 329.000
61.34348 360.000
61.36343 307.000
61.38337 346.000
61.40332 321.000
61.42327 370.000
61.44321 348.000
61.46316 381.000
61.48311 354.000
61.50306 344.000
61.52300 331.000
61.54295 378.000
61.56290 347.000
61.58284 366.000
61.60279 354.000
61.62274 372.000
61.64268 342.000
61.66263 361.000
61.68258 364.000
61.70252 396.000
61.72247 360.000
61.74242 351.000
61.76237 375.000
61.78231 401.000
61.80226 356.000
61.82221 431.000
61.84215 373.000
61.86210 409.000
61.88205 410.000
61.90199 394.000
61.92194 414.000
61.94189 429.000
61.96184 428.000
61.98178 472.000
62.00173 492.000
62.02168 551.000
62.04162 569.000
62.06157 621.000
62.08152 576.000
62.10146 650.000
62.12141 645.000
62.14136 757.000
62.16131 714.000
62.18125 796.000
62.20120 820.000
62.22115 841.000
62.24109 947.000
62.26104 967.000
62.28099 955.000
62.30093 1071.000
62.32088 1023.000
62.34083 1138.000
62.36077 1182.000
62.38072 1263.000
62.40067 1311.000
62.42062 1364.000
62.44056 1357.000
62.46051 1530.000
62.48046 1738.000
62.50040 1943.000
62.52035 2176.000
62.54030 2511.000
62.56024 2832.000
62.58019 3225.000
62.60014 3259.000
62.62009 3369.000
62.64003 3330.000
62.65998 3127.000
62.67993 2855.000
62.69987 2719.000
62.71982 2476.000
62.73977 2330.000
62.75971 2206.000
62.77966 2132.000
62.79961 1985.000
62.81955 1835.000
62.83950 1670.000
62.85945 1441.000
62.87940 1256.000
62.89934 1017.000
62.91929 849.000
62.93924 758.000
62.95918 663.000
62.97913 598.000
62.99908 569.000
63.01902 532.000
63.03897 517.000
63.05892 492.000
63.07887 482.000
63.09881 499.000
63.11876 476.000
63.13871 402.000
63.15865 404.000
63.17860 418.000
63.19855 408.000
63.21849 422.000
63.23844 392.000
63.25839 398.000
63.27833 384.000
63.29828 370.000
63.31823 380.000
63.33818 375.000
63.35812 335.000
63.37807 355.000
63.39802 397.000
63.41796 356.000
63.43791 355.000
63.45786 301.000
63.47780 351.000
63.49775 344.000
63.51770 356.000
63.53765 397.000
63.55759 339.000
63.57754 365.000
63.59749 311.000
63.61743 361.000
63.63738 321.000
63.65733 339.000
63.67727 346.000
63.69722 358.000
63.71717 361.000
63.73712 340.000
63.75706 367.000
63.77701 377.000
63.79696 308.000
63.81690 319.000
63.83685 314.000
63.85680 366.000
63.87674 341.000
63.89669 331.000
63.91664 325.000
63.93658 320.000
63.95653 367.000
63.97648 341.000
63.99643 312.000
64.01637 324.000
64.03632 353.000
64.05627 299.000
64.07621 336.000
64.09616 354.000
64.11611 315.000
64.13605 324.000
64.15600 317.000
64.17595 293.000
64.19590 328.000
64.21584 302.000
64.23579 337.000
64.25574 314.000
64.27568 280.000
64.29563 303.000
64.31558 334.000
64.33552 322.000
64.35547 340.000
64.37542 355.000
64.39536 339.000
64.41531 310.000
64.43526 297.000
64.45521 363.000
64.47515 309.000
64.49510 326.000
64.51505 321.000
64.53499 298.000
64.55494 336.000
64.57489 352.000
64.59483 331.000
64.61478 327.000
64.63473 340.000
64.65468 329.000
64.67462 336.000
64.69457 367.000
64.71452 290.000
64.73446 353.000
64.75441 327.000
64.77436 325.000
64.79430 299.000
64.81425 319.000
64.83420 325.000
64.85414 310.000
64.87409 325.000
64.89404 304.000
64.91399 297.000
64.93393 335.000
64.95388 291.000
64.97383 344.000
64.99377 291.000
65.01372 306.000
65.03367 311.000
65.05361 307.000
65.07356 317.000
65.09351 322.000
65.11346 344.000
65.13340 309.000
65.15335 337.000
65.17330 317.000
65.19324 334.000
65.21319 323.000
65.23314 360.000
65.25308 308.000
65.27303 312.000
65.29298 325.000
65.31293 312.000
65.33287 326.000
65.35282 354.000
65.37277 333.000
65.39271 325.000
65.41266 316.000
65.43261 310.000
65.45255 343.000
65.47250 326.000
65.49245 314.000
65.51239 339.000
65.53234 291.000
65.55229 338.000
65.57224 322.000
65.59218 325.000
65.61213 338.000
65.63208 333.000
65.65202 296.000
65.67197 318.000
65.69192 327.000
65.71186 313.000
65.73181 309.000
65.75176 312.000
65.77171 332.000
65.79165 330.000
65.81160 327.000
65.83155 314.000
65.85149 312.000
65.87144 315.000
65.89139 334.000
65.91133 316.000
65.93128 314.000
65.95123 305.000
65.97117 311.000
65.99112 298.000
66.01107 322.000
66.03102 342.000
66.05096 316.000
66.07091 300.000
66.09086 326.000
66.11080 346.000
66.13075 310.000
66.15070 299.000
66.17064 313.000
66.19059 309.000
66.21054 323.000
66.23049 287.000
66.25043 294.000
66.27038 313.000
66.29033 314.000
66.31027 319.000
66.33022 320.000
66.35017 315.000
66.37011 305.000
66.39006 341.000
66.41001 323.000
66.42995 328.000
66.44990 329.000
66.46985 306.000
66.48980 316.000
66.50974 319.000
66.52969 309.000
66.54964 315.000
66.56958 295.000
66.58953 292.000
66.60948 327.000
66.62942 320.000
66.64937 319.000
66.66932 336.000
66.68927 295.000
66.70921 336.000
66.72916 359.000
66.74911 281.000
66.76905 346.000
66.78900 304.000
66.80895 293.000
66.82889 331.000
66.84884 310.000
66.86879 303.000
66.88874 345.000
66.90868 289.000
66.92863 343.000
66.94858 321.000
66.96852 315.000
66.98847 298.000
67.00842 305.000
67.02836 276.000
67.04831 328.000
67.06826 334.000
67.08820 315.000
67.10815 305.000
67.12810 314.000
67.14805 326.000
67.16799 335.000
67.18794 328.000
67.20789 271.000
67.22783 354.000
67.24778 309.000
67.26773 315.000
67.28767 338.000
67.30762 313.000
67.32757 332.000
67.34752 296.000
67.36746 319.000
67.38741 325.000
67.40736 323.000
67.42730 289.000
67.44725 284.000
67.46720 332.000
67.48714 301.000
67.50709 312.000
67.52704 303.000
67.54698 291.000
67.56693 297.000
67.58688 321.000
67.60683 288.000
67.62677 326.000
67.64672 305.000
67.66667 358.000
67.68661 303.000
67.70656 312.000
67.72651 278.000
67.74645 304.000
67.76640 311.000
67.78635 306.000
67.80630 322.000
67.82624 347.000
67.84619 267.000
67.86614 310.000
67.88608 305.000
67.90603 289.000
67.92598 304.000
67.94592 332.000
67.96587 323.000
67.98582 324.000
68.00576 308.000
68.02571 321.000
68.04566 321.000
68.06561 286.000
68.08555 310.000
68.10550 316.000
68.12545 293.000
68.14539 321.000
68.16534 347.000
68.18529 324.000
68.20523 301.000
68.22518 322.000
68.24513 351.000
68.26508 332.000
68.28502 296.000
68.30497 328.000
68.32492 337.000
68.34486 313.000
68.36481 285.000
68.38476 298.000
68.40470 284.000
68.42465 342.000
68.44460 301.000
68.46455 318.000
68.48449 303.000
68.50444 311.000
68.52439 300.000
68.54433 312.000
68.56428 285.000
68.58423 303.000
68.60417 300.000
68.62412 276.000
68.64407 299.000
68.66401 275.000
68.68396 278.000
68.70391 316.000
68.72386 312.000
68.74380 283.000
68.76375 280.000
68.78370 300.000
68.80364 273.000
68.82359 299.000
68.84354 327.000
68.86348 314.000
68.88343 298.000
68.90338 335.000
68.92333 302.000
68.94327 320.000
68.96322 278.000
68.98317 306.000
69.00311 312.000
69.02306 324.000
69.04301 300.000
69.06295 287.000
69.08290 308.000
69.10285 286.000
69.12279 321.000
69.14274 293.000
69.16269 334.000
69.18264 326.000
69.20258 292.000
69.22253 316.000
69.24248 306.000
69.26242 282.000
69.28237 283.000
69.30232 326.000
69.32226 284.000
69.34221 313.000
69.36216 336.000
69.38211 341.000
69.40205 298.000
69.42200 309.000
69.44195 280.000
69.46189 303.000
69.48184 323.000
69.50179 322.000
69.52173 303.000
69.54168 297.000
69.56163 292.000
69.58157 288.000
69.60152 280.000
69.62147 356.000
69.64142 304.000
69.66136 321.000
69.68131 312.000
69.70126 306.000
69.72120 298.000
69.74115 291.000
69.76110 269.000
69.78104 297.000
69.80099 349.000
69.82094 287.000
69.84089 257.000
69.86083 318.000
69.88078 313.000
69.90073 320.000
69.92067 300.000
69.94062 343.000
69.96057 290.000
69.98051 300.000
70.00046 325.000
70.02041 314.000
70.04035 287.000
70.06030 324.000
70.08025 296.000
70.10020 283.000
70.12014 330.000
70.14009 292.000
70.16004 312.000
70.17998 279.000
70.19993 305.000
70.21988 293.000
70.23982 308.000
70.25977 330.000
70.27972 291.000
70.29967 308.000
70.31961 297.000
70.33956 293.000
70.35951 299.000
70.37945 282.000
70.39940 315.000
70.41935 310.000
70.43929 329.000
70.45924 303.000
70.47919 311.000
70.49914 296.000
70.51908 301.000
70.53903 300.000
70.55898 335.000
70.57892 333.000
70.59887 315.000
70.61882 291.000
70.63876 312.000
70.65871 302.000
70.67866 296.000
70.69860 338.000
70.71855 280.000
70.73850 330.000
70.75845 334.000
70.77839 318.000
70.79834 280.000
70.81829 285.000
70.83823 295.000
70.85818 300.000
70.87813 312.000
70.89807 314.000
70.91802 315.000
70.93797 324.000
70.95792 292.000
70.97786 306.000
70.99781 282.000
71.01776 312.000
71.03770 309.000
71.05765 295.000
71.07760 294.000
71.09754 286.000
71.11749 285.000
71.13744 294.000
71.15738 328.000
71.17733 325.000
71.19728 323.000
71.21723 311.000
71.23717 313.000
71.25712 303.000
71.27707 307.000
71.29701 318.000
71.31696 316.000
71.33691 323.000
71.35685 283.000
71.37680 290.000
71.39675 308.000
71.41670 312.000
71.43664 292.000
71.45659 337.000
71.47654 303.000
71.49648 291.000
71.51643 316.000
71.53638 296.000
71.55632 298.000
71.57627 303.000
71.59622 317.000
71.61616 279.000
71.63611 316.000
71.65606 302.000
71.67601 296.000
71.69595 342.000
71.71590 295.000
71.73585 275.000
71.75579 333.000
71.77574 326.000
71.79569 274.000
71.81563 313.000
71.83558 293.000
71.85553 304.000
71.87548 288.000
71.89542 306.000
71.91537 268.000
71.93532 273.000
71.95526 290.000
71.97521 330.000
71.99516 298.000
72.01510 305.000
72.03505 319.000
72.05500 310.000
72.07495 260.000
72.09489 299.000
72.11484 304.000
72.13479 279.000
72.15473 262.000
72.17468 289.000
72.19463 298.000
72.21457 312.000
72.23452 300.000
72.25447 319.000
72.27441 284.000
72.29436 298.000
72.31431 297.000
72.33426 330.000
72.35420 291.000
72.37415 296.000
72.39410 305.000
72.41404 293.000
72.43399 329.000
72.45394 330.000
72.47388 306.000
72.49383 298.000
72.51378 282.000
72.53373 297.000
72.55367 342.000
72.57362 307.000
72.59357 301.000
72.61351 349.000
72.63346 298.000
72.65341 301.000
72.67335 312.000
72.69330 319.000
72.71325 280.000
72.73319 294.000
72.75314 314.000
72.77309 317.000
72.79304 303.000
72.81298 300.000
72.83293 291.000
72.85288 299.000
72.87282 309.000
72.89277 281.000
72.91272 279.000
72.93266 291.000
72.95261 335.000
72.97256 281.000
72.99251 317.000
73.01245 291.000
73.03240 315.000
73.05235 287.000
73.07229 270.000
73.09224 263.000
73.11219 287.000
73.13213 332.000
73.15208 295.000
73.17203 306.000
73.19197 309.000
73.21192 321.000
73.23187 277.000
73.25182 303.000
73.27176 308.000
73.29171 316.000
73.31166 299.000
73.33160 308.000
73.35155 305.000
73.37150 303.000
73.39144 304.000
73.41139 328.000
73.43134 318.000
73.45129 281.000
73.47123 317.000
73.49118 312.000
73.51113 336.000
73.53107 290.000
73.55102 274.000
73.57097 299.000
73.59091 333.000
73.61086 327.000
73.63081 297.000
73.65076 307.000
73.67070 317.000
73.69065 327.000
73.71060 326.000
73.73054 292.000
73.75049 301.000
73.77044 278.000
73.79038 297.000
73.81033 324.000
73.83028 326.000
73.85022 357.000
73.87017 298.000
73.89012 322.000
73.91007 303.000
73.93001 317.000
73.94996 294.000
73.96991 304.000
73.98985 313.000
74.00980 298.000
74.02975 313.000
74.04969 310.000
74.06964 339.000
74.08959 327.000
74.10954 325.000
74.12948 316.000
74.14943 344.000
74.16938 290.000
74.18932 280.000
74.20927 330.000
74.22922 317.000
74.24916 302.000
74.26911 284.000
74.28906 298.000
74.30900 330.000
74.32895 315.000
74.34890 317.000
74.36885 304.000
74.38879 318.000
74.40874 332.000
74.42869 347.000
74.44863 337.000
74.46858 316.000
74.48853 319.000
74.50847 357.000
74.52842 361.000
74.54837 368.000
74.56832 374.000
74.58826 379.000
74.60821 373.000
74.62816 410.000
74.64810 400.000
74.66805 443.000
74.68800 411.000
74.70794 456.000
74.72789 473.000
74.74784 477.000
74.76778 458.000
74.78773 505.000
74.80768 517.000
74.82763 512.000
74.84757 549.000
74.86752 526.000
74.88747 565.000
74.90741 582.000
74.92736 635.000
74.94731 676.000
74.96725 669.000
74.98720 715.000
75.00715 746.000
75.02710 773.000
75.04704 934.000
75.06699 978.000
75.08694 1062.000
75.10688 1151.000
75.12683 1270.000
75.14678 1400.000
75.16672 1406.000
75.18667 1298.000
75.20662 1329.000
75.22657 1176.000
75.24651 1096.000
75.26646 972.000
75.28641 945.000
75.30635 942.000
75.32630 905.000
75.34625 928.000
75.36619 891.000
75.38614 882.000
75.40609 904.000
75.42603 793.000
75.44598 767.000
75.46593 649.000
75.48588 615.000
75.50582 543.000
75.52577 498.000
75.54572 455.000
75.56566 404.000
75.58561 404.000
75.60556 367.000
75.62550 388.000
75.64545 346.000
75.66540 350.000
75.68535 340.000
75.70529 332.000
75.72524 363.000
75.74519 347.000
75.76513 340.000
75.78508 305.000
75.80503 294.000
75.82497 334.000
75.84492 296.000
75.86487 294.000
75.88481 327.000
75.90476 304.000
75.92471 309.000
75.94466 279.000
75.96460 283.000
75.98455 302.000
76.00450 311.000
76.02444 335.000
76.04439 310.000
76.06434 307.000
76.08428 336.000
76.10423 307.000
76.12418 276.000
76.14413 301.000
76.16407 311.000
76.18402 306.000
76.20397 304.000
76.22391 308.000
76.24386 319.000
76.26381 304.000
76.28375 311.000
76.30370 298.000
76.32365 306.000
76.34359 318.000
76.36354 307.000
76.38349 306.000
76.40344 282.000
76.42338 298.000
76.44333 350.000
76.46328 298.000
76.48322 319.000
76.50317 327.000
76.52312 326.000
76.54306 255.000
76.56301 301.000
76.58296 328.000
76.60291 276.000
76.62285 317.000
76.64280 323.000
76.66275 329.000
76.68269 297.000
76.70264 273.000
76.72259 300.000
76.74253 313.000
76.76248 311.000
76.78243 276.000
76.80238 302.000
76.82232 315.000
76.84227 291.000
76.86222 306.000
76.88216 330.000
76.90211 301.000
76.92206 295.000
76.94200 319.000
76.96195 312.000
76.98190 314.000
77.00184 312.000
77.02179 291.000
77.04174 300.000
77.06169 297.000
77.08163 303.000
77.10158 314.000
77.12153 271.000
77.14147 299.000
77.16142 320.000
77.18137 339.000
77.20131 313.000
77.22126 273.000
77.24121 308.000
77.26116 308.000
77.28110 321.000
77.30105 287.000
77.32100 313.000
77.34094 321.000
77.36089 276.000
77.38084 313.000
77.40078 314.000
77.42073 280.000
77.44068 289.000
77.46062 279.000
77.48057 317.000
77.50052 295.000
77.52047 284.000
77.54041 273.000
77.56036 308.000
77.58031 304.000
77.60025 301.000
77.62020 285.000
77.64015 295.000
77.66009 283.000
77.68004 284.000
77.69999 318.000
77.71994 313.000
77.73988 297.000
77.75983 284.000
77.77978 303.000
77.79972 269.000
77.81967 280.000
77.83962 294.000
77.85956 281.000
77.87951 285.000
77.89946 310.000
77.91940 297.000
77.93935 304.000
77.95930 305.000
77.97925 330.000
77.99919 289.000
78.01914 290.000
78.03909 328.000
78.05903 293.000
78.07898 301.000
78.09893 289.000
78.11887 263.000
78.13882 277.000
78.15877 307.000
78.17872 298.000
78.19866 303.000
78.21861 332.000
78.23856 297.000
78.25850 294.000
78.27845 288.000
78.29840 290.000
78.31834 287.000
78.33829 294.000
78.35824 290.000
78.37819 332.000
78.39813 319.000
78.41808 353.000
78.43803 294.000
78.45797 318.000
78.47792 334.000
78.49787 317.000
78.51781 348.000
78.53776 337.000
78.55771 339.000
78.57765 332.000
78.59760 366.000
78.61755 362.000
78.63750 386.000
78.65744 403.000
78.67739 407.000
78.69734 409.000
78.71728 441.000
78.73723 417.000
78.75718 418.000
78.77712 451.000
78.79707 464.000
78.81702 454.000
78.83697 479.000
78.85691 488.000
78.87686 488.000
78.89681 494.000
78.91675 574.000
78.93670 548.000
78.95665 548.000
78.97659 568.000
78.99654 636.000
79.01649 656.000
79.03643 734.000
79.05638 794.000
79.07633 904.000
79.09628 912.000
79.11622 967.000
79.13617 1078.000
79.15612 1040.000
79.17606 984.000
79.19601 943.000
79.21596 876.000
79.23590 795.000
79.25585 782.000
79.27580 840.000
79.29575 816.000
79.31569 754.000
79.33564 788.000
79.35559 773.000
79.37553 771.000
79.39548 766.000
79.41543 690.000
79.43537 636.000
79.45532 562.000
79.47527 559.000
79.49521 554.000
79.51516 485.000
79.53511 476.000
79.55506 439.000
79.57500 433.000
79.59495 351.000
79.61490 359.000
79.63484 387.000
79.65479 349.000
79.67474 357.000
79.69468 324.000
79.71463 387.000
79.73458 322.000
79.75453 331.000
79.77447 325.000
79.79442 349.000
79.81437 321.000
79.83431 323.000
79.85426 294.000
79.87421 333.000
79.89415 314.000
79.91410 311.000
79.93405 323.000
79.95399 318.000
79.97394 333.000
79.99389 317.000
80.01384 300.000
80.03378 335.000
80.05373 298.000
80.07368 291.000
80.09362 295.000
80.11357 309.000
80.13352 302.000
80.15346 312.000
80.17341 333.000
80.19336 300.000
80.21331 318.000
80.23325 306.000
80.25320 305.000
80.27315 299.000
80.29309 282.000
80.31304 288.000
80.33299 296.000
80.35293 314.000
80.37288 268.000
80.39283 289.000
80.41278 274.000
80.43272 311.000
80.45267 306.000
80.47262 318.000
80.49256 326.000
80.51251 322.000
80.53246 255.000
80.55240 260.000
80.57235 327.000
80.59230 303.000
80.61224 308.000
80.63219 315.000
80.65214 294.000
80.67209 301.000
80.69203 275.000
80.71198 298.000
80.73193 302.000
80.75187 318.000
80.77182 285.000
80.79177 324.000
80.81171 299.000
80.83166 287.000
80.85161 303.000
80.87156 297.000
80.89150 276.000
80.91145 292.000
80.93140 300.000
80.95134 327.000
80.97129 304.000
80.99124 273.000
81.01118 284.000
81.03113 301.000
81.05108 323.000
81.07102 282.000
81.09097 300.000
81.11092 305.000
81.13087 292.000
81.15081 292.000
81.17076 297.000
81.19071 276.000
81.21065 288.000
81.23060 304.000
81.25055 305.000
81.27049 299.000
81.29044 316.000
81.31039 283.000
81.33034 312.000
81.35028 300.000
81.37023 300.000
81.39018 257.000
81.41012 281.000
81.43007 290.000
81.45002 305.000
81.46996 275.000
81.48991 274.000
81.50986 275.000
81.52980 285.000
81.54975 288.000
81.56970 313.000
81.58965 261.000
81.60959 305.000
81.62954 285.000
81.64949 309.000
81.66943 308.000
81.68938 310.000
81.70933 318.000
81.72927 310.000
81.74922 271.000
81.76917 296.000
81.78912 325.000
81.80906 293.000
81.82901 303.000
81.84896 313.000
81.86890 305.000
81.88885 256.000
81.90880 308.000
81.92874 295.000
81.94869 311.000
81.96864 273.000
81.98859 296.000
82.00853 310.000
82.02848 295.000
82.04843 279.000
82.06837 309.000
82.08832 264.000
82.10827 305.000
82.12821 302.000
82.14816 304.000
82.16811 319.000
82.18805 287.000
82.20800 277.000
82.22795 264.000
82.24790 269.000
82.26784 300.000
82.28779 292.000
82.30774 277.000
82.32768 259.000
82.34763 311.000
82.36758 310.000
82.38752 281.000
82.40747 265.000
82.42742 267.000
82.44737 295.000
82.46731 302.000
82.48726 306.000
82.50721 303.000
82.52715 309.000
82.54710 278.000
82.56705 300.000
82.58699 258.000
82.60694 286.000
82.62689 299.000
82.64683 311.000
82.66678 323.000
82.68673 284.000
82.70668 300.000
82.72662 257.000
82.74657 263.000
82.76652 257.000
82.78646 277.000
82.80641 273.000
82.82636 315.000
82.84630 307.000
82.86625 290.000
82.88620 300.000
82.90615 284.000
82.92609 307.000
82.94604 281.000
82.96599 307.000
82.98593 293.000
83.00588 295.000
83.02583 300.000
83.04577 305.000
83.06572 282.000
83.08567 302.000
83.10561 297.000
83.12556 262.000
83.14551 291.000
83.16546 301.000
83.18540 263.000
83.20535 279.000
83.22530 279.000
83.24524 294.000
83.26519 324.000
83.28514 307.000
83.30508 270.000
83.32503 296.000
83.34498 304.000
83.36493 312.000
83.38487 302.000
83.40482 241.000
83.42477 292.000
83.44471 265.000
83.46466 258.000
83.48461 314.000
83.50455 267.000
83.52450 259.000
83.54445 282.000
83.56440 321.000
83.58434 278.000
83.60429 276.000
83.62424 283.000
83.64418 283.000
83.66413 283.000
83.68408 285.000
83.70402 311.000
83.72397 293.000
83.74392 318.000
83.76386 323.000
83.78381 300.000
83.80376 304.000
83.82371 287.000
83.84365 289.000
83.86360 351.000
83.88355 294.000
83.90349 301.000
83.92344 306.000
83.94339 295.000
83.96333 289.000
83.98328 301.000
84.00323 303.000
84.02318 281.000
84.04312 318.000
84.06307 271.000
84.08302 250.000
84.10296 285.000
84.12291 266.000
84.14286 285.000
84.16280 253.000
84.18275 256.000
84.20270 275.000
84.22264 318.000
84.24259 305.000
84.26254 284.000
84.28249 274.000
84.30243 273.000
84.32238 310.000
84.34233 313.000
84.36227 262.000
84.38222 284.000
84.40217 299.000
84.42211 273.000
84.44206 302.000
84.46201 294.000
84.48196 287.000
84.50190 258.000
84.52185 281.000
84.54180 287.000
84.56174 286.000
84.58169 286.000
84.60164 284.000
84.62158 307.000
84.64153 296.000
84.66148 292.000
84.68142 268.000
84.70137 283.000
84.72132 270.000
84.74127 304.000
84.76121 288.000
84.78116 272.000
84.80111 275.000
84.82105 310.000
84.84100 266.000
84.86095 300.000
84.88089 294.000
84.90084 282.000
84.92079 280.000
84.94074 291.000
84.96068 262.000
84.98063 252.000
85.00058 261.000
85.02052 302.000
85.04047 292.000
85.06042 291.000
85.08036 291.000
85.10031 301.000
85.12026 321.000
85.14021 266.000
85.16015 286.000
85.18010 283.000
85.20005 293.000
85.21999 289.000
85.23994 275.000
85.25989 286.000
85.27983 283.000
85.29978 272.000
85.31973 278.000
85.33967 289.000
85.35962 283.000
85.37957 275.000
85.39952 295.000
85.41946 261.000
85.43941 280.000
85.45936 266.000
85.47930 290.000
85.49925 312.000
85.51920 281.000
85.53914 286.000
85.55909 308.000
85.57904 270.000
85.59899 277.000
85.61893 290.000
85.63888 281.000
85.65883 275.000
85.67877 295.000
85.69872 253.000
85.71867 306.000
85.73861 261.000
85.75856 256.000
85.77851 273.000
85.79845 265.000
85.81840 305.000
85.83835 298.000
85.85830 272.000
85.87824 272.000
85.89819 304.000
85.91814 326.000
85.93808 301.000
85.95803 280.000
85.97798 319.000
85.99792 250.000
86.01787 299.000
86.03782 286.000
86.05777 284.000
86.07771 259.000
86.09766 276.000
86.11761 260.000
86.13755 301.000
86.15750 278.000
86.17745 266.000
86.19739 283.000
86.21734 284.000
86.23729 293.000
86.25723 270.000
86.27718 279.000
86.29713 282.000
86.31708 300.000
86.33702 279.000
86.35697 274.000
86.37692 265.000
86.39686 261.000
86.41681 287.000
86.43676 265.000
86.45670 272.000
86.47665 257.000
86.49660 270.000
86.51655 242.000
86.53649 334.000
86.55644 318.000
86.57639 310.000
86.59633 264.000
86.61628 276.000
86.63623 270.000
86.65617 268.000
86.67612 293.000
86.69607 294.000
86.71602 305.000
86.73596 298.000
86.75591 295.000
86.77586 277.000
86.79580 309.000
86.81575 282.000
86.83570 305.000
86.85564 267.000
86.87559 287.000
86.89554 289.000
86.91548 279.000
86.93543 276.000
86.95538 257.000
86.97533 275.000
86.99527 290.000
87.01522 291.000
87.03517 278.000
87.05511 279.000
87.07506 280.000
87.09501 305.000
87.11495 298.000
87.13490 291.000
87.15485 291.000
87.17480 270.000
87.19474 267.000
87.21469 260.000
87.23464 271.000
87.25458 281.000
87.27453 272.000
87.29448 257.000
87.31442 286.000
87.33437 303.000
87.35432 280.000
87.37426 278.000
87.39421 313.000
87.41416 271.000
87.43411 289.000
87.45405 301.000
87.47400 271.000
87.49395 302.000
87.51389 245.000
87.53384 245.000
87.55379 276.000
87.57373 278.000
87.59368 278.000
87.61363 281.000
87.63358 276.000
87.65352 319.000
87.67347 262.000
87.69342 287.000
87.71336 271.000
87.73331 278.000
87.75326 279.000
87.77320 289.000
87.79315 289.000
87.81310 263.000
87.83304 272.000
87.85299 299.000
87.87294 287.000
87.89289 279.000
87.91283 312.000
87.93278 311.000
87.95273 301.000
87.97267 236.000
87.99262 282.000
88.01257 265.000
88.03251 288.000
88.05246 315.000
88.07241 288.000
88.09236 263.000
88.11230 284.000
88.13225 310.000
88.15220 267.000
88.17214 299.000
88.19209 262.000
88.21204 268.000
88.23198 274.000
88.25193 280.000
88.27188 270.000
88.29183 287.000
88.31177 288.000
88.33172 294.000
88.35167 307.000
88.37161 299.000
88.39156 265.000
88.41151 292.000
88.43145 290.000
88.45140 289.000
88.47135 278.000
88.49129 280.000
88.51124 314.000
88.53119 288.000
88.55114 272.000
88.57108 321.000
88.59103 237.000
88.61098 290.000
88.63092 304.000
88.65087 255.000
88.67082 272.000
88.69076 277.000
88.71071 295.000
88.73066 274.000
88.75061 292.000
88.77055 257.000
88.79050 327.000
88.81045 243.000
88.83039 270.000
88.85034 303.000
88.87029 269.000
88.89023 279.000
88.91018 274.000
88.93013 273.000
88.95007 272.000
88.97002 281.000
88.98997 268.000
89.00992 260.000
89.02986 242.000
89.04981 281.000
89.06976 281.000
89.08970 250.000
89.10965 283.000
89.12960 283.000
89.14954 263.000
89.16949 290.000
89.18944 270.000
89.20939 277.000
89.22933 292.000
89.24928 270.000
89.26923 282.000
89.28917 280.000
89.30912 262.000
89.32907 286.000
89.34901 275.000
89.36896 273.000
89.38891 299.000
89.40885 307.000
89.42880 296.000
89.44875 252.000
89.46870 294.000
89.48864 290.000
89.50859 268.000
89.52854 290.000
89.54848 301.000
89.56843 258.000
89.58838 296.000
89.60832 288.000
89.62827 281.000
89.64822 281.000
89.66817 292.000
89.68811 271.000
89.70806 253.000
89.72801 292.000
89.74795 266.000
89.76790 285.000
89.78785 302.000
89.80779 307.000
89.82774 286.000
89.84769 274.000
89.86764 294.000
89.88758 266.000
89.90753 307.000
89.92748 267.000
89.94742 295.000
89.96737 279.000
89.98732 282.000
90.00726 297.000
