10.00000 91.000
10.01995 92.000
10.03989 80.000
10.05984 82.000
10.07979 84.000
10.09973 90.000
10.11968 92.000
10.13963 79.000
10.15958 84.000
10.17952 86.000
10.19947 73.000
10.21942 88.000
10.23936 81.000
10.25931 86.000
10.27926 91.000
10.29920 89.000
10.31915 84.000
10.33910 87.000
10.35905 80.000
10.37899 90.000
10.39894 91.000
10.41889 86.000
10.43883 83.000
10.45878 78.000
10.47873 85.000
10.49867 71.000
10.51862 77.000
10.53857 71.000
10.55851 95.000
10.57846 91.000
10.59841 92.000
10.61836 98.000
10.63830 102.000
10.65825 89.000
10.67820 102.000
10.69814 95.000
10.71809 94.000
10.73804 83.000
10.75798 82.000
10.77793 87.000
10.79788 88.000
10.81783 87.000
10.83777 93.000
10.85772 99.000
10.87767 86.000
10.89761 102.000
10.91756 100.000
10.93751 89.000
10.95745 86.000
10.97740 87.000
10.99735 102.000
11.01730 94.000
11.03724 96.000
11.05719 90.000
11.07714 95.000
11.09708 93.000
11.11703 98.000
11.13698 85.000
11.15692 95.000
11.17687 91.000
11.19682 91.000
11.21676 95.000
11.23671 108.000
11.25666 104.000
11.27661 108.000
11.29655 113.000
11.31650 99.000
11.33645 93.000
11.35639 81.000
11.37634 87.000
11.39629 95.000
11.41623 98.000
11.43618 89.000
11.45613 105.000
11.47608 94.000
11.49602 98.000
11.51597 88.000
11.53592 102.000
11.55586 90.000
11.57581 98.000
11.59576 113.000
11.61570 97.000
11.63565 92.000
11.65560 103.000
11.67554 93.000
11.69549 97.000
11.71544 110.000
11.73539 90.000
11.75533 103.000
11.77528 102.000
11.79523 101.000
11.81517 108.000
11.83512 99.000
11.85507 98.000
11.87501 75.000
11.89496 109.000
11.91491 91.000
11.93486 87.000
11.95480 100.000
11.97475 120.000
11.99470 94.000
12.01464 95.000
12.03459 115.000
12.05454 114.000
12.07448 116.000
12.09443 100.000
12.11438 99.000
12.13432 94.000
12.15427 84.000
12.17422 92.000
12.19417 88.000
12.21411 97.000
12.23406 124.000
12.25401 104.000
12.27395 93.000
12.29390 108.000
12.31385 111.000
12.33379 98.000
12.35374 97.000
12.37369 108.000
12.39364 116.000
12.41358 75.000
12.43353 115.000
12.45348 104.000
12.47342 119.000
12.49337 107.000
12.51332 119.000
12.53326 92.000
12.55321 98.000
12.57316 118.000
12.59311 93.000
12.61305 96.000
12.63300 103.000
12.65295 102.000
12.67289 137.000
12.69284 96.000
12.71279 107.000
12.73273 103.000
12.75268 98.000
12.77263 78.000
12.79257 100.000
12.81252 108.000
12.83247 91.000
12.85242 109.000
12.87236 93.000
12.89231 110.000
12.91226 120.000
12.93220 109.000
12.95215 129.000
12.97210 108.000
12.99204 119.000
13.01199 120.000
13.03194 83.000
13.05189 102.000
13.07183 101.000
13.09178 103.000
13.11173 88.000
13.13167 106.000
13.15162 105.000
13.17157 123.000
13.19151 112.000
13.21146 114.000
13.23141 100.000
13.25135 107.000
13.27130 98.000
13.29125 122.000
13.31120 121.000
13.33114 109.000
13.35109 103.000
13.37104 122.000
13.39098 101.000
13.41093 94.000
13.43088 110.000
13.45082 103.000
13.47077 94.000
13.49072 109.000
13.51067 103.000
13.53061 115.000
13.55056 116.000
13.57051 120.000
13.59045 113.000
13.61040 97.000
13.63035 109.000
13.65029 109.000
13.67024 101.000
13.69019 122.000
13.71013 113.000
13.73008 131.000
13.75003 124.000
13.76998 102.000
13.78992 103.000
13.80987 113.000
13.82982 104.000
13.84976 100.000
13.86971 85.000
13.88966 98.000
13.90960 104.000
13.92955 114.000
13.94950 146.000
13.96945 129.000
13.98939 118.000
14.00934 97.000
14.02929 109.000
14.04923 116.000
14.06918 116.000
14.08913 135.000
14.10907 107.000
14.12902 119.000
14.14897 106.000
14.16892 127.000
14.18886 135.000
14.20881 114.000
14.22876 110.000
14.24870 124.000
14.26865 124.000
14.28860 114.000
14.30854 125.000
14.32849 122.000
14.34844 132.000
14.36838 116.000
14.38833 105.000
14.40828 149.000
14.42823 130.000
14.44817 131.000
14.46812 127.000
14.48807 123.000
14.50801 112.000
14.52796 122.000
14.54791 116.000
14.56785 129.000
14.58780 144.000
14.60775 141.000
14.62770 135.000
14.64764 123.000
14.66759 107.000
14.68754 132.000
14.70748 153.000
14.72743 103.000
14.74738 123.000
14.76732 133.000
14.78727 137.000
14.80722 130.000
14.82716 114.000
14.84711 140.000
14.86706 118.000
14.88701 126.000
14.90695 118.000
14.92690 118.000
14.94685 116.000
14.96679 127.000
14.98674 133.000
15.00669 114.000
15.02663 128.000
15.04658 150.000
15.06653 126.000
15.08648 121.000
15.10642 149.000
15.12637 123.000
15.14632 135.000
15.16626 127.000
15.18621 116.000
15.20616 118.000
15.22610 120.000
15.24605 150.000
15.26600 132.000
15.28594 143.000
15.30589 157.000
15.32584 148.000
15.34579 135.000
15.36573 125.000
15.38568 137.000
15.40563 136.000
15.42557 132.000
15.44552 151.000
15.46547 142.000
15.48541 121.000
15.50536 147.000
15.52531 136.000
15.54526 155.000
15.56520 137.000
15.58515 148.000
15.60510 113.000
15.62504 154.000
15.64499 127.000
15.66494 149.000
15.68488 132.000
15.70483 145.000
15.72478 147.000
15.74472 130.000
15.76467 173.000
15.78462 179.000
15.80457 165.000
15.82451 151.000
15.84446 152.000
15.86441 167.000
15.88435 136.000
15.90430 162.000
15.92425 158.000
15.94419 162.000
15.96414 143.000
15.98409 160.000
16.00404 171.000
16.02398 172.000
16.04393 154.000
16.06388 174.000
16.08382 158.000
16.10377 170.000
16.12372 178.000
16.14366 150.000
16.16361 163.000
16.18356 149.000
16.20351 162.000
16.22345 167.000
16.24340 172.000
16.26335 173.000
16.28329 159.000
16.30324 172.000
16.32319 165.000
16.34313 169.000
16.36308 165.000
16.38303 179.000
16.40297 181.000
16.42292 157.000
16.44287 162.000
16.46282 157.000
16.48276 166.000
16.50271 178.000
16.52266 178.000
16.54260 198.000
16.56255 158.000
16.58250 192.000
16.60244 191.000
16.62239 194.000
16.64234 186.000
16.66229 181.000
16.68223 200.000
16.70218 190.000
16.72213 194.000
16.74207 171.000
16.76202 166.000
16.78197 196.000
16.80191 176.000
16.82186 219.000
16.84181 210.000
16.86175 189.000
16.88170 202.000
16.90165 199.000
16.92160 199.000
16.94154 212.000
16.96149 210.000
16.98144 199.000
17.00138 226.000
17.02133 230.000
17.04128 186.000
17.06122 221.000
17.08117 243.000
17.10112 213.000
17.12107 204.000
17.14101 222.000
17.16096 211.000
17.18091 235.000
17.20085 237.000
17.22080 231.000
17.24075 234.000
17.26069 211.000
17.28064 240.000
17.30059 224.000
17.32053 238.000
17.34048 232.000
17.36043 263.000
17.38038 254.000
17.40032 223.000
17.42027 248.000
17.44022 249.000
17.46016 241.000
17.48011 240.000
17.50006 251.000
17.52000 248.000
17.53995 241.000
17.55990 249.000
17.57985 256.000
17.59979 261.000
17.61974 237.000
17.63969 253.000
17.65963 279.000
17.67958 229.000
17.69953 281.000
17.71947 249.000
17.73942 252.000
17.75937 271.000
17.77932 268.000
17.79926 266.000
17.81921 289.000
17.83916 294.000
17.85910 287.000
17.87905 275.000
17.89900 299.000
17.91894 310.000
17.93889 288.000
17.95884 261.000
17.97878 285.000
17.99873 308.000
18.01868 281.000
18.03863 320.000
18.05857 327.000
18.07852 300.000
18.09847 300.000
18.11841 302.000
18.13836 312.000
18.15831 290.000
18.17825 278.000
18.19820 309.000
18.21815 266.000
18.23810 291.000
18.25804 293.000
18.27799 304.000
18.29794 317.000
18.31788 292.000
18.33783 319.000
18.35778 277.000
18.37772 297.000
18.39767 326.000
18.41762 281.000
18.43756 323.000
18.45751 314.000
18.47746 318.000
18.49741 313.000
18.51735 307.000
18.53730 297.000
18.55725 302.000
18.57719 350.000
18.59714 340.000
18.61709 321.000
18.63703 346.000
18.65698 333.000
18.67693 324.000
18.69688 330.000
18.71682 351.000
18.73677 341.000
18.75672 347.000
18.77666 376.000
18.79661 352.000
18.81656 355.000
18.83650 344.000
18.85645 356.000
18.87640 340.000
18.89634 330.000
18.91629 348.000
18.93624 362.000
18.95619 343.000
18.97613 342.000
18.99608 375.000
19.01603 355.000
19.03597 367.000
19.05592 383.000
19.07587 336.000
19.09581 358.000
19.11576 370.000
19.13571 348.000
19.15566 376.000
19.17560 424.000
19.19555 366.000
19.21550 368.000
19.23544 398.000
19.25539 363.000
19.27534 366.000
19.29528 411.000
19.31523 404.000
19.33518 380.000
19.35513 394.000
19.37507 358.000
19.39502 351.000
19.41497 403.000
19.43491 415.000
19.45486 391.000
19.47481 374.000
19.49475 395.000
19.51470 355.000
19.53465 401.000
19.55459 389.000
19.57454 374.000
19.59449 397.000
19.61444 357.000
19.63438 390.000
19.65433 407.000
19.67428 418.000
19.69422 379.000
19.71417 417.000
19.73412 449.000
19.75406 452.000
19.77401 420.000
19.79396 379.000
19.81391 372.000
19.83385 434.000
19.85380 425.000
19.87375 409.000
19.89369 378.000
19.91364 397.000
19.93359 431.000
19.95353 402.000
19.97348 416.000
19.99343 459.000
20.01337 443.000
20.03332 417.000
20.05327 394.000
20.07322 436.000
20.09316 455.000
20.11311 389.000
20.13306 425.000
20.15300 405.000
20.17295 421.000
20.19290 433.000
20.21284 441.000
20.23279 416.000
20.25274 438.000
20.27269 379.000
20.29263 435.000
20.31258 416.000
20.33253 421.000
20.35247 445.000
20.37242 440.000
20.39237 416.000
20.41231 414.000
20.43226 463.000
20.45221 366.000
20.47215 461.000
20.49210 442.000
20.51205 460.000
20.53200 427.000
20.55194 444.000
20.57189 449.000
20.59184 467.000
20.61178 426.000
20.63173 462.000
20.65168 475.000
20.67162 478.000
20.69157 435.000
20.71152 481.000
20.73147 430.000
20.75141 454.000
20.77136 438.000
20.79131 460.000
20.81125 440.000
20.83120 471.000
20.85115 480.000
20.87109 449.000
20.89104 492.000
20.91099 475.000
20.93094 463.000
20.95088 462.000
20.97083 478.000
20.99078 489.000
21.01072 497.000
21.03067 493.000
21.05062 428.000
21.07056 462.000
21.09051 440.000
21.11046 479.000
21.13040 474.000
21.15035 464.000
21.17030 465.000
21.19025 515.000
21.21019 478.000
21.23014 453.000
21.25009 490.000
21.27003 460.000
21.28998 458.000
21.30993 472.000
21.32987 510.000
21.34982 466.000
21.36977 449.000
21.38972 522.000
21.40966 492.000
21.42961 475.000
21.44956 495.000
21.46950 527.000
21.48945 469.000
21.50940 466.000
21.52934 502.000
21.54929 478.000
21.56924 491.000
21.58918 520.000
21.60913 479.000
21.62908 486.000
21.64903 483.000
21.66897 484.000
21.68892 485.000
21.70887 500.000
21.72881 508.000
21.74876 552.000
21.76871 493.000
21.78865 519.000
21.80860 534.000
21.82855 475.000
21.84850 503.000
21.86844 503.000
21.88839 479.000
21.90834 505.000
21.92828 465.000
21.94823 484.000
21.96818 487.000
21.98812 529.000
22.00807 478.000
22.02802 500.000
22.04796 514.000
22.06791 513.000
22.08786 550.000
22.10781 527.000
22.12775 509.000
22.14770 459.000
22.16765 516.000
22.18759 532.000
22.20754 576.000
22.22749 532.000
22.24743 521.000
22.26738 512.000
22.28733 532.000
22.30728 533.000
22.32722 546.000
22.34717 512.000
22.36712 557.000
22.38706 572.000
22.40701 586.000
22.42696 520.000
22.44690 545.000
22.46685 554.000
22.48680 534.000
22.50675 567.000
22.52669 538.000
22.54664 529.000
22.56659 538.000
22.58653 613.000
22.60648 541.000
22.62643 526.000
22.64637 541.000
22.66632 577.000
22.68627 558.000
22.70621 587.000
22.72616 551.000
22.74611 546.000
22.76606 542.000
22.78600 593.000
22.80595 558.000
22.82590 517.000
22.84584 592.000
22.86579 540.000
22.88574 547.000
22.90568 541.000
22.92563 582.000
22.94558 554.000
22.96553 565.000
22.98547 559.000
23.00542 543.000
23.02537 602.000
23.04531 563.000
23.06526 558.000
23.08521 569.000
23.10515 565.000
23.12510 556.000
23.14505 565.000
23.16499 613.000
23.18494 558.000
23.20489 555.000
23.22484 548.000
23.24478 578.000
23.26473 580.000
23.28468 614.000
23.30462 591.000
23.32457 611.000
23.34452 593.000
23.36446 595.000
23.38441 570.000
23.40436 573.000
23.42431 550.000
23.44425 593.000
23.46420 598.000
23.48415 559.000
23.50409 610.000
23.52404 577.000
23.54399 553.000
23.56393 593.000
23.58388 658.000
23.60383 605.000
23.62377 611.000
23.64372 587.000
23.66367 600.000
23.68362 586.000
23.70356 606.000
23.72351 636.000
23.74346 615.000
23.76340 625.000
23.78335 628.000
23.80330 616.000
23.82324 636.000
23.84319 617.000
23.86314 622.000
23.88309 637.000
23.90303 623.000
23.92298 662.000
23.94293 647.000
23.96287 638.000
23.98282 633.000
24.00277 638.000
24.02271 664.000
24.04266 604.000
24.06261 613.000
24.08256 660.000
24.10250 685.000
24.12245 630.000
24.14240 641.000
24.16234 672.000
24.18229 676.000
24.20224 638.000
24.22218 664.000
24.24213 696.000
24.26208 661.000
24.28202 694.000
24.30197 657.000
24.32192 665.000
24.34187 678.000
24.36181 667.000
24.38176 636.000
24.40171 636.000
24.42165 675.000
24.44160 632.000
24.46155 655.000
24.48149 655.000
24.50144 609.000
24.52139 645.000
24.54134 737.000
24.56128 679.000
24.58123 679.000
24.60118 661.000
24.62112 708.000
24.64107 717.000
24.66102 711.000
24.68096 692.000
24.70091 693.000
24.72086 665.000
24.74080 721.000
24.76075 673.000
24.78070 714.000
24.80065 682.000
24.82059 686.000
24.84054 692.000
24.86049 692.000
24.88043 706.000
24.90038 664.000
24.92033 738.000
24.94027 710.000
24.96022 685.000
24.98017 759.000
25.00012 698.000
25.02006 731.000
25.04001 743.000
25.05996 758.000
25.07990 788.000
25.09985 776.000
25.11980 710.000
25.13974 735.000
25.15969 722.000
25.17964 801.000
25.19958 735.000
25.21953 780.000
25.23948 732.000
25.25943 756.000
25.27937 768.000
25.29932 784.000
25.31927 718.000
25.33921 754.000
25.35916 724.000
25.37911 820.000
25.39905 779.000
25.41900 756.000
25.43895 724.000
25.45890 753.000
25.47884 759.000
25.49879 756.000
25.51874 801.000
25.53868 783.000
25.55863 830.000
25.57858 745.000
25.59852 777.000
25.61847 789.000
25.63842 808.000
25.65837 789.000
25.67831 813.000
25.69826 847.000
25.71821 758.000
25.73815 807.000
25.75810 821.000
25.77805 832.000
25.79799 814.000
25.81794 803.000
25.83789 842.000
25.85783 859.000
25.87778 810.000
25.89773 803.000
25.91768 859.000
25.93762 863.000
25.95757 865.000
25.97752 817.000
25.99746 866.000
26.01741 840.000
26.03736 895.000
26.05730 885.000
26.07725 856.000
26.09720 824.000
26.11715 875.000
26.13709 871.000
26.15704 912.000
26.17699 863.000
26.19693 903.000
26.21688 878.000
26.23683 897.000
26.25677 842.000
26.27672 864.000
26.29667 834.000
26.31661 875.000
26.33656 907.000
26.35651 875.000
26.37646 910.000
26.39640 865.000
26.41635 828.000
26.43630 867.000
26.45624 929.000
26.47619 903.000
26.49614 943.000
26.51608 936.000
26.53603 897.000
26.55598 913.000
26.57593 920.000
26.59587 898.000
26.61582 931.000
26.63577 919.000
26.65571 945.000
26.67566 1006.000
26.69561 952.000
26.71555 894.000
26.73550 973.000
26.75545 906.000
26.77539 937.000
26.79534 959.000
26.81529 959.000
26.83524 990.000
26.85518 986.000
26.87513 957.000
26.89508 1006.000
26.91502 953.000
26.93497 1000.000
26.95492 933.000
26.97486 944.000
26.99481 967.000
27.01476 942.000
27.03471 1040.000
27.05465 955.000
27.07460 1003.000
27.09455 988.000
27.11449 1022.000
27.13444 986.000
27.15439 1006.000
27.17433 963.000
27.19428 1034.000
27.21423 915.000
27.23417 946.000
27.25412 999.000
27.27407 995.000
27.29402 1023.000
27.31396 984.000
27.33391 1029.000
27.35386 1050.000
27.37380 994.000
27.39375 1050.000
27.41370 1063.000
27.43364 1053.000
27.45359 1007.000
27.47354 1035.000
27.49349 967.000
27.51343 1056.000
27.53338 1044.000
27.55333 1075.000
27.57327 1026.000
27.59322 1148.000
27.61317 987.000
27.63311 1020.000
27.65306 1076.000
27.67301 1087.000
27.69296 1053.000
27.71290 1095.000
27.73285 1103.000
27.75280 1119.000
27.77274 1060.000
27.79269 1070.000
27.81264 1046.000
27.83258 1039.000
27.85253 1076.000
27.87248 1064.000
27.89242 1071.000
27.91237 1015.000
27.93232 1020.000
27.95227 1061.000
27.97221 1054.000
27.99216 1040.000
28.01211 1078.000
28.03205 1126.000
28.05200 1064.000
28.07195 1080.000
28.09189 1052.000
28.11184 1075.000
28.13179 1155.000
28.15174 1134.000
28.17168 1093.000
28.19163 1063.000
28.21158 1064.000
28.23152 1115.000
28.25147 1078.000
28.27142 1159.000
28.29136 1135.000
28.31131 1092.000
28.33126 1072.000
28.35120 1120.000
28.37115 1132.000
28.39110 1006.000
28.41105 1068.000
28.43099 1111.000
28.45094 1142.000
28.47089 1064.000
28.49083 1076.000
28.51078 1067.000
28.53073 1113.000
28.55067 1167.000
28.57062 1054.000
28.59057 1140.000
28.61052 1125.000
28.63046 1081.000
28.65041 1153.000
28.67036 1111.000
28.69030 1172.000
28.71025 1120.000
28.73020 1099.000
28.75014 1150.000
28.77009 1158.000
28.79004 1113.000
28.80998 1123.000
28.82993 1065.000
28.84988 1088.000
28.86983 1102.000
28.88977 1154.000
28.90972 1065.000
28.92967 1092.000
28.94961 1134.000
28.96956 1140.000
28.98951 1117.000
29.00945 1144.000
29.02940 1129.000
29.04935 1126.000
29.06930 1153.000
29.08924 1158.000
29.10919 1104.000
29.12914 1161.000
29.14908 1129.000
29.16903 1110.000
29.18898 1077.000
29.20892 1125.000
29.22887 1111.000
29.24882 1137.000
29.26877 1109.000
29.28871 1172.000
29.30866 1139.000
29.32861 1128.000
29.34855 1202.000
29.36850 1126.000
29.38845 1201.000
29.40839 1150.000
29.42834 1200.000
29.44829 1148.000
29.46823 1196.000
29.48818 1103.000
29.50813 1175.000
29.52808 1172.000
29.54802 1183.000
29.56797 1222.000
29.58792 1093.000
29.60786 1178.000
29.62781 1189.000
29.64776 1153.000
29.66770 1214.000
29.68765 1244.000
29.70760 1216.000
29.72755 1238.000
29.74749 1262.000
29.76744 1272.000
29.78739 1280.000
29.80733 1261.000
29.82728 1320.000
29.84723 1313.000
29.86717 1415.000
29.88712 1355.000
29.90707 1379.000
29.92701 1325.000
29.94696 1308.000
29.96691 1241.000
29.98686 1212.000
30.00680 1272.000
30.02675 1254.000
30.04670 1270.000
30.06664 1232.000
30.08659 1141.000
30.10654 1208.000
30.12648 1138.000
30.14643 1172.000
30.16638 1171.000
30.18633 1141.000
30.20627 1190.000
30.22622 1149.000
30.24617 1168.000
30.26611 1129.000
30.28606 1195.000
30.30601 1197.000
30.32595 1160.000
30.34590 1100.000
30.36585 1176.000
30.38579 1115.000
30.40574 1145.000
30.42569 1131.000
30.44564 1107.000
30.46558 1084.000
30.48553 1150.000
30.50548 1161.000
30.52542 1114.000
30.54537 1169.000
30.56532 1130.000
30.58526 1136.000
30.60521 1161.000
30.62516 1080.000
30.64511 1056.000
30.66505 1139.000
30.68500 1154.000
30.70495 1116.000
30.72489 1115.000
30.74484 1048.000
30.76479 1054.000
30.78473 1104.000
30.80468 1092.000
30.82463 1096.000
30.84458 1153.000
30.86452 1102.000
30.88447 1146.000
30.90442 1102.000
30.92436 1107.000
30.94431 1081.000
30.96426 1099.000
30.98420 1147.000
31.00415 1116.000
31.02410 1124.000
31.04404 1101.000
31.06399 1092.000
31.08394 1151.000
31.10389 1113.000
31.12383 1103.000
31.14378 1106.000
31.16373 1126.000
31.18367 1139.000
31.20362 1106.000
31.22357 1076.000
31.24351 1064.000
31.26346 1030.000
31.28341 1095.000
31.30336 1085.000
31.32330 1052.000
31.34325 1011.000
31.36320 1074.000
31.38314 1075.000
31.40309 1123.000
31.42304 1060.000
31.44298 1056.000
31.46293 1119.000
31.48288 1045.000
31.50282 1053.000
31.52277 1040.000
31.54272 1129.000
31.56267 1033.000
31.58261 1050.000
31.60256 1030.000
31.62251 1077.000
31.64245 1053.000
31.66240 1049.000
31.68235 1092.000
31.70229 1092.000
31.72224 1061.000
31.74219 1026.000
31.76214 1038.000
31.78208 1093.000
31.80203 1066.000
31.82198 1031.000
31.84192 1082.000
31.86187 1023.000
31.88182 1039.000
31.90176 998.000
31.92171 1004.000
31.94166 1037.000
31.96160 1010.000
31.98155 1068.000
32.00150 1021.000
32.02145 1026.000
32.04139 1028.000
32.06134 1011.000
32.08129 1077.000
32.10123 1021.000
32.12118 1004.000
32.14113 1106.000
32.16107 1026.000
32.18102 1051.000
32.20097 1003.000
32.22092 1033.000
32.24086 1032.000
32.26081 1012.000
32.28076 1000.000
32.30070 971.000
32.32065 1009.000
32.34060 998.000
32.36054 999.000
32.38049 1024.000
32.40044 958.000
32.42039 1025.000
32.44033 979.000
32.46028 966.000
32.48023 976.000
32.50017 965.000
32.52012 956.000
32.54007 998.000
32.56001 1011.000
32.57996 1036.000
32.59991 965.000
32.61985 972.000
32.63980 916.000
32.65975 1014.000
32.67970 1003.000
32.69964 1020.000
32.71959 932.000
32.73954 927.000
32.75948 997.000
32.77943 983.000
32.79938 972.000
32.81932 919.000
32.83927 982.000
32.85922 988.000
32.87917 908.000
32.89911 923.000
32.91906 991.000
32.93901 958.000
32.95895 973.000
32.97890 989.000
32.99885 937.000
33.01879 954.000
33.03874 947.000
33.05869 927.000
33.07863 940.000
33.09858 926.000
33.11853 873.000
33.13848 897.000
33.15842 898.000
33.17837 938.000
33.19832 904.000
33.21826 879.000
33.23821 944.000
33.25816 859.000
33.27810 921.000
33.29805 882.000
33.31800 923.000
33.33795 944.000
33.35789 952.000
33.37784 871.000
33.39779 936.000
33.41773 940.000
33.43768 906.000
33.45763 868.000
33.47757 843.000
33.49752 907.000
33.51747 918.000
33.53741 947.000
33.55736 928.000
33.57731 861.000
33.59726 864.000
33.61720 864.000
33.63715 870.000
33.65710 898.000
33.67704 863.000
33.69699 882.000
33.71694 872.000
33.73688 912.000
33.75683 891.000
33.77678 874.000
33.79673 852.000
33.81667 928.000
33.83662 862.000
33.85657 906.000
33.87651 831.000
33.89646 839.000
33.91641 872.000
33.93635 866.000
33.95630 864.000
33.97625 906.000
33.99620 922.000
34.01614 874.000
34.03609 846.000
34.05604 875.000
34.07598 894.000
34.09593 794.000
34.11588 876.000
34.13582 851.000
34.15577 854.000
34.17572 901.000
34.19566 881.000
34.21561 867.000
34.23556 809.000
34.25551 888.000
34.27545 827.000
34.29540 804.000
34.31535 838.000
34.33529 853.000
34.35524 846.000
34.37519 846.000
34.39513 874.000
34.41508 839.000
34.43503 828.000
34.45498 859.000
34.47492 884.000
34.49487 794.000
34.51482 832.000
34.53476 826.000
34.55471 812.000
34.57466 876.000
34.59460 851.000
34.61455 852.000
34.63450 845.000
34.65444 848.000
34.67439 825.000
34.69434 847.000
34.71429 856.000
34.73423 808.000
34.75418 849.000
34.77413 809.000
34.79407 899.000
34.81402 891.000
34.83397 843.000
34.85391 922.000
34.87386 932.000
34.89381 963.000
34.91376 917.000
34.93370 985.000
34.95365 1019.000
34.97360 1091.000
34.99354 1116.000
35.01349 1133.000
35.03344 1173.000
35.05338 1312.000
35.07333 1326.000
35.09328 1388.000
35.11322 1441.000
35.13317 1477.000
35.15312 1594.000
35.17307 1616.000
35.19301 1733.000
35.21296 1669.000
35.23291 1804.000
35.25285 1711.000
35.27280 1777.000
35.29275 1843.000
35.31269 1656.000
35.33264 1708.000
35.35259 1529.000
35.37254 1442.000
35.39248 1392.000
35.41243 1304.000
35.43238 1224.000
35.45232 1087.000
35.47227 999.000
35.49222 944.000
35.51216 885.000
35.53211 904.000
35.55206 896.000
35.57201 798.000
35.59195 819.000
35.61190 860.000
35.63185 768.000
35.65179 773.000
35.67174 778.000
35.69169 783.000
35.71163 772.000
35.73158 760.000
35.75153 801.000
35.77147 763.000
35.79142 792.000
35.81137 727.000
35.83132 769.000
35.85126 749.000
35.87121 708.000
35.89116 750.000
35.91110 740.000
35.93105 787.000
35.95100 725.000
35.97094 729.000
35.99089 735.000
36.01084 730.000
36.03079 740.000
36.05073 696.000
36.07068 748.000
36.09063 727.000
36.11057 725.000
36.13052 732.000
36.15047 701.000
36.17041 739.000
36.19036 730.000
36.21031 758.000
36.23025 728.000
36.25020 745.000
36.27015 740.000
36.29010 757.000
36.31004 699.000
36.32999 725.000
36.34994 751.000
36.36988 707.000
36.38983 769.000
36.40978 738.000
36.42972 669.000
36.44967 663.000
36.46962 708.000
36.48957 753.000
36.50951 750.000
36.52946 713.000
36.54941 693.000
36.56935 663.000
36.58930 739.000
36.60925 657.000
36.62919 709.000
36.64914 716.000
36.66909 707.000
36.68903 709.000
36.70898 745.000
36.72893 743.000
36.74888 744.000
36.76882 727.000
36.78877 696.000
36.80872 762.000
36.82866 732.000
36.84861 730.000
36.86856 766.000
36.88850 773.000
36.90845 744.000
36.92840 823.000
36.94835 811.000
36.96829 789.000
36.98824 761.000
37.00819 775.000
37.02813 751.000
37.04808 731.000
37.06803 731.000
37.08797 754.000
37.10792 724.000
37.12787 741.000
37.14781 661.000
37.16776 646.000
37.18771 700.000
37.20766 703.000
37.22760 715.000
37.24755 651.000
37.26750 718.000
37.28744 669.000
37.30739 721.000
37.32734 700.000
37.34728 708.000
37.36723 680.000
37.38718 701.000
37.40713 698.000
37.42707 692.000
37.44702 671.000
37.46697 673.000
37.48691 680.000
37.50686 683.000
37.52681 694.000
37.54675 675.000
37.56670 687.000
37.58665 658.000
37.60660 693.000
37.62654 732.000
37.64649 670.000
37.66644 678.000
37.68638 718.000
37.70633 659.000
37.72628 695.000
37.74622 658.000
37.76617 672.000
37.78612 624.000
37.80606 689.000
37.82601 713.000
37.84596 710.000
37.86591 675.000
37.88585 739.000
37.90580 706.000
37.92575 772.000
37.94569 676.000
37.96564 730.000
37.98559 759.000
38.00553 710.000
38.02548 743.000
38.04543 733.000
38.06538 760.000
38.08532 757.000
38.10527 797.000
38.12522 796.000
38.14516 889.000
38.16511 856.000
38.18506 851.000
38.20500 839.000
38.22495 943.000
38.24490 964.000
38.26484 1063.000
38.28479 1072.000
38.30474 1040.000
38.32469 1060.000
38.34463 1117.000
38.36458 1013.000
38.38453 1049.000
38.40447 1014.000
38.42442 934.000
38.44437 935.000
38.46431 897.000
38.48426 791.000
38.50421 848.000
38.52416 864.000
38.54410 815.000
38.56405 803.000
38.58400 842.000
38.60394 755.000
38.62389 742.000
38.64384 753.000
38.66378 748.000
38.68373 697.000
38.70368 714.000
38.72362 697.000
38.74357 724.000
38.76352 694.000
38.78347 681.000
38.80341 671.000
38.82336 666.000
38.84331 713.000
38.86325 699.000
38.88320 714.000
38.90315 675.000
38.92309 702.000
38.94304 725.000
38.96299 707.000
38.98294 691.000
39.00288 640.000
39.02283 690.000
39.04278 696.000
39.06272 673.000
39.08267 668.000
39.10262 694.000
39.12256 684.000
39.14251 675.000
39.16246 725.000
39.18241 711.000
39.20235 644.000
39.22230 657.000
39.24225 687.000
39.26219 643.000
39.28214 657.000
39.30209 665.000
39.32203 679.000
39.34198 699.000
39.36193 656.000
39.38187 673.000
39.40182 659.000
39.42177 625.000
39.44172 646.000
39.46166 669.000
39.48161 650.000
39.50156 655.000
39.52150 656.000
39.54145 616.000
39.56140 675.000
39.58134 654.000
39.60129 664.000
39.62124 668.000
39.64119 707.000
39.66113 660.000
39.68108 644.000
39.70103 682.000
39.72097 629.000
39.74092 666.000
39.76087 649.000
39.78081 706.000
39.80076 687.000
39.82071 683.000
39.84065 698.000
39.86060 690.000
39.88055 694.000
39.90050 640.000
39.92044 711.000
39.94039 642.000
39.96034 665.000
39.98028 721.000
40.00023 636.000
40.02018 640.000
40.04012 628.000
40.06007 663.000
40.08002 660.000
40.09997 733.000
40.11991 688.000
40.13986 667.000
40.15981 685.000
40.17975 644.000
40.19970 716.000
40.21965 696.000
40.23959 650.000
40.25954 645.000
40.27949 692.000
40.29943 680.000
40.31938 630.000
40.33933 661.000
40.35928 633.000
40.37922 669.000
40.39917 669.000
40.41912 648.000
40.43906 669.000
40.45901 640.000
40.47896 705.000
40.49890 690.000
40.51885 671.000
40.53880 678.000
40.55875 698.000
40.57869 678.000
40.59864 642.000
40.61859 649.000
40.63853 677.000
40.65848 650.000
40.67843 670.000
40.69837 695.000
40.71832 630.000
40.73827 666.000
40.75822 636.000
40.77816 658.000
40.79811 675.000
40.81806 651.000
40.83800 662.000
40.85795 659.000
40.87790 649.000
40.89784 615.000
40.91779 702.000
40.93774 658.000
40.95768 652.000
40.97763 691.000
40.99758 652.000
41.01753 626.000
41.03747 646.000
41.05742 673.000
41.07737 708.000
41.09731 652.000
41.11726 652.000
41.13721 680.000
41.15715 699.000
41.17710 677.000
41.19705 614.000
41.21700 669.000
41.23694 656.000
41.25689 681.000
41.27684 643.000
41.29678 667.000
41.31673 677.000
41.33668 658.000
41.35662 676.000
41.37657 679.000
41.39652 648.000
41.41646 609.000
41.43641 662.000
41.45636 651.000
41.47631 629.000
41.49625 691.000
41.51620 651.000
41.53615 648.000
41.55609 662.000
41.57604 664.000
41.59599 660.000
41.61593 658.000
41.63588 650.000
41.65583 616.000
41.67578 657.000
41.69572 624.000
41.71567 625.000
41.73562 640.000
41.75556 644.000
41.77551 646.000
41.79546 639.000
41.81540 646.000
41.83535 655.000
41.85530 618.000
41.87524 661.000
41.89519 638.000
41.91514 644.000
41.93509 650.000
41.95503 632.000
41.97498 609.000
41.99493 615.000
42.01487 656.000
42.03482 664.000
42.05477 684.000
42.07471 637.000
42.09466 616.000
42.11461 684.000
42.13456 645.000
42.15450 665.000
42.17445 657.000
42.19440 612.000
42.21434 605.000
42.23429 634.000
42.25424 636.000
42.27418 631.000
42.29413 625.000
42.31408 629.000
42.33403 628.000
42.35397 666.000
42.37392 608.000
42.39387 600.000
42.41381 645.000
42.43376 603.000
42.45371 653.000
42.47365 602.000
42.49360 669.000
42.51355 656.000
42.53349 686.000
42.55344 638.000
42.57339 673.000
42.59334 649.000
42.61328 660.000
42.63323 646.000
42.65318 614.000
42.67312 675.000
42.69307 666.000
42.71302 646.000
42.73296 689.000
42.75291 657.000
42.77286 697.000
42.79281 671.000
42.81275 727.000
42.83270 799.000
42.85265 701.000
42.87259 733.000
42.89254 794.000
42.91249 833.000
42.93243 760.000
42.95238 804.000
42.97233 830.000
42.99227 846.000
43.01222 804.000
43.03217 782.000
43.05212 863.000
43.07206 827.000
43.09201 775.000
43.11196 775.000
43.13190 746.000
43.15185 707.000
43.17180 752.000
43.19174 725.000
43.21169 718.000
43.23164 651.000
43.25159 657.000
43.27153 686.000
43.29148 651.000
43.31143 670.000
43.33137 676.000
43.35132 598.000
43.37127 585.000
43.39121 604.000
43.41116 593.000
43.43111 617.000
43.45105 664.000
43.47100 670.000
43.49095 585.000
43.51090 597.000
43.53084 571.000
43.55079 613.000
43.57074 621.000
43.59068 594.000
43.61063 582.000
43.63058 540.000
43.65052 592.000
43.67047 615.000
43.69042 563.000
43.71037 599.000
43.73031 575.000
43.75026 590.000
43.77021 624.000
43.79015 600.000
43.81010 600.000
43.83005 604.000
43.84999 542.000
43.86994 573.000
43.88989 540.000
43.90984 617.000
43.92978 610.000
43.94973 599.000
43.96968 559.000
43.98962 521.000
44.00957 614.000
44.02952 561.000
44.04946 580.000
44.06941 545.000
44.08936 558.000
44.10930 534.000
44.12925 554.000
44.14920 610.000
44.16915 581.000
44.18909 574.000
44.20904 561.000
44.22899 581.000
44.24893 590.000
44.26888 585.000
44.28883 546.000
44.30877 529.000
44.32872 577.000
44.34867 534.000
44.36862 533.000
44.38856 580.000
44.40851 566.000
44.42846 549.000
44.44840 552.000
44.46835 578.000
44.48830 585.000
44.50824 532.000
44.52819 534.000
44.54814 585.000
44.56808 547.000
44.58803 521.000
44.60798 526.000
44.62793 569.000
44.64787 523.000
44.66782 566.000
44.68777 585.000
44.70771 510.000
44.72766 540.000
44.74761 541.000
44.76755 563.000
44.78750 513.000
44.80745 567.000
44.82740 538.000
44.84734 574.000
44.86729 552.000
44.88724 573.000
44.90718 539.000
44.92713 567.000
44.94708 500.000
44.96702 519.000
44.98697 527.000
45.00692 536.000
45.02686 542.000
45.04681 542.000
45.06676 562.000
45.08671 569.000
45.10665 542.000
45.12660 518.000
45.14655 550.000
45.16649 516.000
45.18644 529.000
45.20639 542.000
45.22633 522.000
45.24628 538.000
45.26623 493.000
45.28618 527.000
45.30612 532.000
45.32607 474.000
45.34602 547.000
45.36596 522.000
45.38591 513.000
45.40586 531.000
45.42580 501.000
45.44575 487.000
45.46570 511.000
45.48565 501.000
45.50559 528.000
45.52554 494.000
45.54549 486.000
45.56543 471.000
45.58538 500.000
45.60533 537.000
45.62527 500.000
45.64522 530.000
45.66517 517.000
45.68511 503.000
45.70506 521.000
45.72501 537.000
45.74496 530.000
45.76490 539.000
45.78485 500.000
45.80480 525.000
45.82474 503.000
45.84469 534.000
45.86464 518.000
45.88458 529.000
45.90453 502.000
45.92448 502.000
45.94443 520.000
45.96437 505.000
45.98432 474.000
46.00427 487.000
46.02421 527.000
46.04416 486.000
46.06411 506.000
46.08405 498.000
46.10400 523.000
46.12395 505.000
46.14389 496.000
46.16384 456.000
46.18379 513.000
46.20374 524.000
46.22368 483.000
46.24363 492.000
46.26358 469.000
46.28352 521.000
46.30347 520.000
46.32342 492.000
46.34336 502.000
46.36331 513.000
46.38326 463.000
46.40321 519.000
46.42315 502.000
46.44310 449.000
46.46305 504.000
46.48299 457.000
46.50294 471.000
46.52289 461.000
46.54283 453.000
46.56278 445.000
46.58273 487.000
46.60267 480.000
46.62262 497.000
46.64257 468.000
46.66252 518.000
46.68246 444.000
46.70241 500.000
46.72236 484.000
46.74230 467.000
46.76225 466.000
46.78220 486.000
46.80214 474.000
46.82209 457.000
46.84204 469.000
46.86199 501.000
46.88193 466.000
46.90188 501.000
46.92183 476.000
46.94177 465.000
46.96172 510.000
46.98167 425.000
47.00161 504.000
47.02156 488.000
47.04151 470.000
47.06146 468.000
47.08140 494.000
47.10135 488.000
47.12130 454.000
47.14124 446.000
47.16119 450.000
47.18114 497.000
47.20108 464.000
47.22103 471.000
47.24098 472.000
47.26092 517.000
47.28087 505.000
47.30082 488.000
47.32077 463.000
47.34071 487.000
47.36066 452.000
47.38061 455.000
47.40055 469.000
47.42050 473.000
47.44045 493.000
47.46039 461.000
47.48034 459.000
47.50029 455.000
47.52024 474.000
47.54018 447.000
47.56013 471.000
47.58008 420.000
47.60002 437.000
47.61997 448.000
47.63992 445.000
47.65986 442.000
47.67981 460.000
47.69976 407.000
47.71970 453.000
47.73965 454.000
47.75960 433.000
47.77955 486.000
47.79949 469.000
47.81944 443.000
47.83939 479.000
47.85933 455.000
47.87928 435.000
47.89923 456.000
47.91917 500.000
47.93912 438.000
47.95907 447.000
47.97902 460.000
47.99896 462.000
48.01891 459.000
48.03886 474.000
48.05880 469.000
48.07875 475.000
48.09870 489.000
48.11864 484.000
48.13859 470.000
48.15854 436.000
48.17848 470.000
48.19843 515.000
48.21838 442.000
48.23833 523.000
48.25827 557.000
48.27822 560.000
48.29817 552.000
48.31811 602.000
48.33806 588.000
48.35801 603.000
48.37795 574.000
48.39790 582.000
48.41785 539.000
48.43780 541.000
48.45774 569.000
48.47769 529.000
48.49764 501.000
48.51758 503.000
48.53753 520.000
48.55748 512.000
48.57742 505.000
48.59737 475.000
48.61732 440.000
48.63726 473.000
48.65721 421.000
48.67716 423.000
48.69711 424.000
48.71705 475.000
48.73700 453.000
48.75695 412.000
48.77689 436.000
48.79684 460.000
48.81679 476.000
48.83673 430.000
48.85668 438.000
48.87663 418.000
48.89658 434.000
48.91652 452.000
48.93647 433.000
48.95642 426.000
48.97636 459.000
48.99631 407.000
49.01626 448.000
49.03620 500.000
49.05615 456.000
49.07610 456.000
49.09605 455.000
49.11599 443.000
49.13594 449.000
49.15589 402.000
49.17583 447.000
49.19578 464.000
49.21573 449.000
49.23567 412.000
49.25562 404.000
49.27557 476.000
49.29551 414.000
49.31546 425.000
49.33541 437.000
49.35536 482.000
49.37530 435.000
49.39525 421.000
49.41520 440.000
49.43514 423.000
49.45509 441.000
49.47504 451.000
49.49498 436.000
49.51493 416.000
49.53488 442.000
49.55483 443.000
49.57477 409.000
49.59472 435.000
49.61467 425.000
49.63461 409.000
49.65456 452.000
49.67451 448.000
49.69445 454.000
49.71440 423.000
49.73435 476.000
49.75429 404.000
49.77424 411.000
49.79419 429.000
49.81414 426.000
49.83408 441.000
49.85403 466.000
49.87398 473.000
49.89392 415.000
49.91387 426.000
49.93382 411.000
49.95376 432.000
49.97371 367.000
49.99366 412.000
50.01361 416.000
50.03355 403.000
50.05350 432.000
50.07345 427.000
50.09339 444.000
50.11334 457.000
50.13329 424.000
50.15323 460.000
50.17318 469.000
50.19313 426.000
50.21307 405.000
50.23302 426.000
50.25297 415.000
50.27292 457.000
50.29286 452.000
50.31281 403.000
50.33276 433.000
50.35270 395.000
50.37265 433.000
50.39260 481.000
50.41254 390.000
50.43249 450.000
50.45244 427.000
50.47239 423.000
50.49233 391.000
50.51228 453.000
50.53223 417.000
50.55217 392.000
50.57212 424.000
50.59207 419.000
50.61201 419.000
50.63196 437.000
50.65191 467.000
50.67186 427.000
50.69180 426.000
50.71175 406.000
50.73170 466.000
50.75164 396.000
50.77159 405.000
50.79154 418.000
50.81148 413.000
50.83143 381.000
50.85138 394.000
50.87132 440.000
50.89127 445.000
50.91122 417.000
50.93117 444.000
50.95111 405.000
50.97106 454.000
50.99101 432.000
51.01095 420.000
51.03090 415.000
51.05085 414.000
51.07079 463.000
51.09074 411.000
51.11069 427.000
51.13064 385.000
51.15058 420.000
51.17053 406.000
51.19048 400.000
51.21042 442.000
51.23037 425.000
51.25032 407.000
51.27026 435.000
51.29021 432.000
51.31016 420.000
51.33010 419.000
51.35005 417.000
51.37000 410.000
51.38995 434.000
51.40989 405.000
51.42984 448.000
51.44979 418.000
51.46973 379.000
51.48968 397.000
51.50963 389.000
51.52957 402.000
51.54952 412.000
51.56947 448.000
51.58942 423.000
51.60936 420.000
51.62931 441.000
51.64926 404.000
51.66920 397.000
51.68915 375.000
51.70910 415.000
51.72904 398.000
51.74899 441.000
51.76894 417.000
51.78888 442.000
51.80883 391.000
51.82878 430.000
51.84873 385.000
51.86867 437.000
51.88862 423.000
51.90857 388.000
51.92851 427.000
51.94846 382.000
51.96841 401.000
51.98835 369.000
52.00830 364.000
52.02825 410.000
52.04820 421.000
52.06814 407.000
52.08809 409.000
52.10804 460.000
52.12798 405.000
52.14793 391.000
52.16788 415.000
52.18782 383.000
52.20777 381.000
52.22772 417.000
52.24767 424.000
52.26761 420.000
52.28756 409.000
52.30751 420.000
52.32745 400.000
52.34740 390.000
52.36735 397.000
52.38729 441.000
52.40724 402.000
52.42719 436.000
52.44713 398.000
52.46708 422.000
52.48703 379.000
52.50698 404.000
52.52692 438.000
52.54687 441.000
52.56682 446.000
52.58676 418.000
52.60671 412.000
52.62666 392.000
52.64660 414.000
52.66655 412.000
52.68650 406.000
52.70645 381.000
52.72639 431.000
52.74634 420.000
52.76629 413.000
52.78623 398.000
52.80618 404.000
52.82613 412.000
52.84607 402.000
52.86602 419.000
52.88597 434.000
52.90591 433.000
52.92586 412.000
52.94581 422.000
52.96576 415.000
52.98570 404.000
53.00565 413.000
53.02560 402.000
53.04554 446.000
53.06549 439.000
53.08544 393.000
53.10538 459.000
53.12533 496.000
53.14528 450.000
53.16523 473.000
53.18517 458.000
53.20512 453.000
53.22507 456.000
53.24501 462.000
53.26496 476.000
53.28491 431.000
53.30485 464.000
53.32480 493.000
53.34475 505.000
53.36469 484.000
53.38464 507.000
53.40459 558.000
53.42454 542.000
53.44448 494.000
53.46443 511.000
53.48438 539.000
53.50432 495.000
53.52427 514.000
53.54422 506.000
53.56416 453.000
53.58411 452.000
53.60406 486.000
53.62401 459.000
53.64395 455.000
53.66390 414.000
53.68385 419.000
53.70379 441.000
53.72374 442.000
53.74369 424.000
53.76363 422.000
53.78358 420.000
53.80353 432.000
53.82348 416.000
53.84342 400.000
53.86337 393.000
53.88332 422.000
53.90326 424.000
53.92321 390.000
53.94316 354.000
53.96310 425.000
53.98305 415.000
54.00300 374.000
54.02294 381.000
54.04289 410.000
54.06284 423.000
54.08279 386.000
54.10273 428.000
54.12268 427.000
54.14263 399.000
54.16257 403.000
54.18252 361.000
54.20247 414.000
54.22241 419.000
54.24236 420.000
54.26231 389.000
54.28226 414.000
54.30220 381.000
54.32215 374.000
54.34210 419.000
54.36204 427.000
54.38199 391.000
54.40194 398.000
54.42188 427.000
54.44183 395.000
54.46178 406.000
54.48172 403.000
54.50167 396.000
54.52162 389.000
54.54157 432.000
54.56151 409.000
54.58146 394.000
54.60141 361.000
54.62135 368.000
54.64130 383.000
54.66125 428.000
54.68119 441.000
54.70114 358.000
54.72109 401.000
54.74104 399.000
54.76098 364.000
54.78093 392.000
54.80088 398.000
54.82082 372.000
54.84077 395.000
54.86072 392.000
54.88066 382.000
54.90061 408.000
54.92056 374.000
54.94050 356.000
54.96045 399.000
54.98040 346.000
55.00035 409.000
55.02029 423.000
55.04024 413.000
55.06019 368.000
55.08013 360.000
55.10008 388.000
55.12003 356.000
55.13997 383.000
55.15992 382.000
55.17987 373.000
55.19982 392.000
55.21976 406.000
55.23971 390.000
55.25966 408.000
55.27960 398.000
55.29955 453.000
55.31950 394.000
55.33944 395.000
55.35939 392.000
55.37934 370.000
55.39929 379.000
55.41923 391.000
55.43918 387.000
55.45913 360.000
55.47907 401.000
55.49902 374.000
55.51897 363.000
55.53891 408.000
55.55886 404.000
55.57881 390.000
55.59875 393.000
55.61870 352.000
55.63865 385.000
55.65860 400.000
55.67854 375.000
55.69849 377.000
55.71844 398.000
55.73838 399.000
55.75833 410.000
55.77828 345.000
55.79822 395.000
55.81817 415.000
55.83812 361.000
55.85807 402.000
55.87801 392.000
55.89796 370.000
55.91791 396.000
55.93785 418.000
55.95780 384.000
55.97775 368.000
55.99769 450.000
56.01764 390.000
56.03759 378.000
56.05753 377.000
56.07748 389.000
56.09743 392.000
56.11738 380.000
56.13732 401.000
56.15727 389.000
56.17722 386.000
56.19716 412.000
56.21711 443.000
56.23706 395.000
56.25700 380.000
56.27695 432.000
56.29690 430.000
56.31685 403.000
56.33679 398.000
56.35674 378.000
56.37669 404.000
56.39663 410.000
56.41658 394.000
56.43653 408.000
56.45647 394.000
56.47642 415.000
56.49637 435.000
56.51631 419.000
56.53626 388.000
56.55621 421.000
56.57616 440.000
56.59610 413.000
56.61605 454.000
56.63600 436.000
56.65594 449.000
56.67589 429.000
56.69584 423.000
56.71578 454.000
56.73573 444.000
56.75568 497.000
56.77563 441.000
56.79557 491.000
56.81552 538.000
56.83547 522.000
56.85541 542.000
56.87536 560.000
56.89531 633.000
56.91525 674.000
56.93520 720.000
56.95515 693.000
56.97510 752.000
56.99504 771.000
57.01499 742.000
57.03494 729.000
57.05488 777.000
57.07483 772.000
57.09478 734.000
57.11472 711.000
57.13467 713.000
57.15462 678.000
57.17456 665.000
57.19451 618.000
57.21446 632.000
57.23441 555.000
57.25435 550.000
57.27430 536.000
57.29425 485.000
57.31419 455.000
57.33414 528.000
57.35409 439.000
57.37403 483.000
57.39398 450.000
57.41393 426.000
57.43388 421.000
57.45382 471.000
57.47377 413.000
57.49372 448.000
57.51366 464.000
57.53361 396.000
57.55356 410.000
57.57350 416.000
57.59345 430.000
57.61340 386.000
57.63334 409.000
57.65329 423.000
57.67324 377.000
57.69319 410.000
57.71313 413.000
57.73308 390.000
57.75303 478.000
57.77297 427.000
57.79292 435.000
57.81287 413.000
57.83281 426.000
57.85276 465.000
57.87271 454.000
57.89266 452.000
57.91260 449.000
57.93255 447.000
57.95250 468.000
57.97244 437.000
57.99239 404.000
58.01234 415.000
58.03228 433.000
58.05223 401.000
58.07218 463.000
58.09212 372.000
58.11207 388.000
58.13202 402.000
58.15197 441.000
58.17191 400.000
58.19186 377.000
58.21181 414.000
58.23175 396.000
58.25170 350.000
58.27165 382.000
58.29159 363.000
58.31154 372.000
58.33149 387.000
58.35144 377.000
58.37138 411.000
58.39133 346.000
58.41128 380.000
58.43122 434.000
58.45117 394.000
58.47112 372.000
58.49106 377.000
58.51101 350.000
58.53096 377.000
58.55090 375.000
58.57085 371.000
58.59080 338.000
58.61075 384.000
58.63069 376.000
58.65064 374.000
58.67059 367.000
58.69053 339.000
58.71048 346.000
58.73043 370.000
58.75037 363.000
58.77032 334.000
58.79027 373.000
58.81022 351.000
58.83016 374.000
58.85011 345.000
58.87006 386.000
58.89000 364.000
58.90995 378.000
58.92990 342.000
58.94984 345.000
58.96979 381.000
58.98974 374.000
59.00969 359.000
59.02963 354.000
59.04958 380.000
59.06953 400.000
59.08947 350.000
59.10942 373.000
59.12937 361.000
59.14931 370.000
59.16926 374.000
59.18921 379.000
59.20915 361.000
59.22910 340.000
59.24905 376.000
59.26900 344.000
59.28894 375.000
59.30889 368.000
59.32884 396.000
59.34878 354.000
59.36873 365.000
59.38868 373.000
59.40862 356.000
59.42857 357.000
59.44852 324.000
59.46847 369.000
59.48841 389.000
59.50836 361.000
59.52831 351.000
59.54825 351.000
59.56820 358.000
59.58815 381.000
59.60809 356.000
59.62804 366.000
59.64799 396.000
59.66793 350.000
59.68788 371.000
59.70783 369.000
59.72778 354.000
59.74772 387.000
59.76767 358.000
59.78762 383.000
59.80756 355.000
59.82751 329.000
59.84746 375.000
59.86740 368.000
59.88735 357.000
59.90730 379.000
59.92725 377.000
59.94719 350.000
59.96714 362.000
59.98709 380.000
60.00703 345.000
60.02698 358.000
60.04693 391.000
60.06687 343.000
60.08682 382.000
60.10677 358.000
60.12671 362.000
60.14666 375.000
60.16661 356.000
60.18656 364.000
60.20650 369.000
60.22645 387.000
60.24640 345.000
60.26634 372.000
60.28629 334.000
60.30624 363.000
60.32618 377.000
60.34613 380.000
60.36608 387.000
60.38603 373.000
60.40597 345.000
60.42592 379.000
60.44587 406.000
60.46581 351.000
60.48576 342.000
60.50571 362.000
60.52565 371.000
60.54560 344.000
60.56555 345.000
60.58550 373.000
60.60544 379.000
60.62539 390.000
60.64534 369.000
60.66528 388.000
60.68523 378.000
60.70518 373.000
60.72512 354.000
60.74507 363.000
60.76502 347.000
60.78496 362.000
60.80491 397.000
60.82486 397.000
60.84481 375.000
60.86475 414.000
60.88470 396.000
60.90465 394.000
60.92459 403.000
60.94454 393.000
60.96449 413.000
60.98443 373.000
61.00438 395.000
61.02433 367.000
61.04428 401.000
61.06422 452.000
61.08417 420.000
61.10412 424.000
61.12406 452.000
61.14401 432.000
61.16396 498.000
61.18390 472.000
61.20385 439.000
61.22380 460.000
61.24374 476.000
61.26369 404.000
61.28364 404.000
61.30359 433.000
61.32353 427.000
61.34348 432.000
61.36343 444.000
61.38337 460.000
61.40332 413.000
61.42327 420.000
61.44321 390.000
61.46316 338.000
61.48311 359.000
61.50306 392.000
61.52300 378.000
61.54295 361.000
61.56290 374.000
61.58284 403.000
61.60279 375.000
61.62274 372.000
61.64268 370.000
61.66263 374.000
61.68258 332.000
61.70252 404.000
61.72247 363.000
61.74242 379.000
61.76237 336.000
61.78231 381.000
61.80226 405.000
61.82221 342.000
61.84215 365.000
61.86210 362.000
61.88205 412.000
61.90199 378.000
61.92194 346.000
61.94189 355.000
61.96184 397.000
61.98178 367.000
62.00173 377.000
62.02168 393.000
62.04162 395.000
62.06157 392.000
62.08152 357.000
62.10146 426.000
62.12141 408.000
62.14136 361.000
62.16131 404.000
62.18125 406.000
62.20120 380.000
62.22115 398.000
62.24109 422.000
62.26104 444.000
62.28099 416.000
62.30093 438.000
62.32088 414.000
62.34083 417.000
62.36077 426.000
62.38072 446.000
62.40067 476.000
62.42062 474.000
62.44056 420.000
62.46051 505.000
62.48046 493.000
62.50040 515.000
62.52035 530.000
62.54030 590.000
62.56024 680.000
62.58019 696.000
62.60014 720.000
62.62009 721.000
62.64003 716.000
62.65998 788.000
62.67993 740.000
62.69987 726.000
62.71982 768.000
62.73977 684.000
62.75971 690.000
62.77966 664.000
62.79961 665.000
62.81955 682.000
62.83950 639.000
62.85945 596.000
62.87940 623.000
62.89934 560.000
62.91929 533.000
62.93924 539.000
62.95918 482.000
62.97913 490.000
62.99908 477.000
63.01902 429.000
63.03897 450.000
63.05892 370.000
63.07887 368.000
63.09881 363.000
63.11876 392.000
63.13871 370.000
63.15865 423.000
63.17860 387.000
63.19855 374.000
63.21849 377.000
63.23844 359.000
63.25839 385.000
63.27833 366.000
63.29828 375.000
63.31823 344.000
63.33818 380.000
63.35812 347.000
63.37807 385.000
63.39802 378.000
63.41796 365.000
63.43791 372.000
63.45786 380.000
63.47780 401.000
63.49775 369.000
63.51770 367.000
63.53765 357.000
63.55759 327.000
63.57754 372.000
63.59749 351.000
63.61743 387.000
63.63738 376.000
63.65733 348.000
63.67727 381.000
63.69722 373.000
63.71717 355.000
63.73712 374.000
63.75706 350.000
63.77701 397.000
63.79696 329.000
63.81690 333.000
63.83685 321.000
63.85680 326.000
63.87674 387.000
63.89669 367.000
63.91664 363.000
63.93658 358.000
63.95653 349.000
63.97648 371.000
63.99643 355.000
64.01637 350.000
64.03632 333.000
64.05627 346.000
64.07621 342.000
64.09616 365.000
64.11611 358.000
64.13605 339.000
64.15600 341.000
64.17595 353.000
64.19590 340.000
64.21584 343.000
64.23579 351.000
64.25574 362.000
64.27568 348.000
64.29563 385.000
64.31558 372.000
64.33552 338.000
64.35547 328.000
64.37542 351.000
64.39536 349.000
64.41531 326.000
64.43526 365.000
64.45521 322.000
64.47515 319.000
64.49510 323.000
64.51505 362.000
64.53499 319.000
64.55494 339.000
64.57489 392.000
64.59483 345.000
64.61478 321.000
64.63473 368.000
64.65468 331.000
64.67462 341.000
64.69457 336.000
64.71452 358.000
64.73446 324.000
64.75441 373.000
64.77436 380.000
64.79430 342.000
64.81425 355.000
64.83420 354.000
64.85414 336.000
64.87409 325.000
64.89404 339.000
64.91399 334.000
64.93393 351.000
64.95388 335.000
64.97383 343.000
64.99377 326.000
65.01372 345.000
65.03367 345.000
65.05361 363.000
65.07356 349.000
65.09351 323.000
65.11346 346.000
65.13340 393.000
65.15335 377.000
65.17330 390.000
65.19324 382.000
65.21319 359.000
65.23314 365.000
65.25308 374.000
65.27303 355.000
65.29298 361.000
65.31293 415.000
65.33287 394.000
65.35282 392.000
65.37277 355.000
65.39271 378.000
65.41266 394.000
65.43261 411.000
65.45255 451.000
65.47250 405.000
65.49245 411.000
65.51239 409.000
65.53234 402.000
65.55229 406.000
65.57224 388.000
65.59218 386.000
65.61213 434.000
65.63208 367.000
65.65202 406.000
65.67197 392.000
65.69192 387.000
65.71186 428.000
65.73181 391.000
65.75176 411.000
65.77171 415.000
65.79165 406.000
65.81160 407.000
65.83155 415.000
65.85149 399.000
65.87144 433.000
65.89139 461.000
65.91133 438.000
65.93128 464.000
65.95123 434.000
65.97117 448.000
65.99112 416.000
66.01107 370.000
66.03102 414.000
66.05096 441.000
66.07091 410.000
66.09086 388.000
66.11080 417.000
66.13075 362.000
66.15070 370.000
66.17064 373.000
66.19059 358.000
66.21054 369.000
66.23049 363.000
66.25043 338.000
66.27038 395.000
66.29033 368.000
66.31027 370.000
66.33022 348.000
66.35017 335.000
66.37011 346.000
66.39006 360.000
66.41001 346.000
66.42995 348.000
66.44990 335.000
66.46985 340.000
66.48980 380.000
66.50974 342.000
66.52969 363.000
66.54964 341.000
66.56958 332.000
66.58953 315.000
66.60948 358.000
66.62942 342.000
66.64937 327.000
66.66932 328.000
66.68927 387.000
66.70921 330.000
66.72916 356.000
66.74911 308.000
66.76905 342.000
66.78900 352.000
66.80895 362.000
66.82889 314.000
66.84884 352.000
66.86879 339.000
66.88874 323.000
66.90868 311.000
66.92863 357.000
66.94858 346.000
66.96852 342.000
66.98847 352.000
67.00842 341.000
67.02836 353.000
67.04831 325.000
67.06826 370.000
67.08820 348.000
67.10815 321.000
67.12810 331.000
67.14805 342.000
67.16799 354.000
67.18794 320.000
67.20789 340.000
67.22783 341.000
67.24778 356.000
67.26773 358.000
67.28767 322.000
67.30762 334.000
67.32757 372.000
67.34752 382.000
67.36746 368.000
67.38741 381.000
67.40736 355.000
67.42730 359.000
67.44725 380.000
67.46720 367.000
67.48714 417.000
67.50709 376.000
67.52704 405.000
67.54698 408.000
67.56693 385.000
67.58688 427.000
67.60683 437.000
67.62677 386.000
67.64672 427.000
67.66667 390.000
67.68661 430.000
67.70656 430.000
67.72651 440.000
67.74645 431.000
67.76640 397.000
67.78635 412.000
67.80630 406.000
67.82624 398.000
67.84619 409.000
67.86614 379.000
67.88608 365.000
67.90603 371.000
67.92598 365.000
67.94592 380.000
67.96587 374.000
67.98582 343.000
68.00576 377.000
68.02571 370.000
68.04566 350.000
68.06561 365.000
68.08555 363.000
68.10550 324.000
68.12545 366.000
68.14539 341.000
68.16534 359.000
68.18529 347.000
68.20523 345.000
68.22518 359.000
68.24513 375.000
68.26508 336.000
68.28502 373.000
68.30497 308.000
68.32492 315.000
68.34486 346.000
68.36481 321.000
68.38476 323.000
68.40470 338.000
68.42465 338.000
68.44460 343.000
68.46455 348.000
68.48449 337.000
68.50444 327.000
68.52439 341.000
68.54433 337.000
68.56428 331.000
68.58423 332.000
68.60417 322.000
68.62412 326.000
68.64407 323.000
68.66401 328.000
68.68396 350.000
68.70391 308.000
68.72386 328.000
68.74380 340.000
68.76375 352.000
68.78370 369.000
68.80364 331.000
68.82359 327.000
68.84354 332.000
68.86348 294.000
68.88343 341.000
68.90338 360.000
68.92333 321.000
68.94327 339.000
68.96322 364.000
68.98317 332.000
69.00311 319.000
69.02306 331.000
69.04301 316.000
69.06295 311.000
69.08290 354.000
69.10285 326.000
69.12279 330.000
69.14274 304.000
69.16269 347.000
69.18264 329.000
69.20258 362.000
69.22253 321.000
69.24248 320.000
69.26242 334.000
69.28237 300.000
69.30232 313.000
69.32226 306.000
69.34221 310.000
69.36216 344.000
69.38211 316.000
69.40205 333.000
69.42200 303.000
69.44195 349.000
69.46189 337.000
69.48184 352.000
69.50179 304.000
69.52173 291.000
69.54168 291.000
69.56163 342.000
69.58157 339.000
69.60152 342.000
69.62147 335.000
69.64142 348.000
69.66136 317.000
69.68131 345.000
69.70126 329.000
69.72120 321.000
69.74115 306.000
69.76110 347.000
69.78104 345.000
69.80099 320.000
69.82094 352.000
69.84089 326.000
69.86083 344.000
69.88078 321.000
69.90073 310.000
69.92067 304.000
69.94062 302.000
69.96057 317.000
69.98051 349.000
70.00046 328.000
70.02041 306.000
70.04035 332.000
70.06030 352.000
70.08025 309.000
70.10020 296.000
70.12014 336.000
70.14009 328.000
70.16004 304.000
70.17998 329.000
70.19993 358.000
70.21988 329.000
70.23982 357.000
70.25977 327.000
70.27972 311.000
70.29967 321.000
70.31961 348.000
70.33956 329.000
70.35951 324.000
70.37945 324.000
70.39940 346.000
70.41935 358.000
70.43929 314.000
70.45924 341.000
70.47919 319.000
70.49914 308.000
70.51908 340.000
70.53903 307.000
70.55898 315.000
70.57892 330.000
70.59887 357.000
70.61882 334.000
70.63876 326.000
70.65871 352.000
70.67866 326.000
70.69860 325.000
70.71855 342.000
70.73850 355.000
70.75845 361.000
70.77839 334.000
70.79834 345.000
70.81829 316.000
70.83823 320.000
70.85818 326.000
70.87813 326.000
70.89807 307.000
70.91802 326.000
70.93797 326.000
70.95792 351.000
70.97786 351.000
70.99781 396.000
71.01776 338.000
71.03770 327.000
71.05765 354.000
71.07760 370.000
71.09754 340.000
71.11749 330.000
71.13744 312.000
71.15738 343.000
71.17733 360.000
71.19728 341.000
71.21723 350.000
71.23717 375.000
71.25712 361.000
71.27707 383.000
71.29701 327.000
71.31696 353.000
71.33691 335.000
71.35685 347.000
71.37680 360.000
71.39675 331.000
71.41670 343.000
71.43664 340.000
71.45659 334.000
71.47654 345.000
71.49648 332.000
71.51643 331.000
71.53638 328.000
71.55632 340.000
71.57627 359.000
71.59622 317.000
71.61616 340.000
71.63611 334.000
71.65606 320.000
71.67601 331.000
71.69595 302.000
71.71590 345.000
71.73585 310.000
71.75579 318.000
71.77574 330.000
71.79569 364.000
71.81563 341.000
71.83558 336.000
71.85553 338.000
71.87548 344.000
71.89542 378.000
71.91537 337.000
71.93532 386.000
71.95526 379.000
71.97521 311.000
71.99516 333.000
72.01510 344.000
72.03505 367.000
72.05500 366.000
72.07495 365.000
72.09489 379.000
72.11484 318.000
72.13479 342.000
72.15473 367.000
72.17468 363.000
72.19463 335.000
72.21457 358.000
72.23452 313.000
72.25447 314.000
72.27441 325.000
72.29436 346.000
72.31431 329.000
72.33426 354.000
72.35420 307.000
72.37415 337.000
72.39410 322.000
72.41404 370.000
72.43399 338.000
72.45394 329.000
72.47388 312.000
72.49383 305.000
72.51378 358.000
72.53373 324.000
72.55367 315.000
72.57362 320.000
72.59357 351.000
72.61351 329.000
72.63346 330.000
72.65341 315.000
72.67335 299.000
72.69330 316.000
72.71325 339.000
72.73319 316.000
72.75314 306.000
72.77309 322.000
72.79304 299.000
72.81298 329.000
72.83293 353.000
72.85288 319.000
72.87282 330.000
72.89277 303.000
72.91272 313.000
72.93266 313.000
72.95261 331.000
72.97256 321.000
72.99251 314.000
73.01245 307.000
73.03240 295.000
73.05235 323.000
73.07229 314.000
73.09224 324.000
73.11219 339.000
73.13213 354.000
73.15208 324.000
73.17203 342.000
73.19197 299.000
73.21192 348.000
73.23187 327.000
73.25182 352.000
73.27176 349.000
73.29171 326.000
73.31166 312.000
73.33160 308.000
73.35155 354.000
73.37150 359.000
73.39144 320.000
73.41139 342.000
73.43134 352.000
73.45129 304.000
73.47123 326.000
73.49118 327.000
73.51113 368.000
73.53107 332.000
73.55102 333.000
73.57097 340.000
73.59091 329.000
73.61086 316.000
73.63081 302.000
73.65076 343.000
73.67070 296.000
73.69065 325.000
73.71060 360.000
73.73054 351.000
73.75049 363.000
73.77044 353.000
73.79038 347.000
73.81033 322.000
73.83028 342.000
73.85022 302.000
73.87017 350.000
73.89012 365.000
73.91007 338.000
73.93001 335.000
73.94996 329.000
73.96991 341.000
73.98985 383.000
74.00980 351.000
74.02975 353.000
74.04969 366.000
74.06964 388.000
74.08959 366.000
74.10954 379.000
74.12948 379.000
74.14943 356.000
74.16938 398.000
74.18932 414.000
74.20927 400.000
74.22922 405.000
74.24916 421.000
74.26911 381.000
74.28906 423.000
74.30900 399.000
74.32895 378.000
74.34890 400.000
74.36885 394.000
74.38879 368.000
74.40874 409.000
74.42869 355.000
74.44863 417.000
74.46858 390.000
74.48853 348.000
74.50847 396.000
74.52842 372.000
74.54837 418.000
74.56832 366.000
74.58826 359.000
74.60821 365.000
74.62816 379.000
74.64810 394.000
74.66805 354.000
74.68800 380.000
74.70794 347.000
74.72789 384.000
74.74784 355.000
74.76778 352.000
74.78773 370.000
74.80768 331.000
74.82763 362.000
74.84757 328.000
74.86752 364.000
74.88747 399.000
74.90741 397.000
74.92736 402.000
74.94731 347.000
74.96725 389.000
74.98720 340.000
75.00715 382.000
75.02710 393.000
75.04704 352.000
75.06699 364.000
75.08694 340.000
75.10688 352.000
75.12683 380.000
75.14678 398.000
75.16672 380.000
75.18667 375.000
75.20662 358.000
75.22657 355.000
75.24651 351.000
75.26646 378.000
75.28641 346.000
75.30635 379.000
75.32630 374.000
75.34625 342.000
75.36619 361.000
75.38614 370.000
75.40609 371.000
75.42603 372.000
75.44598 380.000
75.46593 346.000
75.48588 360.000
75.50582 336.000
75.52577 352.000
75.54572 335.000
75.56566 308.000
75.58561 350.000
75.60556 356.000
75.62550 362.000
75.64545 336.000
75.66540 326.000
75.68535 288.000
75.70529 324.000
75.72524 308.000
75.74519 301.000
75.76513 309.000
75.78508 329.000
75.80503 337.000
75.82497 305.000
75.84492 320.000
75.86487 321.000
75.88481 317.000
75.90476 339.000
75.92471 309.000
75.94466 303.000
75.96460 325.000
75.98455 303.000
76.00450 314.000
76.02444 299.000
76.04439 299.000
76.06434 331.000
76.08428 330.000
76.10423 350.000
76.12418 315.000
76.14413 324.000
76.16407 315.000
76.18402 304.000
76.20397 325.000
76.22391 302.000
76.24386 319.000
76.26381 320.000
76.28375 319.000
76.30370 306.000
76.32365 335.000
76.34359 305.000
76.36354 316.000
76.38349 270.000
76.40344 329.000
76.42338 344.000
76.44333 319.000
76.46328 329.000
76.48322 323.000
76.50317 314.000
76.52312 355.000
76.54306 299.000
76.56301 321.000
76.58296 315.000
76.60291 293.000
76.62285 309.000
76.64280 319.000
76.66275 338.000
76.68269 321.000
76.70264 317.000
76.72259 290.000
76.74253 300.000
76.76248 296.000
76.78243 293.000
76.80238 284.000
76.82232 324.000
76.84227 295.000
76.86222 318.000
76.88216 316.000
76.90211 353.000
76.92206 313.000
76.94200 308.000
76.96195 337.000
76.98190 332.000
77.00184 308.000
77.02179 305.000
77.04174 319.000
77.06169 319.000
77.08163 323.000
77.10158 313.000
77.12153 327.000
77.14147 277.000
77.16142 321.000
77.18137 342.000
77.20131 315.000
77.22126 338.000
77.24121 319.000
77.26116 317.000
77.28110 329.000
77.30105 318.000
77.32100 331.000
77.34094 283.000
77.36089 304.000
77.38084 312.000
77.40078 311.000
77.42073 272.000
77.44068 315.000
77.46062 295.000
77.48057 295.000
77.50052 301.000
77.52047 326.000
77.54041 308.000
77.56036 295.000
77.58031 292.000
77.60025 291.000
77.62020 346.000
77.64015 287.000
77.66009 318.000
77.68004 303.000
77.69999 298.000
77.71994 299.000
77.73988 289.000
77.75983 319.000
77.77978 313.000
77.79972 339.000
77.81967 319.000
77.83962 256.000
77.85956 283.000
77.87951 304.000
77.89946 320.000
77.91940 281.000
77.93935 313.000
77.95930 298.000
77.97925 320.000
77.99919 294.000
78.01914 312.000
78.03909 353.000
78.05903 356.000
78.07898 322.000
78.09893 289.000
78.11887 344.000
78.13882 285.000
78.15877 285.000
78.17872 315.000
78.19866 326.000
78.21861 321.000
78.23856 317.000
78.25850 332.000
78.27845 282.000
78.29840 319.000
78.31834 320.000
78.33829 322.000
78.35824 303.000
78.37819 286.000
78.39813 298.000
78.41808 286.000
78.43803 294.000
78.45797 363.000
78.47792 308.000
78.49787 304.000
78.51781 314.000
78.53776 341.000
78.55771 307.000
78.57765 313.000
78.59760 305.000
78.61755 295.000
78.63750 316.000
78.65744 324.000
78.67739 316.000
78.69734 313.000
78.71728 292.000
78.73723 306.000
78.75718 312.000
78.77712 313.000
78.79707 298.000
78.81702 310.000
78.83697 331.000
78.85691 325.000
78.87686 294.000
78.89681 314.000
78.91675 312.000
78.93670 320.000
78.95665 339.000
78.97659 324.000
78.99654 315.000
79.01649 313.000
79.03643 303.000
79.05638 304.000
79.07633 323.000
79.09628 288.000
79.11622 314.000
79.13617 350.000
79.15612 316.000
79.17606 353.000
79.19601 332.000
79.21596 350.000
79.23590 307.000
79.25585 320.000
79.27580 340.000
79.29575 355.000
79.31569 349.000
79.33564 338.000
79.35559 325.000
79.37553 291.000
79.39548 328.000
79.41543 311.000
79.43537 324.000
79.45532 354.000
79.47527 366.000
79.49521 299.000
79.51516 319.000
79.53511 315.000
79.55506 353.000
79.57500 324.000
79.59495 311.000
79.61490 333.000
79.63484 347.000
79.65479 357.000
79.67474 318.000
79.69468 319.000
79.71463 348.000
79.73458 315.000
79.75453 340.000
79.77447 311.000
79.79442 307.000
79.81437 309.000
79.83431 339.000
79.85426 313.000
79.87421 306.000
79.89415 340.000
79.91410 296.000
79.93405 265.000
79.95399 318.000
79.97394 315.000
79.99389 308.000
80.01384 306.000
80.03378 363.000
80.05373 302.000
80.07368 302.000
80.09362 335.000
80.11357 346.000
80.13352 288.000
80.15346 301.000
80.17341 336.000
80.19336 312.000
80.21331 340.000
80.23325 300.000
80.25320 303.000
80.27315 287.000
80.29309 309.000
80.31304 284.000
80.33299 335.000
80.35293 318.000
80.37288 305.000
80.39283 313.000
80.41278 302.000
80.43272 317.000
80.45267 306.000
80.47262 309.000
80.49256 286.000
80.51251 290.000
80.53246 313.000
80.55240 306.000
80.57235 295.000
80.59230 313.000
80.61224 274.000
80.63219 345.000
80.65214 288.000
80.67209 328.000
80.69203 333.000
80.71198 317.000
80.73193 306.000
80.75187 296.000
80.77182 297.000
80.79177 334.000
80.81171 280.000
80.83166 292.000
80.85161 313.000
80.87156 303.000
80.89150 297.000
80.91145 278.000
80.93140 292.000
80.95134 320.000
80.97129 288.000
80.99124 294.000
81.01118 293.000
81.03113 303.000
81.05108 291.000
81.07102 306.000
81.09097 296.000
81.11092 331.000
81.13087 327.000
81.15081 282.000
81.17076 307.000
81.19071 314.000
81.21065 297.000
81.23060 310.000
81.25055 280.000
81.27049 307.000
81.29044 316.000
81.31039 309.000
81.33034 327.000
81.35028 327.000
81.37023 308.000
81.39018 315.000
81.41012 323.000
81.43007 310.000
81.45002 333.000
81.46996 270.000
81.48991 285.000
81.50986 305.000
81.52980 298.000
81.54975 316.000
81.56970 303.000
81.58965 319.000
81.60959 308.000
81.62954 316.000
81.64949 293.000
81.66943 318.000
81.68938 310.000
81.70933 319.000
81.72927 303.000
81.74922 357.000
81.76917 289.000
81.78912 319.000
81.80906 305.000
81.82901 295.000
81.84896 329.000
81.86890 325.000
81.88885 326.000
81.90880 327.000
81.92874 337.000
81.94869 328.000
81.96864 325.000
81.98859 313.000
82.00853 333.000
82.02848 330.000
82.04843 340.000
82.06837 317.000
82.08832 302.000
82.10827 333.000
82.12821 286.000
82.14816 352.000
82.16811 339.000
82.18805 319.000
82.20800 335.000
82.22795 334.000
82.24790 346.000
82.26784 342.000
82.28779 330.000
82.30774 346.000
82.32768 343.000
82.34763 345.000
82.36758 313.000
82.38752 340.000
82.40747 340.000
82.42742 314.000
82.44737 349.000
82.46731 323.000
82.48726 316.000
82.50721 318.000
82.52715 352.000
82.54710 324.000
82.56705 299.000
82.58699 353.000
82.60694 303.000
82.62689 305.000
82.64683 301.000
82.66678 345.000
82.68673 287.000
82.70668 361.000
82.72662 338.000
82.74657 341.000
82.76652 315.000
82.78646 354.000
82.80641 300.000
82.82636 317.000
82.84630 332.000
82.86625 337.000
82.88620 302.000
82.90615 343.000
82.92609 327.000
82.94604 281.000
82.96599 345.000
82.98593 324.000
83.00588 339.000
83.02583 314.000
83.04577 325.000
83.06572 320.000
83.08567 301.000
83.10561 322.000
83.12556 311.000
83.14551 315.000
83.16546 342.000
83.18540 335.000
83.20535 319.000
83.22530 348.000
83.24524 348.000
83.26519 321.000
83.28514 318.000
83.30508 341.000
83.32503 318.000
83.34498 309.000
83.36493 312.000
83.38487 323.000
83.40482 311.000
83.42477 311.000
83.44471 338.000
83.46466 321.000
83.48461 338.000
83.50455 335.000
83.52450 295.000
83.54445 331.000
83.56440 339.000
83.58434 278.000
83.60429 309.000
83.62424 315.000
83.64418 302.000
83.66413 295.000
83.68408 286.000
83.70402 338.000
83.72397 312.000
83.74392 280.000
83.76386 304.000
83.78381 339.000
83.80376 307.000
83.82371 308.000
83.84365 300.000
83.86360 324.000
83.88355 327.000
83.90349 294.000
83.92344 313.000
83.94339 288.000
83.96333 325.000
83.98328 284.000
84.00323 330.000
84.02318 295.000
84.04312 320.000
84.06307 311.000
84.08302 313.000
84.10296 306.000
84.12291 327.000
84.14286 347.000
84.16280 311.000
84.18275 288.000
84.20270 308.000
84.22264 317.000
84.24259 281.000
84.26254 300.000
84.28249 305.000
84.30243 315.000
84.32238 285.000
84.34233 320.000
84.36227 288.000
84.38222 287.000
84.40217 292.000
84.42211 278.000
84.44206 309.000
84.46201 288.000
84.48196 291.000
84.50190 319.000
84.52185 313.000
84.54180 289.000
84.56174 283.000
84.58169 296.000
84.60164 322.000
84.62158 309.000
84.64153 313.000
84.66148 332.000
84.68142 290.000
84.70137 280.000
84.72132 336.000
84.74127 308.000
84.76121 297.000
84.78116 282.000
84.80111 332.000
84.82105 295.000
84.84100 309.000
84.86095 294.000
84.88089 269.000
84.90084 297.000
84.92079 323.000
84.94074 300.000
84.96068 311.000
84.98063 314.000
85.00058 297.000
85.02052 312.000
85.04047 319.000
85.06042 302.000
85.08036 303.000
85.10031 329.000
85.12026 308.000
85.14021 297.000
85.16015 307.000
85.18010 301.000
85.20005 286.000
85.21999 289.000
85.23994 306.000
85.25989 309.000
85.27983 317.000
85.29978 277.000
85.31973 306.000
85.33967 303.000
85.35962 291.000
85.37957 310.000
85.39952 303.000
85.41946 333.000
85.43941 293.000
85.45936 289.000
85.47930 272.000
85.49925 301.000
85.51920 303.000
85.53914 300.000
85.55909 314.000
85.57904 268.000
85.59899 289.000
85.61893 293.000
85.63888 334.000
85.65883 295.000
85.67877 296.000
85.69872 307.000
85.71867 298.000
85.73861 279.000
85.75856 308.000
85.77851 285.000
85.79845 302.000
85.81840 314.000
85.83835 312.000
85.85830 308.000
85.87824 327.000
85.89819 313.000
85.91814 308.000
85.93808 306.000
85.95803 320.000
85.97798 289.000
85.99792 300.000
86.01787 315.000
86.03782 329.000
86.05777 280.000
86.07771 337.000
86.09766 313.000
86.11761 314.000
86.13755 305.000
86.15750 341.000
86.17745 333.000
86.19739 313.000
86.21734 332.000
86.23729 289.000
86.25723 306.000
86.27718 289.000
86.29713 318.000
86.31708 283.000
86.33702 319.000
86.35697 303.000
86.37692 315.000
86.39686 299.000
86.41681 310.000
86.43676 321.000
86.45670 346.000
86.47665 329.000
86.49660 304.000
86.51655 326.000
86.53649 287.000
86.55644 342.000
86.57639 323.000
86.59633 308.000
86.61628 291.000
86.63623 313.000
86.65617 307.000
86.67612 324.000
86.69607 295.000
86.71602 306.000
86.73596 288.000
86.75591 319.000
86.77586 278.000
86.79580 323.000
86.81575 322.000
86.83570 276.000
86.85564 307.000
86.87559 283.000
86.89554 292.000
86.91548 316.000
86.93543 336.000
86.95538 296.000
86.97533 327.000
86.99527 320.000
87.01522 321.000
87.03517 310.000
87.05511 330.000
87.07506 318.000
87.09501 313.000
87.11495 330.000
87.13490 355.000
87.15485 335.000
87.17480 337.000
87.19474 308.000
87.21469 365.000
87.23464 309.000
87.25458 325.000
87.27453 348.000
87.29448 310.000
87.31442 329.000
87.33437 357.000
87.35432 301.000
87.37426 333.000
87.39421 308.000
87.41416 299.000
87.43411 294.000
87.45405 304.000
87.47400 363.000
87.49395 280.000
87.51389 325.000
87.53384 325.000
87.55379 332.000
87.57373 316.000
87.59368 350.000
87.61363 317.000
87.63358 326.000
87.65352 336.000
87.67347 315.000
87.69342 303.000
87.71336 306.000
87.73331 333.000
87.75326 297.000
87.77320 310.000
87.79315 311.000
87.81310 286.000
87.83304 299.000
87.85299 325.000
87.87294 307.000
87.89289 318.000
87.91283 306.000
87.93278 310.000
87.95273 303.000
87.97267 329.000
87.99262 304.000
88.01257 302.000
88.03251 300.000
88.05246 335.000
88.07241 313.000
88.09236 294.000
88.11230 299.000
88.13225 301.000
88.15220 296.000
88.17214 298.000
88.19209 337.000
88.21204 310.000
88.23198 294.000
88.25193 339.000
88.27188 296.000
88.29183 266.000
88.31177 295.000
88.33172 295.000
88.35167 313.000
88.37161 291.000
88.39156 333.000
88.41151 300.000
88.43145 312.000
88.45140 301.000
88.47135 291.000
88.49129 290.000
88.51124 302.000
88.53119 300.000
88.55114 322.000
88.57108 301.000
88.59103 292.000
88.61098 294.000
88.63092 320.000
88.65087 310.000
88.67082 316.000
88.69076 280.000
88.71071 272.000
88.73066 315.000
88.75061 314.000
88.77055 267.000
88.79050 278.000
88.81045 296.000
88.83039 307.000
88.85034 325.000
88.87029 304.000
88.89023 300.000
88.91018 316.000
88.93013 324.000
88.95007 318.000
88.97002 277.000
88.98997 303.000
89.00992 292.000
89.02986 280.000
89.04981 302.000
89.06976 315.000
89.08970 327.000
89.10965 313.000
89.12960 297.000
89.14954 318.000
89.16949 295.000
89.18944 310.000
89.20939 329.000
89.22933 275.000
89.24928 323.000
89.26923 320.000
89.28917 286.000
89.30912 296.000
89.32907 325.000
89.34901 305.000
89.36896 319.000
89.38891 363.000
89.40885 309.000
89.42880 341.000
89.44875 335.000
89.46870 358.000
89.48864 351.000
89.50859 329.000
89.52854 336.000
89.54848 331.000
89.56843 325.000
89.58838 350.000
89.60832 333.000
89.62827 316.000
89.64822 318.000
89.66817 312.000
89.68811 309.000
89.70806 344.000
89.72801 327.000
89.74795 298.000
89.76790 316.000
89.78785 354.000
89.80779 316.000
89.82774 347.000
89.84769 357.000
89.86764 340.000
89.88758 342.000
89.90753 320.000
89.92748 373.000
89.94742 373.000
89.96737 365.000
89.98732 351.000
90.00726 389.000
