10.00000 55.000
10.01995 72.000
10.03989 58.000
10.05984 73.000
10.07979 68.000
10.09973 62.000
10.11968 62.000
10.13963 71.000
10.15958 74.000
10.17952 63.000
10.19947 84.000
10.21942 60.000
10.23936 60.000
10.25931 75.000
10.27926 57.000
10.29920 53.000
10.31915 79.000
10.33910 96.000
10.35905 90.000
10.37899 66.000
10.39894 91.000
10.41889 63.000
10.43883 69.000
10.45878 85.000
10.47873 64.000
10.49867 61.000
10.51862 74.000
10.53857 68.000
10.55851 73.000
10.57846 60.000
10.59841 64.000
10.61836 54.000
10.63830 62.000
10.65825 65.000
10.67820 54.000
10.69814 80.000
10.71809 73.000
10.73804 76.000
10.75798 63.000
10.77793 67.000
10.79788 55.000
10.81783 76.000
10.83777 71.000
10.85772 77.000
10.87767 82.000
10.89761 73.000
10.91756 78.000
10.93751 77.000
10.95745 67.000
10.97740 59.000
10.99735 59.000
11.01730 75.000
11.03724 65.000
11.05719 74.000
11.07714 69.000
11.09708 65.000
11.11703 66.000
11.13698 76.000
11.15692 58.000
11.17687 76.000
11.19682 64.000
11.21676 71.000
11.23671 65.000
11.25666 66.000
11.27661 68.000
11.29655 79.000
11.31650 57.000
11.33645 75.000
11.35639 69.000
11.37634 70.000
11.39629 71.000
11.41623 62.000
11.43618 61.000
11.45613 68.000
11.47608 65.000
11.49602 77.000
11.51597 70.000
11.53592 76.000
11.55586 68.000
11.57581 71.000
11.59576 64.000
11.61570 81.000
11.63565 66.000
11.65560 75.000
11.67554 79.000
11.69549 56.000
11.71544 70.000
11.73539 59.000
11.75533 53.000
11.77528 76.000
11.79523 66.000
11.81517 60.000
11.83512 71.000
11.85507 64.000
11.87501 61.000
11.89496 74.000
11.91491 73.000
11.93486 79.000
11.95480 83.000
11.97475 62.000
11.99470 61.000
12.01464 62.000
12.03459 62.000
12.05454 65.000
12.07448 70.000
12.09443 68.000
12.11438 83.000
12.13432 83.000
12.15427 73.000
12.17422 70.000
12.19417 86.000
12.21411 70.000
12.23406 63.000
12.25401 75.000
12.27395 75.000
12.29390 60.000
12.31385 85.000
12.33379 83.000
12.35374 64.000
12.37369 67.000
12.39364 71.000
12.41358 81.000
12.43353 72.000
12.45348 86.000
12.47342 62.000
12.49337 53.000
12.51332 82.000
12.53326 86.000
12.55321 53.000
12.57316 72.000
12.59311 70.000
12.61305 81.000
12.63300 71.000
12.65295 76.000
12.67289 97.000
12.69284 82.000
12.71279 83.000
12.73273 81.000
12.75268 61.000
12.77263 62.000
12.79257 77.000
12.81252 67.000
12.83247 78.000
12.85242 76.000
12.87236 79.000
12.89231 66.000
12.91226 65.000
12.93220 71.000
12.95215 78.000
12.97210 79.000
12.99204 72.000
13.01199 67.000
13.03194 73.000
13.05189 81.000
13.07183 78.000
13.09178 67.000
13.11173 83.000
13.13167 79.000
13.15162 70.000
13.17157 69.000
13.19151 67.000
13.21146 63.000
13.23141 63.000
13.25135 55.000
13.27130 82.000
13.29125 48.000
13.31120 75.000
13.33114 76.000
13.35109 96.000
13.37104 66.000
13.39098 63.000
13.41093 85.000
13.43088 69.000
13.45082 67.000
13.47077 59.000
13.49072 68.000
13.51067 94.000
13.53061 62.000
13.55056 69.000
13.57051 70.000
13.59045 58.000
13.61040 81.000
13.63035 70.000
13.65029 89.000
13.67024 79.000
13.69019 92.000
13.71013 72.000
13.73008 78.000
13.75003 84.000
13.76998 75.000
13.78992 68.000
13.80987 80.000
13.82982 68.000
13.84976 71.000
13.86971 76.000
13.88966 59.000
13.90960 70.000
13.92955 77.000
13.94950 60.000
13.96945 49.000
13.98939 73.000
14.00934 74.000
14.02929 89.000
14.04923 59.000
14.06918 85.000
14.08913 60.000
14.10907 66.000
14.12902 69.000
14.14897 99.000
14.16892 67.000
14.18886 87.000
14.20881 70.000
14.22876 84.000
14.24870 78.000
14.26865 73.000
14.28860 79.000
14.30854 97.000
14.32849 72.000
14.34844 87.000
14.36838 81.000
14.38833 76.000
14.40828 85.000
14.42823 73.000
14.44817 82.000
14.46812 74.000
14.48807 76.000
14.50801 76.000
14.52796 89.000
14.54791 93.000
14.56785 71.000
14.58780 96.000
14.60775 76.000
14.62770 94.000
14.64764 65.000
14.66759 92.000
14.68754 80.000
14.70748 73.000
14.72743 85.000
14.74738 79.000
14.76732 85.000
14.78727 86.000
14.80722 88.000
14.82716 86.000
14.84711 90.000
14.86706 91.000
14.88701 99.000
14.90695 96.000
14.92690 106.000
14.94685 98.000
14.96679 84.000
14.98674 94.000
15.00669 101.000
15.02663 84.000
15.04658 88.000
15.06653 113.000
15.08648 92.000
15.10642 114.000
15.12637 122.000
15.14632 111.000
15.16626 101.000
15.18621 113.000
15.20616 115.000
15.22610 137.000
15.24605 126.000
15.26600 164.000
15.28594 133.000
15.30589 155.000
15.32584 125.000
15.34579 140.000
15.36573 146.000
15.38568 136.000
15.40563 166.000
15.42557 170.000
15.44552 159.000
15.46547 158.000
15.48541 175.000
15.50536 168.000
15.52531 173.000
15.54526 241.000
15.56520 194.000
15.58515 255.000
15.60510 250.000
15.62504 318.000
15.64499 320.000
15.66494 358.000
15.68488 421.000
15.70483 494.000
15.72478 631.000
15.74472 845.000
15.76467 1157.000
15.78462 1542.000
15.80457 2109.000
15.82451 2896.000
15.84446 3618.000
15.86441 4256.000
15.88435 4517.000
15.90430 4184.000
15.92425 3453.000
15.94419 2368.000
15.96414 1626.000
15.98409 1019.000
16.00404 670.000
16.02398 473.000
16.04393 390.000
16.06388 321.000
16.08382 292.000
16.10377 256.000
16.12372 226.000
16.14366 234.000
16.16361 218.000
16.18356 174.000
16.20351 181.000
16.22345 166.000
16.24340 157.000
16.26335 160.000
16.28329 126.000
16.30324 128.000
16.32319 149.000
16.34313 123.000
16.36308 101.000
16.38303 128.000
16.40297 136.000
16.42292 114.000
16.44287 113.000
16.46282 103.000
16.48276 108.000
16.50271 109.000
16.52266 103.000
16.54260 95.000
16.56255 114.000
16.58250 90.000
16.60244 90.000
16.62239 95.000
16.64234 102.000
16.66229 86.000
16.68223 89.000
16.70218 80.000
16.72213 90.000
16.74207 77.000
16.76202 72.000
16.78197 85.000
16.80191 88.000
16.82186 86.000
16.84181 74.000
16.86175 92.000
16.88170 92.000
16.90165 81.000
16.92160 88.000
16.94154 86.000
16.96149 79.000
16.98144 92.000
17.00138 88.000
17.02133 87.000
17.04128 89.000
17.06122 93.000
17.08117 90.000
17.10112 71.000
17.12107 60.000
17.14101 63.000
17.16096 85.000
17.18091 81.000
17.20085 79.000
17.22080 78.000
17.24075 67.000
17.26069 67.000
17.28064 85.000
17.30059 57.000
17.32053 66.000
17.34048 66.000
17.36043 63.000
17.38038 65.000
17.40032 60.000
17.42027 79.000
17.44022 70.000
17.46016 58.000
17.48011 77.000
17.50006 64.000
17.52000 72.000
17.53995 61.000
17.55990 64.000
17.57985 75.000
17.59979 71.000
17.61974 69.000
17.63969 68.000
17.65963 75.000
17.67958 77.000
17.69953 77.000
17.71947 77.000
17.73942 66.000
17.75937 77.000
17.77932 76.000
17.79926 68.000
17.81921 71.000
17.83916 68.000
17.85910 76.000
17.87905 66.000
17.89900 82.000
17.91894 69.000
17.93889 54.000
17.95884 63.000
17.97878 81.000
17.99873 76.000
18.01868 82.000
18.03863 70.000
18.05857 73.000
18.07852 76.000
18.09847 77.000
18.11841 77.000
18.13836 62.000
18.15831 75.000
18.17825 69.000
18.19820 58.000
18.21815 94.000
18.23810 73.000
18.25804 80.000
18.27799 72.000
18.29794 90.000
18.31788 94.000
18.33783 94.000
18.35778 113.000
18.37772 162.000
18.39767 207.000
18.41762 282.000
18.43756 373.000
18.45751 381.000
18.47746 406.000
18.49741 321.000
18.51735 252.000
18.53730 210.000
18.55725 145.000
18.57719 118.000
18.59714 93.000
18.61709 87.000
18.63703 87.000
18.65698 99.000
18.67693 76.000
18.69688 78.000
18.71682 73.000
18.73677 85.000
18.75672 92.000
18.77666 71.000
18.79661 85.000
18.81656 79.000
18.83650 69.000
18.85645 69.000
18.87640 76.000
18.89634 76.000
18.91629 80.000
18.93624 79.000
18.95619 67.000
18.97613 65.000
18.99608 59.000
19.01603 72.000
19.03597 66.000
19.05592 67.000
19.07587 73.000
19.09581 67.000
19.11576 69.000
19.13571 80.000
19.15566 64.000
19.17560 79.000
19.19555 80.000
19.21550 77.000
19.23544 78.000
19.25539 65.000
19.27534 53.000
19.29528 71.000
19.31523 62.000
19.33518 68.000
19.35513 73.000
19.37507 64.000
19.39502 65.000
19.41497 88.000
19.43491 58.000
19.45486 64.000
19.47481 82.000
19.49475 65.000
19.51470 58.000
19.53465 66.000
19.55459 75.000
19.57454 90.000
19.59449 84.000
19.61444 75.000
19.63438 67.000
19.65433 59.000
19.67428 73.000
19.69422 71.000
19.71417 66.000
19.73412 75.000
19.75406 64.000
19.77401 59.000
19.79396 59.000
19.81391 68.000
19.83385 56.000
19.85380 74.000
19.87375 78.000
19.89369 57.000
19.91364 88.000
19.93359 76.000
19.95353 72.000
19.97348 65.000
19.99343 83.000
20.01337 73.000
20.03332 75.000
20.05327 80.000
20.07322 59.000
20.09316 61.000
20.11311 71.000
20.13306 73.000
20.15300 65.000
20.17295 76.000
20.19290 70.000
20.21284 66.000
20.23279 55.000
20.25274 73.000
20.27269 66.000
20.29263 68.000
20.31258 66.000
20.33253 66.000
20.35247 58.000
20.37242 72.000
20.39237 63.000
20.41231 83.000
20.43226 70.000
20.45221 84.000
20.47215 72.000
20.49210 70.000
20.51205 75.000
20.53200 68.000
20.55194 68.000
20.57189 68.000
20.59184 66.000
20.61178 67.000
20.63173 80.000
20.65168 78.000
20.67162 77.000
20.69157 63.000
20.71152 65.000
20.73147 62.000
20.75141 96.000
20.77136 62.000
20.79131 58.000
20.81125 57.000
20.83120 72.000
20.85115 67.000
20.87109 75.000
20.89104 74.000
20.91099 70.000
20.93094 61.000
20.95088 70.000
20.97083 69.000
20.99078 79.000
21.01072 88.000
21.03067 84.000
21.05062 81.000
21.07056 105.000
21.09051 83.000
21.11046 99.000
21.13040 86.000
21.15035 98.000
21.17030 97.000
21.19025 75.000
21.21019 72.000
21.23014 89.000
21.25009 91.000
21.27003 100.000
21.28998 62.000
21.30993 59.000
21.32987 76.000
21.34982 70.000
21.36977 59.000
21.38972 63.000
21.40966 65.000
21.42961 69.000
21.44956 76.000
21.46950 68.000
21.48945 77.000
21.50940 76.000
21.52934 55.000
21.54929 69.000
21.56924 58.000
21.58918 68.000
21.60913 68.000
21.62908 66.000
21.64903 84.000
21.66897 72.000
21.68892 63.000
21.70887 62.000
21.72881 70.000
21.74876 78.000
21.76871 63.000
21.78865 62.000
21.80860 60.000
21.82855 74.000
21.84850 66.000
21.86844 76.000
21.88839 71.000
21.90834 73.000
21.92828 72.000
21.94823 60.000
21.96818 79.000
21.98812 64.000
22.00807 87.000
22.02802 64.000
22.04796 75.000
22.06791 70.000
22.08786 74.000
22.10781 68.000
22.12775 66.000
22.14770 70.000
22.16765 72.000
22.18759 71.000
22.20754 88.000
22.22749 68.000
22.24743 60.000
22.26738 70.000
22.28733 65.000
22.30728 78.000
22.32722 75.000
22.34717 69.000
22.36712 70.000
22.38706 72.000
22.40701 67.000
22.42696 73.000
22.44690 72.000
22.46685 61.000
22.48680 62.000
22.50675 60.000
22.52669 70.000
22.54664 75.000
22.56659 71.000
22.58653 75.000
22.60648 80.000
22.62643 77.000
22.64637 71.000
22.66632 84.000
22.68627 69.000
22.70621 74.000
22.72616 62.000
22.74611 69.000
22.76606 65.000
22.78600 74.000
22.80595 69.000
22.82590 86.000
22.84584 67.000
22.86579 69.000
22.88574 63.000
22.90568 67.000
22.92563 65.000
22.94558 80.000
22.96553 68.000
22.98547 73.000
23.00542 100.000
23.02537 68.000
23.04531 79.000
23.06526 68.000
23.08521 83.000
23.10515 78.000
23.12510 73.000
23.14505 69.000
23.16499 72.000
23.18494 63.000
23.20489 64.000
23.22484 65.000
23.24478 73.000
23.26473 71.000
23.28468 51.000
23.30462 70.000
23.32457 76.000
23.34452 71.000
23.36446 65.000
23.38441 68.000
23.40436 71.000
23.42431 65.000
23.44425 65.000
23.46420 73.000
23.48415 71.000
23.50409 82.000
23.52404 66.000
23.54399 69.000
23.56393 60.000
23.58388 68.000
23.60383 94.000
23.62377 80.000
23.64372 72.000
23.66367 74.000
23.68362 60.000
23.70356 78.000
23.72351 60.000
23.74346 66.000
23.76340 63.000
23.78335 54.000
23.80330 79.000
23.82324 76.000
23.84319 80.000
23.86314 70.000
23.88309 72.000
23.90303 72.000
23.92298 73.000
23.94293 90.000
23.96287 71.000
23.98282 74.000
24.00277 71.000
24.02271 80.000
24.04266 69.000
24.06261 69.000
24.08256 80.000
24.10250 78.000
24.12245 85.000
24.14240 61.000
24.16234 77.000
24.18229 78.000
24.20224 71.000
24.22218 67.000
24.24213 64.000
24.26208 74.000
24.28202 66.000
24.30197 82.000
24.32192 65.000
24.34187 78.000
24.36181 66.000
24.38176 92.000
24.40171 79.000
24.42165 73.000
24.44160 66.000
24.46155 60.000
24.48149 79.000
24.50144 73.000
24.52139 81.000
24.54134 71.000
24.56128 82.000
24.58123 69.000
24.60118 75.000
24.62112 71.000
24.64107 76.000
24.66102 72.000
24.68096 73.000
24.70091 69.000
24.72086 89.000
24.74080 71.000
24.76075 71.000
24.78070 74.000
24.80065 81.000
24.82059 75.000
24.84054 81.000
24.86049 83.000
24.88043 78.000
24.90038 69.000
24.92033 86.000
24.94027 70.000
24.96022 72.000
24.98017 69.000
25.00012 77.000
25.02006 77.000
25.04001 79.000
25.05996 72.000
25.07990 59.000
25.09985 72.000
25.11980 76.000
25.13974 63.000
25.15969 65.000
25.17964 71.000
25.19958 72.000
25.21953 89.000
25.23948 80.000
25.25943 67.000
25.27937 87.000
25.29932 78.000
25.31927 89.000
25.33921 91.000
25.35916 82.000
25.37911 68.000
25.39905 98.000
25.41900 75.000
25.43895 72.000
25.45890 81.000
25.47884 76.000
25.49879 74.000
25.51874 76.000
25.53868 86.000
25.55863 69.000
25.57858 79.000
25.59852 67.000
25.61847 78.000
25.63842 77.000
25.65837 65.000
25.67831 87.000
25.69826 76.000
25.71821 63.000
25.73815 72.000
25.75810 77.000
25.77805 72.000
25.79799 83.000
25.81794 57.000
25.83789 74.000
25.85783 82.000
25.87778 65.000
25.89773 73.000
25.91768 67.000
25.93762 88.000
25.95757 72.000
25.97752 86.000
25.99746 76.000
26.01741 84.000
26.03736 79.000
26.05730 76.000
26.07725 77.000
26.09720 94.000
26.11715 93.000
26.13709 77.000
26.15704 74.000
26.17699 88.000
26.19693 63.000
26.21688 78.000
26.23683 80.000
26.25677 82.000
26.27672 65.000
26.29667 75.000
26.31661 90.000
26.33656 70.000
26.35651 64.000
26.37646 82.000
26.39640 63.000
26.41635 86.000
26.43630 83.000
26.45624 85.000
26.47619 67.000
26.49614 69.000
26.51608 83.000
26.53603 87.000
26.55598 72.000
26.57593 76.000
26.59587 69.000
26.61582 91.000
26.63577 100.000
26.65571 70.000
26.67566 79.000
26.69561 79.000
26.71555 99.000
26.73550 80.000
26.75545 77.000
26.77539 80.000
26.79534 73.000
26.81529 81.000
26.83524 63.000
26.85518 92.000
26.87513 71.000
26.89508 91.000
26.91502 83.000
26.93497 77.000
26.95492 73.000
26.97486 70.000
26.99481 105.000
27.01476 79.000
27.03471 73.000
27.05465 91.000
27.07460 81.000
27.09455 78.000
27.11449 74.000
27.13444 73.000
27.15439 76.000
27.17433 79.000
27.19428 75.000
27.21423 78.000
27.23417 79.000
27.25412 71.000
27.27407 97.000
27.29402 60.000
27.31396 72.000
27.33391 89.000
27.35386 78.000
27.37380 77.000
27.39375 89.000
27.41370 85.000
27.43364 68.000
27.45359 74.000
27.47354 82.000
27.49349 80.000
27.51343 92.000
27.53338 78.000
27.55333 61.000
27.57327 69.000
27.59322 80.000
27.61317 76.000
27.63311 86.000
27.65306 74.000
27.67301 78.000
27.69296 81.000
27.71290 84.000
27.73285 91.000
27.75280 94.000
27.77274 76.000
27.79269 82.000
27.81264 71.000
27.83258 82.000
27.85253 79.000
27.87248 83.000
27.89242 69.000
27.91237 68.000
27.93232 79.000
27.95227 69.000
27.97221 83.000
27.99216 88.000
28.01211 76.000
28.03205 84.000
28.05200 94.000
28.07195 74.000
28.09189 91.000
28.11184 68.000
28.13179 79.000
28.15174 89.000
28.17168 71.000
28.19163 73.000
28.21158 68.000
28.23152 79.000
28.25147 88.000
28.27142 77.000
28.29136 77.000
28.31131 78.000
28.33126 78.000
28.35120 87.000
28.37115 88.000
28.39110 78.000
28.41105 82.000
28.43099 75.000
28.45094 71.000
28.47089 72.000
28.49083 82.000
28.51078 90.000
28.53073 89.000
28.55067 95.000
28.57062 65.000
28.59057 90.000
28.61052 91.000
28.63046 88.000
28.65041 93.000
28.67036 100.000
28.69030 87.000
28.71025 59.000
28.73020 84.000
28.75014 86.000
28.77009 83.000
28.79004 95.000
28.80998 95.000
28.82993 84.000
28.84988 70.000
28.86983 79.000
28.88977 80.000
28.90972 87.000
28.92967 86.000
28.94961 71.000
28.96956 71.000
28.98951 79.000
29.00945 100.000
29.02940 93.000
29.04935 70.000
29.06930 91.000
29.08924 90.000
29.10919 80.000
29.12914 77.000
29.14908 82.000
29.16903 77.000
29.18898 97.000
29.20892 87.000
29.22887 76.000
29.24882 110.000
29.26877 83.000
29.28871 65.000
29.30866 98.000
29.32861 105.000
29.34855 86.000
29.36850 86.000
29.38845 96.000
29.40839 98.000
29.42834 91.000
29.44829 88.000
29.46823 93.000
29.48818 98.000
29.50813 72.000
29.52808 90.000
29.54802 101.000
29.56797 84.000
29.58792 85.000
29.60786 82.000
29.62781 90.000
29.64776 83.000
29.66770 85.000
29.68765 82.000
29.70760 76.000
29.72755 68.000
29.74749 87.000
29.76744 79.000
29.78739 102.000
29.80733 101.000
29.82728 97.000
29.84723 77.000
29.86717 89.000
29.88712 81.000
29.90707 81.000
29.92701 105.000
29.94696 92.000
29.96691 79.000
29.98686 100.000
30.00680 81.000
30.02675 93.000
30.04670 95.000
30.06664 121.000
30.08659 113.000
30.10654 96.000
30.12648 108.000
30.14643 125.000
30.16638 126.000
30.18633 137.000
30.20627 172.000
30.22622 213.000
30.24617 269.000
30.26611 347.000
30.28606 492.000
30.30601 671.000
30.32595 774.000
30.34590 869.000
30.36585 853.000
30.38579 827.000
30.40574 677.000
30.42569 563.000
30.44564 465.000
30.46558 356.000
30.48553 258.000
30.50548 215.000
30.52542 177.000
30.54537 150.000
30.56532 130.000
30.58526 109.000
30.60521 102.000
30.62516 100.000
30.64511 93.000
30.66505 110.000
30.68500 106.000
30.70495 110.000
30.72489 79.000
30.74484 122.000
30.76479 107.000
30.78473 105.000
30.80468 96.000
30.82463 101.000
30.84458 90.000
30.86452 104.000
30.88447 95.000
30.90442 81.000
30.92436 103.000
30.94431 85.000
30.96426 97.000
30.98420 87.000
31.00415 96.000
31.02410 87.000
31.04404 99.000
31.06399 101.000
31.08394 92.000
31.10389 92.000
31.12383 98.000
31.14378 71.000
31.16373 86.000
31.18367 81.000
31.20362 91.000
31.22357 81.000
31.24351 97.000
31.26346 89.000
31.28341 81.000
31.30336 95.000
31.32330 86.000
31.34325 92.000
31.36320 82.000
31.38314 102.000
31.40309 86.000
31.42304 81.000
31.44298 92.000
31.46293 91.000
31.48288 107.000
31.50282 83.000
31.52277 107.000
31.54272 109.000
31.56267 91.000
31.58261 92.000
31.60256 115.000
31.62251 86.000
31.64245 107.000
31.66240 91.000
31.68235 89.000
31.70229 120.000
31.72224 101.000
31.74219 103.000
31.76214 109.000
31.78208 113.000
31.80203 119.000
31.82198 129.000
31.84192 139.000
31.86187 140.000
31.88182 187.000
31.90176 175.000
31.92171 233.000
31.94166 225.000
31.96160 274.000
31.98155 287.000
32.00150 356.000
32.02145 393.000
32.04139 440.000
32.06134 400.000
32.08129 464.000
32.10123 423.000
32.12118 346.000
32.14113 326.000
32.16107 284.000
32.18102 249.000
32.20097 195.000
32.22092 192.000
32.24086 158.000
32.26081 133.000
32.28076 122.000
32.30070 111.000
32.32065 120.000
32.34060 99.000
32.36054 115.000
32.38049 106.000
32.40044 115.000
32.42039 102.000
32.44033 108.000
32.46028 110.000
32.48023 99.000
32.50017 105.000
32.52012 90.000
32.54007 81.000
32.56001 83.000
32.57996 85.000
32.59991 103.000
32.61985 82.000
32.63980 87.000
32.65975 85.000
32.67970 76.000
32.69964 79.000
32.71959 94.000
32.73954 94.000
32.75948 78.000
32.77943 72.000
32.79938 78.000
32.81932 83.000
32.83927 75.000
32.85922 88.000
32.87917 86.000
32.89911 77.000
32.91906 112.000
32.93901 85.000
32.95895 77.000
32.97890 73.000
32.99885 97.000
33.01879 68.000
33.03874 92.000
33.05869 76.000
33.07863 86.000
33.09858 82.000
33.11853 94.000
33.13848 74.000
33.15842 70.000
33.17837 79.000
33.19832 81.000
33.21826 95.000
33.23821 90.000
33.25816 74.000
33.27810 90.000
33.29805 82.000
33.31800 100.000
33.33795 80.000
33.35789 95.000
33.37784 81.000
33.39779 75.000
33.41773 90.000
33.43768 74.000
33.45763 67.000
33.47757 91.000
33.49752 101.000
33.51747 95.000
33.53741 76.000
33.55736 80.000
33.57731 86.000
33.59726 82.000
33.61720 88.000
33.63715 77.000
33.65710 88.000
33.67704 83.000
33.69699 85.000
33.71694 85.000
33.73688 85.000
33.75683 92.000
33.77678 92.000
33.79673 59.000
33.81667 93.000
33.83662 75.000
33.85657 84.000
33.87651 82.000
33.89646 88.000
33.91641 97.000
33.93635 98.000
33.95630 84.000
33.97625 98.000
33.99620 96.000
34.01614 106.000
34.03609 90.000
34.05604 71.000
34.07598 79.000
34.09593 100.000
34.11588 74.000
34.13582 82.000
34.15577 98.000
34.17572 90.000
34.19566 92.000
34.21561 90.000
34.23556 85.000
34.25551 83.000
34.27545 100.000
34.29540 92.000
34.31535 101.000
34.33529 104.000
34.35524 94.000
34.37519 103.000
34.39513 89.000
34.41508 104.000
34.43503 91.000
34.45498 110.000
34.47492 95.000
34.49487 96.000
34.51482 102.000
34.53476 106.000
34.55471 91.000
34.57466 90.000
34.59460 109.000
34.61455 103.000
34.63450 101.000
34.65444 107.000
34.67439 97.000
34.69434 93.000
34.71429 103.000
34.73423 102.000
34.75418 108.000
34.77413 116.000
34.79407 125.000
34.81402 97.000
34.83397 115.000
34.85391 92.000
34.87386 99.000
34.89381 89.000
34.91376 98.000
34.93370 93.000
34.95365 105.000
34.97360 118.000
34.99354 98.000
35.01349 100.000
35.03344 107.000
35.05338 108.000
35.07333 88.000
35.09328 100.000
35.11322 115.000
35.13317 95.000
35.15312 110.000
35.17307 109.000
35.19301 128.000
35.21296 118.000
35.23291 118.000
35.25285 133.000
35.27280 126.000
35.29275 131.000
35.31269 130.000
35.33264 143.000
35.35259 140.000
35.37254 145.000
35.39248 151.000
35.41243 168.000
35.43238 177.000
35.45232 205.000
35.47227 205.000
35.49222 231.000
35.51216 258.000
35.53211 282.000
35.55206 359.000
35.57201 385.000
35.59195 483.000
35.61190 602.000
35.63185 832.000
35.65179 1144.000
35.67174 1518.000
35.69169 2086.000
35.71163 2586.000
35.73158 2947.000
35.75153 2786.000
35.77147 2587.000
35.79142 2499.000
35.81137 2367.000
35.83132 2044.000
35.85126 1802.000
35.87121 1450.000
35.89116 1089.000
35.91110 827.000
35.93105 683.000
35.95100 526.000
35.97094 460.000
35.99089 388.000
36.01084 278.000
36.03079 276.000
36.05073 226.000
36.07068 209.000
36.09063 177.000
36.11057 175.000
36.13052 161.000
36.15047 149.000
36.17041 124.000
36.19036 133.000
36.21031 117.000
36.23025 105.000
36.25020 148.000
36.27015 121.000
36.29010 126.000
36.31004 124.000
36.32999 121.000
36.34994 129.000
36.36988 115.000
36.38983 102.000
36.40978 109.000
36.42972 111.000
36.44967 96.000
36.46962 108.000
36.48957 90.000
36.50951 118.000
36.52946 115.000
36.54941 101.000
36.56935 112.000
36.58930 121.000
36.60925 121.000
36.62919 127.000
36.64914 121.000
36.66909 137.000
36.68903 134.000
36.70898 141.000
36.72893 149.000
36.74888 166.000
36.76882 157.000
36.78877 140.000
36.80872 128.000
36.82866 144.000
36.84861 131.000
36.86856 104.000
36.88850 124.000
36.90845 126.000
36.92840 102.000
36.94835 112.000
36.96829 112.000
36.98824 100.000
37.00819 108.000
37.02813 118.000
37.04808 105.000
37.06803 110.000
37.08797 119.000
37.10792 115.000
37.12787 119.000
37.14781 122.000
37.16776 159.000
37.18771 196.000
37.20766 252.000
37.22760 270.000
37.24755 343.000
37.26750 403.000
37.28744 401.000
37.30739 412.000
37.32734 420.000
37.34728 400.000
37.36723 474.000
37.38718 390.000
37.40713 344.000
37.42707 288.000
37.44702 261.000
37.46697 278.000
37.48691 192.000
37.50686 184.000
37.52681 155.000
37.54675 130.000
37.56670 127.000
37.58665 112.000
37.60660 109.000
37.62654 96.000
37.64649 88.000
37.66644 78.000
37.68638 99.000
37.70633 99.000
37.72628 96.000
37.74622 90.000
37.76617 99.000
37.78612 77.000
37.80606 81.000
37.82601 91.000
37.84596 88.000
37.86591 91.000
37.88585 87.000
37.90580 85.000
37.92575 92.000
37.94569 96.000
37.96564 79.000
37.98559 95.000
38.00553 104.000
38.02548 99.000
38.04543 87.000
38.06538 76.000
38.08532 87.000
38.10527 100.000
38.12522 72.000
38.14516 102.000
38.16511 96.000
38.18506 78.000
38.20500 89.000
38.22495 87.000
38.24490 69.000
38.26484 96.000
38.28479 110.000
38.30474 76.000
38.32469 101.000
38.34463 88.000
38.36458 94.000
38.38453 102.000
38.40447 93.000
38.42442 89.000
38.44437 96.000
38.46431 91.000
38.48426 89.000
38.50421 106.000
38.52416 109.000
38.54410 100.000
38.56405 102.000
38.58400 93.000
38.60394 99.000
38.62389 109.000
38.64384 110.000
38.66378 113.000
38.68373 111.000
38.70368 107.000
38.72362 113.000
38.74357 115.000
38.76352 113.000
38.78347 121.000
38.80341 124.000
38.82336 101.000
38.84331 116.000
38.86325 115.000
38.88320 120.000
38.90315 132.000
38.92309 140.000
38.94304 138.000
38.96299 124.000
38.98294 144.000
39.00288 144.000
39.02283 154.000
39.04278 169.000
39.06272 187.000
39.08267 226.000
39.10262 199.000
39.12256 207.000
39.14251 257.000
39.16246 262.000
39.18241 327.000
39.20235 395.000
39.22230 441.000
39.24225 541.000
39.26219 683.000
39.28214 731.000
39.30209 764.000
39.32203 812.000
39.34198 930.000
39.36193 939.000
39.38187 942.000
39.40182 940.000
39.42177 923.000
39.44172 810.000
39.46166 688.000
39.48161 687.000
39.50156 611.000
39.52150 514.000
39.54145 459.000
39.56140 367.000
39.58134 332.000
39.60129 266.000
39.62124 229.000
39.64119 218.000
39.66113 175.000
39.68108 172.000
39.70103 176.000
39.72097 147.000
39.74092 159.000
39.76087 114.000
39.78081 137.000
39.80076 144.000
39.82071 124.000
39.84065 116.000
39.86060 120.000
39.88055 95.000
39.90050 108.000
39.92044 109.000
39.94039 98.000
39.96034 81.000
39.98028 101.000
40.00023 115.000
40.02018 90.000
40.04012 98.000
40.06007 121.000
40.08002 103.000
40.09997 93.000
40.11991 97.000
40.13986 81.000
40.15981 88.000
40.17975 99.000
40.19970 105.000
40.21965 88.000
40.23959 83.000
40.25954 101.000
40.27949 80.000
40.29943 99.000
40.31938 96.000
40.33933 93.000
40.35928 96.000
40.37922 75.000
40.39917 88.000
40.41912 86.000
40.43906 89.000
40.45901 76.000
40.47896 82.000
40.49890 99.000
40.51885 90.000
40.53880 79.000
40.55875 104.000
40.57869 96.000
40.59864 101.000
40.61859 85.000
40.63853 58.000
40.65848 73.000
40.67843 97.000
40.69837 110.000
40.71832 87.000
40.73827 79.000
40.75822 87.000
40.77816 91.000
40.79811 77.000
40.81806 87.000
40.83800 92.000
40.85795 78.000
40.87790 90.000
40.89784 85.000
40.91779 72.000
40.93774 78.000
40.95768 88.000
40.97763 81.000
40.99758 87.000
41.01753 96.000
41.03747 79.000
41.05742 78.000
41.07737 107.000
41.09731 86.000
41.11726 79.000
41.13721 90.000
41.15715 87.000
41.17710 87.000
41.19705 75.000
41.21700 68.000
41.23694 91.000
41.25689 87.000
41.27684 78.000
41.29678 62.000
41.31673 83.000
41.33668 81.000
41.35662 89.000
41.37657 85.000
41.39652 86.000
41.41646 90.000
41.43641 92.000
41.45636 95.000
41.47631 82.000
41.49625 88.000
41.51620 71.000
41.53615 68.000
41.55609 77.000
41.57604 85.000
41.59599 77.000
41.61593 92.000
41.63588 86.000
41.65583 80.000
41.67578 77.000
41.69572 77.000
41.71567 86.000
41.73562 77.000
41.75556 79.000
41.77551 85.000
41.79546 75.000
41.81540 66.000
41.83535 94.000
41.85530 90.000
41.87524 72.000
41.89519 91.000
41.91514 97.000
41.93509 92.000
41.95503 87.000
41.97498 68.000
41.99493 70.000
42.01487 71.000
42.03482 79.000
42.05477 76.000
42.07471 89.000
42.09466 86.000
42.11461 91.000
42.13456 84.000
42.15450 94.000
42.17445 80.000
42.19440 79.000
42.21434 97.000
42.23429 94.000
42.25424 99.000
42.27418 86.000
42.29413 105.000
42.31408 70.000
42.33403 107.000
42.35397 81.000
42.37392 88.000
42.39387 95.000
42.41381 58.000
42.43376 77.000
42.45371 85.000
42.47365 76.000
42.49360 101.000
42.51355 105.000
42.53349 86.000
42.55344 82.000
42.57339 100.000
42.59334 98.000
42.61328 100.000
42.63323 101.000
42.65318 102.000
42.67312 81.000
42.69307 106.000
42.71302 80.000
42.73296 103.000
42.75291 95.000
42.77286 89.000
42.79281 104.000
42.81275 109.000
42.83270 112.000
42.85265 102.000
42.87259 111.000
42.89254 102.000
42.91249 96.000
42.93243 110.000
42.95238 116.000
42.97233 112.000
42.99227 100.000
43.01222 119.000
43.03217 138.000
43.05212 128.000
43.07206 169.000
43.09201 161.000
43.11196 138.000
43.13190 160.000
43.15185 159.000
43.17180 202.000
43.19174 228.000
43.21169 310.000
43.23164 376.000
43.25159 497.000
43.27153 562.000
43.29148 674.000
43.31143 727.000
43.33137 717.000
43.35132 821.000
43.37127 854.000
43.39121 965.000
43.41116 1036.000
43.43111 1078.000
43.45105 1000.000
43.47100 965.000
43.49095 838.000
43.51090 845.000
43.53084 770.000
43.55079 691.000
43.57074 609.000
43.59068 546.000
43.61063 459.000
43.63058 414.000
43.65052 292.000
43.67047 291.000
43.69042 256.000
43.71037 212.000
43.73031 187.000
43.75026 157.000
43.77021 171.000
43.79015 144.000
43.81010 129.000
43.83005 126.000
43.84999 158.000
43.86994 132.000
43.88989 112.000
43.90984 115.000
43.92978 122.000
43.94973 106.000
43.96968 110.000
43.98962 90.000
44.00957 102.000
44.02952 106.000
44.04946 90.000
44.06941 89.000
44.08936 90.000
44.10930 88.000
44.12925 97.000
44.14920 96.000
44.16915 91.000
44.18909 85.000
44.20904 107.000
44.22899 92.000
44.24893 87.000
44.26888 73.000
44.28883 92.000
44.30877 95.000
44.32872 92.000
44.34867 68.000
44.36862 93.000
44.38856 100.000
44.40851 81.000
44.42846 96.000
44.44840 75.000
44.46835 94.000
44.48830 90.000
44.50824 88.000
44.52819 88.000
44.54814 93.000
44.56808 89.000
44.58803 94.000
44.60798 96.000
44.62793 93.000
44.64787 99.000
44.66782 80.000
44.68777 99.000
44.70771 82.000
44.72766 87.000
44.74761 83.000
44.76755 89.000
44.78750 92.000
44.80745 81.000
44.82740 93.000
44.84734 101.000
44.86729 96.000
44.88724 76.000
44.90718 88.000
44.92713 70.000
44.94708 81.000
44.96702 76.000
44.98697 105.000
45.00692 77.000
45.02686 73.000
45.04681 91.000
45.06676 84.000
45.08671 82.000
45.10665 92.000
45.12660 101.000
45.14655 76.000
45.16649 90.000
45.18644 94.000
45.20639 73.000
45.22633 74.000
45.24628 91.000
45.26623 72.000
45.28618 88.000
45.30612 89.000
45.32607 86.000
45.34602 96.000
45.36596 68.000
45.38591 91.000
45.40586 95.000
45.42580 84.000
45.44575 72.000
45.46570 90.000
45.48565 85.000
45.50559 78.000
45.52554 90.000
45.54549 58.000
45.56543 69.000
45.58538 91.000
45.60533 76.000
45.62527 76.000
45.64522 94.000
45.66517 83.000
45.68511 85.000
45.70506 54.000
45.72501 80.000
45.74496 70.000
45.76490 69.000
45.78485 78.000
45.80480 80.000
45.82474 74.000
45.84469 83.000
45.86464 73.000
45.88458 72.000
45.90453 88.000
45.92448 80.000
45.94443 81.000
45.96437 66.000
45.98432 73.000
46.00427 97.000
46.02421 80.000
46.04416 89.000
46.06411 88.000
46.08405 69.000
46.10400 78.000
46.12395 78.000
46.14389 74.000
46.16384 74.000
46.18379 76.000
46.20374 61.000
46.22368 80.000
46.24363 75.000
46.26358 74.000
46.28352 77.000
46.30347 82.000
46.32342 94.000
46.34336 86.000
46.36331 77.000
46.38326 83.000
46.40321 90.000
46.42315 69.000
46.44310 76.000
46.46305 89.000
46.48299 74.000
46.50294 90.000
46.52289 68.000
46.54283 72.000
46.56278 75.000
46.58273 97.000
46.60267 84.000
46.62262 94.000
46.64257 75.000
46.66252 88.000
46.68246 90.000
46.70241 85.000
46.72236 55.000
46.74230 72.000
46.76225 92.000
46.78220 80.000
46.80214 76.000
46.82209 85.000
46.84204 82.000
46.86199 70.000
46.88193 86.000
46.90188 86.000
46.92183 95.000
46.94177 79.000
46.96172 86.000
46.98167 80.000
47.00161 62.000
47.02156 84.000
47.04151 95.000
47.06146 72.000
47.08140 86.000
47.10135 86.000
47.12130 90.000
47.14124 90.000
47.16119 85.000
47.18114 99.000
47.20108 87.000
47.22103 79.000
47.24098 69.000
47.26092 90.000
47.28087 107.000
47.30082 102.000
47.32077 95.000
47.34071 76.000
47.36066 76.000
47.38061 87.000
47.40055 80.000
47.42050 75.000
47.44045 88.000
47.46039 88.000
47.48034 103.000
47.50029 92.000
47.52024 91.000
47.54018 84.000
47.56013 102.000
47.58008 110.000
47.60002 111.000
47.61997 84.000
47.63992 107.000
47.65986 86.000
47.67981 95.000
47.69976 96.000
47.71970 102.000
47.73965 101.000
47.75960 102.000
47.77955 97.000
47.79949 85.000
47.81944 89.000
47.83939 107.000
47.85933 90.000
47.87928 79.000
47.89923 102.000
47.91917 106.000
47.93912 88.000
47.95907 84.000
47.97902 87.000
47.99896 82.000
48.01891 96.000
48.03886 102.000
48.05880 109.000
48.07875 102.000
48.09870 99.000
48.11864 114.000
48.13859 99.000
48.15854 119.000
48.17848 104.000
48.19843 117.000
48.21838 111.000
48.23833 128.000
48.25827 109.000
48.27822 133.000
48.29817 147.000
48.31811 135.000
48.33806 135.000
48.35801 136.000
48.37795 134.000
48.39790 161.000
48.41785 149.000
48.43780 172.000
48.45774 153.000
48.47769 167.000
48.49764 193.000
48.51758 218.000
48.53753 207.000
48.55748 247.000
48.57742 227.000
48.59737 303.000
48.61732 288.000
48.63726 375.000
48.65721 413.000
48.67716 529.000
48.69711 602.000
48.71705 688.000
48.73700 739.000
48.75695 748.000
48.77689 834.000
48.79684 731.000
48.81679 767.000
48.83673 760.000
48.85668 690.000
48.87663 672.000
48.89658 576.000
48.91652 574.000
48.93647 455.000
48.95642 452.000
48.97636 393.000
48.99631 348.000
49.01626 276.000
49.03620 264.000
49.05615 248.000
49.07610 199.000
49.09605 190.000
49.11599 187.000
49.13594 184.000
49.15589 178.000
49.17583 154.000
49.19578 160.000
49.21573 136.000
49.23567 127.000
49.25562 142.000
49.27557 126.000
49.29551 145.000
49.31546 131.000
49.33541 114.000
49.35536 109.000
49.37530 129.000
49.39525 115.000
49.41520 102.000
49.43514 112.000
49.45509 114.000
49.47504 132.000
49.49498 117.000
49.51493 97.000
49.53488 89.000
49.55483 104.000
49.57477 100.000
49.59472 104.000
49.61467 79.000
49.63461 92.000
49.65456 87.000
49.67451 96.000
49.69445 98.000
49.71440 120.000
49.73435 102.000
49.75429 86.000
49.77424 71.000
49.79419 82.000
49.81414 94.000
49.83408 82.000
49.85403 90.000
49.87398 80.000
49.89392 78.000
49.91387 80.000
49.93382 87.000
49.95376 88.000
49.97371 92.000
49.99366 72.000
50.01361 85.000
50.03355 69.000
50.05350 90.000
50.07345 86.000
50.09339 81.000
50.11334 91.000
50.13329 99.000
50.15323 87.000
50.17318 66.000
50.19313 78.000
50.21307 89.000
50.23302 83.000
50.25297 79.000
50.27292 84.000
50.29286 85.000
50.31281 85.000
50.33276 90.000
50.35270 69.000
50.37265 72.000
50.39260 92.000
50.41254 75.000
50.43249 82.000
50.45244 91.000
50.47239 75.000
50.49233 84.000
50.51228 98.000
50.53223 72.000
50.55217 79.000
50.57212 65.000
50.59207 79.000
50.61201 80.000
50.63196 79.000
50.65191 80.000
50.67186 99.000
50.69180 94.000
50.71175 83.000
50.73170 71.000
50.75164 94.000
50.77159 76.000
50.79154 72.000
50.81148 76.000
50.83143 87.000
50.85138 68.000
50.87132 71.000
50.89127 80.000
50.91122 84.000
50.93117 82.000
50.95111 76.000
50.97106 82.000
50.99101 100.000
51.01095 66.000
51.03090 71.000
51.05085 84.000
51.07079 70.000
51.09074 82.000
51.11069 88.000
51.13064 69.000
51.15058 64.000
51.17053 67.000
51.19048 82.000
51.21042 73.000
51.23037 79.000
51.25032 92.000
51.27026 69.000
51.29021 65.000
51.31016 73.000
51.33010 103.000
51.35005 70.000
51.37000 68.000
51.38995 61.000
51.40989 71.000
51.42984 76.000
51.44979 73.000
51.46973 93.000
51.48968 74.000
51.50963 77.000
51.52957 87.000
51.54952 84.000
51.56947 70.000
51.58942 95.000
51.60936 58.000
51.62931 79.000
51.64926 59.000
51.66920 68.000
51.68915 76.000
51.70910 90.000
51.72904 80.000
51.74899 82.000
51.76894 89.000
51.78888 82.000
51.80883 71.000
51.82878 84.000
51.84873 71.000
51.86867 84.000
51.88862 76.000
51.90857 87.000
51.92851 84.000
51.94846 82.000
51.96841 74.000
51.98835 71.000
52.00830 75.000
52.02825 65.000
52.04820 72.000
52.06814 75.000
52.08809 78.000
52.10804 69.000
52.12798 92.000
52.14793 65.000
52.16788 72.000
52.18782 89.000
52.20777 69.000
52.22772 70.000
52.24767 88.000
52.26761 81.000
52.28756 69.000
52.30751 76.000
52.32745 70.000
52.34740 63.000
52.36735 76.000
52.38729 67.000
52.40724 73.000
52.42719 67.000
52.44713 84.000
52.46708 81.000
52.48703 75.000
52.50698 81.000
52.52692 65.000
52.54687 72.000
52.56682 76.000
52.58676 64.000
52.60671 74.000
52.62666 51.000
52.64660 85.000
52.66655 86.000
52.68650 64.000
52.70645 69.000
52.72639 82.000
52.74634 73.000
52.76629 85.000
52.78623 77.000
52.80618 73.000
52.82613 66.000
52.84607 90.000
52.86602 65.000
52.88597 75.000
52.90591 69.000
52.92586 75.000
52.94581 88.000
52.96576 75.000
52.98570 67.000
53.00565 88.000
53.02560 75.000
53.04554 78.000
53.06549 74.000
53.08544 56.000
53.10538 83.000
53.12533 56.000
53.14528 71.000
53.16523 57.000
53.18517 76.000
53.20512 87.000
53.22507 85.000
53.24501 84.000
53.26496 65.000
53.28491 80.000
53.30485 78.000
53.32480 63.000
53.34475 92.000
53.36469 82.000
53.38464 81.000
53.40459 73.000
53.42454 87.000
53.44448 58.000
53.46443 73.000
53.48438 84.000
53.50432 67.000
53.52427 89.000
53.54422 86.000
53.56416 71.000
53.58411 88.000
53.60406 101.000
53.62401 85.000
53.64395 101.000
53.66390 109.000
53.68385 92.000
53.70379 102.000
53.72374 99.000
53.74369 102.000
53.76363 132.000
53.78358 151.000
53.80353 165.000
53.82348 209.000
53.84342 236.000
53.86337 215.000
53.88332 268.000
53.90326 241.000
53.92321 206.000
53.94316 217.000
53.96310 222.000
53.98305 176.000
54.00300 202.000
54.02294 187.000
54.04289 218.000
54.06284 158.000
54.08279 135.000
54.10273 116.000
54.12268 100.000
54.14263 118.000
54.16257 92.000
54.18252 96.000
54.20247 95.000
54.22241 98.000
54.24236 100.000
54.26231 70.000
54.28226 83.000
54.30220 65.000
54.32215 71.000
54.34210 71.000
54.36204 83.000
54.38199 86.000
54.40194 84.000
54.42188 63.000
54.44183 86.000
54.46178 58.000
54.48172 81.000
54.50167 69.000
54.52162 67.000
54.54157 75.000
54.56151 81.000
54.58146 86.000
54.60141 69.000
54.62135 70.000
54.64130 57.000
54.66125 62.000
54.68119 68.000
54.70114 75.000
54.72109 75.000
54.74104 72.000
54.76098 67.000
54.78093 74.000
54.80088 73.000
54.82082 69.000
54.84077 76.000
54.86072 76.000
54.88066 75.000
54.90061 97.000
54.92056 74.000
54.94050 67.000
54.96045 63.000
54.98040 89.000
55.00035 80.000
55.02029 78.000
55.04024 88.000
55.06019 65.000
55.08013 86.000
55.10008 81.000
55.12003 81.000
55.13997 69.000
55.15992 80.000
55.17987 69.000
55.19982 81.000
55.21976 68.000
55.23971 58.000
55.25966 76.000
55.27960 83.000
55.29955 79.000
55.31950 65.000
55.33944 58.000
55.35939 87.000
55.37934 73.000
55.39929 83.000
55.41923 66.000
55.43918 62.000
55.45913 77.000
55.47907 72.000
55.49902 65.000
55.51897 75.000
55.53891 79.000
55.55886 79.000
55.57881 84.000
55.59875 72.000
55.61870 85.000
55.63865 71.000
55.65860 72.000
55.67854 77.000
55.69849 72.000
55.71844 51.000
55.73838 98.000
55.75833 71.000
55.77828 62.000
55.79822 82.000
55.81817 85.000
55.83812 82.000
55.85807 57.000
55.87801 76.000
55.89796 78.000
55.91791 72.000
55.93785 72.000
55.95780 81.000
55.97775 80.000
55.99769 86.000
56.01764 79.000
56.03759 78.000
56.05753 68.000
56.07748 85.000
56.09743 75.000
56.11738 68.000
56.13732 71.000
56.15727 104.000
56.17722 79.000
56.19716 78.000
56.21711 65.000
56.23706 77.000
56.25700 82.000
56.27695 73.000
56.29690 80.000
56.31685 82.000
56.33679 87.000
56.35674 73.000
56.37669 67.000
56.39663 77.000
56.41658 72.000
56.43653 79.000
56.45647 88.000
56.47642 85.000
56.49637 88.000
56.51631 70.000
56.53626 73.000
56.55621 87.000
56.57616 84.000
56.59610 81.000
56.61605 77.000
56.63600 102.000
56.65594 90.000
56.67589 98.000
56.69584 77.000
56.71578 71.000
56.73573 71.000
56.75568 85.000
56.77563 78.000
56.79557 75.000
56.81552 87.000
56.83547 84.000
56.85541 90.000
56.87536 83.000
56.89531 103.000
56.91525 112.000
56.93520 91.000
56.95515 71.000
56.97510 89.000
56.99504 89.000
57.01499 107.000
57.03494 89.000
57.05488 86.000
57.07483 97.000
57.09478 125.000
57.11472 112.000
57.13467 125.000
57.15462 112.000
57.17456 118.000
57.19451 115.000
57.21446 137.000
57.23441 136.000
57.25435 159.000
57.27430 185.000
57.29425 223.000
57.31419 252.000
57.33414 311.000
57.35409 378.000
57.37403 437.000
57.39398 601.000
57.41393 624.000
57.43388 627.000
57.45382 621.000
57.47377 561.000
57.49372 546.000
57.51366 482.000
57.53361 453.000
57.55356 450.000
57.57350 410.000
57.59345 399.000
57.61340 377.000
57.63334 306.000
57.65329 270.000
57.67324 268.000
57.69319 237.000
57.71313 169.000
57.73308 159.000
57.75303 117.000
57.77297 130.000
57.79292 138.000
57.81287 114.000
57.83281 114.000
57.85276 108.000
57.87271 110.000
57.89266 81.000
57.91260 88.000
57.93255 94.000
57.95250 96.000
57.97244 97.000
57.99239 93.000
58.01234 96.000
58.03228 77.000
58.05223 101.000
58.07218 90.000
58.09212 77.000
58.11207 75.000
58.13202 87.000
58.15197 88.000
58.17191 85.000
58.19186 86.000
58.21181 68.000
58.23175 77.000
58.25170 92.000
58.27165 85.000
58.29159 75.000
58.31154 89.000
58.33149 81.000
58.35144 75.000
58.37138 70.000
58.39133 81.000
58.41128 77.000
58.43122 91.000
58.45117 80.000
58.47112 96.000
58.49106 71.000
58.51101 76.000
58.53096 77.000
58.55090 84.000
58.57085 85.000
58.59080 77.000
58.61075 74.000
58.63069 85.000
58.65064 84.000
58.67059 79.000
58.69053 63.000
58.71048 74.000
58.73043 72.000
58.75037 74.000
58.77032 71.000
58.79027 66.000
58.81022 77.000
58.83016 82.000
58.85011 91.000
58.87006 88.000
58.89000 68.000
58.90995 81.000
58.92990 92.000
58.94984 65.000
58.96979 72.000
58.98974 75.000
59.00969 66.000
59.02963 70.000
59.04958 79.000
59.06953 77.000
59.08947 79.000
59.10942 70.000
59.12937 75.000
59.14931 80.000
59.16926 61.000
59.18921 78.000
59.20915 78.000
59.22910 82.000
59.24905 69.000
59.26900 83.000
59.28894 76.000
59.30889 82.000
59.32884 86.000
59.34878 90.000
59.36873 72.000
59.38868 77.000
59.40862 84.000
59.42857 77.000
59.44852 79.000
59.46847 76.000
59.48841 92.000
59.50836 73.000
59.52831 87.000
59.54825 64.000
59.56820 75.000
59.58815 83.000
59.60809 76.000
59.62804 69.000
59.64799 80.000
59.66793 84.000
59.68788 91.000
59.70783 70.000
59.72778 70.000
59.74772 81.000
59.76767 73.000
59.78762 78.000
59.80756 79.000
59.82751 81.000
59.84746 98.000
59.86740 71.000
59.88735 69.000
59.90730 81.000
59.92725 67.000
59.94719 70.000
59.96714 74.000
59.98709 87.000
60.00703 92.000
60.02698 79.000
60.04693 72.000
60.06687 85.000
60.08682 87.000
60.10677 91.000
60.12671 83.000
60.14666 74.000
60.16661 79.000
60.18656 78.000
60.20650 78.000
60.22645 67.000
60.24640 83.000
60.26634 87.000
60.28629 82.000
60.30624 77.000
60.32618 71.000
60.34613 91.000
60.36608 86.000
60.38603 88.000
60.40597 82.000
60.42592 67.000
60.44587 85.000
60.46581 69.000
60.48576 74.000
60.50571 81.000
60.52565 90.000
60.54560 72.000
60.56555 93.000
60.58550 81.000
60.60544 80.000
60.62539 75.000
60.64534 67.000
60.66528 74.000
60.68523 96.000
60.70518 82.000
60.72512 75.000
60.74507 78.000
60.76502 93.000
60.78496 70.000
60.80491 79.000
60.82486 88.000
60.84481 74.000
60.86475 99.000
60.88470 89.000
60.90465 80.000
60.92459 94.000
60.94454 88.000
60.96449 85.000
60.98443 68.000
61.00438 80.000
61.02433 82.000
61.04428 89.000
61.06422 95.000
61.08417 66.000
61.10412 72.000
61.12406 80.000
61.14401 99.000
61.16396 87.000
61.18390 98.000
61.20385 104.000
61.22380 87.000
61.24374 91.000
61.26369 82.000
61.28364 81.000
61.30359 98.000
61.32353 81.000
61.34348 90.000
61.36343 94.000
61.38337 79.000
61.40332 95.000
61.42327 89.000
61.44321 85.000
61.46316 99.000
61.48311 94.000
61.50306 91.000
61.52300 106.000
61.54295 93.000
61.56290 124.000
61.58284 102.000
61.60279 124.000
61.62274 104.000
61.64268 118.000
61.66263 114.000
61.68258 104.000
61.70252 127.000
61.72247 122.000
61.74242 135.000
61.76237 117.000
61.78231 131.000
61.80226 140.000
61.82221 150.000
61.84215 176.000
61.86210 168.000
61.88205 191.000
61.90199 230.000
61.92194 206.000
61.94189 224.000
61.96184 282.000
61.98178 286.000
62.00173 282.000
62.02168 328.000
62.04162 356.000
62.06157 325.000
62.08152 305.000
62.10146 335.000
62.12141 287.000
62.14136 321.000
62.16131 307.000
62.18125 294.000
62.20120 285.000
62.22115 266.000
62.24109 269.000
62.26104 258.000
62.28099 231.000
62.30093 206.000
62.32088 186.000
62.34083 175.000
62.36077 189.000
62.38072 174.000
62.40067 158.000
62.42062 146.000
62.44056 134.000
62.46051 147.000
62.48046 143.000
62.50040 142.000
62.52035 125.000
62.54030 148.000
62.56024 125.000
62.58019 126.000
62.60014 154.000
62.62009 135.000
62.64003 128.000
62.65998 126.000
62.67993 159.000
62.69987 143.000
62.71982 181.000
62.73977 163.000
62.75971 190.000
62.77966 229.000
62.79961 218.000
62.81955 252.000
62.83950 295.000
62.85945 301.000
62.87940 338.000
62.89934 348.000
62.91929 367.000
62.93924 380.000
62.95918 429.000
62.97913 489.000
62.99908 544.000
63.01902 686.000
63.03897 822.000
63.05892 918.000
63.07887 862.000
63.09881 817.000
63.11876 758.000
63.13871 669.000
63.15865 639.000
63.17860 547.000
63.19855 549.000
63.21849 594.000
63.23844 581.000
63.25839 567.000
63.27833 525.000
63.29828 456.000
63.31823 346.000
63.33818 315.000
63.35812 226.000
63.37807 211.000
63.39802 199.000
63.41796 196.000
63.43791 158.000
63.45786 145.000
63.47780 132.000
63.49775 123.000
63.51770 114.000
63.53765 128.000
63.55759 104.000
63.57754 129.000
63.59749 100.000
63.61743 115.000
63.63738 101.000
63.65733 103.000
63.67727 105.000
63.69722 101.000
63.71717 106.000
63.73712 109.000
63.75706 119.000
63.77701 109.000
63.79696 109.000
63.81690 121.000
63.83685 110.000
63.85680 115.000
63.87674 105.000
63.89669 115.000
63.91664 142.000
63.93658 143.000
63.95653 161.000
63.97648 153.000
63.99643 168.000
64.01637 183.000
64.03632 221.000
64.05627 205.000
64.07621 267.000
64.09616 235.000
64.11611 215.000
64.13605 262.000
64.15600 235.000
64.17595 283.000
64.19590 245.000
64.21584 258.000
64.23579 273.000
64.25574 288.000
64.27568 275.000
64.29563 262.000
64.31558 271.000
64.33552 241.000
64.35547 305.000
64.37542 251.000
64.39536 272.000
64.41531 282.000
64.43526 262.000
64.45521 272.000
64.47515 253.000
64.49510 208.000
64.51505 191.000
64.53499 197.000
64.55494 193.000
64.57489 184.000
64.59483 169.000
64.61478 148.000
64.63473 136.000
64.65468 144.000
64.67462 123.000
64.69457 105.000
64.71452 125.000
64.73446 109.000
64.75441 117.000
64.77436 108.000
64.79430 95.000
64.81425 86.000
64.83420 102.000
64.85414 109.000
64.87409 99.000
64.89404 99.000
64.91399 92.000
64.93393 97.000
64.95388 93.000
64.97383 93.000
64.99377 121.000
65.01372 94.000
65.03367 84.000
65.05361 79.000
65.07356 92.000
65.09351 100.000
65.11346 63.000
65.13340 74.000
65.15335 79.000
65.17330 79.000
65.19324 99.000
65.21319 87.000
65.23314 69.000
65.25308 104.000
65.27303 70.000
65.29298 97.000
65.31293 87.000
65.33287 97.000
65.35282 86.000
65.37277 82.000
65.39271 67.000
65.41266 71.000
65.43261 66.000
65.45255 75.000
65.47250 75.000
65.49245 80.000
65.51239 82.000
65.53234 90.000
65.55229 102.000
65.57224 58.000
65.59218 85.000
65.61213 106.000
65.63208 99.000
65.65202 83.000
65.67197 82.000
65.69192 87.000
65.71186 90.000
65.73181 92.000
65.75176 89.000
65.77171 88.000
65.79165 86.000
65.81160 72.000
65.83155 82.000
65.85149 104.000
65.87144 74.000
65.89139 89.000
65.91133 90.000
65.93128 90.000
65.95123 72.000
65.97117 87.000
65.99112 82.000
66.01107 103.000
66.03102 90.000
66.05096 89.000
66.07091 70.000
66.09086 81.000
66.11080 98.000
66.13075 99.000
66.15070 100.000
66.17064 99.000
66.19059 94.000
66.21054 92.000
66.23049 105.000
66.25043 117.000
66.27038 104.000
66.29033 118.000
66.31027 130.000
66.33022 125.000
66.35017 137.000
66.37011 137.000
66.39006 134.000
66.41001 137.000
66.42995 139.000
66.44990 178.000
66.46985 165.000
66.48980 179.000
66.50974 185.000
66.52969 195.000
66.54964 185.000
66.56958 181.000
66.58953 194.000
66.60948 194.000
66.62942 196.000
66.64937 200.000
66.66932 206.000
66.68927 191.000
66.70921 219.000
66.72916 202.000
66.74911 222.000
66.76905 194.000
66.78900 219.000
66.80895 199.000
66.82889 187.000
66.84884 192.000
66.86879 174.000
66.88874 209.000
66.90868 205.000
66.92863 194.000
66.94858 181.000
66.96852 151.000
66.98847 145.000
67.00842 181.000
67.02836 140.000
67.04831 127.000
67.06826 160.000
67.08820 146.000
67.10815 119.000
67.12810 136.000
67.14805 141.000
67.16799 120.000
67.18794 109.000
67.20789 100.000
67.22783 89.000
67.24778 123.000
67.26773 98.000
67.28767 92.000
67.30762 97.000
67.32757 90.000
67.34752 100.000
67.36746 86.000
67.38741 83.000
67.40736 78.000
67.42730 101.000
67.44725 70.000
67.46720 84.000
67.48714 77.000
67.50709 93.000
67.52704 77.000
67.54698 55.000
67.56693 71.000
67.58688 68.000
67.60683 83.000
67.62677 84.000
67.64672 85.000
67.66667 78.000
67.68661 76.000
67.70656 85.000
67.72651 81.000
67.74645 83.000
67.76640 63.000
67.78635 69.000
67.80630 92.000
67.82624 84.000
67.84619 65.000
67.86614 68.000
67.88608 73.000
67.90603 74.000
67.92598 71.000
67.94592 73.000
67.96587 85.000
67.98582 86.000
68.00576 80.000
68.02571 84.000
68.04566 74.000
68.06561 68.000
68.08555 85.000
68.10550 80.000
68.12545 76.000
68.14539 87.000
68.16534 67.000
68.18529 91.000
68.20523 76.000
68.22518 95.000
68.24513 85.000
68.26508 90.000
68.28502 72.000
68.30497 74.000
68.32492 70.000
68.34486 76.000
68.36481 85.000
68.38476 70.000
68.40470 75.000
68.42465 64.000
68.44460 47.000
68.46455 77.000
68.48449 66.000
68.50444 52.000
68.52439 62.000
68.54433 97.000
68.56428 85.000
68.58423 96.000
68.60417 76.000
68.62412 82.000
68.64407 90.000
68.66401 56.000
68.68396 83.000
68.70391 63.000
68.72386 82.000
68.74380 62.000
68.76375 83.000
68.78370 78.000
68.80364 65.000
68.82359 64.000
68.84354 63.000
68.86348 73.000
68.88343 84.000
68.90338 79.000
68.92333 73.000
68.94327 59.000
68.96322 92.000
68.98317 70.000
69.00311 71.000
69.02306 85.000
69.04301 55.000
69.06295 67.000
69.08290 91.000
69.10285 68.000
69.12279 69.000
69.14274 79.000
69.16269 63.000
69.18264 82.000
69.20258 79.000
69.22253 82.000
69.24248 69.000
69.26242 64.000
69.28237 65.000
69.30232 71.000
69.32226 79.000
69.34221 76.000
69.36216 72.000
69.38211 81.000
69.40205 86.000
69.42200 81.000
69.44195 88.000
69.46189 74.000
69.48184 80.000
69.50179 92.000
69.52173 69.000
69.54168 70.000
69.56163 76.000
69.58157 85.000
69.60152 85.000
69.62147 64.000
69.64142 69.000
69.66136 86.000
69.68131 78.000
69.70126 81.000
69.72120 71.000
69.74115 73.000
69.76110 74.000
69.78104 69.000
69.80099 81.000
69.82094 71.000
69.84089 75.000
69.86083 88.000
69.88078 84.000
69.90073 89.000
69.92067 94.000
69.94062 83.000
69.96057 78.000
69.98051 109.000
70.00046 67.000
70.02041 83.000
70.04035 72.000
70.06030 75.000
70.08025 68.000
70.10020 77.000
70.12014 71.000
70.14009 67.000
70.16004 72.000
70.17998 83.000
70.19993 72.000
70.21988 69.000
70.23982 80.000
70.25977 75.000
70.27972 83.000
70.29967 82.000
70.31961 71.000
70.33956 67.000
70.35951 71.000
70.37945 64.000
70.39940 77.000
70.41935 68.000
70.43929 69.000
70.45924 77.000
70.47919 89.000
70.49914 77.000
70.51908 67.000
70.53903 74.000
70.55898 74.000
70.57892 71.000
70.59887 83.000
70.61882 63.000
70.63876 72.000
70.65871 74.000
70.67866 62.000
70.69860 81.000
70.71855 65.000
70.73850 77.000
70.75845 65.000
70.77839 66.000
70.79834 73.000
70.81829 62.000
70.83823 89.000
70.85818 71.000
70.87813 80.000
70.89807 67.000
70.91802 69.000
70.93797 65.000
70.95792 70.000
70.97786 88.000
70.99781 73.000
71.01776 78.000
71.03770 79.000
71.05765 86.000
71.07760 62.000
71.09754 90.000
71.11749 74.000
71.13744 86.000
71.15738 61.000
71.17733 84.000
71.19728 69.000
71.21723 84.000
71.23717 76.000
71.25712 94.000
71.27707 71.000
71.29701 89.000
71.31696 77.000
71.33691 75.000
71.35685 93.000
71.37680 77.000
71.39675 73.000
71.41670 79.000
71.43664 104.000
71.45659 99.000
71.47654 91.000
71.49648 114.000
71.51643 122.000
71.53638 123.000
71.55632 109.000
71.57627 132.000
71.59622 126.000
71.61616 109.000
71.63611 100.000
71.65606 120.000
71.67601 117.000
71.69595 101.000
71.71590 107.000
71.73585 115.000
71.75579 94.000
71.77574 105.000
71.79569 122.000
71.81563 113.000
71.83558 84.000
71.85553 89.000
71.87548 98.000
71.89542 90.000
71.91537 98.000
71.93532 105.000
71.95526 87.000
71.97521 79.000
71.99516 53.000
72.01510 79.000
72.03505 73.000
72.05500 65.000
72.07495 86.000
72.09489 81.000
72.11484 80.000
72.13479 68.000
72.15473 86.000
72.17468 77.000
72.19463 80.000
72.21457 77.000
72.23452 81.000
72.25447 64.000
72.27441 71.000
72.29436 66.000
72.31431 82.000
72.33426 77.000
72.35420 63.000
72.37415 69.000
72.39410 68.000
72.41404 79.000
72.43399 83.000
72.45394 67.000
72.47388 71.000
72.49383 89.000
72.51378 64.000
72.53373 77.000
72.55367 87.000
72.57362 79.000
72.59357 69.000
72.61351 84.000
72.63346 77.000
72.65341 61.000
72.67335 77.000
72.69330 69.000
72.71325 76.000
72.73319 70.000
72.75314 64.000
72.77309 70.000
72.79304 62.000
72.81298 82.000
72.83293 81.000
72.85288 79.000
72.87282 58.000
72.89277 58.000
72.91272 70.000
72.93266 70.000
72.95261 71.000
72.97256 75.000
72.99251 76.000
73.01245 83.000
73.03240 87.000
73.05235 74.000
73.07229 80.000
73.09224 81.000
73.11219 71.000
73.13213 100.000
73.15208 79.000
73.17203 93.000
73.19197 83.000
73.21192 90.000
73.23187 96.000
73.25182 86.000
73.27176 95.000
73.29171 88.000
73.31166 107.000
73.33160 73.000
73.35155 99.000
73.37150 108.000
73.39144 100.000
73.41139 104.000
73.43134 118.000
73.45129 115.000
73.47123 110.000
73.49118 114.000
73.51113 125.000
73.53107 110.000
73.55102 136.000
73.57097 129.000
73.59091 126.000
73.61086 126.000
73.63081 137.000
73.65076 137.000
73.67070 140.000
73.69065 148.000
73.71060 119.000
73.73054 127.000
73.75049 118.000
73.77044 134.000
73.79038 118.000
73.81033 135.000
73.83028 116.000
73.85022 114.000
73.87017 120.000
73.89012 104.000
73.91007 112.000
73.93001 111.000
73.94996 94.000
73.96991 96.000
73.98985 98.000
74.00980 96.000
74.02975 88.000
74.04969 100.000
74.06964 73.000
74.08959 75.000
74.10954 80.000
74.12948 73.000
74.14943 99.000
74.16938 87.000
74.18932 89.000
74.20927 91.000
74.22922 86.000
74.24916 87.000
74.26911 81.000
74.28906 91.000
74.30900 83.000
74.32895 103.000
74.34890 90.000
74.36885 82.000
74.38879 94.000
74.40874 104.000
74.42869 94.000
74.44863 119.000
74.46858 98.000
74.48853 94.000
74.50847 112.000
74.52842 123.000
74.54837 141.000
74.56832 168.000
74.58826 176.000
74.60821 210.000
74.62816 195.000
74.64810 209.000
74.66805 224.000
74.68800 170.000
74.70794 176.000
74.72789 160.000
74.74784 175.000
74.76778 145.000
74.78773 163.000
74.80768 157.000
74.82763 160.000
74.84757 174.000
74.86752 161.000
74.88747 134.000
74.90741 152.000
74.92736 119.000
74.94731 125.000
74.96725 112.000
74.98720 109.000
75.00715 102.000
75.02710 98.000
75.04704 98.000
75.06699 94.000
75.08694 82.000
75.10688 107.000
75.12683 88.000
75.14678 79.000
75.16672 71.000
75.18667 82.000
75.20662 104.000
75.22657 97.000
75.24651 99.000
75.26646 119.000
75.28641 105.000
75.30635 107.000
75.32630 109.000
75.34625 115.000
75.36619 130.000
75.38614 145.000
75.40609 125.000
75.42603 170.000
75.44598 143.000
75.46593 135.000
75.48588 136.000
75.50582 117.000
75.52577 138.000
75.54572 136.000
75.56566 157.000
75.58561 166.000
75.60556 161.000
75.62550 155.000
75.64545 174.000
75.66540 154.000
75.68535 167.000
75.70529 152.000
75.72524 163.000
75.74519 150.000
75.76513 128.000
75.78508 129.000
75.80503 142.000
75.82497 127.000
75.84492 103.000
75.86487 128.000
75.88481 114.000
75.90476 110.000
75.92471 123.000
75.94466 110.000
75.96460 118.000
75.98455 98.000
76.00450 96.000
76.02444 107.000
76.04439 93.000
76.06434 91.000
76.08428 98.000
76.10423 90.000
76.12418 89.000
76.14413 90.000
76.16407 80.000
76.18402 96.000
76.20397 95.000
76.22391 76.000
76.24386 87.000
76.26381 81.000
76.28375 77.000
76.30370 78.000
76.32365 76.000
76.34359 93.000
76.36354 77.000
76.38349 86.000
76.40344 81.000
76.42338 75.000
76.44333 84.000
76.46328 90.000
76.48322 63.000
76.50317 73.000
76.52312 83.000
76.54306 66.000
76.56301 80.000
76.58296 81.000
76.60291 70.000
76.62285 79.000
76.64280 85.000
76.66275 86.000
76.68269 76.000
76.70264 65.000
76.72259 70.000
76.74253 88.000
76.76248 69.000
76.78243 75.000
76.80238 64.000
76.82232 73.000
76.84227 81.000
76.86222 95.000
76.88216 70.000
76.90211 61.000
76.92206 79.000
76.94200 71.000
76.96195 71.000
76.98190 82.000
77.00184 80.000
77.02179 65.000
77.04174 73.000
77.06169 73.000
77.08163 68.000
77.10158 79.000
77.12153 69.000
77.14147 80.000
77.16142 73.000
77.18137 81.000
77.20131 80.000
77.22126 83.000
77.24121 92.000
77.26116 80.000
77.28110 72.000
77.30105 71.000
77.32100 75.000
77.34094 85.000
77.36089 78.000
77.38084 95.000
77.40078 89.000
77.42073 90.000
77.44068 75.000
77.46062 93.000
77.48057 73.000
77.50052 77.000
77.52047 79.000
77.54041 88.000
77.56036 77.000
77.58031 90.000
77.60025 96.000
77.62020 95.000
77.64015 94.000
77.66009 98.000
77.68004 102.000
77.69999 112.000
77.71994 120.000
77.73988 122.000
77.75983 99.000
77.77978 111.000
77.79972 103.000
77.81967 123.000
77.83962 122.000
77.85956 118.000
77.87951 133.000
77.89946 123.000
77.91940 134.000
77.93935 124.000
77.95930 156.000
77.97925 139.000
77.99919 144.000
78.01914 166.000
78.03909 130.000
78.05903 136.000
78.07898 150.000
78.09893 129.000
78.11887 156.000
78.13882 157.000
78.15877 154.000
78.17872 171.000
78.19866 162.000
78.21861 154.000
78.23856 185.000
78.25850 152.000
78.27845 157.000
78.29840 157.000
78.31834 185.000
78.33829 181.000
78.35824 159.000
78.37819 149.000
78.39813 147.000
78.41808 148.000
78.43803 144.000
78.45797 133.000
78.47792 127.000
78.49787 130.000
78.51781 135.000
78.53776 137.000
78.55771 130.000
78.57765 132.000
78.59760 95.000
78.61755 97.000
78.63750 114.000
78.65744 109.000
78.67739 87.000
78.69734 110.000
78.71728 92.000
78.73723 85.000
78.75718 90.000
78.77712 96.000
78.79707 86.000
78.81702 105.000
78.83697 82.000
78.85691 82.000
78.87686 86.000
78.89681 78.000
78.91675 87.000
78.93670 75.000
78.95665 92.000
78.97659 70.000
78.99654 76.000
79.01649 81.000
79.03643 85.000
79.05638 66.000
79.07633 76.000
79.09628 79.000
79.11622 87.000
79.13617 79.000
79.15612 102.000
79.17606 91.000
79.19601 87.000
79.21596 85.000
79.23590 71.000
79.25585 96.000
79.27580 91.000
79.29575 98.000
79.31569 107.000
79.33564 90.000
79.35559 103.000
79.37553 105.000
79.39548 113.000
79.41543 132.000
79.43537 95.000
79.45532 99.000
79.47527 106.000
79.49521 116.000
79.51516 126.000
79.53511 117.000
79.55506 92.000
79.57500 113.000
79.59495 147.000
79.61490 138.000
79.63484 138.000
79.65479 132.000
79.67474 136.000
79.69468 132.000
79.71463 111.000
79.73458 109.000
79.75453 106.000
79.77447 100.000
79.79442 110.000
79.81437 101.000
79.83431 90.000
79.85426 110.000
79.87421 86.000
79.89415 105.000
79.91410 88.000
79.93405 90.000
79.95399 99.000
79.97394 90.000
79.99389 77.000
80.01384 86.000
80.03378 91.000
80.05373 84.000
80.07368 56.000
80.09362 72.000
80.11357 80.000
80.13352 77.000
80.15346 88.000
80.17341 76.000
80.19336 68.000
80.21331 81.000
80.23325 91.000
80.25320 95.000
80.27315 84.000
80.29309 96.000
80.31304 76.000
80.33299 88.000
80.35293 81.000
80.37288 70.000
80.39283 56.000
80.41278 76.000
80.43272 85.000
80.45267 75.000
80.47262 75.000
80.49256 64.000
80.51251 81.000
80.53246 86.000
80.55240 78.000
80.57235 86.000
80.59230 87.000
80.61224 79.000
80.63219 83.000
80.65214 83.000
80.67209 78.000
80.69203 81.000
80.71198 85.000
80.73193 80.000
80.75187 68.000
80.77182 76.000
80.79177 65.000
80.81171 94.000
80.83166 66.000
80.85161 96.000
80.87156 74.000
80.89150 75.000
80.91145 82.000
80.93140 104.000
80.95134 86.000
80.97129 85.000
80.99124 77.000
81.01118 83.000
81.03113 68.000
81.05108 75.000
81.07102 78.000
81.09097 102.000
81.11092 65.000
81.13087 69.000
81.15081 81.000
81.17076 71.000
81.19071 76.000
81.21065 70.000
81.23060 78.000
81.25055 68.000
81.27049 83.000
81.29044 84.000
81.31039 68.000
81.33034 79.000
81.35028 78.000
81.37023 61.000
81.39018 63.000
81.41012 74.000
81.43007 83.000
81.45002 62.000
81.46996 84.000
81.48991 63.000
81.50986 65.000
81.52980 73.000
81.54975 76.000
81.56970 76.000
81.58965 50.000
81.60959 72.000
81.62954 68.000
81.64949 74.000
81.66943 85.000
81.68938 56.000
81.70933 72.000
81.72927 87.000
81.74922 59.000
81.76917 79.000
81.78912 71.000
81.80906 79.000
81.82901 65.000
81.84896 81.000
81.86890 74.000
81.88885 87.000
81.90880 76.000
81.92874 63.000
81.94869 82.000
81.96864 78.000
81.98859 87.000
82.00853 74.000
82.02848 73.000
82.04843 75.000
82.06837 75.000
82.08832 61.000
82.10827 70.000
82.12821 89.000
82.14816 85.000
82.16811 75.000
82.18805 66.000
82.20800 67.000
82.22795 62.000
82.24790 59.000
82.26784 61.000
82.28779 77.000
82.30774 74.000
82.32768 90.000
82.34763 58.000
82.36758 83.000
82.38752 70.000
82.40747 56.000
82.42742 70.000
82.44737 77.000
82.46731 80.000
82.48726 80.000
82.50721 86.000
82.52715 71.000
82.54710 83.000
82.56705 71.000
82.58699 93.000
82.60694 85.000
82.62689 86.000
82.64683 74.000
82.66678 65.000
82.68673 72.000
82.70668 61.000
82.72662 76.000
82.74657 71.000
82.76652 63.000
82.78646 70.000
82.80641 68.000
82.82636 66.000
82.84630 72.000
82.86625 88.000
82.88620 74.000
82.90615 67.000
82.92609 85.000
82.94604 83.000
82.96599 62.000
82.98593 75.000
83.00588 77.000
83.02583 93.000
83.04577 78.000
83.06572 70.000
83.08567 74.000
83.10561 69.000
83.12556 63.000
83.14551 59.000
83.16546 68.000
83.18540 85.000
83.20535 71.000
83.22530 72.000
83.24524 84.000
83.26519 77.000
83.28514 66.000
83.30508 68.000
83.32503 84.000
83.34498 72.000
83.36493 91.000
83.38487 74.000
83.40482 81.000
83.42477 81.000
83.44471 80.000
83.46466 78.000
83.48461 77.000
83.50455 65.000
83.52450 72.000
83.54445 69.000
83.56440 76.000
83.58434 72.000
83.60429 79.000
83.62424 71.000
83.64418 75.000
83.66413 70.000
83.68408 82.000
83.70402 67.000
83.72397 63.000
83.74392 79.000
83.76386 78.000
83.78381 81.000
83.80376 69.000
83.82371 69.000
83.84365 81.000
83.86360 86.000
83.88355 92.000
83.90349 85.000
83.92344 80.000
83.94339 64.000
83.96333 74.000
83.98328 84.000
84.00323 85.000
84.02318 86.000
84.04312 74.000
84.06307 79.000
84.08302 77.000
84.10296 81.000
84.12291 79.000
84.14286 66.000
84.16280 93.000
84.18275 87.000
84.20270 82.000
84.22264 87.000
84.24259 99.000
84.26254 96.000
84.28249 88.000
84.30243 98.000
84.32238 99.000
84.34233 98.000
84.36227 107.000
84.38222 105.000
84.40217 120.000
84.42211 111.000
84.44206 121.000
84.46201 98.000
84.48196 118.000
84.50190 108.000
84.52185 120.000
84.54180 135.000
84.56174 104.000
84.58169 136.000
84.60164 121.000
84.62158 114.000
84.64153 137.000
84.66148 147.000
84.68142 106.000
84.70137 139.000
84.72132 124.000
84.74127 122.000
84.76121 147.000
84.78116 144.000
84.80111 138.000
84.82105 124.000
84.84100 125.000
84.86095 119.000
84.88089 133.000
84.90084 120.000
84.92079 124.000
84.94074 110.000
84.96068 117.000
84.98063 120.000
85.00058 108.000
85.02052 70.000
85.04047 101.000
85.06042 90.000
85.08036 106.000
85.10031 98.000
85.12026 86.000
85.14021 89.000
85.16015 100.000
85.18010 81.000
85.20005 75.000
85.21999 93.000
85.23994 87.000
85.25989 75.000
85.27983 78.000
85.29978 92.000
85.31973 78.000
85.33967 87.000
85.35962 73.000
85.37957 80.000
85.39952 85.000
85.41946 94.000
85.43941 81.000
85.45936 76.000
85.47930 59.000
85.49925 62.000
85.51920 84.000
85.53914 103.000
85.55909 59.000
85.57904 81.000
85.59899 68.000
85.61893 67.000
85.63888 71.000
85.65883 82.000
85.67877 69.000
85.69872 85.000
85.71867 58.000
85.73861 83.000
85.75856 84.000
85.77851 83.000
85.79845 62.000
85.81840 55.000
85.83835 72.000
85.85830 69.000
85.87824 61.000
85.89819 63.000
85.91814 57.000
85.93808 66.000
85.95803 73.000
85.97798 74.000
85.99792 72.000
86.01787 85.000
86.03782 80.000
86.05777 78.000
86.07771 80.000
86.09766 88.000
86.11761 84.000
86.13755 72.000
86.15750 86.000
86.17745 65.000
86.19739 51.000
86.21734 74.000
86.23729 71.000
86.25723 71.000
86.27718 52.000
86.29713 83.000
86.31708 70.000
86.33702 89.000
86.35697 85.000
86.37692 102.000
86.39686 75.000
86.41681 71.000
86.43676 81.000
86.45670 73.000
86.47665 71.000
86.49660 66.000
86.51655 75.000
86.53649 55.000
86.55644 66.000
86.57639 70.000
86.59633 78.000
86.61628 72.000
86.63623 74.000
86.65617 74.000
86.67612 62.000
86.69607 98.000
86.71602 65.000
86.73596 81.000
86.75591 65.000
86.77586 84.000
86.79580 76.000
86.81575 90.000
86.83570 76.000
86.85564 61.000
86.87559 64.000
86.89554 76.000
86.91548 81.000
86.93543 92.000
86.95538 73.000
86.97533 81.000
86.99527 78.000
87.01522 98.000
87.03517 81.000
87.05511 86.000
87.07506 66.000
87.09501 72.000
87.11495 83.000
87.13490 78.000
87.15485 101.000
87.17480 87.000
87.19474 84.000
87.21469 100.000
87.23464 71.000
87.25458 67.000
87.27453 75.000
87.29448 88.000
87.31442 84.000
87.33437 81.000
87.35432 82.000
87.37426 96.000
87.39421 97.000
87.41416 100.000
87.43411 111.000
87.45405 107.000
87.47400 135.000
87.49395 131.000
87.51389 133.000
87.53384 126.000
87.55379 140.000
87.57373 124.000
87.59368 105.000
87.61363 119.000
87.63358 126.000
87.65352 106.000
87.67347 101.000
87.69342 96.000
87.71336 112.000
87.73331 109.000
87.75326 125.000
87.77320 103.000
87.79315 119.000
87.81310 126.000
87.83304 106.000
87.85299 94.000
87.87294 100.000
87.89289 92.000
87.91283 97.000
87.93278 92.000
87.95273 82.000
87.97267 86.000
87.99262 77.000
88.01257 75.000
88.03251 77.000
88.05246 79.000
88.07241 78.000
88.09236 73.000
88.11230 94.000
88.13225 81.000
88.15220 79.000
88.17214 72.000
88.19209 99.000
88.21204 90.000
88.23198 90.000
88.25193 76.000
88.27188 74.000
88.29183 61.000
88.31177 73.000
88.33172 64.000
88.35167 69.000
88.37161 71.000
88.39156 82.000
88.41151 72.000
88.43145 66.000
88.45140 63.000
88.47135 73.000
88.49129 81.000
88.51124 62.000
88.53119 91.000
88.55114 73.000
88.57108 87.000
88.59103 78.000
88.61098 61.000
88.63092 79.000
88.65087 82.000
88.67082 72.000
88.69076 76.000
88.71071 60.000
88.73066 59.000
88.75061 87.000
88.77055 67.000
88.79050 76.000
88.81045 84.000
88.83039 68.000
88.85034 66.000
88.87029 71.000
88.89023 69.000
88.91018 68.000
88.93013 64.000
88.95007 73.000
88.97002 62.000
88.98997 74.000
89.00992 76.000
89.02986 56.000
89.04981 70.000
89.06976 69.000
89.08970 82.000
89.10965 74.000
89.12960 69.000
89.14954 76.000
89.16949 91.000
89.18944 77.000
89.20939 75.000
89.22933 78.000
89.24928 68.000
89.26923 81.000
89.28917 75.000
89.30912 82.000
89.32907 66.000
89.34901 64.000
89.36896 71.000
89.38891 70.000
89.40885 68.000
89.42880 68.000
89.44875 79.000
89.46870 68.000
89.48864 68.000
89.50859 60.000
89.52854 76.000
89.54848 66.000
89.56843 71.000
89.58838 69.000
89.60832 47.000
89.62827 76.000
89.64822 82.000
89.66817 61.000
89.68811 88.000
89.70806 62.000
89.72801 78.000
89.74795 87.000
89.76790 86.000
89.78785 77.000
89.80779 62.000
89.82774 73.000
89.84769 82.000
89.86764 69.000
89.88758 74.000
89.90753 77.000
89.92748 79.000
89.94742 73.000
89.96737 77.000
89.98732 79.000
90.00726 68.000
