10.00000 163.000
10.01995 140.000
10.03989 137.000
10.05984 118.000
10.07979 113.000
10.09973 143.000
10.11968 137.000
10.13963 140.000
10.15958 142.000
10.17952 130.000
10.19947 138.000
10.21942 143.000
10.23936 143.000
10.25931 144.000
10.27926 118.000
10.29920 142.000
10.31915 140.000
10.33910 145.000
10.35905 123.000
10.37899 141.000
10.39894 139.000
10.41889 127.000
10.43883 137.000
10.45878 131.000
10.47873 150.000
10.49867 150.000
10.51862 138.000
10.53857 136.000
10.55851 132.000
10.57846 125.000
10.59841 131.000
10.61836 145.000
10.63830 136.000
10.65825 138.000
10.67820 136.000
10.69814 149.000
10.71809 146.000
10.73804 118.000
10.75798 144.000
10.77793 148.000
10.79788 156.000
10.81783 146.000
10.83777 129.000
10.85772 124.000
10.87767 139.000
10.89761 152.000
10.91756 147.000
10.93751 158.000
10.95745 149.000
10.97740 142.000
10.99735 117.000
11.01730 139.000
11.03724 152.000
11.05719 129.000
11.07714 160.000
11.09708 135.000
11.11703 135.000
11.13698 158.000
11.15692 162.000
11.17687 148.000
11.19682 111.000
11.21676 158.000
11.23671 136.000
11.25666 140.000
11.27661 131.000
11.29655 136.000
11.31650 164.000
11.33645 157.000
11.35639 152.000
11.37634 138.000
11.39629 116.000
11.41623 146.000
11.43618 146.000
11.45613 147.000
11.47608 114.000
11.49602 151.000
11.51597 163.000
11.53592 151.000
11.55586 148.000
11.57581 153.000
11.59576 148.000
11.61570 130.000
11.63565 125.000
11.65560 150.000
11.67554 135.000
11.69549 155.000
11.71544 164.000
11.73539 151.000
11.75533 168.000
11.77528 146.000
11.79523 168.000
11.81517 140.000
11.83512 133.000
11.85507 150.000
11.87501 144.000
11.89496 144.000
11.91491 166.000
11.93486 140.000
11.95480 147.000
11.97475 171.000
11.99470 138.000
12.01464 171.000
12.03459 147.000
12.05454 156.000
12.07448 135.000
12.09443 165.000
12.11438 156.000
12.13432 148.000
12.15427 148.000
12.17422 131.000
12.19417 150.000
12.21411 158.000
12.23406 148.000
12.25401 152.000
12.27395 184.000
12.29390 148.000
12.31385 139.000
12.33379 157.000
12.35374 148.000
12.37369 168.000
12.39364 139.000
12.41358 166.000
12.43353 143.000
12.45348 165.000
12.47342 147.000
12.49337 154.000
12.51332 170.000
12.53326 146.000
12.55321 155.000
12.57316 148.000
12.59311 137.000
12.61305 160.000
12.63300 166.000
12.65295 154.000
12.67289 167.000
12.69284 156.000
12.71279 170.000
12.73273 137.000
12.75268 150.000
12.77263 170.000
12.79257 175.000
12.81252 139.000
12.83247 164.000
12.85242 158.000
12.87236 142.000
12.89231 156.000
12.91226 188.000
12.93220 148.000
12.95215 185.000
12.97210 178.000
12.99204 167.000
13.01199 161.000
13.03194 174.000
13.05189 164.000
13.07183 163.000
13.09178 179.000
13.11173 153.000
13.13167 183.000
13.15162 160.000
13.17157 172.000
13.19151 164.000
13.21146 192.000
13.23141 185.000
13.25135 162.000
13.27130 156.000
13.29125 181.000
13.31120 178.000
13.33114 170.000
13.35109 152.000
13.37104 166.000
13.39098 134.000
13.41093 167.000
13.43088 165.000
13.45082 172.000
13.47077 162.000
13.49072 173.000
13.51067 151.000
13.53061 153.000
13.55056 160.000
13.57051 184.000
13.59045 155.000
13.61040 188.000
13.63035 172.000
13.65029 195.000
13.67024 164.000
13.69019 147.000
13.71013 156.000
13.73008 163.000
13.75003 178.000
13.76998 188.000
13.78992 157.000
13.80987 170.000
13.82982 177.000
13.84976 185.000
13.86971 168.000
13.88966 161.000
13.90960 169.000
13.92955 182.000
13.94950 171.000
13.96945 168.000
13.98939 172.000
14.00934 172.000
14.02929 179.000
14.04923 178.000
14.06918 166.000
14.08913 169.000
14.10907 169.000
14.12902 167.000
14.14897 204.000
14.16892 164.000
14.18886 189.000
14.20881 171.000
14.22876 178.000
14.24870 176.000
14.26865 184.000
14.28860 157.000
14.30854 169.000
14.32849 189.000
14.34844 186.000
14.36838 179.000
14.38833 158.000
14.40828 177.000
14.42823 158.000
14.44817 174.000
14.46812 168.000
14.48807 152.000
14.50801 189.000
14.52796 187.000
14.54791 169.000
14.56785 168.000
14.58780 191.000
14.60775 171.000
14.62770 192.000
14.64764 189.000
14.66759 178.000
14.68754 172.000
14.70748 160.000
14.72743 172.000
14.74738 176.000
14.76732 208.000
14.78727 206.000
14.80722 203.000
14.82716 189.000
14.84711 186.000
14.86706 213.000
14.88701 181.000
14.90695 185.000
14.92690 200.000
14.94685 189.000
14.96679 219.000
14.98674 163.000
15.00669 200.000
15.02663 162.000
15.04658 177.000
15.06653 210.000
15.08648 181.000
15.10642 196.000
15.12637 192.000
15.14632 189.000
15.16626 177.000
15.18621 196.000
15.20616 200.000
15.22610 205.000
15.24605 188.000
15.26600 189.000
15.28594 204.000
15.30589 181.000
15.32584 193.000
15.34579 180.000
15.36573 211.000
15.38568 197.000
15.40563 190.000
15.42557 202.000
15.44552 185.000
15.46547 176.000
15.48541 187.000
15.50536 187.000
15.52531 194.000
15.54526 186.000
15.56520 200.000
15.58515 194.000
15.60510 200.000
15.62504 204.000
15.64499 196.000
15.66494 207.000
15.68488 207.000
15.70483 199.000
15.72478 213.000
15.74472 231.000
15.76467 184.000
15.78462 199.000
15.80457 164.000
15.82451 212.000
15.84446 199.000
15.86441 192.000
15.88435 195.000
15.90430 219.000
15.92425 233.000
15.94419 188.000
15.96414 204.000
15.98409 240.000
16.00404 211.000
16.02398 200.000
16.04393 239.000
16.06388 187.000
16.08382 202.000
16.10377 247.000
16.12372 222.000
16.14366 184.000
16.16361 199.000
16.18356 219.000
16.20351 225.000
16.22345 210.000
16.24340 179.000
16.26335 232.000
16.28329 205.000
16.30324 216.000
16.32319 206.000
16.34313 192.000
16.36308 221.000
16.38303 209.000
16.40297 215.000
16.42292 202.000
16.44287 253.000
16.46282 237.000
16.48276 262.000
16.50271 209.000
16.52266 221.000
16.54260 239.000
16.56255 223.000
16.58250 251.000
16.60244 243.000
16.62239 237.000
16.64234 239.000
16.66229 249.000
16.68223 247.000
16.70218 263.000
16.72213 252.000
16.74207 257.000
16.76202 246.000
16.78197 239.000
16.80191 228.000
16.82186 237.000
16.84181 230.000
16.86175 236.000
16.88170 242.000
16.90165 232.000
16.92160 239.000
16.94154 226.000
16.96149 263.000
16.98144 242.000
17.00138 232.000
17.02133 224.000
17.04128 244.000
17.06122 246.000
17.08117 238.000
17.10112 252.000
17.12107 246.000
17.14101 243.000
17.16096 244.000
17.18091 290.000
17.20085 224.000
17.22080 243.000
17.24075 255.000
17.26069 241.000
17.28064 230.000
17.30059 259.000
17.32053 289.000
17.34048 240.000
17.36043 253.000
17.38038 233.000
17.40032 270.000
17.42027 238.000
17.44022 259.000
17.46016 266.000
17.48011 248.000
17.50006 278.000
17.52000 255.000
17.53995 257.000
17.55990 246.000
17.57985 240.000
17.59979 268.000
17.61974 277.000
17.63969 281.000
17.65963 310.000
17.67958 299.000
17.69953 255.000
17.71947 272.000
17.73942 274.000
17.75937 298.000
17.77932 305.000
17.79926 254.000
17.81921 259.000
17.83916 254.000
17.85910 266.000
17.87905 278.000
17.89900 270.000
17.91894 296.000
17.93889 299.000
17.95884 288.000
17.97878 292.000
17.99873 281.000
18.01868 274.000
18.03863 282.000
18.05857 329.000
18.07852 276.000
18.09847 311.000
18.11841 321.000
18.13836 320.000
18.15831 333.000
18.17825 346.000
18.19820 345.000
18.21815 383.000
18.23810 370.000
18.25804 440.000
18.27799 393.000
18.29794 391.000
18.31788 429.000
18.33783 340.000
18.35778 364.000
18.37772 308.000
18.39767 290.000
18.41762 311.000
18.43756 305.000
18.45751 288.000
18.47746 312.000
18.49741 305.000
18.51735 316.000
18.53730 273.000
18.55725 340.000
18.57719 294.000
18.59714 309.000
18.61709 268.000
18.63703 342.000
18.65698 307.000
18.67693 296.000
18.69688 288.000
18.71682 297.000
18.73677 299.000
18.75672 281.000
18.77666 307.000
18.79661 297.000
18.81656 270.000
18.83650 320.000
18.85645 338.000
18.87640 318.000
18.89634 312.000
18.91629 311.000
18.93624 315.000
18.95619 345.000
18.97613 300.000
18.99608 374.000
19.01603 313.000
19.03597 308.000
19.05592 290.000
19.07587 345.000
19.09581 328.000
19.11576 327.000
19.13571 322.000
19.15566 346.000
19.17560 309.000
19.19555 360.000
19.21550 361.000
19.23544 322.000
19.25539 336.000
19.27534 312.000
19.29528 343.000
19.31523 322.000
19.33518 334.000
19.35513 339.000
19.37507 343.000
19.39502 312.000
19.41497 346.000
19.43491 348.000
19.45486 338.000
19.47481 338.000
19.49475 312.000
19.51470 333.000
19.53465 333.000
19.55459 340.000
19.57454 325.000
19.59449 319.000
19.61444 375.000
19.63438 327.000
19.65433 388.000
19.67428 355.000
19.69422 315.000
19.71417 321.000
19.73412 327.000
19.75406 396.000
19.77401 375.000
19.79396 347.000
19.81391 348.000
19.83385 317.000
19.85380 337.000
19.87375 328.000
19.89369 352.000
19.91364 325.000
19.93359 337.000
19.95353 343.000
19.97348 362.000
19.99343 349.000
20.01337 324.000
20.03332 392.000
20.05327 374.000
20.07322 355.000
20.09316 348.000
20.11311 343.000
20.13306 327.000
20.15300 399.000
20.17295 377.000
20.19290 360.000
20.21284 395.000
20.23279 359.000
20.25274 343.000
20.27269 378.000
20.29263 361.000
20.31258 372.000
20.33253 351.000
20.35247 362.000
20.37242 345.000
20.39237 410.000
20.41231 391.000
20.43226 351.000
20.45221 391.000
20.47215 427.000
20.49210 377.000
20.51205 398.000
20.53200 437.000
20.55194 440.000
20.57189 410.000
20.59184 455.000
20.61178 492.000
20.63173 442.000
20.65168 511.000
20.67162 503.000
20.69157 521.000
20.71152 571.000
20.73147 549.000
20.75141 581.000
20.77136 566.000
20.79131 597.000
20.81125 555.000
20.83120 537.000
20.85115 540.000
20.87109 554.000
20.89104 501.000
20.91099 486.000
20.93094 509.000
20.95088 443.000
20.97083 475.000
20.99078 479.000
21.01072 467.000
21.03067 426.000
21.05062 418.000
21.07056 428.000
21.09051 382.000
21.11046 384.000
21.13040 392.000
21.15035 364.000
21.17030 377.000
21.19025 387.000
21.21019 411.000
21.23014 387.000
21.25009 393.000
21.27003 375.000
21.28998 368.000
21.30993 385.000
21.32987 361.000
21.34982 394.000
21.36977 344.000
21.38972 387.000
21.40966 380.000
21.42961 419.000
21.44956 345.000
21.46950 398.000
21.48945 362.000
21.50940 393.000
21.52934 427.000
21.54929 395.000
21.56924 393.000
21.58918 372.000
21.60913 404.000
21.62908 436.000
21.64903 429.000
21.66897 373.000
21.68892 417.000
21.70887 400.000
21.72881 398.000
21.74876 353.000
21.76871 412.000
21.78865 430.000
21.80860 388.000
21.82855 409.000
21.84850 385.000
21.86844 389.000
21.88839 366.000
21.90834 375.000
21.92828 408.000
21.94823 394.000
21.96818 401.000
21.98812 415.000
22.00807 413.000
22.02802 397.000
22.04796 402.000
22.06791 377.000
22.08786 444.000
22.10781 419.000
22.12775 430.000
22.14770 413.000
22.16765 436.000
22.18759 422.000
22.20754 440.000
22.22749 405.000
22.24743 408.000
22.26738 412.000
22.28733 412.000
22.30728 387.000
22.32722 403.000
22.34717 400.000
22.36712 420.000
22.38706 391.000
22.40701 415.000
22.42696 416.000
22.44690 415.000
22.46685 430.000
22.48680 439.000
22.50675 459.000
22.52669 417.000
22.54664 424.000
22.56659 413.000
22.58653 437.000
22.60648 373.000
22.62643 408.000
22.64637 393.000
22.66632 397.000
22.68627 409.000
22.70621 403.000
22.72616 430.000
22.74611 394.000
22.76606 421.000
22.78600 424.000
22.80595 432.000
22.82590 406.000
22.84584 445.000
22.86579 424.000
22.88574 438.000
22.90568 458.000
22.92563 460.000
22.94558 407.000
22.96553 420.000
22.98547 436.000
23.00542 446.000
23.02537 412.000
23.04531 433.000
23.06526 445.000
23.08521 459.000
23.10515 412.000
23.12510 406.000
23.14505 428.000
23.16499 456.000
23.18494 457.000
23.20489 436.000
23.22484 418.000
23.24478 456.000
23.26473 459.000
23.28468 477.000
23.30462 445.000
23.32457 432.000
23.34452 408.000
23.36446 423.000
23.38441 464.000
23.40436 446.000
23.42431 506.000
23.44425 452.000
23.46420 462.000
23.48415 445.000
23.50409 402.000
23.52404 459.000
23.54399 418.000
23.56393 459.000
23.58388 468.000
23.60383 464.000
23.62377 436.000
23.64372 466.000
23.66367 457.000
23.68362 437.000
23.70356 447.000
23.72351 419.000
23.74346 479.000
23.76340 482.000
23.78335 475.000
23.80330 445.000
23.82324 440.000
23.84319 469.000
23.86314 476.000
23.88309 469.000
23.90303 453.000
23.92298 490.000
23.94293 457.000
23.96287 474.000
23.98282 481.000
24.00277 461.000
24.02271 474.000
24.04266 466.000
24.06261 463.000
24.08256 504.000
24.10250 454.000
24.12245 459.000
24.14240 510.000
24.16234 483.000
24.18229 500.000
24.20224 468.000
24.22218 494.000
24.24213 455.000
24.26208 499.000
24.28202 523.000
24.30197 519.000
24.32192 494.000
24.34187 521.000
24.36181 481.000
24.38176 496.000
24.40171 464.000
24.42165 490.000
24.44160 493.000
24.46155 512.000
24.48149 479.000
24.50144 492.000
24.52139 486.000
24.54134 538.000
24.56128 501.000
24.58123 520.000
24.60118 482.000
24.62112 460.000
24.64107 550.000
24.66102 491.000
24.68096 505.000
24.70091 477.000
24.72086 488.000
24.74080 512.000
24.76075 546.000
24.78070 505.000
24.80065 524.000
24.82059 483.000
24.84054 527.000
24.86049 559.000
24.88043 541.000
24.90038 559.000
24.92033 522.000
24.94027 542.000
24.96022 511.000
24.98017 510.000
25.00012 533.000
25.02006 512.000
25.04001 513.000
25.05996 495.000
25.07990 535.000
25.09985 534.000
25.11980 552.000
25.13974 516.000
25.15969 551.000
25.17964 548.000
25.19958 527.000
25.21953 552.000
25.23948 572.000
25.25943 536.000
25.27937 554.000
25.29932 498.000
25.31927 537.000
25.33921 544.000
25.35916 524.000
25.37911 549.000
25.39905 529.000
25.41900 513.000
25.43895 506.000
25.45890 520.000
25.47884 532.000
25.49879 522.000
25.51874 503.000
25.53868 527.000
25.55863 538.000
25.57858 531.000
25.59852 525.000
25.61847 551.000
25.63842 535.000
25.65837 573.000
25.67831 540.000
25.69826 544.000
25.71821 563.000
25.73815 523.000
25.75810 547.000
25.77805 575.000
25.79799 562.000
25.81794 500.000
25.83789 585.000
25.85783 502.000
25.87778 548.000
25.89773 600.000
25.91768 583.000
25.93762 574.000
25.95757 552.000
25.97752 569.000
25.99746 535.000
26.01741 563.000
26.03736 576.000
26.05730 602.000
26.07725 631.000
26.09720 600.000
26.11715 571.000
26.13709 600.000
26.15704 584.000
26.17699 590.000
26.19693 604.000
26.21688 584.000
26.23683 598.000
26.25677 609.000
26.27672 582.000
26.29667 604.000
26.31661 593.000
26.33656 623.000
26.35651 610.000
26.37646 623.000
26.39640 628.000
26.41635 592.000
26.43630 598.000
26.45624 587.000
26.47619 598.000
26.49614 620.000
26.51608 656.000
26.53603 611.000
26.55598 630.000
26.57593 573.000
26.59587 618.000
26.61582 602.000
26.63577 594.000
26.65571 649.000
26.67566 577.000
26.69561 586.000
26.71555 616.000
26.73550 678.000
26.75545 601.000
26.77539 638.000
26.79534 668.000
26.81529 645.000
26.83524 661.000
26.85518 666.000
26.87513 618.000
26.89508 640.000
26.91502 654.000
26.93497 621.000
26.95492 663.000
26.97486 630.000
26.99481 647.000
27.01476 667.000
27.03471 671.000
27.05465 654.000
27.07460 652.000
27.09455 668.000
27.11449 623.000
27.13444 609.000
27.15439 652.000
27.17433 663.000
27.19428 646.000
27.21423 640.000
27.23417 651.000
27.25412 696.000
27.27407 680.000
27.29402 678.000
27.31396 653.000
27.33391 640.000
27.35386 662.000
27.37380 688.000
27.39375 668.000
27.41370 627.000
27.43364 658.000
27.45359 685.000
27.47354 652.000
27.49349 636.000
27.51343 690.000
27.53338 655.000
27.55333 696.000
27.57327 674.000
27.59322 711.000
27.61317 677.000
27.63311 716.000
27.65306 684.000
27.67301 683.000
27.69296 677.000
27.71290 700.000
27.73285 731.000
27.75280 669.000
27.77274 665.000
27.79269 689.000
27.81264 697.000
27.83258 697.000
27.85253 659.000
27.87248 694.000
27.89242 666.000
27.91237 694.000
27.93232 701.000
27.95227 742.000
27.97221 755.000
27.99216 739.000
28.01211 709.000
28.03205 737.000
28.05200 732.000
28.07195 705.000
28.09189 707.000
28.11184 728.000
28.13179 681.000
28.15174 725.000
28.17168 714.000
28.19163 704.000
28.21158 721.000
28.23152 699.000
28.25147 706.000
28.27142 704.000
28.29136 721.000
28.31131 786.000
28.33126 711.000
28.35120 748.000
28.37115 697.000
28.39110 735.000
28.41105 761.000
28.43099 797.000
28.45094 714.000
28.47089 738.000
28.49083 770.000
28.51078 779.000
28.53073 694.000
28.55067 744.000
28.57062 744.000
28.59057 717.000
28.61052 723.000
28.63046 769.000
28.65041 751.000
28.67036 747.000
28.69030 747.000
28.71025 691.000
28.73020 764.000
28.75014 713.000
28.77009 735.000
28.79004 709.000
28.80998 729.000
28.82993 790.000
28.84988 767.000
28.86983 719.000
28.88977 771.000
28.90972 756.000
28.92967 733.000
28.94961 761.000
28.96956 773.000
28.98951 740.000
29.00945 772.000
29.02940 759.000
29.04935 757.000
29.06930 708.000
29.08924 831.000
29.10919 810.000
29.12914 766.000
29.14908 828.000
29.16903 774.000
29.18898 807.000
29.20892 806.000
29.22887 799.000
29.24882 781.000
29.26877 826.000
29.28871 848.000
29.30866 856.000
29.32861 810.000
29.34855 800.000
29.36850 768.000
29.38845 794.000
29.40839 769.000
29.42834 764.000
29.44829 753.000
29.46823 801.000
29.48818 752.000
29.50813 741.000
29.52808 753.000
29.54802 771.000
29.56797 760.000
29.58792 773.000
29.60786 789.000
29.62781 807.000
29.64776 824.000
29.66770 781.000
29.68765 810.000
29.70760 816.000
29.72755 794.000
29.74749 809.000
29.76744 788.000
29.78739 746.000
29.80733 798.000
29.82728 753.000
29.84723 779.000
29.86717 791.000
29.88712 782.000
29.90707 811.000
29.92701 820.000
29.94696 889.000
29.96691 838.000
29.98686 827.000
30.00680 848.000
30.02675 860.000
30.04670 903.000
30.06664 928.000
30.08659 981.000
30.10654 953.000
30.12648 995.000
30.14643 1099.000
30.16638 1066.000
30.18633 1022.000
30.20627 982.000
30.22622 886.000
30.24617 872.000
30.26611 838.000
30.28606 804.000
30.30601 790.000
30.32595 786.000
30.34590 764.000
30.36585 746.000
30.38579 739.000
30.40574 705.000
30.42569 731.000
30.44564 764.000
30.46558 730.000
30.48553 780.000
30.50548 754.000
30.52542 759.000
30.54537 755.000
30.56532 716.000
30.58526 752.000
30.60521 685.000
30.62516 721.000
30.64511 764.000
30.66505 745.000
30.68500 726.000
30.70495 736.000
30.72489 746.000
30.74484 744.000
30.76479 666.000
30.78473 770.000
30.80468 716.000
30.82463 696.000
30.84458 745.000
30.86452 755.000
30.88447 726.000
30.90442 730.000
30.92436 733.000
30.94431 714.000
30.96426 736.000
30.98420 676.000
31.00415 745.000
31.02410 737.000
31.04404 726.000
31.06399 764.000
31.08394 747.000
31.10389 700.000
31.12383 682.000
31.14378 749.000
31.16373 704.000
31.18367 807.000
31.20362 702.000
31.22357 730.000
31.24351 708.000
31.26346 683.000
31.28341 696.000
31.30336 688.000
31.32330 711.000
31.34325 693.000
31.36320 709.000
31.38314 668.000
31.40309 743.000
31.42304 661.000
31.44298 697.000
31.46293 729.000
31.48288 713.000
31.50282 680.000
31.52277 731.000
31.54272 664.000
31.56267 702.000
31.58261 640.000
31.60256 688.000
31.62251 704.000
31.64245 691.000
31.66240 660.000
31.68235 723.000
31.70229 703.000
31.72224 713.000
31.74219 667.000
31.76214 699.000
31.78208 681.000
31.80203 639.000
31.82198 730.000
31.84192 695.000
31.86187 706.000
31.88182 688.000
31.90176 718.000
31.92171 639.000
31.94166 698.000
31.96160 676.000
31.98155 711.000
32.00150 693.000
32.02145 677.000
32.04139 685.000
32.06134 700.000
32.08129 696.000
32.10123 700.000
32.12118 677.000
32.14113 642.000
32.16107 683.000
32.18102 715.000
32.20097 660.000
32.22092 695.000
32.24086 721.000
32.26081 700.000
32.28076 735.000
32.30070 741.000
32.32065 719.000
32.34060 694.000
32.36054 652.000
32.38049 706.000
32.40044 711.000
32.42039 711.000
32.44033 682.000
32.46028 667.000
32.48023 713.000
32.50017 681.000
32.52012 642.000
32.54007 690.000
32.56001 636.000
32.57996 685.000
32.59991 608.000
32.61985 675.000
32.63980 660.000
32.65975 631.000
32.67970 699.000
32.69964 693.000
32.71959 743.000
32.73954 658.000
32.75948 657.000
32.77943 668.000
32.79938 667.000
32.81932 653.000
32.83927 641.000
32.85922 657.000
32.87917 676.000
32.89911 667.000
32.91906 632.000
32.93901 642.000
32.95895 651.000
32.97890 624.000
32.99885 624.000
33.01879 635.000
33.03874 642.000
33.05869 657.000
33.07863 656.000
33.09858 655.000
33.11853 657.000
33.13848 641.000
33.15842 698.000
33.17837 615.000
33.19832 634.000
33.21826 644.000
33.23821 633.000
33.25816 648.000
33.27810 648.000
33.29805 650.000
33.31800 677.000
33.33795 638.000
33.35789 678.000
33.37784 636.000
33.39779 630.000
33.41773 602.000
33.43768 656.000
33.45763 655.000
33.47757 617.000
33.49752 620.000
33.51747 632.000
33.53741 604.000
33.55736 656.000
33.57731 624.000
33.59726 615.000
33.61720 631.000
33.63715 622.000
33.65710 601.000
33.67704 585.000
33.69699 623.000
33.71694 627.000
33.73688 621.000
33.75683 629.000
33.77678 633.000
33.79673 620.000
33.81667 598.000
33.83662 631.000
33.85657 646.000
33.87651 596.000
33.89646 648.000
33.91641 663.000
33.93635 646.000
33.95630 700.000
33.97625 663.000
33.99620 736.000
34.01614 645.000
34.03609 692.000
34.05604 691.000
34.07598 690.000
34.09593 717.000
34.11588 678.000
34.13582 702.000
34.15577 706.000
34.17572 759.000
34.19566 726.000
34.21561 739.000
34.23556 741.000
34.25551 797.000
34.27545 840.000
34.29540 813.000
34.31535 784.000
34.33529 798.000
34.35524 841.000
34.37519 860.000
34.39513 835.000
34.41508 772.000
34.43503 800.000
34.45498 790.000
34.47492 797.000
34.49487 787.000
34.51482 717.000
34.53476 709.000
34.55471 719.000
34.57466 689.000
34.59460 692.000
34.61455 695.000
34.63450 653.000
34.65444 671.000
34.67439 657.000
34.69434 697.000
34.71429 677.000
34.73423 689.000
34.75418 662.000
34.77413 651.000
34.79407 660.000
34.81402 636.000
34.83397 685.000
34.85391 684.000
34.87386 658.000
34.89381 611.000
34.91376 656.000
34.93370 661.000
34.95365 660.000
34.97360 644.000
34.99354 686.000
35.01349 721.000
35.03344 731.000
35.05338 778.000
35.07333 761.000
35.09328 795.000
35.11322 787.000
35.13317 832.000
35.15312 806.000
35.17307 912.000
35.19301 847.000
35.21296 946.000
35.23291 935.000
35.25285 1067.000
35.27280 1061.000
35.29275 1153.000
35.31269 1156.000
35.33264 1269.000
35.35259 1269.000
35.37254 1382.000
35.39248 1456.000
35.41243 1396.000
35.43238 1346.000
35.45232 1460.000
35.47227 1541.000
35.49222 1634.000
35.51216 1796.000
35.53211 1986.000
35.55206 1987.000
35.57201 1797.000
35.59195 1571.000
35.61190 1366.000
35.63185 1322.000
35.65179 1152.000
35.67174 1056.000
35.69169 821.000
35.71163 826.000
35.73158 621.000
35.75153 610.000
35.77147 634.000
35.79142 602.000
35.81137 595.000
35.83132 565.000
35.85126 553.000
35.87121 590.000
35.89116 591.000
35.91110 586.000
35.93105 621.000
35.95100 566.000
35.97094 601.000
35.99089 578.000
36.01084 554.000
36.03079 615.000
36.05073 537.000
36.07068 558.000
36.09063 545.000
36.11057 553.000
36.13052 591.000
36.15047 555.000
36.17041 573.000
36.19036 604.000
36.21031 575.000
36.23025 572.000
36.25020 570.000
36.27015 562.000
36.29010 506.000
36.31004 512.000
36.32999 583.000
36.34994 601.000
36.36988 606.000
36.38983 569.000
36.40978 572.000
36.42972 569.000
36.44967 573.000
36.46962 623.000
36.48957 580.000
36.50951 565.000
36.52946 622.000
36.54941 616.000
36.56935 571.000
36.58930 619.000
36.60925 610.000
36.62919 638.000
36.64914 620.000
36.66909 649.000
36.68903 688.000
36.70898 702.000
36.72893 704.000
36.74888 730.000
36.76882 783.000
36.78877 795.000
36.80872 856.000
36.82866 788.000
36.84861 863.000
36.86856 920.000
36.88850 940.000
36.90845 919.000
36.92840 989.000
36.94835 947.000
36.96829 933.000
36.98824 967.000
37.00819 984.000
37.02813 909.000
37.04808 900.000
37.06803 894.000
37.08797 804.000
37.10792 777.000
37.12787 732.000
37.14781 722.000
37.16776 658.000
37.18771 691.000
37.20766 699.000
37.22760 635.000
37.24755 590.000
37.26750 569.000
37.28744 580.000
37.30739 578.000
37.32734 563.000
37.34728 545.000
37.36723 555.000
37.38718 549.000
37.40713 502.000
37.42707 558.000
37.44702 523.000
37.46697 498.000
37.48691 508.000
37.50686 491.000
37.52681 488.000
37.54675 514.000
37.56670 517.000
37.58665 546.000
37.60660 496.000
37.62654 541.000
37.64649 545.000
37.66644 520.000
37.68638 523.000
37.70633 551.000
37.72628 543.000
37.74622 559.000
37.76617 502.000
37.78612 573.000
37.80606 561.000
37.82601 540.000
37.84596 555.000
37.86591 562.000
37.88585 600.000
37.90580 574.000
37.92575 559.000
37.94569 596.000
37.96564 596.000
37.98559 621.000
38.00553 588.000
38.02548 601.000
38.04543 575.000
38.06538 572.000
38.08532 586.000
38.10527 591.000
38.12522 596.000
38.14516 602.000
38.16511 574.000
38.18506 655.000
38.20500 593.000
38.22495 626.000
38.24490 657.000
38.26484 679.000
38.28479 664.000
38.30474 712.000
38.32469 712.000
38.34463 716.000
38.36458 750.000
38.38453 827.000
38.40447 803.000
38.42442 801.000
38.44437 850.000
38.46431 930.000
38.48426 871.000
38.50421 834.000
38.52416 835.000
38.54410 873.000
38.56405 865.000
38.58400 846.000
38.60394 761.000
38.62389 748.000
38.64384 679.000
38.66378 732.000
38.68373 670.000
38.70368 583.000
38.72362 639.000
38.74357 611.000
38.76352 623.000
38.78347 649.000
38.80341 642.000
38.82336 642.000
38.84331 614.000
38.86325 557.000
38.88320 646.000
38.90315 623.000
38.92309 637.000
38.94304 600.000
38.96299 611.000
38.98294 631.000
39.00288 539.000
39.02283 604.000
39.04278 567.000
39.06272 576.000
39.08267 541.000
39.10262 544.000
39.12256 582.000
39.14251 555.000
39.16246 527.000
39.18241 522.000
39.20235 559.000
39.22230 510.000
39.24225 522.000
39.26219 499.000
39.28214 523.000
39.30209 507.000
39.32203 504.000
39.34198 515.000
39.36193 525.000
39.38187 497.000
39.40182 554.000
39.42177 484.000
39.44172 502.000
39.46166 510.000
39.48161 494.000
39.50156 492.000
39.52150 495.000
39.54145 497.000
39.56140 529.000
39.58134 507.000
39.60129 509.000
39.62124 551.000
39.64119 523.000
39.66113 557.000
39.68108 543.000
39.70103 473.000
39.72097 521.000
39.74092 549.000
39.76087 464.000
39.78081 498.000
39.80076 515.000
39.82071 504.000
39.84065 489.000
39.86060 503.000
39.88055 502.000
39.90050 500.000
39.92044 526.000
39.94039 525.000
39.96034 476.000
39.98028 484.000
40.00023 513.000
40.02018 498.000
40.04012 500.000
40.06007 512.000
40.08002 499.000
40.09997 470.000
40.11991 461.000
40.13986 476.000
40.15981 467.000
40.17975 487.000
40.19970 495.000
40.21965 508.000
40.23959 465.000
40.25954 503.000
40.27949 500.000
40.29943 477.000
40.31938 449.000
40.33933 505.000
40.35928 501.000
40.37922 488.000
40.39917 486.000
40.41912 484.000
40.43906 501.000
40.45901 526.000
40.47896 505.000
40.49890 488.000
40.51885 505.000
40.53880 506.000
40.55875 526.000
40.57869 495.000
40.59864 507.000
40.61859 488.000
40.63853 492.000
40.65848 538.000
40.67843 496.000
40.69837 497.000
40.71832 483.000
40.73827 539.000
40.75822 542.000
40.77816 486.000
40.79811 509.000
40.81806 515.000
40.83800 504.000
40.85795 513.000
40.87790 483.000
40.89784 501.000
40.91779 477.000
40.93774 502.000
40.95768 495.000
40.97763 493.000
40.99758 518.000
41.01753 480.000
41.03747 522.000
41.05742 552.000
41.07737 500.000
41.09731 544.000
41.11726 543.000
41.13721 509.000
41.15715 504.000
41.17710 461.000
41.19705 511.000
41.21700 485.000
41.23694 523.000
41.25689 464.000
41.27684 468.000
41.29678 519.000
41.31673 500.000
41.33668 521.000
41.35662 509.000
41.37657 463.000
41.39652 484.000
41.41646 449.000
41.43641 489.000
41.45636 488.000
41.47631 464.000
41.49625 514.000
41.51620 532.000
41.53615 519.000
41.55609 495.000
41.57604 470.000
41.59599 525.000
41.61593 495.000
41.63588 460.000
41.65583 456.000
41.67578 508.000
41.69572 514.000
41.71567 477.000
41.73562 488.000
41.75556 469.000
41.77551 500.000
41.79546 474.000
41.81540 478.000
41.83535 489.000
41.85530 538.000
41.87524 524.000
41.89519 509.000
41.91514 490.000
41.93509 526.000
41.95503 510.000
41.97498 501.000
41.99493 547.000
42.01487 559.000
42.03482 444.000
42.05477 506.000
42.07471 538.000
42.09466 550.000
42.11461 497.000
42.13456 546.000
42.15450 544.000
42.17445 539.000
42.19440 516.000
42.21434 516.000
42.23429 501.000
42.25424 518.000
42.27418 529.000
42.29413 577.000
42.31408 547.000
42.33403 585.000
42.35397 550.000
42.37392 575.000
42.39387 548.000
42.41381 634.000
42.43376 636.000
42.45371 623.000
42.47365 630.000
42.49360 620.000
42.51355 651.000
42.53349 635.000
42.55344 657.000
42.57339 697.000
42.59334 701.000
42.61328 678.000
42.63323 758.000
42.65318 706.000
42.67312 802.000
42.69307 767.000
42.71302 744.000
42.73296 803.000
42.75291 825.000
42.77286 844.000
42.79281 828.000
42.81275 832.000
42.83270 887.000
42.85265 914.000
42.87259 948.000
42.89254 927.000
42.91249 1003.000
42.93243 1003.000
42.95238 1015.000
42.97233 1009.000
42.99227 1028.000
43.01222 1016.000
43.03217 1004.000
43.05212 1053.000
43.07206 1015.000
43.09201 1023.000
43.11196 1002.000
43.13190 935.000
43.15185 1018.000
43.17180 1030.000
43.19174 956.000
43.21169 1022.000
43.23164 1009.000
43.25159 923.000
43.27153 846.000
43.29148 773.000
43.31143 782.000
43.33137 692.000
43.35132 691.000
43.37127 651.000
43.39121 594.000
43.41116 567.000
43.43111 527.000
43.45105 541.000
43.47100 509.000
43.49095 491.000
43.51090 469.000
43.53084 510.000
43.55079 525.000
43.57074 507.000
43.59068 466.000
43.61063 457.000
43.63058 480.000
43.65052 481.000
43.67047 500.000
43.69042 458.000
43.71037 473.000
43.73031 495.000
43.75026 456.000
43.77021 480.000
43.79015 505.000
43.81010 461.000
43.83005 446.000
43.84999 452.000
43.86994 472.000
43.88989 461.000
43.90984 454.000
43.92978 454.000
43.94973 434.000
43.96968 436.000
43.98962 436.000
44.00957 492.000
44.02952 472.000
44.04946 464.000
44.06941 467.000
44.08936 459.000
44.10930 415.000
44.12925 462.000
44.14920 443.000
44.16915 444.000
44.18909 471.000
44.20904 423.000
44.22899 461.000
44.24893 449.000
44.26888 456.000
44.28883 468.000
44.30877 453.000
44.32872 461.000
44.34867 445.000
44.36862 417.000
44.38856 423.000
44.40851 424.000
44.42846 460.000
44.44840 410.000
44.46835 433.000
44.48830 408.000
44.50824 459.000
44.52819 453.000
44.54814 437.000
44.56808 416.000
44.58803 465.000
44.60798 423.000
44.62793 433.000
44.64787 443.000
44.66782 451.000
44.68777 426.000
44.70771 412.000
44.72766 435.000
44.74761 378.000
44.76755 442.000
44.78750 418.000
44.80745 444.000
44.82740 429.000
44.84734 451.000
44.86729 444.000
44.88724 443.000
44.90718 445.000
44.92713 458.000
44.94708 429.000
44.96702 449.000
44.98697 410.000
45.00692 425.000
45.02686 396.000
45.04681 438.000
45.06676 436.000
45.08671 436.000
45.10665 401.000
45.12660 445.000
45.14655 433.000
45.16649 356.000
45.18644 417.000
45.20639 428.000
45.22633 423.000
45.24628 422.000
45.26623 407.000
45.28618 443.000
45.30612 427.000
45.32607 395.000
45.34602 421.000
45.36596 419.000
45.38591 417.000
45.40586 437.000
45.42580 396.000
45.44575 370.000
45.46570 439.000
45.48565 422.000
45.50559 405.000
45.52554 392.000
45.54549 437.000
45.56543 422.000
45.58538 428.000
45.60533 418.000
45.62527 397.000
45.64522 434.000
45.66517 419.000
45.68511 446.000
45.70506 421.000
45.72501 417.000
45.74496 421.000
45.76490 397.000
45.78485 413.000
45.80480 419.000
45.82474 424.000
45.84469 426.000
45.86464 403.000
45.88458 383.000
45.90453 429.000
45.92448 383.000
45.94443 401.000
45.96437 440.000
45.98432 427.000
46.00427 408.000
46.02421 410.000
46.04416 400.000
46.06411 413.000
46.08405 421.000
46.10400 399.000
46.12395 413.000
46.14389 368.000
46.16384 381.000
46.18379 386.000
46.20374 412.000
46.22368 417.000
46.24363 422.000
46.26358 418.000
46.28352 388.000
46.30347 418.000
46.32342 378.000
46.34336 403.000
46.36331 382.000
46.38326 428.000
46.40321 374.000
46.42315 450.000
46.44310 394.000
46.46305 432.000
46.48299 410.000
46.50294 412.000
46.52289 371.000
46.54283 430.000
46.56278 389.000
46.58273 394.000
46.60267 361.000
46.62262 428.000
46.64257 362.000
46.66252 410.000
46.68246 415.000
46.70241 412.000
46.72236 397.000
46.74230 403.000
46.76225 391.000
46.78220 407.000
46.80214 383.000
46.82209 333.000
46.84204 371.000
46.86199 395.000
46.88193 409.000
46.90188 343.000
46.92183 369.000
46.94177 382.000
46.96172 408.000
46.98167 414.000
47.00161 388.000
47.02156 391.000
47.04151 421.000
47.06146 385.000
47.08140 409.000
47.10135 386.000
47.12130 385.000
47.14124 377.000
47.16119 373.000
47.18114 376.000
47.20108 374.000
47.22103 401.000
47.24098 382.000
47.26092 379.000
47.28087 374.000
47.30082 441.000
47.32077 407.000
47.34071 418.000
47.36066 403.000
47.38061 399.000
47.40055 420.000
47.42050 397.000
47.44045 390.000
47.46039 430.000
47.48034 398.000
47.50029 360.000
47.52024 414.000
47.54018 401.000
47.56013 372.000
47.58008 381.000
47.60002 416.000
47.61997 349.000
47.63992 407.000
47.65986 401.000
47.67981 378.000
47.69976 385.000
47.71970 361.000
47.73965 380.000
47.75960 364.000
47.77955 381.000
47.79949 367.000
47.81944 401.000
47.83939 421.000
47.85933 409.000
47.87928 408.000
47.89923 366.000
47.91917 418.000
47.93912 346.000
47.95907 378.000
47.97902 400.000
47.99896 393.000
48.01891 416.000
48.03886 411.000
48.05880 383.000
48.07875 390.000
48.09870 358.000
48.11864 379.000
48.13859 369.000
48.15854 358.000
48.17848 388.000
48.19843 388.000
48.21838 336.000
48.23833 384.000
48.25827 379.000
48.27822 377.000
48.29817 403.000
48.31811 386.000
48.33806 361.000
48.35801 379.000
48.37795 375.000
48.39790 364.000
48.41785 388.000
48.43780 433.000
48.45774 426.000
48.47769 431.000
48.49764 386.000
48.51758 412.000
48.53753 442.000
48.55748 435.000
48.57742 436.000
48.59737 446.000
48.61732 471.000
48.63726 399.000
48.65721 479.000
48.67716 388.000
48.69711 448.000
48.71705 423.000
48.73700 483.000
48.75695 467.000
48.77689 462.000
48.79684 478.000
48.81679 445.000
48.83673 457.000
48.85668 451.000
48.87663 453.000
48.89658 377.000
48.91652 453.000
48.93647 443.000
48.95642 453.000
48.97636 435.000
48.99631 419.000
49.01626 374.000
49.03620 393.000
49.05615 393.000
49.07610 418.000
49.09605 389.000
49.11599 384.000
49.13594 418.000
49.15589 412.000
49.17583 363.000
49.19578 392.000
49.21573 410.000
49.23567 391.000
49.25562 414.000
49.27557 391.000
49.29551 401.000
49.31546 386.000
49.33541 404.000
49.35536 379.000
49.37530 383.000
49.39525 399.000
49.41520 369.000
49.43514 384.000
49.45509 395.000
49.47504 413.000
49.49498 362.000
49.51493 380.000
49.53488 403.000
49.55483 404.000
49.57477 371.000
49.59472 393.000
49.61467 360.000
49.63461 371.000
49.65456 363.000
49.67451 364.000
49.69445 369.000
49.71440 408.000
49.73435 392.000
49.75429 371.000
49.77424 348.000
49.79419 355.000
49.81414 356.000
49.83408 347.000
49.85403 358.000
49.87398 333.000
49.89392 400.000
49.91387 372.000
49.93382 351.000
49.95376 409.000
49.97371 400.000
49.99366 383.000
50.01361 349.000
50.03355 354.000
50.05350 373.000
50.07345 336.000
50.09339 350.000
50.11334 332.000
50.13329 353.000
50.15323 354.000
50.17318 373.000
50.19313 331.000
50.21307 353.000
50.23302 386.000
50.25297 378.000
50.27292 356.000
50.29286 387.000
50.31281 343.000
50.33276 353.000
50.35270 338.000
50.37265 352.000
50.39260 377.000
50.41254 382.000
50.43249 359.000
50.45244 379.000
50.47239 388.000
50.49233 359.000
50.51228 334.000
50.53223 377.000
50.55217 352.000
50.57212 338.000
50.59207 352.000
50.61201 322.000
50.63196 354.000
50.65191 407.000
50.67186 381.000
50.69180 387.000
50.71175 350.000
50.73170 353.000
50.75164 358.000
50.77159 357.000
50.79154 347.000
50.81148 369.000
50.83143 380.000
50.85138 372.000
50.87132 348.000
50.89127 371.000
50.91122 384.000
50.93117 352.000
50.95111 377.000
50.97106 360.000
50.99101 366.000
51.01095 362.000
51.03090 369.000
51.05085 326.000
51.07079 390.000
51.09074 340.000
51.11069 385.000
51.13064 344.000
51.15058 378.000
51.17053 346.000
51.19048 367.000
51.21042 359.000
51.23037 324.000
51.25032 353.000
51.27026 396.000
51.29021 342.000
51.31016 347.000
51.33010 389.000
51.35005 345.000
51.37000 358.000
51.38995 350.000
51.40989 358.000
51.42984 383.000
51.44979 352.000
51.46973 354.000
51.48968 364.000
51.50963 334.000
51.52957 399.000
51.54952 341.000
51.56947 356.000
51.58942 359.000
51.60936 364.000
51.62931 357.000
51.64926 414.000
51.66920 351.000
51.68915 349.000
51.70910 364.000
51.72904 317.000
51.74899 369.000
51.76894 353.000
51.78888 355.000
51.80883 372.000
51.82878 362.000
51.84873 363.000
51.86867 358.000
51.88862 354.000
51.90857 335.000
51.92851 388.000
51.94846 369.000
51.96841 349.000
51.98835 352.000
52.00830 410.000
52.02825 367.000
52.04820 385.000
52.06814 339.000
52.08809 374.000
52.10804 390.000
52.12798 363.000
52.14793 325.000
52.16788 341.000
52.18782 343.000
52.20777 345.000
52.22772 330.000
52.24767 334.000
52.26761 351.000
52.28756 379.000
52.30751 371.000
52.32745 385.000
52.34740 326.000
52.36735 362.000
52.38729 338.000
52.40724 356.000
52.42719 365.000
52.44713 371.000
52.46708 319.000
52.48703 366.000
52.50698 355.000
52.52692 352.000
52.54687 355.000
52.56682 361.000
52.58676 364.000
52.60671 331.000
52.62666 335.000
52.64660 360.000
52.66655 354.000
52.68650 367.000
52.70645 337.000
52.72639 355.000
52.74634 333.000
52.76629 355.000
52.78623 356.000
52.80618 350.000
52.82613 343.000
52.84607 392.000
52.86602 383.000
52.88597 405.000
52.90591 390.000
52.92586 381.000
52.94581 355.000
52.96576 376.000
52.98570 378.000
53.00565 392.000
53.02560 381.000
53.04554 396.000
53.06549 434.000
53.08544 428.000
53.10538 419.000
53.12533 417.000
53.14528 419.000
53.16523 453.000
53.18517 402.000
53.20512 378.000
53.22507 441.000
53.24501 395.000
53.26496 393.000
53.28491 388.000
53.30485 371.000
53.32480 392.000
53.34475 400.000
53.36469 375.000
53.38464 386.000
53.40459 389.000
53.42454 333.000
53.44448 395.000
53.46443 392.000
53.48438 378.000
53.50432 416.000
53.52427 387.000
53.54422 413.000
53.56416 417.000
53.58411 396.000
53.60406 433.000
53.62401 471.000
53.64395 464.000
53.66390 412.000
53.68385 430.000
53.70379 432.000
53.72374 431.000
53.74369 420.000
53.76363 410.000
53.78358 390.000
53.80353 334.000
53.82348 382.000
53.84342 393.000
53.86337 356.000
53.88332 351.000
53.90326 375.000
53.92321 359.000
53.94316 373.000
53.96310 371.000
53.98305 342.000
54.00300 332.000
54.02294 342.000
54.04289 370.000
54.06284 365.000
54.08279 322.000
54.10273 382.000
54.12268 362.000
54.14263 358.000
54.16257 368.000
54.18252 366.000
54.20247 326.000
54.22241 357.000
54.24236 334.000
54.26231 349.000
54.28226 306.000
54.30220 402.000
54.32215 327.000
54.34210 370.000
54.36204 331.000
54.38199 314.000
54.40194 323.000
54.42188 365.000
54.44183 344.000
54.46178 318.000
54.48172 350.000
54.50167 349.000
54.52162 372.000
54.54157 329.000
54.56151 331.000
54.58146 340.000
54.60141 344.000
54.62135 368.000
54.64130 330.000
54.66125 356.000
54.68119 341.000
54.70114 336.000
54.72109 311.000
54.74104 315.000
54.76098 333.000
54.78093 337.000
54.80088 328.000
54.82082 364.000
54.84077 329.000
54.86072 373.000
54.88066 329.000
54.90061 353.000
54.92056 335.000
54.94050 304.000
54.96045 328.000
54.98040 313.000
55.00035 345.000
55.02029 313.000
55.04024 340.000
55.06019 344.000
55.08013 314.000
55.10008 357.000
55.12003 352.000
55.13997 364.000
55.15992 342.000
55.17987 338.000
55.19982 311.000
55.21976 330.000
55.23971 346.000
55.25966 342.000
55.27960 342.000
55.29955 326.000
55.31950 367.000
55.33944 334.000
55.35939 340.000
55.37934 363.000
55.39929 366.000
55.41923 319.000
55.43918 333.000
55.45913 343.000
55.47907 343.000
55.49902 327.000
55.51897 368.000
55.53891 345.000
55.55886 318.000
55.57881 323.000
55.59875 339.000
55.61870 342.000
55.63865 340.000
55.65860 350.000
55.67854 330.000
55.69849 356.000
55.71844 349.000
55.73838 344.000
55.75833 355.000
55.77828 355.000
55.79822 342.000
55.81817 388.000
55.83812 336.000
55.85807 359.000
55.87801 324.000
55.89796 319.000
55.91791 329.000
55.93785 321.000
55.95780 331.000
55.97775 311.000
55.99769 365.000
56.01764 363.000
56.03759 351.000
56.05753 335.000
56.07748 335.000
56.09743 354.000
56.11738 351.000
56.13732 324.000
56.15727 356.000
56.17722 334.000
56.19716 336.000
56.21711 316.000
56.23706 362.000
56.25700 375.000
56.27695 390.000
56.29690 363.000
56.31685 356.000
56.33679 345.000
56.35674 315.000
56.37669 373.000
56.39663 368.000
56.41658 364.000
56.43653 316.000
56.45647 362.000
56.47642 340.000
56.49637 332.000
56.51631 355.000
56.53626 312.000
56.55621 337.000
56.57616 376.000
56.59610 347.000
56.61605 339.000
56.63600 359.000
56.65594 368.000
56.67589 368.000
56.69584 374.000
56.71578 344.000
56.73573 375.000
56.75568 361.000
56.77563 372.000
56.79557 395.000
56.81552 387.000
56.83547 387.000
56.85541 421.000
56.87536 368.000
56.89531 396.000
56.91525 394.000
56.93520 416.000
56.95515 357.000
56.97510 420.000
56.99504 435.000
57.01499 449.000
57.03494 441.000
57.05488 435.000
57.07483 461.000
57.09478 492.000
57.11472 503.000
57.13467 520.000
57.15462 585.000
57.17456 621.000
57.19451 632.000
57.21446 660.000
57.23441 672.000
57.25435 631.000
57.27430 558.000
57.29425 548.000
57.31419 503.000
57.33414 497.000
57.35409 467.000
57.37403 491.000
57.39398 500.000
57.41393 493.000
57.43388 432.000
57.45382 369.000
57.47377 412.000
57.49372 353.000
57.51366 364.000
57.53361 351.000
57.55356 337.000
57.57350 376.000
57.59345 314.000
57.61340 351.000
57.63334 363.000
57.65329 337.000
57.67324 376.000
57.69319 333.000
57.71313 312.000
57.73308 334.000
57.75303 366.000
57.77297 385.000
57.79292 353.000
57.81287 342.000
57.83281 342.000
57.85276 373.000
57.87271 323.000
57.89266 361.000
57.91260 331.000
57.93255 363.000
57.95250 387.000
57.97244 349.000
57.99239 328.000
58.01234 352.000
58.03228 349.000
58.05223 392.000
58.07218 386.000
58.09212 391.000
58.11207 412.000
58.13202 384.000
58.15197 390.000
58.17191 413.000
58.19186 380.000
58.21181 392.000
58.23175 412.000
58.25170 383.000
58.27165 418.000
58.29159 366.000
58.31154 399.000
58.33149 373.000
58.35144 342.000
58.37138 353.000
58.39133 348.000
58.41128 341.000
58.43122 326.000
58.45117 328.000
58.47112 310.000
58.49106 350.000
58.51101 330.000
58.53096 355.000
58.55090 327.000
58.57085 327.000
58.59080 371.000
58.61075 341.000
58.63069 339.000
58.65064 322.000
58.67059 316.000
58.69053 330.000
58.71048 363.000
58.73043 334.000
58.75037 324.000
58.77032 349.000
58.79027 326.000
58.81022 355.000
58.83016 343.000
58.85011 348.000
58.87006 288.000
58.89000 304.000
58.90995 309.000
58.92990 299.000
58.94984 325.000
58.96979 315.000
58.98974 339.000
59.00969 334.000
59.02963 339.000
59.04958 317.000
59.06953 326.000
59.08947 342.000
59.10942 300.000
59.12937 342.000
59.14931 332.000
59.16926 344.000
59.18921 325.000
59.20915 338.000
59.22910 350.000
59.24905 332.000
59.26900 316.000
59.28894 343.000
59.30889 318.000
59.32884 300.000
59.34878 329.000
59.36873 350.000
59.38868 320.000
59.40862 339.000
59.42857 355.000
59.44852 337.000
59.46847 310.000
59.48841 309.000
59.50836 326.000
59.52831 368.000
59.54825 301.000
59.56820 332.000
59.58815 320.000
59.60809 367.000
59.62804 326.000
59.64799 346.000
59.66793 339.000
59.68788 288.000
59.70783 351.000
59.72778 304.000
59.74772 318.000
59.76767 322.000
59.78762 355.000
59.80756 327.000
59.82751 338.000
59.84746 311.000
59.86740 330.000
59.88735 320.000
59.90730 315.000
59.92725 309.000
59.94719 357.000
59.96714 324.000
59.98709 326.000
60.00703 324.000
60.02698 342.000
60.04693 301.000
60.06687 360.000
60.08682 305.000
60.10677 350.000
60.12671 349.000
60.14666 334.000
60.16661 331.000
60.18656 309.000
60.20650 346.000
60.22645 327.000
60.24640 373.000
60.26634 318.000
60.28629 319.000
60.30624 313.000
60.32618 360.000
60.34613 300.000
60.36608 338.000
60.38603 339.000
60.40597 355.000
60.42592 307.000
60.44587 317.000
60.46581 333.000
60.48576 322.000
60.50571 324.000
60.52565 322.000
60.54560 348.000
60.56555 296.000
60.58550 293.000
60.60544 300.000
60.62539 343.000
60.64534 352.000
60.66528 341.000
60.68523 325.000
60.70518 321.000
60.72512 314.000
60.74507 347.000
60.76502 337.000
60.78496 343.000
60.80491 354.000
60.82486 342.000
60.84481 372.000
60.86475 346.000
60.88470 351.000
60.90465 324.000
60.92459 325.000
60.94454 329.000
60.96449 336.000
60.98443 333.000
61.00438 365.000
61.02433 341.000
61.04428 340.000
61.06422 373.000
61.08417 335.000
61.10412 361.000
61.12406 400.000
61.14401 369.000
61.16396 355.000
61.18390 392.000
61.20385 379.000
61.22380 406.000
61.24374 394.000
61.26369 378.000
61.28364 410.000
61.30359 415.000
61.32353 482.000
61.34348 427.000
61.36343 423.000
61.38337 458.000
61.40332 500.000
61.42327 494.000
61.44321 456.000
61.46316 474.000
61.48311 441.000
61.50306 467.000
61.52300 447.000
61.54295 499.000
61.56290 424.000
61.58284 433.000
61.60279 434.000
61.62274 461.000
61.64268 477.000
61.66263 436.000
61.68258 401.000
61.70252 416.000
61.72247 422.000
61.74242 441.000
61.76237 378.000
61.78231 436.000
61.80226 431.000
61.82221 429.000
61.84215 421.000
61.86210 456.000
61.88205 434.000
61.90199 433.000
61.92194 429.000
61.94189 422.000
61.96184 446.000
61.98178 384.000
62.00173 431.000
62.02168 443.000
62.04162 445.000
62.06157 460.000
62.08152 472.000
62.10146 460.000
62.12141 472.000
62.14136 456.000
62.16131 490.000
62.18125 541.000
62.20120 480.000
62.22115 549.000
62.24109 539.000
62.26104 553.000
62.28099 527.000
62.30093 560.000
62.32088 607.000
62.34083 544.000
62.36077 610.000
62.38072 597.000
62.40067 639.000
62.42062 626.000
62.44056 623.000
62.46051 650.000
62.48046 596.000
62.50040 646.000
62.52035 678.000
62.54030 647.000
62.56024 627.000
62.58019 715.000
62.60014 627.000
62.62009 567.000
62.64003 613.000
62.65998 576.000
62.67993 580.000
62.69987 595.000
62.71982 638.000
62.73977 618.000
62.75971 608.000
62.77966 631.000
62.79961 714.000
62.81955 754.000
62.83950 805.000
62.85945 685.000
62.87940 703.000
62.89934 599.000
62.91929 553.000
62.93924 511.000
62.95918 534.000
62.97913 550.000
62.99908 533.000
63.01902 583.000
63.03897 520.000
63.05892 502.000
63.07887 499.000
63.09881 416.000
63.11876 398.000
63.13871 359.000
63.15865 369.000
63.17860 371.000
63.19855 390.000
63.21849 365.000
63.23844 336.000
63.25839 349.000
63.27833 329.000
63.29828 338.000
63.31823 361.000
63.33818 320.000
63.35812 328.000
63.37807 314.000
63.39802 325.000
63.41796 332.000
63.43791 342.000
63.45786 317.000
63.47780 325.000
63.49775 339.000
63.51770 328.000
63.53765 327.000
63.55759 338.000
63.57754 339.000
63.59749 302.000
63.61743 302.000
63.63738 334.000
63.65733 347.000
63.67727 326.000
63.69722 307.000
63.71717 302.000
63.73712 310.000
63.75706 307.000
63.77701 322.000
63.79696 311.000
63.81690 333.000
63.83685 330.000
63.85680 307.000
63.87674 315.000
63.89669 325.000
63.91664 324.000
63.93658 313.000
63.95653 332.000
63.97648 311.000
63.99643 324.000
64.01637 305.000
64.03632 318.000
64.05627 335.000
64.07621 346.000
64.09616 328.000
64.11611 306.000
64.13605 339.000
64.15600 336.000
64.17595 339.000
64.19590 308.000
64.21584 297.000
64.23579 329.000
64.25574 307.000
64.27568 333.000
64.29563 330.000
64.31558 339.000
64.33552 317.000
64.35547 297.000
64.37542 308.000
64.39536 324.000
64.41531 329.000
64.43526 301.000
64.45521 292.000
64.47515 303.000
64.49510 332.000
64.51505 323.000
64.53499 279.000
64.55494 338.000
64.57489 323.000
64.59483 315.000
64.61478 313.000
64.63473 272.000
64.65468 303.000
64.67462 343.000
64.69457 323.000
64.71452 329.000
64.73446 344.000
64.75441 313.000
64.77436 363.000
64.79430 317.000
64.81425 315.000
64.83420 312.000
64.85414 316.000
64.87409 336.000
64.89404 321.000
64.91399 354.000
64.93393 324.000
64.95388 311.000
64.97383 314.000
64.99377 346.000
65.01372 327.000
65.03367 360.000
65.05361 321.000
65.07356 358.000
65.09351 350.000
65.11346 347.000
65.13340 292.000
65.15335 339.000
65.17330 307.000
65.19324 393.000
65.21319 357.000
65.23314 343.000
65.25308 348.000
65.27303 340.000
65.29298 379.000
65.31293 347.000
65.33287 367.000
65.35282 361.000
65.37277 369.000
65.39271 362.000
65.41266 372.000
65.43261 399.000
65.45255 372.000
65.47250 379.000
65.49245 424.000
65.51239 398.000
65.53234 341.000
65.55229 370.000
65.57224 362.000
65.59218 347.000
65.61213 366.000
65.63208 321.000
65.65202 399.000
65.67197 361.000
65.69192 364.000
65.71186 333.000
65.73181 348.000
65.75176 322.000
65.77171 365.000
65.79165 352.000
65.81160 355.000
65.83155 353.000
65.85149 346.000
65.87144 381.000
65.89139 335.000
65.91133 364.000
65.93128 370.000
65.95123 357.000
65.97117 338.000
65.99112 361.000
66.01107 367.000
66.03102 335.000
66.05096 374.000
66.07091 360.000
66.09086 390.000
66.11080 354.000
66.13075 348.000
66.15070 392.000
66.17064 368.000
66.19059 375.000
66.21054 348.000
66.23049 368.000
66.25043 364.000
66.27038 358.000
66.29033 373.000
66.31027 369.000
66.33022 369.000
66.35017 364.000
66.37011 376.000
66.39006 342.000
66.41001 366.000
66.42995 360.000
66.44990 349.000
66.46985 354.000
66.48980 384.000
66.50974 348.000
66.52969 329.000
66.54964 374.000
66.56958 322.000
66.58953 315.000
66.60948 342.000
66.62942 345.000
66.64937 315.000
66.66932 346.000
66.68927 309.000
66.70921 320.000
66.72916 330.000
66.74911 340.000
66.76905 330.000
66.78900 303.000
66.80895 316.000
66.82889 344.000
66.84884 291.000
66.86879 300.000
66.88874 302.000
66.90868 314.000
66.92863 307.000
66.94858 319.000
66.96852 299.000
66.98847 290.000
67.00842 318.000
67.02836 308.000
67.04831 319.000
67.06826 336.000
67.08820 362.000
67.10815 350.000
67.12810 365.000
67.14805 320.000
67.16799 302.000
67.18794 316.000
67.20789 306.000
67.22783 331.000
67.24778 290.000
67.26773 337.000
67.28767 348.000
67.30762 304.000
67.32757 359.000
67.34752 332.000
67.36746 334.000
67.38741 341.000
67.40736 370.000
67.42730 352.000
67.44725 330.000
67.46720 394.000
67.48714 354.000
67.50709 385.000
67.52704 366.000
67.54698 354.000
67.56693 358.000
67.58688 361.000
67.60683 393.000
67.62677 380.000
67.64672 403.000
67.66667 330.000
67.68661 342.000
67.70656 362.000
67.72651 404.000
67.74645 412.000
67.76640 371.000
67.78635 403.000
67.80630 407.000
67.82624 416.000
67.84619 405.000
67.86614 398.000
67.88608 346.000
67.90603 344.000
67.92598 355.000
67.94592 325.000
67.96587 368.000
67.98582 375.000
68.00576 365.000
68.02571 350.000
68.04566 343.000
68.06561 356.000
68.08555 338.000
68.10550 298.000
68.12545 341.000
68.14539 348.000
68.16534 332.000
68.18529 306.000
68.20523 324.000
68.22518 351.000
68.24513 376.000
68.26508 325.000
68.28502 291.000
68.30497 306.000
68.32492 331.000
68.34486 324.000
68.36481 290.000
68.38476 289.000
68.40470 325.000
68.42465 320.000
68.44460 310.000
68.46455 288.000
68.48449 287.000
68.50444 287.000
68.52439 308.000
68.54433 296.000
68.56428 303.000
68.58423 322.000
68.60417 305.000
68.62412 325.000
68.64407 306.000
68.66401 327.000
68.68396 303.000
68.70391 302.000
68.72386 317.000
68.74380 316.000
68.76375 313.000
68.78370 308.000
68.80364 297.000
68.82359 312.000
68.84354 318.000
68.86348 312.000
68.88343 301.000
68.90338 318.000
68.92333 318.000
68.94327 302.000
68.96322 289.000
68.98317 314.000
69.00311 282.000
69.02306 336.000
69.04301 319.000
69.06295 284.000
69.08290 293.000
69.10285 287.000
69.12279 290.000
69.14274 294.000
69.16269 289.000
69.18264 325.000
69.20258 283.000
69.22253 331.000
69.24248 303.000
69.26242 291.000
69.28237 268.000
69.30232 314.000
69.32226 322.000
69.34221 300.000
69.36216 289.000
69.38211 296.000
69.40205 296.000
69.42200 307.000
69.44195 294.000
69.46189 307.000
69.48184 243.000
69.50179 301.000
69.52173 306.000
69.54168 314.000
69.56163 278.000
69.58157 242.000
69.60152 249.000
69.62147 284.000
69.64142 296.000
69.66136 329.000
69.68131 309.000
69.70126 287.000
69.72120 309.000
69.74115 267.000
69.76110 276.000
69.78104 292.000
69.80099 313.000
69.82094 304.000
69.84089 289.000
69.86083 317.000
69.88078 294.000
69.90073 291.000
69.92067 329.000
69.94062 284.000
69.96057 314.000
69.98051 304.000
70.00046 293.000
70.02041 287.000
70.04035 282.000
70.06030 310.000
70.08025 331.000
70.10020 289.000
70.12014 287.000
70.14009 295.000
70.16004 279.000
70.17998 298.000
70.19993 308.000
70.21988 301.000
70.23982 324.000
70.25977 315.000
70.27972 254.000
70.29967 317.000
70.31961 285.000
70.33956 310.000
70.35951 318.000
70.37945 283.000
70.39940 325.000
70.41935 292.000
70.43929 323.000
70.45924 298.000
70.47919 261.000
70.49914 278.000
70.51908 284.000
70.53903 315.000
70.55898 297.000
70.57892 310.000
70.59887 305.000
70.61882 302.000
70.63876 287.000
70.65871 310.000
70.67866 273.000
70.69860 299.000
70.71855 278.000
70.73850 292.000
70.75845 313.000
70.77839 298.000
70.79834 301.000
70.81829 284.000
70.83823 304.000
70.85818 327.000
70.87813 284.000
70.89807 323.000
70.91802 299.000
70.93797 307.000
70.95792 310.000
70.97786 295.000
70.99781 319.000
71.01776 291.000
71.03770 288.000
71.05765 310.000
71.07760 293.000
71.09754 306.000
71.11749 316.000
71.13744 305.000
71.15738 319.000
71.17733 281.000
71.19728 299.000
71.21723 352.000
71.23717 337.000
71.25712 306.000
71.27707 326.000
71.29701 337.000
71.31696 332.000
71.33691 290.000
71.35685 346.000
71.37680 346.000
71.39675 329.000
71.41670 339.000
71.43664 302.000
71.45659 328.000
71.47654 319.000
71.49648 341.000
71.51643 333.000
71.53638 315.000
71.55632 308.000
71.57627 329.000
71.59622 328.000
71.61616 297.000
71.63611 325.000
71.65606 316.000
71.67601 301.000
71.69595 323.000
71.71590 291.000
71.73585 290.000
71.75579 322.000
71.77574 298.000
71.79569 296.000
71.81563 286.000
71.83558 325.000
71.85553 280.000
71.87548 305.000
71.89542 335.000
71.91537 300.000
71.93532 288.000
71.95526 291.000
71.97521 329.000
71.99516 322.000
72.01510 320.000
72.03505 308.000
72.05500 327.000
72.07495 330.000
72.09489 339.000
72.11484 292.000
72.13479 301.000
72.15473 306.000
72.17468 350.000
72.19463 350.000
72.21457 354.000
72.23452 363.000
72.25447 375.000
72.27441 345.000
72.29436 417.000
72.31431 390.000
72.33426 347.000
72.35420 331.000
72.37415 378.000
72.39410 319.000
72.41404 351.000
72.43399 367.000
72.45394 368.000
72.47388 325.000
72.49383 310.000
72.51378 308.000
72.53373 321.000
72.55367 308.000
72.57362 306.000
72.59357 301.000
72.61351 338.000
72.63346 301.000
72.65341 331.000
72.67335 329.000
72.69330 314.000
72.71325 316.000
72.73319 316.000
72.75314 305.000
72.77309 344.000
72.79304 325.000
72.81298 279.000
72.83293 298.000
72.85288 339.000
72.87282 323.000
72.89277 305.000
72.91272 328.000
72.93266 288.000
72.95261 342.000
72.97256 282.000
72.99251 287.000
73.01245 310.000
73.03240 280.000
73.05235 303.000
73.07229 274.000
73.09224 309.000
73.11219 295.000
73.13213 332.000
73.15208 336.000
73.17203 291.000
73.19197 312.000
73.21192 276.000
73.23187 289.000
73.25182 302.000
73.27176 305.000
73.29171 318.000
73.31166 295.000
73.33160 347.000
73.35155 299.000
73.37150 304.000
73.39144 314.000
73.41139 340.000
73.43134 300.000
73.45129 325.000
73.47123 289.000
73.49118 272.000
73.51113 319.000
73.53107 328.000
73.55102 313.000
73.57097 347.000
73.59091 296.000
73.61086 296.000
73.63081 305.000
73.65076 290.000
73.67070 304.000
73.69065 318.000
73.71060 292.000
73.73054 284.000
73.75049 326.000
73.77044 299.000
73.79038 290.000
73.81033 301.000
73.83028 307.000
73.85022 287.000
73.87017 302.000
73.89012 288.000
73.91007 311.000
73.93001 322.000
73.94996 292.000
73.96991 297.000
73.98985 313.000
74.00980 319.000
74.02975 330.000
74.04969 348.000
74.06964 332.000
74.08959 321.000
74.10954 309.000
74.12948 344.000
74.14943 328.000
74.16938 324.000
74.18932 342.000
74.20927 350.000
74.22922 318.000
74.24916 334.000
74.26911 352.000
74.28906 325.000
74.30900 382.000
74.32895 375.000
74.34890 406.000
74.36885 405.000
74.38879 421.000
74.40874 456.000
74.42869 415.000
74.44863 432.000
74.46858 404.000
74.48853 416.000
74.50847 393.000
74.52842 389.000
74.54837 399.000
74.56832 397.000
74.58826 410.000
74.60821 425.000
74.62816 394.000
74.64810 366.000
74.66805 412.000
74.68800 395.000
74.70794 396.000
74.72789 369.000
74.74784 405.000
74.76778 395.000
74.78773 379.000
74.80768 423.000
74.82763 419.000
74.84757 385.000
74.86752 398.000
74.88747 442.000
74.90741 386.000
74.92736 417.000
74.94731 415.000
74.96725 445.000
74.98720 402.000
75.00715 404.000
75.02710 416.000
75.04704 429.000
75.06699 427.000
75.08694 399.000
75.10688 403.000
75.12683 379.000
75.14678 410.000
75.16672 382.000
75.18667 380.000
75.20662 404.000
75.22657 363.000
75.24651 384.000
75.26646 391.000
75.28641 353.000
75.30635 382.000
75.32630 383.000
75.34625 387.000
75.36619 365.000
75.38614 383.000
75.40609 400.000
75.42603 349.000
75.44598 338.000
75.46593 333.000
75.48588 335.000
75.50582 339.000
75.52577 328.000
75.54572 310.000
75.56566 326.000
75.58561 326.000
75.60556 289.000
75.62550 351.000
75.64545 338.000
75.66540 302.000
75.68535 323.000
75.70529 326.000
75.72524 309.000
75.74519 308.000
75.76513 323.000
75.78508 302.000
75.80503 293.000
75.82497 318.000
75.84492 326.000
75.86487 299.000
75.88481 316.000
75.90476 302.000
75.92471 319.000
75.94466 304.000
75.96460 270.000
75.98455 310.000
76.00450 318.000
76.02444 304.000
76.04439 293.000
76.06434 283.000
76.08428 307.000
76.10423 315.000
76.12418 293.000
76.14413 291.000
76.16407 293.000
76.18402 300.000
76.20397 317.000
76.22391 301.000
76.24386 307.000
76.26381 305.000
76.28375 316.000
76.30370 289.000
76.32365 295.000
76.34359 299.000
76.36354 310.000
76.38349 313.000
76.40344 309.000
76.42338 312.000
76.44333 288.000
76.46328 285.000
76.48322 292.000
76.50317 301.000
76.52312 284.000
76.54306 268.000
76.56301 284.000
76.58296 243.000
76.60291 293.000
76.62285 282.000
76.64280 284.000
76.66275 340.000
76.68269 276.000
76.70264 330.000
76.72259 285.000
76.74253 309.000
76.76248 290.000
76.78243 265.000
76.80238 324.000
76.82232 276.000
76.84227 309.000
76.86222 278.000
76.88216 321.000
76.90211 309.000
76.92206 270.000
76.94200 300.000
76.96195 291.000
76.98190 302.000
77.00184 293.000
77.02179 284.000
77.04174 301.000
77.06169 278.000
77.08163 293.000
77.10158 257.000
77.12153 309.000
77.14147 276.000
77.16142 269.000
77.18137 271.000
77.20131 300.000
77.22126 307.000
77.24121 271.000
77.26116 288.000
77.28110 311.000
77.30105 316.000
77.32100 296.000
77.34094 283.000
77.36089 295.000
77.38084 289.000
77.40078 317.000
77.42073 266.000
77.44068 272.000
77.46062 285.000
77.48057 266.000
77.50052 273.000
77.52047 283.000
77.54041 290.000
77.56036 319.000
77.58031 315.000
77.60025 274.000
77.62020 308.000
77.64015 271.000
77.66009 272.000
77.68004 297.000
77.69999 300.000
77.71994 313.000
77.73988 275.000
77.75983 320.000
77.77978 292.000
77.79972 291.000
77.81967 282.000
77.83962 283.000
77.85956 326.000
77.87951 292.000
77.89946 321.000
77.91940 311.000
77.93935 293.000
77.95930 287.000
77.97925 294.000
77.99919 322.000
78.01914 295.000
78.03909 288.000
78.05903 293.000
78.07898 286.000
78.09893 340.000
78.11887 307.000
78.13882 312.000
78.15877 290.000
78.17872 316.000
78.19866 324.000
78.21861 275.000
78.23856 284.000
78.25850 325.000
78.27845 278.000
78.29840 286.000
78.31834 271.000
78.33829 311.000
78.35824 306.000
78.37819 304.000
78.39813 296.000
78.41808 354.000
78.43803 312.000
78.45797 353.000
78.47792 349.000
78.49787 323.000
78.51781 300.000
78.53776 330.000
78.55771 310.000
78.57765 350.000
78.59760 322.000
78.61755 342.000
78.63750 318.000
78.65744 350.000
78.67739 350.000
78.69734 343.000
78.71728 345.000
78.73723 344.000
78.75718 360.000
78.77712 349.000
78.79707 370.000
78.81702 385.000
78.83697 336.000
78.85691 330.000
78.87686 369.000
78.89681 361.000
78.91675 374.000
78.93670 356.000
78.95665 335.000
78.97659 356.000
78.99654 364.000
79.01649 356.000
79.03643 340.000
79.05638 358.000
79.07633 363.000
79.09628 324.000
79.11622 320.000
79.13617 304.000
79.15612 361.000
79.17606 345.000
79.19601 309.000
79.21596 366.000
79.23590 351.000
79.25585 324.000
79.27580 328.000
79.29575 333.000
79.31569 341.000
79.33564 312.000
79.35559 358.000
79.37553 323.000
79.39548 315.000
79.41543 316.000
79.43537 329.000
79.45532 328.000
79.47527 341.000
79.49521 314.000
79.51516 307.000
79.53511 325.000
79.55506 318.000
79.57500 297.000
79.59495 312.000
79.61490 306.000
79.63484 330.000
79.65479 286.000
79.67474 284.000
79.69468 320.000
79.71463 315.000
79.73458 290.000
79.75453 316.000
79.77447 296.000
79.79442 307.000
79.81437 318.000
79.83431 302.000
79.85426 281.000
79.87421 300.000
79.89415 297.000
79.91410 278.000
79.93405 257.000
79.95399 288.000
79.97394 276.000
79.99389 304.000
80.01384 291.000
80.03378 265.000
80.05373 287.000
80.07368 277.000
80.09362 308.000
80.11357 283.000
80.13352 316.000
80.15346 288.000
80.17341 290.000
80.19336 334.000
80.21331 324.000
80.23325 279.000
80.25320 297.000
80.27315 277.000
80.29309 290.000
80.31304 301.000
80.33299 274.000
80.35293 308.000
80.37288 292.000
80.39283 305.000
80.41278 288.000
80.43272 260.000
80.45267 266.000
80.47262 317.000
80.49256 251.000
80.51251 274.000
80.53246 302.000
80.55240 304.000
80.57235 291.000
80.59230 290.000
80.61224 281.000
80.63219 306.000
80.65214 290.000
80.67209 292.000
80.69203 272.000
80.71198 299.000
80.73193 274.000
80.75187 296.000
80.77182 275.000
80.79177 274.000
80.81171 274.000
80.83166 268.000
80.85161 257.000
80.87156 308.000
80.89150 262.000
80.91145 297.000
80.93140 278.000
80.95134 283.000
80.97129 286.000
80.99124 229.000
81.01118 292.000
81.03113 289.000
81.05108 300.000
81.07102 281.000
81.09097 294.000
81.11092 289.000
81.13087 333.000
81.15081 286.000
81.17076 285.000
81.19071 306.000
81.21065 259.000
81.23060 307.000
81.25055 270.000
81.27049 282.000
81.29044 280.000
81.31039 300.000
81.33034 313.000
81.35028 299.000
81.37023 293.000
81.39018 284.000
81.41012 266.000
81.43007 272.000
81.45002 269.000
81.46996 269.000
81.48991 289.000
81.50986 287.000
81.52980 277.000
81.54975 281.000
81.56970 309.000
81.58965 263.000
81.60959 320.000
81.62954 293.000
81.64949 286.000
81.66943 305.000
81.68938 286.000
81.70933 298.000
81.72927 296.000
81.74922 307.000
81.76917 284.000
81.78912 303.000
81.80906 295.000
81.82901 305.000
81.84896 312.000
81.86890 281.000
81.88885 284.000
81.90880 308.000
81.92874 305.000
81.94869 286.000
81.96864 287.000
81.98859 305.000
82.00853 271.000
82.02848 296.000
82.04843 288.000
82.06837 325.000
82.08832 300.000
82.10827 320.000
82.12821 293.000
82.14816 296.000
82.16811 306.000
82.18805 315.000
82.20800 305.000
82.22795 295.000
82.24790 289.000
82.26784 315.000
82.28779 317.000
82.30774 313.000
82.32768 280.000
82.34763 313.000
82.36758 305.000
82.38752 307.000
82.40747 296.000
82.42742 300.000
82.44737 304.000
82.46731 287.000
82.48726 304.000
82.50721 339.000
82.52715 316.000
82.54710 278.000
82.56705 353.000
82.58699 335.000
82.60694 321.000
82.62689 310.000
82.64683 320.000
82.66678 333.000
82.68673 329.000
82.70668 323.000
82.72662 326.000
82.74657 316.000
82.76652 339.000
82.78646 330.000
82.80641 339.000
82.82636 315.000
82.84630 341.000
82.86625 313.000
82.88620 281.000
82.90615 293.000
82.92609 294.000
82.94604 308.000
82.96599 288.000
82.98593 297.000
83.00588 305.000
83.02583 295.000
83.04577 313.000
83.06572 323.000
83.08567 299.000
83.10561 334.000
83.12556 301.000
83.14551 299.000
83.16546 282.000
83.18540 273.000
83.20535 315.000
83.22530 275.000
83.24524 290.000
83.26519 258.000
83.28514 329.000
83.30508 280.000
83.32503 292.000
83.34498 310.000
83.36493 289.000
83.38487 325.000
83.40482 295.000
83.42477 321.000
83.44471 305.000
83.46466 283.000
83.48461 324.000
83.50455 299.000
83.52450 311.000
83.54445 312.000
83.56440 294.000
83.58434 307.000
83.60429 281.000
83.62424 321.000
83.64418 295.000
83.66413 316.000
83.68408 313.000
83.70402 285.000
83.72397 269.000
83.74392 306.000
83.76386 310.000
83.78381 298.000
83.80376 340.000
83.82371 291.000
83.84365 331.000
83.86360 341.000
83.88355 298.000
83.90349 290.000
83.92344 301.000
83.94339 311.000
83.96333 290.000
83.98328 271.000
84.00323 263.000
84.02318 297.000
84.04312 289.000
84.06307 296.000
84.08302 298.000
84.10296 284.000
84.12291 284.000
84.14286 279.000
84.16280 304.000
84.18275 313.000
84.20270 275.000
84.22264 294.000
84.24259 286.000
84.26254 295.000
84.28249 286.000
84.30243 277.000
84.32238 285.000
84.34233 284.000
84.36227 325.000
84.38222 340.000
84.40217 297.000
84.42211 315.000
84.44206 306.000
84.46201 288.000
84.48196 262.000
84.50190 276.000
84.52185 306.000
84.54180 301.000
84.56174 294.000
84.58169 279.000
84.60164 302.000
84.62158 292.000
84.64153 284.000
84.66148 309.000
84.68142 289.000
84.70137 293.000
84.72132 294.000
84.74127 304.000
84.76121 270.000
84.78116 292.000
84.80111 295.000
84.82105 266.000
84.84100 275.000
84.86095 291.000
84.88089 286.000
84.90084 269.000
84.92079 291.000
84.94074 293.000
84.96068 287.000
84.98063 290.000
85.00058 330.000
85.02052 300.000
85.04047 287.000
85.06042 294.000
85.08036 273.000
85.10031 280.000
85.12026 300.000
85.14021 313.000
85.16015 290.000
85.18010 299.000
85.20005 266.000
85.21999 280.000
85.23994 292.000
85.25989 265.000
85.27983 281.000
85.29978 289.000
85.31973 271.000
85.33967 296.000
85.35962 289.000
85.37957 299.000
85.39952 280.000
85.41946 290.000
85.43941 271.000
85.45936 306.000
85.47930 269.000
85.49925 262.000
85.51920 289.000
85.53914 304.000
85.55909 291.000
85.57904 293.000
85.59899 276.000
85.61893 267.000
85.63888 265.000
85.65883 286.000
85.67877 297.000
85.69872 287.000
85.71867 260.000
85.73861 293.000
85.75856 300.000
85.77851 299.000
85.79845 288.000
85.81840 301.000
85.83835 300.000
85.85830 292.000
85.87824 298.000
85.89819 280.000
85.91814 281.000
85.93808 296.000
85.95803 317.000
85.97798 272.000
85.99792 301.000
86.01787 275.000
86.03782 290.000
86.05777 295.000
86.07771 305.000
86.09766 272.000
86.11761 276.000
86.13755 284.000
86.15750 286.000
86.17745 313.000
86.19739 300.000
86.21734 270.000
86.23729 279.000
86.25723 317.000
86.27718 293.000
86.29713 279.000
86.31708 278.000
86.33702 294.000
86.35697 317.000
86.37692 286.000
86.39686 311.000
86.41681 292.000
86.43676 305.000
86.45670 305.000
86.47665 269.000
86.49660 269.000
86.51655 297.000
86.53649 300.000
86.55644 270.000
86.57639 292.000
86.59633 290.000
86.61628 289.000
86.63623 312.000
86.65617 284.000
86.67612 290.000
86.69607 281.000
86.71602 288.000
86.73596 289.000
86.75591 322.000
86.77586 323.000
86.79580 340.000
86.81575 292.000
86.83570 287.000
86.85564 300.000
86.87559 298.000
86.89554 311.000
86.91548 303.000
86.93543 312.000
86.95538 304.000
86.97533 334.000
86.99527 317.000
87.01522 317.000
87.03517 318.000
87.05511 308.000
87.07506 337.000
87.09501 281.000
87.11495 318.000
87.13490 322.000
87.15485 305.000
87.17480 308.000
87.19474 311.000
87.21469 322.000
87.23464 294.000
87.25458 358.000
87.27453 312.000
87.29448 332.000
87.31442 306.000
87.33437 323.000
87.35432 319.000
87.37426 333.000
87.39421 297.000
87.41416 301.000
87.43411 302.000
87.45405 299.000
87.47400 298.000
87.49395 314.000
87.51389 281.000
87.53384 303.000
87.55379 311.000
87.57373 287.000
87.59368 308.000
87.61363 312.000
87.63358 299.000
87.65352 307.000
87.67347 292.000
87.69342 316.000
87.71336 284.000
87.73331 284.000
87.75326 277.000
87.77320 270.000
87.79315 284.000
87.81310 244.000
87.83304 300.000
87.85299 286.000
87.87294 302.000
87.89289 318.000
87.91283 274.000
87.93278 306.000
87.95273 297.000
87.97267 271.000
87.99262 283.000
88.01257 291.000
88.03251 300.000
88.05246 279.000
88.07241 298.000
88.09236 300.000
88.11230 273.000
88.13225 280.000
88.15220 282.000
88.17214 342.000
88.19209 298.000
88.21204 259.000
88.23198 330.000
88.25193 284.000
88.27188 297.000
88.29183 327.000
88.31177 273.000
88.33172 302.000
88.35167 299.000
88.37161 306.000
88.39156 311.000
88.41151 282.000
88.43145 302.000
88.45140 289.000
88.47135 287.000
88.49129 268.000
88.51124 287.000
88.53119 297.000
88.55114 288.000
88.57108 283.000
88.59103 305.000
88.61098 266.000
88.63092 299.000
88.65087 261.000
88.67082 275.000
88.69076 290.000
88.71071 304.000
88.73066 313.000
88.75061 263.000
88.77055 286.000
88.79050 274.000
88.81045 311.000
88.83039 292.000
88.85034 335.000
88.87029 316.000
88.89023 274.000
88.91018 277.000
88.93013 291.000
88.95007 310.000
88.97002 303.000
88.98997 284.000
89.00992 319.000
89.02986 308.000
89.04981 281.000
89.06976 303.000
89.08970 317.000
89.10965 320.000
89.12960 326.000
89.14954 299.000
89.16949 312.000
89.18944 345.000
89.20939 322.000
89.22933 316.000
89.24928 319.000
89.26923 325.000
89.28917 330.000
89.30912 347.000
89.32907 292.000
89.34901 316.000
89.36896 330.000
89.38891 275.000
89.40885 320.000
89.42880 303.000
89.44875 345.000
89.46870 311.000
89.48864 307.000
89.50859 262.000
89.52854 303.000
89.54848 326.000
89.56843 320.000
89.58838 325.000
89.60832 321.000
89.62827 300.000
89.64822 327.000
89.66817 305.000
89.68811 284.000
89.70806 321.000
89.72801 307.000
89.74795 303.000
89.76790 324.000
89.78785 316.000
89.80779 298.000
89.82774 297.000
89.84769 296.000
89.86764 329.000
89.88758 291.000
89.90753 322.000
89.92748 325.000
89.94742 305.000
89.96737 315.000
89.98732 307.000
90.00726 321.000
