10.00000 161.000
10.01995 184.000
10.03989 187.000
10.05984 155.000
10.07979 148.000
10.09973 154.000
10.11968 177.000
10.13963 146.000
10.15958 161.000
10.17952 156.000
10.19947 145.000
10.21942 160.000
10.23936 179.000
10.25931 168.000
10.27926 167.000
10.29920 166.000
10.31915 158.000
10.33910 175.000
10.35905 150.000
10.37899 165.000
10.39894 180.000
10.41889 172.000
10.43883 158.000
10.45878 145.000
10.47873 184.000
10.49867 166.000
10.51862 174.000
10.53857 160.000
10.55851 154.000
10.57846 162.000
10.59841 183.000
10.61836 168.000
10.63830 143.000
10.65825 173.000
10.67820 164.000
10.69814 159.000
10.71809 176.000
10.73804 181.000
10.75798 177.000
10.77793 169.000
10.79788 165.000
10.81783 162.000
10.83777 155.000
10.85772 189.000
10.87767 164.000
10.89761 147.000
10.91756 176.000
10.93751 139.000
10.95745 186.000
10.97740 168.000
10.99735 174.000
11.01730 165.000
11.03724 173.000
11.05719 152.000
11.07714 171.000
11.09708 171.000
11.11703 164.000
11.13698 159.000
11.15692 172.000
11.17687 161.000
11.19682 165.000
11.21676 156.000
11.23671 173.000
11.25666 158.000
11.27661 194.000
11.29655 153.000
11.31650 150.000
11.33645 166.000
11.35639 153.000
11.37634 141.000
11.39629 148.000
11.41623 176.000
11.43618 152.000
11.45613 169.000
11.47608 142.000
11.49602 169.000
11.51597 174.000
11.53592 178.000
11.55586 169.000
11.57581 171.000
11.59576 152.000
11.61570 156.000
11.63565 177.000
11.65560 157.000
11.67554 174.000
11.69549 152.000
11.71544 158.000
11.73539 161.000
11.75533 151.000
11.77528 171.000
11.79523 172.000
11.81517 173.000
11.83512 144.000
11.85507 152.000
11.87501 162.000
11.89496 179.000
11.91491 152.000
11.93486 158.000
11.95480 168.000
11.97475 153.000
11.99470 171.000
12.01464 164.000
12.03459 163.000
12.05454 171.000
12.07448 180.000
12.09443 170.000
12.11438 164.000
12.13432 170.000
12.15427 159.000
12.17422 142.000
12.19417 138.000
12.21411 163.000
12.23406 171.000
12.25401 173.000
12.27395 149.000
12.29390 204.000
12.31385 175.000
12.33379 154.000
12.35374 190.000
12.37369 183.000
12.39364 170.000
12.41358 170.000
12.43353 152.000
12.45348 150.000
12.47342 151.000
12.49337 154.000
12.51332 176.000
12.53326 140.000
12.55321 180.000
12.57316 155.000
12.59311 139.000
12.61305 163.000
12.63300 167.000
12.65295 165.000
12.67289 183.000
12.69284 158.000
12.71279 170.000
12.73273 188.000
12.75268 157.000
12.77263 149.000
12.79257 174.000
12.81252 157.000
12.83247 134.000
12.85242 143.000
12.87236 165.000
12.89231 155.000
12.91226 144.000
12.93220 169.000
12.95215 167.000
12.97210 160.000
12.99204 148.000
13.01199 174.000
13.03194 172.000
13.05189 187.000
13.07183 191.000
13.09178 146.000
13.11173 172.000
13.13167 155.000
13.15162 179.000
13.17157 145.000
13.19151 141.000
13.21146 183.000
13.23141 169.000
13.25135 157.000
13.27130 174.000
13.29125 162.000
13.31120 147.000
13.33114 179.000
13.35109 170.000
13.37104 153.000
13.39098 155.000
13.41093 168.000
13.43088 160.000
13.45082 157.000
13.47077 142.000
13.49072 151.000
13.51067 153.000
13.53061 148.000
13.55056 154.000
13.57051 159.000
13.59045 139.000
13.61040 192.000
13.63035 139.000
13.65029 160.000
13.67024 143.000
13.69019 166.000
13.71013 179.000
13.73008 152.000
13.75003 153.000
13.76998 172.000
13.78992 152.000
13.80987 155.000
13.82982 168.000
13.84976 186.000
13.86971 157.000
13.88966 154.000
13.90960 160.000
13.92955 163.000
13.94950 160.000
13.96945 193.000
13.98939 172.000
14.00934 151.000
14.02929 175.000
14.04923 165.000
14.06918 168.000
14.08913 159.000
14.10907 168.000
14.12902 191.000
14.14897 162.000
14.16892 177.000
14.18886 183.000
14.20881 161.000
14.22876 163.000
14.24870 161.000
14.26865 183.000
14.28860 194.000
14.30854 180.000
14.32849 192.000
14.34844 184.000
14.36838 172.000
14.38833 162.000
14.40828 174.000
14.42823 156.000
14.44817 168.000
14.46812 180.000
14.48807 189.000
14.50801 155.000
14.52796 189.000
14.54791 173.000
14.56785 174.000
14.58780 206.000
14.60775 169.000
14.62770 166.000
14.64764 194.000
14.66759 204.000
14.68754 166.000
14.70748 195.000
14.72743 190.000
14.74738 189.000
14.76732 193.000
14.78727 182.000
14.80722 174.000
14.82716 215.000
14.84711 178.000
14.86706 180.000
14.88701 185.000
14.90695 168.000
14.92690 174.000
14.94685 185.000
14.96679 181.000
14.98674 183.000
15.00669 217.000
15.02663 179.000
15.04658 208.000
15.06653 194.000
15.08648 221.000
15.10642 217.000
15.12637 248.000
15.14632 233.000
15.16626 214.000
15.18621 243.000
15.20616 225.000
15.22610 255.000
15.24605 219.000
15.26600 220.000
15.28594 233.000
15.30589 245.000
15.32584 260.000
15.34579 252.000
15.36573 269.000
15.38568 263.000
15.40563 271.000
15.42557 302.000
15.44552 297.000
15.46547 326.000
15.48541 322.000
15.50536 333.000
15.52531 334.000
15.54526 376.000
15.56520 376.000
15.58515 425.000
15.60510 445.000
15.62504 526.000
15.64499 617.000
15.66494 733.000
15.68488 885.000
15.70483 1162.000
15.72478 1628.000
15.74472 2512.000
15.76467 3898.000
15.78462 6339.000
15.80457 9976.000
15.82451 13191.000
15.84446 13293.000
15.86441 9954.000
15.88435 6497.000
15.90430 3260.000
15.92425 1559.000
15.94419 924.000
15.96414 755.000
15.98409 591.000
16.00404 497.000
16.02398 470.000
16.04393 403.000
16.06388 419.000
16.08382 396.000
16.10377 328.000
16.12372 324.000
16.14366 307.000
16.16361 251.000
16.18356 287.000
16.20351 283.000
16.22345 266.000
16.24340 261.000
16.26335 267.000
16.28329 233.000
16.30324 251.000
16.32319 235.000
16.34313 258.000
16.36308 217.000
16.38303 236.000
16.40297 245.000
16.42292 215.000
16.44287 214.000
16.46282 193.000
16.48276 193.000
16.50271 207.000
16.52266 204.000
16.54260 197.000
16.56255 184.000
16.58250 198.000
16.60244 211.000
16.62239 208.000
16.64234 205.000
16.66229 177.000
16.68223 178.000
16.70218 170.000
16.72213 179.000
16.74207 184.000
16.76202 178.000
16.78197 161.000
16.80191 158.000
16.82186 187.000
16.84181 175.000
16.86175 170.000
16.88170 176.000
16.90165 179.000
16.92160 174.000
16.94154 192.000
16.96149 189.000
16.98144 151.000
17.00138 164.000
17.02133 168.000
17.04128 169.000
17.06122 189.000
17.08117 165.000
17.10112 143.000
17.12107 170.000
17.14101 159.000
17.16096 175.000
17.18091 175.000
17.20085 175.000
17.22080 172.000
17.24075 177.000
17.26069 163.000
17.28064 161.000
17.30059 167.000
17.32053 158.000
17.34048 182.000
17.36043 145.000
17.38038 177.000
17.40032 158.000
17.42027 157.000
17.44022 169.000
17.46016 175.000
17.48011 181.000
17.50006 176.000
17.52000 156.000
17.53995 159.000
17.55990 155.000
17.57985 159.000
17.59979 171.000
17.61974 171.000
17.63969 149.000
17.65963 168.000
17.67958 180.000
17.69953 170.000
17.71947 174.000
17.73942 151.000
17.75937 169.000
17.77932 171.000
17.79926 165.000
17.81921 168.000
17.83916 165.000
17.85910 183.000
17.87905 166.000
17.89900 155.000
17.91894 160.000
17.93889 190.000
17.95884 160.000
17.97878 157.000
17.99873 166.000
18.01868 166.000
18.03863 166.000
18.05857 159.000
18.07852 171.000
18.09847 170.000
18.11841 168.000
18.13836 175.000
18.15831 166.000
18.17825 161.000
18.19820 176.000
18.21815 166.000
18.23810 177.000
18.25804 175.000
18.27799 166.000
18.29794 172.000
18.31788 177.000
18.33783 248.000
18.35778 252.000
18.37772 250.000
18.39767 288.000
18.41762 268.000
18.43756 238.000
18.45751 220.000
18.47746 180.000
18.49741 195.000
18.51735 185.000
18.53730 178.000
18.55725 148.000
18.57719 204.000
18.59714 168.000
18.61709 197.000
18.63703 179.000
18.65698 169.000
18.67693 172.000
18.69688 171.000
18.71682 197.000
18.73677 179.000
18.75672 157.000
18.77666 165.000
18.79661 161.000
18.81656 166.000
18.83650 158.000
18.85645 171.000
18.87640 161.000
18.89634 160.000
18.91629 176.000
18.93624 167.000
18.95619 165.000
18.97613 188.000
18.99608 152.000
19.01603 131.000
19.03597 155.000
19.05592 155.000
19.07587 145.000
19.09581 187.000
19.11576 167.000
19.13571 172.000
19.15566 162.000
19.17560 173.000
19.19555 163.000
19.21550 167.000
19.23544 159.000
19.25539 170.000
19.27534 159.000
19.29528 158.000
19.31523 138.000
19.33518 176.000
19.35513 172.000
19.37507 163.000
19.39502 160.000
19.41497 170.000
19.43491 161.000
19.45486 160.000
19.47481 174.000
19.49475 156.000
19.51470 148.000
19.53465 162.000
19.55459 161.000
19.57454 154.000
19.59449 168.000
19.61444 175.000
19.63438 168.000
19.65433 149.000
19.67428 166.000
19.69422 166.000
19.71417 170.000
19.73412 164.000
19.75406 163.000
19.77401 163.000
19.79396 159.000
19.81391 177.000
19.83385 191.000
19.85380 179.000
19.87375 173.000
19.89369 171.000
19.91364 145.000
19.93359 146.000
19.95353 139.000
19.97348 152.000
19.99343 174.000
20.01337 183.000
20.03332 186.000
20.05327 173.000
20.07322 172.000
20.09316 176.000
20.11311 165.000
20.13306 172.000
20.15300 171.000
20.17295 175.000
20.19290 146.000
20.21284 164.000
20.23279 127.000
20.25274 172.000
20.27269 147.000
20.29263 171.000
20.31258 142.000
20.33253 142.000
20.35247 177.000
20.37242 157.000
20.39237 159.000
20.41231 177.000
20.43226 145.000
20.45221 163.000
20.47215 173.000
20.49210 192.000
20.51205 160.000
20.53200 180.000
20.55194 161.000
20.57189 156.000
20.59184 150.000
20.61178 179.000
20.63173 159.000
20.65168 167.000
20.67162 157.000
20.69157 167.000
20.71152 178.000
20.73147 186.000
20.75141 190.000
20.77136 193.000
20.79131 149.000
20.81125 158.000
20.83120 180.000
20.85115 168.000
20.87109 191.000
20.89104 209.000
20.91099 188.000
20.93094 185.000
20.95088 219.000
20.97083 242.000
20.99078 270.000
21.01072 278.000
21.03067 324.000
21.05062 318.000
21.07056 296.000
21.09051 303.000
21.11046 255.000
21.13040 212.000
21.15035 204.000
21.17030 195.000
21.19025 176.000
21.21019 189.000
21.23014 164.000
21.25009 192.000
21.27003 163.000
21.28998 160.000
21.30993 180.000
21.32987 166.000
21.34982 165.000
21.36977 175.000
21.38972 175.000
21.40966 163.000
21.42961 173.000
21.44956 150.000
21.46950 151.000
21.48945 198.000
21.50940 144.000
21.52934 161.000
21.54929 165.000
21.56924 191.000
21.58918 183.000
21.60913 173.000
21.62908 174.000
21.64903 161.000
21.66897 176.000
21.68892 180.000
21.70887 146.000
21.72881 148.000
21.74876 172.000
21.76871 155.000
21.78865 169.000
21.80860 173.000
21.82855 156.000
21.84850 184.000
21.86844 181.000
21.88839 148.000
21.90834 141.000
21.92828 179.000
21.94823 159.000
21.96818 176.000
21.98812 156.000
22.00807 171.000
22.02802 157.000
22.04796 148.000
22.06791 158.000
22.08786 154.000
22.10781 178.000
22.12775 171.000
22.14770 158.000
22.16765 170.000
22.18759 150.000
22.20754 147.000
22.22749 184.000
22.24743 158.000
22.26738 154.000
22.28733 161.000
22.30728 163.000
22.32722 171.000
22.34717 158.000
22.36712 156.000
22.38706 164.000
22.40701 153.000
22.42696 148.000
22.44690 160.000
22.46685 179.000
22.48680 158.000
22.50675 148.000
22.52669 161.000
22.54664 189.000
22.56659 168.000
22.58653 159.000
22.60648 172.000
22.62643 179.000
22.64637 168.000
22.66632 144.000
22.68627 144.000
22.70621 159.000
22.72616 147.000
22.74611 174.000
22.76606 171.000
22.78600 146.000
22.80595 169.000
22.82590 177.000
22.84584 168.000
22.86579 185.000
22.88574 165.000
22.90568 165.000
22.92563 184.000
22.94558 150.000
22.96553 166.000
22.98547 166.000
23.00542 175.000
23.02537 150.000
23.04531 161.000
23.06526 161.000
23.08521 174.000
23.10515 170.000
23.12510 173.000
23.14505 157.000
23.16499 172.000
23.18494 159.000
23.20489 172.000
23.22484 176.000
23.24478 156.000
23.26473 160.000
23.28468 186.000
23.30462 171.000
23.32457 157.000
23.34452 183.000
23.36446 178.000
23.38441 169.000
23.40436 162.000
23.42431 185.000
23.44425 150.000
23.46420 164.000
23.48415 150.000
23.50409 210.000
23.52404 177.000
23.54399 178.000
23.56393 169.000
23.58388 169.000
23.60383 155.000
23.62377 171.000
23.64372 179.000
23.66367 160.000
23.68362 169.000
23.70356 153.000
23.72351 153.000
23.74346 150.000
23.76340 183.000
23.78335 158.000
23.80330 176.000
23.82324 156.000
23.84319 146.000
23.86314 145.000
23.88309 157.000
23.90303 171.000
23.92298 165.000
23.94293 171.000
23.96287 162.000
23.98282 156.000
24.00277 172.000
24.02271 158.000
24.04266 181.000
24.06261 185.000
24.08256 154.000
24.10250 184.000
24.12245 168.000
24.14240 146.000
24.16234 169.000
24.18229 166.000
24.20224 169.000
24.22218 160.000
24.24213 162.000
24.26208 140.000
24.28202 182.000
24.30197 174.000
24.32192 149.000
24.34187 179.000
24.36181 193.000
24.38176 141.000
24.40171 166.000
24.42165 184.000
24.44160 163.000
24.46155 147.000
24.48149 156.000
24.50144 151.000
24.52139 152.000
24.54134 177.000
24.56128 161.000
24.58123 150.000
24.60118 146.000
24.62112 169.000
24.64107 182.000
24.66102 186.000
24.68096 146.000
24.70091 144.000
24.72086 160.000
24.74080 169.000
24.76075 182.000
24.78070 157.000
24.80065 158.000
24.82059 193.000
24.84054 184.000
24.86049 193.000
24.88043 172.000
24.90038 155.000
24.92033 173.000
24.94027 166.000
24.96022 158.000
24.98017 174.000
25.00012 167.000
25.02006 180.000
25.04001 180.000
25.05996 156.000
25.07990 165.000
25.09985 174.000
25.11980 166.000
25.13974 165.000
25.15969 163.000
25.17964 164.000
25.19958 155.000
25.21953 163.000
25.23948 173.000
25.25943 176.000
25.27937 181.000
25.29932 170.000
25.31927 168.000
25.33921 175.000
25.35916 152.000
25.37911 173.000
25.39905 179.000
25.41900 170.000
25.43895 140.000
25.45890 177.000
25.47884 171.000
25.49879 165.000
25.51874 172.000
25.53868 142.000
25.55863 166.000
25.57858 209.000
25.59852 170.000
25.61847 155.000
25.63842 166.000
25.65837 156.000
25.67831 175.000
25.69826 153.000
25.71821 190.000
25.73815 188.000
25.75810 163.000
25.77805 188.000
25.79799 168.000
25.81794 155.000
25.83789 180.000
25.85783 175.000
25.87778 157.000
25.89773 181.000
25.91768 162.000
25.93762 147.000
25.95757 181.000
25.97752 185.000
25.99746 183.000
26.01741 146.000
26.03736 178.000
26.05730 174.000
26.07725 152.000
26.09720 170.000
26.11715 151.000
26.13709 169.000
26.15704 170.000
26.17699 182.000
26.19693 167.000
26.21688 173.000
26.23683 181.000
26.25677 193.000
26.27672 174.000
26.29667 160.000
26.31661 182.000
26.33656 169.000
26.35651 187.000
26.37646 179.000
26.39640 188.000
26.41635 168.000
26.43630 170.000
26.45624 177.000
26.47619 173.000
26.49614 152.000
26.51608 157.000
26.53603 189.000
26.55598 185.000
26.57593 178.000
26.59587 180.000
26.61582 203.000
26.63577 181.000
26.65571 184.000
26.67566 193.000
26.69561 163.000
26.71555 167.000
26.73550 175.000
26.75545 184.000
26.77539 172.000
26.79534 176.000
26.81529 165.000
26.83524 180.000
26.85518 162.000
26.87513 176.000
26.89508 170.000
26.91502 199.000
26.93497 184.000
26.95492 184.000
26.97486 167.000
26.99481 147.000
27.01476 190.000
27.03471 208.000
27.05465 168.000
27.07460 194.000
27.09455 168.000
27.11449 188.000
27.13444 184.000
27.15439 213.000
27.17433 196.000
27.19428 167.000
27.21423 192.000
27.23417 164.000
27.25412 209.000
27.27407 175.000
27.29402 187.000
27.31396 182.000
27.33391 175.000
27.35386 184.000
27.37380 190.000
27.39375 164.000
27.41370 172.000
27.43364 177.000
27.45359 204.000
27.47354 192.000
27.49349 173.000
27.51343 183.000
27.53338 187.000
27.55333 198.000
27.57327 173.000
27.59322 167.000
27.61317 181.000
27.63311 189.000
27.65306 180.000
27.67301 177.000
27.69296 180.000
27.71290 185.000
27.73285 172.000
27.75280 172.000
27.77274 172.000
27.79269 188.000
27.81264 180.000
27.83258 192.000
27.85253 169.000
27.87248 183.000
27.89242 200.000
27.91237 177.000
27.93232 187.000
27.95227 161.000
27.97221 192.000
27.99216 193.000
28.01211 176.000
28.03205 174.000
28.05200 165.000
28.07195 177.000
28.09189 155.000
28.11184 167.000
28.13179 189.000
28.15174 187.000
28.17168 187.000
28.19163 186.000
28.21158 211.000
28.23152 192.000
28.25147 198.000
28.27142 199.000
28.29136 185.000
28.31131 190.000
28.33126 204.000
28.35120 178.000
28.37115 196.000
28.39110 211.000
28.41105 185.000
28.43099 196.000
28.45094 201.000
28.47089 190.000
28.49083 186.000
28.51078 194.000
28.53073 187.000
28.55067 191.000
28.57062 186.000
28.59057 209.000
28.61052 175.000
28.63046 154.000
28.65041 176.000
28.67036 183.000
28.69030 200.000
28.71025 167.000
28.73020 179.000
28.75014 186.000
28.77009 174.000
28.79004 174.000
28.80998 182.000
28.82993 179.000
28.84988 182.000
28.86983 166.000
28.88977 203.000
28.90972 177.000
28.92967 171.000
28.94961 164.000
28.96956 171.000
28.98951 191.000
29.00945 172.000
29.02940 147.000
29.04935 172.000
29.06930 176.000
29.08924 165.000
29.10919 176.000
29.12914 174.000
29.14908 178.000
29.16903 174.000
29.18898 143.000
29.20892 186.000
29.22887 175.000
29.24882 171.000
29.26877 188.000
29.28871 214.000
29.30866 193.000
29.32861 189.000
29.34855 177.000
29.36850 177.000
29.38845 192.000
29.40839 191.000
29.42834 184.000
29.44829 189.000
29.46823 178.000
29.48818 177.000
29.50813 167.000
29.52808 201.000
29.54802 188.000
29.56797 174.000
29.58792 198.000
29.60786 184.000
29.62781 168.000
29.64776 186.000
29.66770 173.000
29.68765 179.000
29.70760 204.000
29.72755 180.000
29.74749 187.000
29.76744 183.000
29.78739 165.000
29.80733 187.000
29.82728 175.000
29.84723 186.000
29.86717 187.000
29.88712 190.000
29.90707 181.000
29.92701 207.000
29.94696 182.000
29.96691 200.000
29.98686 189.000
30.00680 199.000
30.02675 197.000
30.04670 201.000
30.06664 209.000
30.08659 218.000
30.10654 198.000
30.12648 219.000
30.14643 240.000
30.16638 231.000
30.18633 278.000
30.20627 346.000
30.22622 351.000
30.24617 358.000
30.26611 409.000
30.28606 386.000
30.30601 373.000
30.32595 334.000
30.34590 342.000
30.36585 294.000
30.38579 264.000
30.40574 261.000
30.42569 255.000
30.44564 213.000
30.46558 193.000
30.48553 183.000
30.50548 203.000
30.52542 205.000
30.54537 212.000
30.56532 176.000
30.58526 194.000
30.60521 191.000
30.62516 178.000
30.64511 201.000
30.66505 184.000
30.68500 191.000
30.70495 181.000
30.72489 204.000
30.74484 208.000
30.76479 181.000
30.78473 194.000
30.80468 196.000
30.82463 181.000
30.84458 182.000
30.86452 194.000
30.88447 178.000
30.90442 203.000
30.92436 185.000
30.94431 192.000
30.96426 207.000
30.98420 175.000
31.00415 182.000
31.02410 176.000
31.04404 194.000
31.06399 177.000
31.08394 185.000
31.10389 189.000
31.12383 189.000
31.14378 198.000
31.16373 176.000
31.18367 189.000
31.20362 173.000
31.22357 192.000
31.24351 165.000
31.26346 183.000
31.28341 200.000
31.30336 177.000
31.32330 192.000
31.34325 206.000
31.36320 182.000
31.38314 211.000
31.40309 179.000
31.42304 207.000
31.44298 196.000
31.46293 208.000
31.48288 178.000
31.50282 200.000
31.52277 219.000
31.54272 192.000
31.56267 184.000
31.58261 218.000
31.60256 210.000
31.62251 214.000
31.64245 213.000
31.66240 219.000
31.68235 228.000
31.70229 220.000
31.72224 205.000
31.74219 231.000
31.76214 232.000
31.78208 248.000
31.80203 248.000
31.82198 278.000
31.84192 286.000
31.86187 279.000
31.88182 303.000
31.90176 401.000
31.92171 458.000
31.94166 665.000
31.96160 887.000
31.98155 1044.000
32.00150 1162.000
32.02145 1207.000
32.04139 1021.000
32.06134 828.000
32.08129 803.000
32.10123 646.000
32.12118 571.000
32.14113 349.000
32.16107 288.000
32.18102 268.000
32.20097 237.000
32.22092 216.000
32.24086 210.000
32.26081 206.000
32.28076 212.000
32.30070 181.000
32.32065 186.000
32.34060 235.000
32.36054 220.000
32.38049 206.000
32.40044 212.000
32.42039 198.000
32.44033 213.000
32.46028 212.000
32.48023 200.000
32.50017 174.000
32.52012 191.000
32.54007 192.000
32.56001 195.000
32.57996 175.000
32.59991 189.000
32.61985 163.000
32.63980 218.000
32.65975 200.000
32.67970 179.000
32.69964 199.000
32.71959 178.000
32.73954 161.000
32.75948 170.000
32.77943 194.000
32.79938 212.000
32.81932 181.000
32.83927 176.000
32.85922 200.000
32.87917 193.000
32.89911 186.000
32.91906 184.000
32.93901 169.000
32.95895 170.000
32.97890 173.000
32.99885 185.000
33.01879 194.000
33.03874 199.000
33.05869 203.000
33.07863 185.000
33.09858 190.000
33.11853 159.000
33.13848 183.000
33.15842 157.000
33.17837 186.000
33.19832 175.000
33.21826 206.000
33.23821 196.000
33.25816 181.000
33.27810 170.000
33.29805 218.000
33.31800 169.000
33.33795 173.000
33.35789 197.000
33.37784 181.000
33.39779 174.000
33.41773 186.000
33.43768 181.000
33.45763 182.000
33.47757 186.000
33.49752 161.000
33.51747 174.000
33.53741 171.000
33.55736 179.000
33.57731 156.000
33.59726 191.000
33.61720 196.000
33.63715 201.000
33.65710 158.000
33.67704 159.000
33.69699 194.000
33.71694 180.000
33.73688 172.000
33.75683 192.000
33.77678 172.000
33.79673 166.000
33.81667 178.000
33.83662 171.000
33.85657 194.000
33.87651 172.000
33.89646 198.000
33.91641 175.000
33.93635 164.000
33.95630 183.000
33.97625 189.000
33.99620 190.000
34.01614 206.000
34.03609 172.000
34.05604 169.000
34.07598 184.000
34.09593 169.000
34.11588 193.000
34.13582 193.000
34.15577 186.000
34.17572 185.000
34.19566 205.000
34.21561 195.000
34.23556 172.000
34.25551 169.000
34.27545 200.000
34.29540 185.000
34.31535 195.000
34.33529 163.000
34.35524 222.000
34.37519 184.000
34.39513 206.000
34.41508 184.000
34.43503 176.000
34.45498 187.000
34.47492 204.000
34.49487 190.000
34.51482 197.000
34.53476 221.000
34.55471 218.000
34.57466 224.000
34.59460 261.000
34.61455 255.000
34.63450 304.000
34.65444 265.000
34.67439 269.000
34.69434 290.000
34.71429 284.000
34.73423 296.000
34.75418 281.000
34.77413 265.000
34.79407 253.000
34.81402 259.000
34.83397 247.000
34.85391 256.000
34.87386 244.000
34.89381 213.000
34.91376 228.000
34.93370 210.000
34.95365 228.000
34.97360 190.000
34.99354 217.000
35.01349 199.000
35.03344 214.000
35.05338 205.000
35.07333 205.000
35.09328 195.000
35.11322 197.000
35.13317 207.000
35.15312 219.000
35.17307 227.000
35.19301 226.000
35.21296 192.000
35.23291 209.000
35.25285 241.000
35.27280 241.000
35.29275 253.000
35.31269 228.000
35.33264 248.000
35.35259 279.000
35.37254 266.000
35.39248 268.000
35.41243 314.000
35.43238 310.000
35.45232 351.000
35.47227 362.000
35.49222 421.000
35.51216 443.000
35.53211 479.000
35.55206 584.000
35.57201 682.000
35.59195 751.000
35.61190 893.000
35.63185 936.000
35.65179 1077.000
35.67174 1118.000
35.69169 1198.000
35.71163 1283.000
35.73158 1314.000
35.75153 1393.000
35.77147 1280.000
35.79142 1220.000
35.81137 1150.000
35.83132 1024.000
35.85126 964.000
35.87121 841.000
35.89116 772.000
35.91110 607.000
35.93105 541.000
35.95100 475.000
35.97094 354.000
35.99089 340.000
36.01084 334.000
36.03079 260.000
36.05073 255.000
36.07068 267.000
36.09063 273.000
36.11057 233.000
36.13052 234.000
36.15047 216.000
36.17041 217.000
36.19036 220.000
36.21031 257.000
36.23025 216.000
36.25020 217.000
36.27015 212.000
36.29010 224.000
36.31004 234.000
36.32999 238.000
36.34994 235.000
36.36988 229.000
36.38983 212.000
36.40978 224.000
36.42972 228.000
36.44967 207.000
36.46962 221.000
36.48957 227.000
36.50951 227.000
36.52946 228.000
36.54941 229.000
36.56935 240.000
36.58930 228.000
36.60925 248.000
36.62919 259.000
36.64914 275.000
36.66909 265.000
36.68903 283.000
36.70898 247.000
36.72893 287.000
36.74888 254.000
36.76882 295.000
36.78877 278.000
36.80872 271.000
36.82866 261.000
36.84861 273.000
36.86856 287.000
36.88850 280.000
36.90845 333.000
36.92840 302.000
36.94835 367.000
36.96829 368.000
36.98824 437.000
37.00819 573.000
37.02813 709.000
37.04808 944.000
37.06803 1127.000
37.08797 1359.000
37.10792 1540.000
37.12787 1404.000
37.14781 1339.000
37.16776 1316.000
37.18771 1173.000
37.20766 1058.000
37.22760 952.000
37.24755 815.000
37.26750 609.000
37.28744 541.000
37.30739 469.000
37.32734 368.000
37.34728 351.000
37.36723 272.000
37.38718 310.000
37.40713 246.000
37.42707 237.000
37.44702 264.000
37.46697 214.000
37.48691 253.000
37.50686 233.000
37.52681 212.000
37.54675 232.000
37.56670 190.000
37.58665 230.000
37.60660 212.000
37.62654 193.000
37.64649 212.000
37.66644 198.000
37.68638 184.000
37.70633 182.000
37.72628 181.000
37.74622 186.000
37.76617 200.000
37.78612 180.000
37.80606 180.000
37.82601 196.000
37.84596 200.000
37.86591 191.000
37.88585 194.000
37.90580 201.000
37.92575 196.000
37.94569 207.000
37.96564 202.000
37.98559 189.000
38.00553 202.000
38.02548 193.000
38.04543 191.000
38.06538 219.000
38.08532 192.000
38.10527 208.000
38.12522 213.000
38.14516 207.000
38.16511 206.000
38.18506 229.000
38.20500 226.000
38.22495 224.000
38.24490 190.000
38.26484 210.000
38.28479 226.000
38.30474 218.000
38.32469 209.000
38.34463 194.000
38.36458 222.000
38.38453 224.000
38.40447 215.000
38.42442 218.000
38.44437 207.000
38.46431 238.000
38.48426 215.000
38.50421 235.000
38.52416 231.000
38.54410 255.000
38.56405 244.000
38.58400 266.000
38.60394 264.000
38.62389 280.000
38.64384 282.000
38.66378 316.000
38.68373 280.000
38.70368 264.000
38.72362 279.000
38.74357 283.000
38.76352 312.000
38.78347 294.000
38.80341 287.000
38.82336 289.000
38.84331 299.000
38.86325 290.000
38.88320 292.000
38.90315 273.000
38.92309 290.000
38.94304 326.000
38.96299 296.000
38.98294 287.000
39.00288 295.000
39.02283 321.000
39.04278 345.000
39.06272 317.000
39.08267 360.000
39.10262 346.000
39.12256 387.000
39.14251 411.000
39.16246 479.000
39.18241 509.000
39.20235 558.000
39.22230 683.000
39.24225 798.000
39.26219 1025.000
39.28214 1157.000
39.30209 1482.000
39.32203 1501.000
39.34198 1628.000
39.36193 1583.000
39.38187 1570.000
39.40182 1456.000
39.42177 1416.000
39.44172 1252.000
39.46166 1163.000
39.48161 924.000
39.50156 803.000
39.52150 666.000
39.54145 587.000
39.56140 499.000
39.58134 419.000
39.60129 381.000
39.62124 366.000
39.64119 322.000
39.66113 294.000
39.68108 301.000
39.70103 248.000
39.72097 258.000
39.74092 273.000
39.76087 256.000
39.78081 238.000
39.80076 271.000
39.82071 219.000
39.84065 218.000
39.86060 227.000
39.88055 243.000
39.90050 206.000
39.92044 221.000
39.94039 224.000
39.96034 203.000
39.98028 205.000
40.00023 205.000
40.02018 232.000
40.04012 211.000
40.06007 189.000
40.08002 220.000
40.09997 209.000
40.11991 208.000
40.13986 195.000
40.15981 196.000
40.17975 196.000
40.19970 196.000
40.21965 204.000
40.23959 197.000
40.25954 190.000
40.27949 196.000
40.29943 197.000
40.31938 164.000
40.33933 174.000
40.35928 181.000
40.37922 183.000
40.39917 200.000
40.41912 172.000
40.43906 199.000
40.45901 212.000
40.47896 190.000
40.49890 195.000
40.51885 212.000
40.53880 191.000
40.55875 203.000
40.57869 181.000
40.59864 178.000
40.61859 162.000
40.63853 192.000
40.65848 173.000
40.67843 198.000
40.69837 178.000
40.71832 189.000
40.73827 186.000
40.75822 184.000
40.77816 206.000
40.79811 197.000
40.81806 187.000
40.83800 181.000
40.85795 185.000
40.87790 182.000
40.89784 208.000
40.91779 191.000
40.93774 177.000
40.95768 182.000
40.97763 190.000
40.99758 186.000
41.01753 178.000
41.03747 171.000
41.05742 180.000
41.07737 163.000
41.09731 186.000
41.11726 171.000
41.13721 199.000
41.15715 177.000
41.17710 190.000
41.19705 191.000
41.21700 184.000
41.23694 179.000
41.25689 183.000
41.27684 172.000
41.29678 191.000
41.31673 187.000
41.33668 201.000
41.35662 188.000
41.37657 188.000
41.39652 213.000
41.41646 174.000
41.43641 195.000
41.45636 168.000
41.47631 177.000
41.49625 191.000
41.51620 190.000
41.53615 164.000
41.55609 186.000
41.57604 198.000
41.59599 187.000
41.61593 194.000
41.63588 182.000
41.65583 173.000
41.67578 189.000
41.69572 175.000
41.71567 221.000
41.73562 170.000
41.75556 211.000
41.77551 178.000
41.79546 166.000
41.81540 201.000
41.83535 185.000
41.85530 175.000
41.87524 198.000
41.89519 189.000
41.91514 194.000
41.93509 199.000
41.95503 184.000
41.97498 163.000
41.99493 170.000
42.01487 183.000
42.03482 192.000
42.05477 188.000
42.07471 211.000
42.09466 189.000
42.11461 193.000
42.13456 205.000
42.15450 194.000
42.17445 197.000
42.19440 184.000
42.21434 210.000
42.23429 176.000
42.25424 186.000
42.27418 187.000
42.29413 222.000
42.31408 182.000
42.33403 202.000
42.35397 233.000
42.37392 222.000
42.39387 219.000
42.41381 224.000
42.43376 186.000
42.45371 199.000
42.47365 202.000
42.49360 201.000
42.51355 201.000
42.53349 223.000
42.55344 213.000
42.57339 206.000
42.59334 237.000
42.61328 198.000
42.63323 226.000
42.65318 224.000
42.67312 214.000
42.69307 218.000
42.71302 277.000
42.73296 263.000
42.75291 243.000
42.77286 277.000
42.79281 271.000
42.81275 300.000
42.83270 321.000
42.85265 358.000
42.87259 401.000
42.89254 401.000
42.91249 443.000
42.93243 535.000
42.95238 589.000
42.97233 620.000
42.99227 716.000
43.01222 845.000
43.03217 966.000
43.05212 1054.000
43.07206 1259.000
43.09201 1428.000
43.11196 1522.000
43.13190 1555.000
43.15185 1579.000
43.17180 1657.000
43.19174 1637.000
43.21169 1526.000
43.23164 1441.000
43.25159 1316.000
43.27153 1248.000
43.29148 1205.000
43.31143 1115.000
43.33137 928.000
43.35132 912.000
43.37127 927.000
43.39121 882.000
43.41116 891.000
43.43111 1012.000
43.45105 955.000
43.47100 924.000
43.49095 880.000
43.51090 817.000
43.53084 771.000
43.55079 687.000
43.57074 601.000
43.59068 572.000
43.61063 527.000
43.63058 468.000
43.65052 461.000
43.67047 383.000
43.69042 337.000
43.71037 300.000
43.73031 291.000
43.75026 280.000
43.77021 284.000
43.79015 267.000
43.81010 228.000
43.83005 227.000
43.84999 227.000
43.86994 219.000
43.88989 194.000
43.90984 242.000
43.92978 204.000
43.94973 201.000
43.96968 194.000
43.98962 213.000
44.00957 210.000
44.02952 234.000
44.04946 197.000
44.06941 194.000
44.08936 218.000
44.10930 198.000
44.12925 209.000
44.14920 203.000
44.16915 198.000
44.18909 200.000
44.20904 172.000
44.22899 200.000
44.24893 192.000
44.26888 206.000
44.28883 187.000
44.30877 197.000
44.32872 209.000
44.34867 189.000
44.36862 182.000
44.38856 211.000
44.40851 192.000
44.42846 199.000
44.44840 200.000
44.46835 209.000
44.48830 195.000
44.50824 174.000
44.52819 169.000
44.54814 208.000
44.56808 161.000
44.58803 166.000
44.60798 193.000
44.62793 169.000
44.64787 200.000
44.66782 181.000
44.68777 172.000
44.70771 187.000
44.72766 169.000
44.74761 186.000
44.76755 177.000
44.78750 194.000
44.80745 172.000
44.82740 202.000
44.84734 170.000
44.86729 183.000
44.88724 185.000
44.90718 163.000
44.92713 168.000
44.94708 183.000
44.96702 208.000
44.98697 164.000
45.00692 199.000
45.02686 187.000
45.04681 179.000
45.06676 177.000
45.08671 189.000
45.10665 200.000
45.12660 182.000
45.14655 186.000
45.16649 183.000
45.18644 192.000
45.20639 186.000
45.22633 189.000
45.24628 205.000
45.26623 192.000
45.28618 185.000
45.30612 212.000
45.32607 160.000
45.34602 174.000
45.36596 175.000
45.38591 180.000
45.40586 173.000
45.42580 168.000
45.44575 189.000
45.46570 170.000
45.48565 194.000
45.50559 159.000
45.52554 177.000
45.54549 166.000
45.56543 177.000
45.58538 196.000
45.60533 193.000
45.62527 170.000
45.64522 170.000
45.66517 159.000
45.68511 169.000
45.70506 165.000
45.72501 194.000
45.74496 178.000
45.76490 186.000
45.78485 172.000
45.80480 174.000
45.82474 176.000
45.84469 182.000
45.86464 178.000
45.88458 173.000
45.90453 175.000
45.92448 166.000
45.94443 179.000
45.96437 162.000
45.98432 168.000
46.00427 170.000
46.02421 172.000
46.04416 178.000
46.06411 160.000
46.08405 184.000
46.10400 179.000
46.12395 172.000
46.14389 177.000
46.16384 168.000
46.18379 150.000
46.20374 175.000
46.22368 185.000
46.24363 169.000
46.26358 186.000
46.28352 170.000
46.30347 171.000
46.32342 201.000
46.34336 170.000
46.36331 171.000
46.38326 185.000
46.40321 169.000
46.42315 163.000
46.44310 176.000
46.46305 158.000
46.48299 182.000
46.50294 187.000
46.52289 176.000
46.54283 180.000
46.56278 184.000
46.58273 165.000
46.60267 171.000
46.62262 169.000
46.64257 170.000
46.66252 181.000
46.68246 172.000
46.70241 150.000
46.72236 201.000
46.74230 186.000
46.76225 169.000
46.78220 179.000
46.80214 198.000
46.82209 190.000
46.84204 169.000
46.86199 193.000
46.88193 175.000
46.90188 200.000
46.92183 177.000
46.94177 187.000
46.96172 181.000
46.98167 165.000
47.00161 179.000
47.02156 178.000
47.04151 199.000
47.06146 181.000
47.08140 156.000
47.10135 196.000
47.12130 203.000
47.14124 180.000
47.16119 187.000
47.18114 167.000
47.20108 175.000
47.22103 165.000
47.24098 193.000
47.26092 178.000
47.28087 181.000
47.30082 177.000
47.32077 186.000
47.34071 172.000
47.36066 176.000
47.38061 191.000
47.40055 176.000
47.42050 170.000
47.44045 194.000
47.46039 194.000
47.48034 178.000
47.50029 156.000
47.52024 177.000
47.54018 164.000
47.56013 197.000
47.58008 165.000
47.60002 192.000
47.61997 185.000
47.63992 207.000
47.65986 175.000
47.67981 174.000
47.69976 190.000
47.71970 203.000
47.73965 172.000
47.75960 183.000
47.77955 195.000
47.79949 162.000
47.81944 188.000
47.83939 219.000
47.85933 170.000
47.87928 175.000
47.89923 186.000
47.91917 197.000
47.93912 188.000
47.95907 169.000
47.97902 202.000
47.99896 183.000
48.01891 217.000
48.03886 198.000
48.05880 171.000
48.07875 196.000
48.09870 203.000
48.11864 207.000
48.13859 200.000
48.15854 200.000
48.17848 231.000
48.19843 244.000
48.21838 249.000
48.23833 227.000
48.25827 213.000
48.27822 239.000
48.29817 251.000
48.31811 231.000
48.33806 252.000
48.35801 242.000
48.37795 272.000
48.39790 255.000
48.41785 282.000
48.43780 317.000
48.45774 307.000
48.47769 305.000
48.49764 346.000
48.51758 324.000
48.53753 395.000
48.55748 414.000
48.57742 466.000
48.59737 510.000
48.61732 601.000
48.63726 686.000
48.65721 786.000
48.67716 962.000
48.69711 1164.000
48.71705 1383.000
48.73700 1409.000
48.75695 1486.000
48.77689 1454.000
48.79684 1326.000
48.81679 1281.000
48.83673 1248.000
48.85668 1177.000
48.87663 1165.000
48.89658 996.000
48.91652 872.000
48.93647 810.000
48.95642 645.000
48.97636 613.000
48.99631 492.000
49.01626 455.000
49.03620 385.000
49.05615 364.000
49.07610 339.000
49.09605 324.000
49.11599 284.000
49.13594 295.000
49.15589 272.000
49.17583 249.000
49.19578 250.000
49.21573 236.000
49.23567 231.000
49.25562 230.000
49.27557 217.000
49.29551 216.000
49.31546 249.000
49.33541 238.000
49.35536 203.000
49.37530 214.000
49.39525 192.000
49.41520 228.000
49.43514 197.000
49.45509 211.000
49.47504 211.000
49.49498 184.000
49.51493 185.000
49.53488 188.000
49.55483 182.000
49.57477 193.000
49.59472 203.000
49.61467 203.000
49.63461 174.000
49.65456 178.000
49.67451 189.000
49.69445 178.000
49.71440 213.000
49.73435 187.000
49.75429 180.000
49.77424 213.000
49.79419 190.000
49.81414 206.000
49.83408 197.000
49.85403 190.000
49.87398 174.000
49.89392 189.000
49.91387 189.000
49.93382 202.000
49.95376 202.000
49.97371 190.000
49.99366 195.000
50.01361 199.000
50.03355 179.000
50.05350 184.000
50.07345 171.000
50.09339 212.000
50.11334 181.000
50.13329 179.000
50.15323 195.000
50.17318 190.000
50.19313 175.000
50.21307 183.000
50.23302 197.000
50.25297 190.000
50.27292 165.000
50.29286 177.000
50.31281 155.000
50.33276 160.000
50.35270 187.000
50.37265 185.000
50.39260 179.000
50.41254 165.000
50.43249 176.000
50.45244 171.000
50.47239 175.000
50.49233 149.000
50.51228 176.000
50.53223 175.000
50.55217 185.000
50.57212 182.000
50.59207 175.000
50.61201 192.000
50.63196 163.000
50.65191 161.000
50.67186 168.000
50.69180 188.000
50.71175 168.000
50.73170 168.000
50.75164 182.000
50.77159 193.000
50.79154 179.000
50.81148 168.000
50.83143 179.000
50.85138 181.000
50.87132 174.000
50.89127 156.000
50.91122 152.000
50.93117 176.000
50.95111 153.000
50.97106 177.000
50.99101 182.000
51.01095 162.000
51.03090 149.000
51.05085 152.000
51.07079 167.000
51.09074 187.000
51.11069 163.000
51.13064 166.000
51.15058 181.000
51.17053 141.000
51.19048 209.000
51.21042 183.000
51.23037 164.000
51.25032 152.000
51.27026 180.000
51.29021 177.000
51.31016 157.000
51.33010 173.000
51.35005 171.000
51.37000 162.000
51.38995 179.000
51.40989 172.000
51.42984 183.000
51.44979 166.000
51.46973 196.000
51.48968 166.000
51.50963 168.000
51.52957 173.000
51.54952 152.000
51.56947 166.000
51.58942 168.000
51.60936 167.000
51.62931 159.000
51.64926 165.000
51.66920 149.000
51.68915 181.000
51.70910 172.000
51.72904 170.000
51.74899 166.000
51.76894 158.000
51.78888 171.000
51.80883 184.000
51.82878 165.000
51.84873 185.000
51.86867 164.000
51.88862 174.000
51.90857 160.000
51.92851 158.000
51.94846 184.000
51.96841 183.000
51.98835 168.000
52.00830 183.000
52.02825 168.000
52.04820 164.000
52.06814 152.000
52.08809 153.000
52.10804 164.000
52.12798 178.000
52.14793 159.000
52.16788 158.000
52.18782 187.000
52.20777 167.000
52.22772 153.000
52.24767 154.000
52.26761 149.000
52.28756 169.000
52.30751 184.000
52.32745 165.000
52.34740 185.000
52.36735 174.000
52.38729 164.000
52.40724 173.000
52.42719 178.000
52.44713 196.000
52.46708 193.000
52.48703 146.000
52.50698 168.000
52.52692 181.000
52.54687 144.000
52.56682 153.000
52.58676 148.000
52.60671 165.000
52.62666 158.000
52.64660 155.000
52.66655 178.000
52.68650 176.000
52.70645 160.000
52.72639 156.000
52.74634 151.000
52.76629 170.000
52.78623 162.000
52.80618 181.000
52.82613 156.000
52.84607 171.000
52.86602 188.000
52.88597 130.000
52.90591 174.000
52.92586 150.000
52.94581 159.000
52.96576 182.000
52.98570 176.000
53.00565 179.000
53.02560 179.000
53.04554 181.000
53.06549 168.000
53.08544 158.000
53.10538 177.000
53.12533 186.000
53.14528 167.000
53.16523 166.000
53.18517 181.000
53.20512 158.000
53.22507 176.000
53.24501 160.000
53.26496 154.000
53.28491 183.000
53.30485 165.000
53.32480 208.000
53.34475 185.000
53.36469 176.000
53.38464 164.000
53.40459 162.000
53.42454 168.000
53.44448 199.000
53.46443 183.000
53.48438 153.000
53.50432 175.000
53.52427 183.000
53.54422 165.000
53.56416 182.000
53.58411 171.000
53.60406 162.000
53.62401 188.000
53.64395 159.000
53.66390 217.000
53.68385 199.000
53.70379 200.000
53.72374 206.000
53.74369 217.000
53.76363 203.000
53.78358 241.000
53.80353 214.000
53.82348 217.000
53.84342 190.000
53.86337 201.000
53.88332 201.000
53.90326 193.000
53.92321 210.000
53.94316 194.000
53.96310 191.000
53.98305 176.000
54.00300 186.000
54.02294 175.000
54.04289 194.000
54.06284 183.000
54.08279 174.000
54.10273 150.000
54.12268 141.000
54.14263 171.000
54.16257 182.000
54.18252 186.000
54.20247 161.000
54.22241 162.000
54.24236 176.000
54.26231 178.000
54.28226 171.000
54.30220 160.000
54.32215 183.000
54.34210 177.000
54.36204 151.000
54.38199 168.000
54.40194 168.000
54.42188 140.000
54.44183 170.000
54.46178 169.000
54.48172 186.000
54.50167 162.000
54.52162 181.000
54.54157 171.000
54.56151 159.000
54.58146 178.000
54.60141 165.000
54.62135 187.000
54.64130 177.000
54.66125 204.000
54.68119 149.000
54.70114 177.000
54.72109 177.000
54.74104 153.000
54.76098 180.000
54.78093 186.000
54.80088 170.000
54.82082 187.000
54.84077 173.000
54.86072 185.000
54.88066 186.000
54.90061 197.000
54.92056 175.000
54.94050 172.000
54.96045 202.000
54.98040 175.000
55.00035 165.000
55.02029 174.000
55.04024 161.000
55.06019 162.000
55.08013 188.000
55.10008 144.000
55.12003 187.000
55.13997 173.000
55.15992 174.000
55.17987 177.000
55.19982 164.000
55.21976 175.000
55.23971 152.000
55.25966 153.000
55.27960 156.000
55.29955 182.000
55.31950 167.000
55.33944 174.000
55.35939 177.000
55.37934 164.000
55.39929 142.000
55.41923 173.000
55.43918 198.000
55.45913 175.000
55.47907 159.000
55.49902 187.000
55.51897 159.000
55.53891 145.000
55.55886 169.000
55.57881 171.000
55.59875 166.000
55.61870 149.000
55.63865 165.000
55.65860 171.000
55.67854 156.000
55.69849 145.000
55.71844 175.000
55.73838 167.000
55.75833 171.000
55.77828 181.000
55.79822 172.000
55.81817 161.000
55.83812 164.000
55.85807 150.000
55.87801 175.000
55.89796 160.000
55.91791 175.000
55.93785 161.000
55.95780 167.000
55.97775 163.000
55.99769 154.000
56.01764 156.000
56.03759 193.000
56.05753 166.000
56.07748 156.000
56.09743 173.000
56.11738 169.000
56.13732 154.000
56.15727 152.000
56.17722 170.000
56.19716 179.000
56.21711 170.000
56.23706 183.000
56.25700 147.000
56.27695 165.000
56.29690 175.000
56.31685 180.000
56.33679 196.000
56.35674 213.000
56.37669 169.000
56.39663 168.000
56.41658 159.000
56.43653 145.000
56.45647 153.000
56.47642 162.000
56.49637 162.000
56.51631 162.000
56.53626 173.000
56.55621 172.000
56.57616 171.000
56.59610 165.000
56.61605 184.000
56.63600 187.000
56.65594 193.000
56.67589 204.000
56.69584 174.000
56.71578 196.000
56.73573 187.000
56.75568 177.000
56.77563 170.000
56.79557 176.000
56.81552 195.000
56.83547 176.000
56.85541 177.000
56.87536 174.000
56.89531 177.000
56.91525 154.000
56.93520 182.000
56.95515 173.000
56.97510 150.000
56.99504 176.000
57.01499 200.000
57.03494 187.000
57.05488 200.000
57.07483 220.000
57.09478 188.000
57.11472 215.000
57.13467 208.000
57.15462 205.000
57.17456 242.000
57.19451 249.000
57.21446 198.000
57.23441 245.000
57.25435 266.000
57.27430 239.000
57.29425 270.000
57.31419 291.000
57.33414 291.000
57.35409 273.000
57.37403 260.000
57.39398 283.000
57.41393 257.000
57.43388 268.000
57.45382 262.000
57.47377 281.000
57.49372 267.000
57.51366 244.000
57.53361 272.000
57.55356 217.000
57.57350 209.000
57.59345 234.000
57.61340 229.000
57.63334 168.000
57.65329 184.000
57.67324 197.000
57.69319 195.000
57.71313 189.000
57.73308 190.000
57.75303 180.000
57.77297 201.000
57.79292 189.000
57.81287 192.000
57.83281 174.000
57.85276 194.000
57.87271 182.000
57.89266 156.000
57.91260 177.000
57.93255 184.000
57.95250 190.000
57.97244 190.000
57.99239 216.000
58.01234 179.000
58.03228 147.000
58.05223 174.000
58.07218 170.000
58.09212 168.000
58.11207 183.000
58.13202 177.000
58.15197 174.000
58.17191 187.000
58.19186 201.000
58.21181 186.000
58.23175 172.000
58.25170 170.000
58.27165 161.000
58.29159 171.000
58.31154 174.000
58.33149 168.000
58.35144 186.000
58.37138 180.000
58.39133 213.000
58.41128 165.000
58.43122 186.000
58.45117 159.000
58.47112 174.000
58.49106 170.000
58.51101 185.000
58.53096 189.000
58.55090 171.000
58.57085 169.000
58.59080 173.000
58.61075 166.000
58.63069 177.000
58.65064 166.000
58.67059 198.000
58.69053 184.000
58.71048 143.000
58.73043 162.000
58.75037 180.000
58.77032 168.000
58.79027 188.000
58.81022 185.000
58.83016 179.000
58.85011 175.000
58.87006 171.000
58.89000 172.000
58.90995 189.000
58.92990 156.000
58.94984 157.000
58.96979 165.000
58.98974 151.000
59.00969 174.000
59.02963 175.000
59.04958 183.000
59.06953 178.000
59.08947 205.000
59.10942 195.000
59.12937 173.000
59.14931 155.000
59.16926 184.000
59.18921 158.000
59.20915 184.000
59.22910 172.000
59.24905 204.000
59.26900 183.000
59.28894 187.000
59.30889 151.000
59.32884 193.000
59.34878 174.000
59.36873 159.000
59.38868 186.000
59.40862 184.000
59.42857 157.000
59.44852 175.000
59.46847 179.000
59.48841 174.000
59.50836 167.000
59.52831 171.000
59.54825 189.000
59.56820 167.000
59.58815 168.000
59.60809 188.000
59.62804 178.000
59.64799 167.000
59.66793 175.000
59.68788 172.000
59.70783 186.000
59.72778 161.000
59.74772 180.000
59.76767 162.000
59.78762 166.000
59.80756 186.000
59.82751 160.000
59.84746 159.000
59.86740 156.000
59.88735 170.000
59.90730 165.000
59.92725 173.000
59.94719 174.000
59.96714 177.000
59.98709 173.000
60.00703 164.000
60.02698 183.000
60.04693 193.000
60.06687 165.000
60.08682 182.000
60.10677 156.000
60.12671 191.000
60.14666 171.000
60.16661 145.000
60.18656 175.000
60.20650 165.000
60.22645 161.000
60.24640 162.000
60.26634 165.000
60.28629 186.000
60.30624 202.000
60.32618 167.000
60.34613 164.000
60.36608 178.000
60.38603 158.000
60.40597 178.000
60.42592 162.000
60.44587 196.000
60.46581 202.000
60.48576 171.000
60.50571 168.000
60.52565 168.000
60.54560 181.000
60.56555 163.000
60.58550 167.000
60.60544 166.000
60.62539 201.000
60.64534 163.000
60.66528 173.000
60.68523 174.000
60.70518 168.000
60.72512 180.000
60.74507 180.000
60.76502 135.000
60.78496 170.000
60.80491 196.000
60.82486 178.000
60.84481 168.000
60.86475 189.000
60.88470 174.000
60.90465 194.000
60.92459 173.000
60.94454 156.000
60.96449 182.000
60.98443 174.000
61.00438 188.000
61.02433 170.000
61.04428 172.000
61.06422 195.000
61.08417 199.000
61.10412 181.000
61.12406 176.000
61.14401 222.000
61.16396 191.000
61.18390 171.000
61.20385 181.000
61.22380 196.000
61.24374 179.000
61.26369 217.000
61.28364 196.000
61.30359 194.000
61.32353 195.000
61.34348 170.000
61.36343 204.000
61.38337 211.000
61.40332 250.000
61.42327 200.000
61.44321 225.000
61.46316 219.000
61.48311 227.000
61.50306 208.000
61.52300 232.000
61.54295 195.000
61.56290 252.000
61.58284 233.000
61.60279 234.000
61.62274 237.000
61.64268 232.000
61.66263 246.000
61.68258 249.000
61.70252 233.000
61.72247 262.000
61.74242 264.000
61.76237 288.000
61.78231 302.000
61.80226 322.000
61.82221 323.000
61.84215 320.000
61.86210 376.000
61.88205 377.000
61.90199 425.000
61.92194 459.000
61.94189 563.000
61.96184 568.000
61.98178 661.000
62.00173 735.000
62.02168 727.000
62.04162 733.000
62.06157 664.000
62.08152 659.000
62.10146 631.000
62.12141 616.000
62.14136 573.000
62.16131 559.000
62.18125 568.000
62.20120 547.000
62.22115 516.000
62.24109 479.000
62.26104 412.000
62.28099 410.000
62.30093 416.000
62.32088 347.000
62.34083 376.000
62.36077 355.000
62.38072 385.000
62.40067 403.000
62.42062 371.000
62.44056 402.000
62.46051 450.000
62.48046 442.000
62.50040 530.000
62.52035 558.000
62.54030 567.000
62.56024 626.000
62.58019 645.000
62.60014 712.000
62.62009 773.000
62.64003 789.000
62.65998 767.000
62.67993 832.000
62.69987 826.000
62.71982 711.000
62.73977 737.000
62.75971 691.000
62.77966 709.000
62.79961 695.000
62.81955 680.000
62.83950 648.000
62.85945 606.000
62.87940 624.000
62.89934 537.000
62.91929 569.000
62.93924 553.000
62.95918 477.000
62.97913 482.000
62.99908 414.000
63.01902 422.000
63.03897 414.000
63.05892 408.000
63.07887 363.000
63.09881 397.000
63.11876 373.000
63.13871 372.000
63.15865 309.000
63.17860 324.000
63.19855 284.000
63.21849 301.000
63.23844 305.000
63.25839 247.000
63.27833 272.000
63.29828 254.000
63.31823 239.000
63.33818 230.000
63.35812 224.000
63.37807 197.000
63.39802 192.000
63.41796 217.000
63.43791 208.000
63.45786 185.000
63.47780 192.000
63.49775 193.000
63.51770 205.000
63.53765 172.000
63.55759 223.000
63.57754 174.000
63.59749 212.000
63.61743 201.000
63.63738 184.000
63.65733 189.000
63.67727 196.000
63.69722 214.000
63.71717 165.000
63.73712 190.000
63.75706 184.000
63.77701 193.000
63.79696 209.000
63.81690 195.000
63.83685 198.000
63.85680 206.000
63.87674 201.000
63.89669 196.000
63.91664 221.000
63.93658 219.000
63.95653 215.000
63.97648 236.000
63.99643 235.000
64.01637 226.000
64.03632 257.000
64.05627 269.000
64.07621 274.000
64.09616 266.000
64.11611 276.000
64.13605 373.000
64.15600 348.000
64.17595 417.000
64.19590 402.000
64.21584 420.000
64.23579 394.000
64.25574 445.000
64.27568 463.000
64.29563 450.000
64.31558 514.000
64.33552 473.000
64.35547 514.000
64.37542 429.000
64.39536 439.000
64.41531 440.000
64.43526 454.000
64.45521 422.000
64.47515 420.000
64.49510 404.000
64.51505 359.000
64.53499 337.000
64.55494 339.000
64.57489 330.000
64.59483 294.000
64.61478 312.000
64.63473 274.000
64.65468 252.000
64.67462 274.000
64.69457 262.000
64.71452 228.000
64.73446 209.000
64.75441 213.000
64.77436 193.000
64.79430 191.000
64.81425 227.000
64.83420 210.000
64.85414 181.000
64.87409 198.000
64.89404 177.000
64.91399 207.000
64.93393 177.000
64.95388 166.000
64.97383 189.000
64.99377 175.000
65.01372 190.000
65.03367 194.000
65.05361 190.000
65.07356 174.000
65.09351 194.000
65.11346 180.000
65.13340 197.000
65.15335 190.000
65.17330 197.000
65.19324 178.000
65.21319 167.000
65.23314 187.000
65.25308 171.000
65.27303 196.000
65.29298 193.000
65.31293 180.000
65.33287 181.000
65.35282 173.000
65.37277 197.000
65.39271 169.000
65.41266 196.000
65.43261 187.000
65.45255 188.000
65.47250 165.000
65.49245 192.000
65.51239 198.000
65.53234 165.000
65.55229 183.000
65.57224 181.000
65.59218 184.000
65.61213 194.000
65.63208 201.000
65.65202 189.000
65.67197 175.000
65.69192 194.000
65.71186 197.000
65.73181 238.000
65.75176 207.000
65.77171 180.000
65.79165 201.000
65.81160 188.000
65.83155 179.000
65.85149 194.000
65.87144 168.000
65.89139 203.000
65.91133 178.000
65.93128 188.000
65.95123 167.000
65.97117 204.000
65.99112 190.000
66.01107 202.000
66.03102 214.000
66.05096 202.000
66.07091 192.000
66.09086 188.000
66.11080 197.000
66.13075 192.000
66.15070 225.000
66.17064 207.000
66.19059 209.000
66.21054 197.000
66.23049 193.000
66.25043 203.000
66.27038 201.000
66.29033 250.000
66.31027 208.000
66.33022 218.000
66.35017 197.000
66.37011 232.000
66.39006 229.000
66.41001 219.000
66.42995 244.000
66.44990 228.000
66.46985 248.000
66.48980 259.000
66.50974 277.000
66.52969 277.000
66.54964 282.000
66.56958 352.000
66.58953 329.000
66.60948 385.000
66.62942 334.000
66.64937 361.000
66.66932 364.000
66.68927 373.000
66.70921 427.000
66.72916 402.000
66.74911 428.000
66.76905 377.000
66.78900 386.000
66.80895 420.000
66.82889 391.000
66.84884 359.000
66.86879 380.000
66.88874 423.000
66.90868 376.000
66.92863 385.000
66.94858 308.000
66.96852 359.000
66.98847 330.000
67.00842 347.000
67.02836 279.000
67.04831 311.000
67.06826 271.000
67.08820 256.000
67.10815 265.000
67.12810 262.000
67.14805 241.000
67.16799 252.000
67.18794 247.000
67.20789 214.000
67.22783 227.000
67.24778 195.000
67.26773 204.000
67.28767 169.000
67.30762 181.000
67.32757 201.000
67.34752 188.000
67.36746 218.000
67.38741 193.000
67.40736 174.000
67.42730 185.000
67.44725 201.000
67.46720 167.000
67.48714 188.000
67.50709 173.000
67.52704 158.000
67.54698 181.000
67.56693 185.000
67.58688 203.000
67.60683 186.000
67.62677 185.000
67.64672 185.000
67.66667 188.000
67.68661 166.000
67.70656 159.000
67.72651 204.000
67.74645 167.000
67.76640 152.000
67.78635 188.000
67.80630 169.000
67.82624 159.000
67.84619 200.000
67.86614 148.000
67.88608 163.000
67.90603 172.000
67.92598 166.000
67.94592 169.000
67.96587 159.000
67.98582 181.000
68.00576 187.000
68.02571 190.000
68.04566 176.000
68.06561 187.000
68.08555 181.000
68.10550 176.000
68.12545 187.000
68.14539 176.000
68.16534 163.000
68.18529 180.000
68.20523 179.000
68.22518 172.000
68.24513 156.000
68.26508 179.000
68.28502 185.000
68.30497 161.000
68.32492 173.000
68.34486 174.000
68.36481 197.000
68.38476 183.000
68.40470 166.000
68.42465 173.000
68.44460 180.000
68.46455 173.000
68.48449 183.000
68.50444 147.000
68.52439 179.000
68.54433 155.000
68.56428 174.000
68.58423 195.000
68.60417 172.000
68.62412 181.000
68.64407 171.000
68.66401 163.000
68.68396 166.000
68.70391 178.000
68.72386 167.000
68.74380 155.000
68.76375 149.000
68.78370 170.000
68.80364 178.000
68.82359 162.000
68.84354 160.000
68.86348 177.000
68.88343 161.000
68.90338 159.000
68.92333 190.000
68.94327 160.000
68.96322 169.000
68.98317 168.000
69.00311 174.000
69.02306 169.000
69.04301 169.000
69.06295 163.000
69.08290 169.000
69.10285 169.000
69.12279 151.000
69.14274 174.000
69.16269 170.000
69.18264 143.000
69.20258 181.000
69.22253 162.000
69.24248 160.000
69.26242 161.000
69.28237 153.000
69.30232 162.000
69.32226 148.000
69.34221 198.000
69.36216 165.000
69.38211 172.000
69.40205 155.000
69.42200 177.000
69.44195 158.000
69.46189 156.000
69.48184 176.000
69.50179 169.000
69.52173 175.000
69.54168 161.000
69.56163 162.000
69.58157 159.000
69.60152 159.000
69.62147 193.000
69.64142 163.000
69.66136 168.000
69.68131 169.000
69.70126 174.000
69.72120 187.000
69.74115 186.000
69.76110 187.000
69.78104 162.000
69.80099 164.000
69.82094 182.000
69.84089 190.000
69.86083 177.000
69.88078 177.000
69.90073 182.000
69.92067 161.000
69.94062 189.000
69.96057 165.000
69.98051 199.000
70.00046 161.000
70.02041 152.000
70.04035 188.000
70.06030 188.000
70.08025 157.000
70.10020 178.000
70.12014 153.000
70.14009 154.000
70.16004 150.000
70.17998 168.000
70.19993 139.000
70.21988 170.000
70.23982 183.000
70.25977 169.000
70.27972 184.000
70.29967 153.000
70.31961 162.000
70.33956 157.000
70.35951 176.000
70.37945 203.000
70.39940 167.000
70.41935 182.000
70.43929 160.000
70.45924 155.000
70.47919 168.000
70.49914 181.000
70.51908 173.000
70.53903 166.000
70.55898 164.000
70.57892 174.000
70.59887 163.000
70.61882 157.000
70.63876 172.000
70.65871 149.000
70.67866 175.000
70.69860 150.000
70.71855 193.000
70.73850 170.000
70.75845 144.000
70.77839 192.000
70.79834 179.000
70.81829 164.000
70.83823 166.000
70.85818 160.000
70.87813 174.000
70.89807 162.000
70.91802 170.000
70.93797 154.000
70.95792 173.000
70.97786 174.000
70.99781 146.000
71.01776 177.000
71.03770 171.000
71.05765 163.000
71.07760 179.000
71.09754 174.000
71.11749 160.000
71.13744 175.000
71.15738 174.000
71.17733 195.000
71.19728 183.000
71.21723 197.000
71.23717 206.000
71.25712 173.000
71.27707 174.000
71.29701 194.000
71.31696 164.000
71.33691 150.000
71.35685 170.000
71.37680 185.000
71.39675 161.000
71.41670 162.000
71.43664 207.000
71.45659 155.000
71.47654 173.000
71.49648 182.000
71.51643 162.000
71.53638 167.000
71.55632 170.000
71.57627 177.000
71.59622 200.000
71.61616 169.000
71.63611 202.000
71.65606 193.000
71.67601 154.000
71.69595 161.000
71.71590 157.000
71.73585 180.000
71.75579 175.000
71.77574 177.000
71.79569 177.000
71.81563 189.000
71.83558 183.000
71.85553 166.000
71.87548 198.000
71.89542 157.000
71.91537 186.000
71.93532 194.000
71.95526 153.000
71.97521 180.000
71.99516 169.000
72.01510 155.000
72.03505 190.000
72.05500 177.000
72.07495 164.000
72.09489 161.000
72.11484 156.000
72.13479 188.000
72.15473 153.000
72.17468 156.000
72.19463 166.000
72.21457 149.000
72.23452 160.000
72.25447 161.000
72.27441 156.000
72.29436 176.000
72.31431 170.000
72.33426 173.000
72.35420 159.000
72.37415 178.000
72.39410 178.000
72.41404 198.000
72.43399 169.000
72.45394 166.000
72.47388 178.000
72.49383 183.000
72.51378 176.000
72.53373 162.000
72.55367 173.000
72.57362 173.000
72.59357 152.000
72.61351 196.000
72.63346 177.000
72.65341 166.000
72.67335 184.000
72.69330 164.000
72.71325 167.000
72.73319 164.000
72.75314 164.000
72.77309 173.000
72.79304 163.000
72.81298 188.000
72.83293 171.000
72.85288 164.000
72.87282 193.000
72.89277 167.000
72.91272 168.000
72.93266 165.000
72.95261 148.000
72.97256 190.000
72.99251 174.000
73.01245 175.000
73.03240 143.000
73.05235 165.000
73.07229 180.000
73.09224 149.000
73.11219 175.000
73.13213 213.000
73.15208 158.000
73.17203 176.000
73.19197 165.000
73.21192 204.000
73.23187 178.000
73.25182 180.000
73.27176 172.000
73.29171 228.000
73.31166 153.000
73.33160 166.000
73.35155 178.000
73.37150 185.000
73.39144 201.000
73.41139 173.000
73.43134 195.000
73.45129 164.000
73.47123 202.000
73.49118 198.000
73.51113 228.000
73.53107 241.000
73.55102 254.000
73.57097 210.000
73.59091 253.000
73.61086 242.000
73.63081 248.000
73.65076 251.000
73.67070 245.000
73.69065 242.000
73.71060 243.000
73.73054 241.000
73.75049 274.000
73.77044 256.000
73.79038 256.000
73.81033 249.000
73.83028 246.000
73.85022 241.000
73.87017 226.000
73.89012 226.000
73.91007 214.000
73.93001 225.000
73.94996 229.000
73.96991 205.000
73.98985 180.000
74.00980 212.000
74.02975 229.000
74.04969 181.000
74.06964 183.000
74.08959 187.000
74.10954 193.000
74.12948 191.000
74.14943 166.000
74.16938 185.000
74.18932 174.000
74.20927 173.000
74.22922 208.000
74.24916 178.000
74.26911 184.000
74.28906 178.000
74.30900 203.000
74.32895 165.000
74.34890 210.000
74.36885 194.000
74.38879 173.000
74.40874 192.000
74.42869 233.000
74.44863 215.000
74.46858 191.000
74.48853 206.000
74.50847 195.000
74.52842 204.000
74.54837 203.000
74.56832 204.000
74.58826 223.000
74.60821 223.000
74.62816 214.000
74.64810 194.000
74.66805 188.000
74.68800 221.000
74.70794 211.000
74.72789 228.000
74.74784 220.000
74.76778 205.000
74.78773 215.000
74.80768 204.000
74.82763 225.000
74.84757 231.000
74.86752 240.000
74.88747 226.000
74.90741 262.000
74.92736 246.000
74.94731 296.000
74.96725 281.000
74.98720 277.000
75.00715 293.000
75.02710 299.000
75.04704 295.000
75.06699 312.000
75.08694 334.000
75.10688 283.000
75.12683 367.000
75.14678 358.000
75.16672 337.000
75.18667 321.000
75.20662 346.000
75.22657 310.000
75.24651 351.000
75.26646 332.000
75.28641 321.000
75.30635 322.000
75.32630 304.000
75.34625 316.000
75.36619 300.000
75.38614 281.000
75.40609 277.000
75.42603 268.000
75.44598 269.000
75.46593 237.000
75.48588 265.000
75.50582 238.000
75.52577 233.000
75.54572 227.000
75.56566 255.000
75.58561 210.000
75.60556 225.000
75.62550 226.000
75.64545 214.000
75.66540 223.000
75.68535 231.000
75.70529 206.000
75.72524 213.000
75.74519 220.000
75.76513 210.000
75.78508 226.000
75.80503 220.000
75.82497 197.000
75.84492 215.000
75.86487 221.000
75.88481 222.000
75.90476 206.000
75.92471 209.000
75.94466 211.000
75.96460 177.000
75.98455 210.000
76.00450 191.000
76.02444 221.000
76.04439 195.000
76.06434 209.000
76.08428 214.000
76.10423 195.000
76.12418 195.000
76.14413 186.000
76.16407 193.000
76.18402 180.000
76.20397 178.000
76.22391 188.000
76.24386 188.000
76.26381 179.000
76.28375 175.000
76.30370 159.000
76.32365 197.000
76.34359 161.000
76.36354 169.000
76.38349 180.000
76.40344 171.000
76.42338 176.000
76.44333 159.000
76.46328 159.000
76.48322 157.000
76.50317 184.000
76.52312 182.000
76.54306 179.000
76.56301 149.000
76.58296 177.000
76.60291 156.000
76.62285 154.000
76.64280 182.000
76.66275 193.000
76.68269 171.000
76.70264 167.000
76.72259 173.000
76.74253 163.000
76.76248 205.000
76.78243 158.000
76.80238 165.000
76.82232 151.000
76.84227 159.000
76.86222 173.000
76.88216 142.000
76.90211 151.000
76.92206 163.000
76.94200 193.000
76.96195 181.000
76.98190 162.000
77.00184 193.000
77.02179 168.000
77.04174 170.000
77.06169 191.000
77.08163 179.000
77.10158 182.000
77.12153 170.000
77.14147 147.000
77.16142 172.000
77.18137 173.000
77.20131 189.000
77.22126 189.000
77.24121 185.000
77.26116 158.000
77.28110 196.000
77.30105 186.000
77.32100 155.000
77.34094 170.000
77.36089 180.000
77.38084 160.000
77.40078 153.000
77.42073 131.000
77.44068 145.000
77.46062 187.000
77.48057 178.000
77.50052 185.000
77.52047 207.000
77.54041 184.000
77.56036 182.000
77.58031 181.000
77.60025 190.000
77.62020 190.000
77.64015 183.000
77.66009 190.000
77.68004 175.000
77.69999 187.000
77.71994 191.000
77.73988 194.000
77.75983 182.000
77.77978 211.000
77.79972 196.000
77.81967 201.000
77.83962 206.000
77.85956 226.000
77.87951 205.000
77.89946 234.000
77.91940 237.000
77.93935 226.000
77.95930 233.000
77.97925 230.000
77.99919 236.000
78.01914 276.000
78.03909 288.000
78.05903 296.000
78.07898 329.000
78.09893 272.000
78.11887 290.000
78.13882 310.000
78.15877 292.000
78.17872 306.000
78.19866 339.000
78.21861 326.000
78.23856 347.000
78.25850 362.000
78.27845 366.000
78.29840 349.000
78.31834 359.000
78.33829 385.000
78.35824 344.000
78.37819 349.000
78.39813 286.000
78.41808 301.000
78.43803 270.000
78.45797 298.000
78.47792 243.000
78.49787 264.000
78.51781 273.000
78.53776 280.000
78.55771 251.000
78.57765 237.000
78.59760 252.000
78.61755 204.000
78.63750 236.000
78.65744 222.000
78.67739 205.000
78.69734 189.000
78.71728 196.000
78.73723 215.000
78.75718 227.000
78.77712 218.000
78.79707 207.000
78.81702 200.000
78.83697 220.000
78.85691 242.000
78.87686 214.000
78.89681 229.000
78.91675 200.000
78.93670 245.000
78.95665 246.000
78.97659 267.000
78.99654 266.000
79.01649 269.000
79.03643 305.000
79.05638 298.000
79.07633 323.000
79.09628 263.000
79.11622 290.000
79.13617 309.000
79.15612 281.000
79.17606 300.000
79.19601 301.000
79.21596 305.000
79.23590 282.000
79.25585 240.000
79.27580 240.000
79.29575 253.000
79.31569 250.000
79.33564 259.000
79.35559 264.000
79.37553 231.000
79.39548 225.000
79.41543 233.000
79.43537 235.000
79.45532 230.000
79.47527 201.000
79.49521 197.000
79.51516 191.000
79.53511 197.000
79.55506 205.000
79.57500 178.000
79.59495 195.000
79.61490 219.000
79.63484 163.000
79.65479 166.000
79.67474 158.000
79.69468 189.000
79.71463 181.000
79.73458 198.000
79.75453 183.000
79.77447 190.000
79.79442 187.000
79.81437 134.000
79.83431 195.000
79.85426 193.000
79.87421 151.000
79.89415 180.000
79.91410 175.000
79.93405 162.000
79.95399 145.000
79.97394 182.000
79.99389 158.000
80.01384 171.000
80.03378 166.000
80.05373 187.000
80.07368 156.000
80.09362 145.000
80.11357 196.000
80.13352 166.000
80.15346 169.000
80.17341 192.000
80.19336 176.000
80.21331 161.000
80.23325 160.000
80.25320 162.000
80.27315 185.000
80.29309 162.000
80.31304 165.000
80.33299 163.000
80.35293 177.000
80.37288 184.000
80.39283 177.000
80.41278 181.000
80.43272 188.000
80.45267 150.000
80.47262 168.000
80.49256 172.000
80.51251 187.000
80.53246 179.000
80.55240 176.000
80.57235 163.000
80.59230 162.000
80.61224 208.000
80.63219 170.000
80.65214 182.000
80.67209 179.000
80.69203 165.000
80.71198 190.000
80.73193 169.000
80.75187 152.000
80.77182 185.000
80.79177 199.000
80.81171 169.000
80.83166 178.000
80.85161 178.000
80.87156 183.000
80.89150 162.000
80.91145 190.000
80.93140 168.000
80.95134 155.000
80.97129 191.000
80.99124 173.000
81.01118 162.000
81.03113 210.000
81.05108 172.000
81.07102 173.000
81.09097 188.000
81.11092 169.000
81.13087 165.000
81.15081 191.000
81.17076 167.000
81.19071 186.000
81.21065 171.000
81.23060 170.000
81.25055 146.000
81.27049 159.000
81.29044 161.000
81.31039 165.000
81.33034 176.000
81.35028 142.000
81.37023 169.000
81.39018 161.000
81.41012 166.000
81.43007 193.000
81.45002 170.000
81.46996 152.000
81.48991 180.000
81.50986 138.000
81.52980 146.000
81.54975 172.000
81.56970 141.000
81.58965 160.000
81.60959 175.000
81.62954 160.000
81.64949 150.000
81.66943 160.000
81.68938 173.000
81.70933 151.000
81.72927 171.000
81.74922 179.000
81.76917 180.000
81.78912 164.000
81.80906 165.000
81.82901 151.000
81.84896 157.000
81.86890 145.000
81.88885 161.000
81.90880 135.000
81.92874 146.000
81.94869 156.000
81.96864 131.000
81.98859 146.000
82.00853 172.000
82.02848 160.000
82.04843 174.000
82.06837 163.000
82.08832 170.000
82.10827 155.000
82.12821 174.000
82.14816 144.000
82.16811 173.000
82.18805 161.000
82.20800 155.000
82.22795 163.000
82.24790 147.000
82.26784 158.000
82.28779 166.000
82.30774 160.000
82.32768 149.000
82.34763 172.000
82.36758 156.000
82.38752 155.000
82.40747 167.000
82.42742 144.000
82.44737 158.000
82.46731 148.000
82.48726 163.000
82.50721 185.000
82.52715 155.000
82.54710 165.000
82.56705 164.000
82.58699 163.000
82.60694 174.000
82.62689 153.000
82.64683 166.000
82.66678 159.000
82.68673 170.000
82.70668 180.000
82.72662 153.000
82.74657 169.000
82.76652 154.000
82.78646 171.000
82.80641 179.000
82.82636 157.000
82.84630 151.000
82.86625 163.000
82.88620 150.000
82.90615 183.000
82.92609 176.000
82.94604 151.000
82.96599 179.000
82.98593 174.000
83.00588 171.000
83.02583 175.000
83.04577 141.000
83.06572 163.000
83.08567 184.000
83.10561 162.000
83.12556 147.000
83.14551 175.000
83.16546 186.000
83.18540 154.000
83.20535 155.000
83.22530 171.000
83.24524 171.000
83.26519 165.000
83.28514 160.000
83.30508 174.000
83.32503 154.000
83.34498 146.000
83.36493 159.000
83.38487 160.000
83.40482 173.000
83.42477 161.000
83.44471 151.000
83.46466 167.000
83.48461 171.000
83.50455 169.000
83.52450 167.000
83.54445 147.000
83.56440 153.000
83.58434 182.000
83.60429 181.000
83.62424 189.000
83.64418 174.000
83.66413 174.000
83.68408 163.000
83.70402 163.000
83.72397 169.000
83.74392 165.000
83.76386 188.000
83.78381 157.000
83.80376 161.000
83.82371 171.000
83.84365 181.000
83.86360 177.000
83.88355 186.000
83.90349 183.000
83.92344 161.000
83.94339 154.000
83.96333 175.000
83.98328 158.000
84.00323 158.000
84.02318 181.000
84.04312 182.000
84.06307 173.000
84.08302 193.000
84.10296 166.000
84.12291 180.000
84.14286 186.000
84.16280 167.000
84.18275 163.000
84.20270 165.000
84.22264 184.000
84.24259 188.000
84.26254 172.000
84.28249 189.000
84.30243 143.000
84.32238 165.000
84.34233 193.000
84.36227 203.000
84.38222 185.000
84.40217 168.000
84.42211 161.000
84.44206 211.000
84.46201 203.000
84.48196 228.000
84.50190 222.000
84.52185 193.000
84.54180 217.000
84.56174 235.000
84.58169 244.000
84.60164 243.000
84.62158 274.000
84.64153 229.000
84.66148 283.000
84.68142 270.000
84.70137 275.000
84.72132 227.000
84.74127 268.000
84.76121 258.000
84.78116 277.000
84.80111 220.000
84.82105 257.000
84.84100 262.000
84.86095 241.000
84.88089 221.000
84.90084 271.000
84.92079 268.000
84.94074 217.000
84.96068 214.000
84.98063 232.000
85.00058 225.000
85.02052 205.000
85.04047 195.000
85.06042 221.000
85.08036 229.000
85.10031 196.000
85.12026 199.000
85.14021 208.000
85.16015 170.000
85.18010 164.000
85.20005 165.000
85.21999 184.000
85.23994 230.000
85.25989 177.000
85.27983 203.000
85.29978 183.000
85.31973 201.000
85.33967 174.000
85.35962 171.000
85.37957 177.000
85.39952 162.000
85.41946 175.000
85.43941 169.000
85.45936 159.000
85.47930 176.000
85.49925 166.000
85.51920 148.000
85.53914 170.000
85.55909 181.000
85.57904 166.000
85.59899 155.000
85.61893 182.000
85.63888 171.000
85.65883 174.000
85.67877 172.000
85.69872 164.000
85.71867 157.000
85.73861 159.000
85.75856 160.000
85.77851 164.000
85.79845 182.000
85.81840 134.000
85.83835 158.000
85.85830 159.000
85.87824 170.000
85.89819 145.000
85.91814 161.000
85.93808 143.000
85.95803 159.000
85.97798 165.000
85.99792 162.000
86.01787 148.000
86.03782 137.000
86.05777 156.000
86.07771 187.000
86.09766 167.000
86.11761 156.000
86.13755 167.000
86.15750 153.000
86.17745 168.000
86.19739 153.000
86.21734 168.000
86.23729 182.000
86.25723 171.000
86.27718 162.000
86.29713 150.000
86.31708 157.000
86.33702 142.000
86.35697 148.000
86.37692 166.000
86.39686 177.000
86.41681 139.000
86.43676 186.000
86.45670 158.000
86.47665 140.000
86.49660 160.000
86.51655 161.000
86.53649 161.000
86.55644 182.000
86.57639 143.000
86.59633 162.000
86.61628 161.000
86.63623 177.000
86.65617 186.000
86.67612 150.000
86.69607 170.000
86.71602 194.000
86.73596 146.000
86.75591 182.000
86.77586 150.000
86.79580 163.000
86.81575 149.000
86.83570 158.000
86.85564 182.000
86.87559 170.000
86.89554 194.000
86.91548 151.000
86.93543 163.000
86.95538 166.000
86.97533 158.000
86.99527 155.000
87.01522 178.000
87.03517 152.000
87.05511 155.000
87.07506 172.000
87.09501 163.000
87.11495 179.000
87.13490 171.000
87.15485 170.000
87.17480 175.000
87.19474 176.000
87.21469 175.000
87.23464 167.000
87.25458 194.000
87.27453 192.000
87.29448 205.000
87.31442 223.000
87.33437 188.000
87.35432 179.000
87.37426 162.000
87.39421 187.000
87.41416 176.000
87.43411 189.000
87.45405 177.000
87.47400 172.000
87.49395 182.000
87.51389 180.000
87.53384 201.000
87.55379 194.000
87.57373 183.000
87.59368 181.000
87.61363 197.000
87.63358 195.000
87.65352 164.000
87.67347 190.000
87.69342 178.000
87.71336 181.000
87.73331 156.000
87.75326 191.000
87.77320 178.000
87.79315 197.000
87.81310 158.000
87.83304 169.000
87.85299 187.000
87.87294 198.000
87.89289 182.000
87.91283 165.000
87.93278 187.000
87.95273 200.000
87.97267 176.000
87.99262 185.000
88.01257 169.000
88.03251 177.000
88.05246 169.000
88.07241 160.000
88.09236 166.000
88.11230 171.000
88.13225 169.000
88.15220 163.000
88.17214 165.000
88.19209 153.000
88.21204 142.000
88.23198 151.000
88.25193 165.000
88.27188 148.000
88.29183 174.000
88.31177 158.000
88.33172 157.000
88.35167 166.000
88.37161 162.000
88.39156 201.000
88.41151 163.000
88.43145 165.000
88.45140 149.000
88.47135 159.000
88.49129 167.000
88.51124 164.000
88.53119 150.000
88.55114 153.000
88.57108 162.000
88.59103 174.000
88.61098 161.000
88.63092 175.000
88.65087 155.000
88.67082 160.000
88.69076 185.000
88.71071 163.000
88.73066 154.000
88.75061 177.000
88.77055 158.000
88.79050 169.000
88.81045 155.000
88.83039 157.000
88.85034 166.000
88.87029 150.000
88.89023 162.000
88.91018 175.000
88.93013 157.000
88.95007 165.000
88.97002 163.000
88.98997 148.000
89.00992 171.000
89.02986 179.000
89.04981 182.000
89.06976 176.000
89.08970 152.000
89.10965 158.000
89.12960 148.000
89.14954 167.000
89.16949 193.000
89.18944 183.000
89.20939 163.000
89.22933 162.000
89.24928 186.000
89.26923 182.000
89.28917 176.000
89.30912 154.000
89.32907 163.000
89.34901 135.000
89.36896 168.000
89.38891 155.000
89.40885 162.000
89.42880 153.000
89.44875 155.000
89.46870 164.000
89.48864 145.000
89.50859 167.000
89.52854 158.000
89.54848 136.000
89.56843 171.000
89.58838 166.000
89.60832 159.000
89.62827 170.000
89.64822 193.000
89.66817 162.000
89.68811 154.000
89.70806 154.000
89.72801 154.000
89.74795 160.000
89.76790 169.000
89.78785 134.000
89.80779 160.000
89.82774 153.000
89.84769 167.000
89.86764 186.000
89.88758 160.000
89.90753 168.000
89.92748 172.000
89.94742 156.000
89.96737 165.000
89.98732 174.000
90.00726 158.000
