10.00000 184.000
10.01995 205.000
10.03989 178.000
10.05984 183.000
10.07979 170.000
10.09973 145.000
10.11968 139.000
10.13963 154.000
10.15958 186.000
10.17952 162.000
10.19947 165.000
10.21942 173.000
10.23936 185.000
10.25931 180.000
10.27926 157.000
10.29920 158.000
10.31915 181.000
10.33910 188.000
10.35905 189.000
10.37899 179.000
10.39894 171.000
10.41889 174.000
10.43883 163.000
10.45878 180.000
10.47873 157.000
10.49867 193.000
10.51862 171.000
10.53857 158.000
10.55851 167.000
10.57846 180.000
10.59841 180.000
10.61836 169.000
10.63830 160.000
10.65825 210.000
10.67820 170.000
10.69814 179.000
10.71809 170.000
10.73804 159.000
10.75798 188.000
10.77793 156.000
10.79788 172.000
10.81783 169.000
10.83777 195.000
10.85772 159.000
10.87767 168.000
10.89761 174.000
10.91756 162.000
10.93751 170.000
10.95745 196.000
10.97740 158.000
10.99735 168.000
11.01730 184.000
11.03724 189.000
11.05719 157.000
11.07714 197.000
11.09708 133.000
11.11703 161.000
11.13698 178.000
11.15692 162.000
11.17687 187.000
11.19682 194.000
11.21676 173.000
11.23671 154.000
11.25666 165.000
11.27661 150.000
11.29655 171.000
11.31650 199.000
11.33645 170.000
11.35639 186.000
11.37634 170.000
11.39629 181.000
11.41623 185.000
11.43618 191.000
11.45613 165.000
11.47608 161.000
11.49602 175.000
11.51597 185.000
11.53592 165.000
11.55586 174.000
11.57581 203.000
11.59576 183.000
11.61570 158.000
11.63565 186.000
11.65560 186.000
11.67554 172.000
11.69549 181.000
11.71544 191.000
11.73539 173.000
11.75533 196.000
11.77528 181.000
11.79523 177.000
11.81517 165.000
11.83512 175.000
11.85507 166.000
11.87501 174.000
11.89496 177.000
11.91491 184.000
11.93486 183.000
11.95480 171.000
11.97475 163.000
11.99470 184.000
12.01464 179.000
12.03459 145.000
12.05454 184.000
12.07448 167.000
12.09443 163.000
12.11438 178.000
12.13432 161.000
12.15427 167.000
12.17422 163.000
12.19417 193.000
12.21411 173.000
12.23406 181.000
12.25401 177.000
12.27395 186.000
12.29390 176.000
12.31385 198.000
12.33379 194.000
12.35374 181.000
12.37369 166.000
12.39364 144.000
12.41358 166.000
12.43353 178.000
12.45348 177.000
12.47342 178.000
12.49337 172.000
12.51332 170.000
12.53326 168.000
12.55321 179.000
12.57316 167.000
12.59311 154.000
12.61305 170.000
12.63300 197.000
12.65295 175.000
12.67289 195.000
12.69284 176.000
12.71279 162.000
12.73273 180.000
12.75268 179.000
12.77263 166.000
12.79257 187.000
12.81252 192.000
12.83247 167.000
12.85242 169.000
12.87236 178.000
12.89231 180.000
12.91226 176.000
12.93220 161.000
12.95215 191.000
12.97210 174.000
12.99204 161.000
13.01199 187.000
13.03194 189.000
13.05189 179.000
13.07183 163.000
13.09178 156.000
13.11173 200.000
13.13167 162.000
13.15162 160.000
13.17157 180.000
13.19151 157.000
13.21146 187.000
13.23141 173.000
13.25135 201.000
13.27130 191.000
13.29125 184.000
13.31120 157.000
13.33114 191.000
13.35109 201.000
13.37104 194.000
13.39098 144.000
13.41093 185.000
13.43088 180.000
13.45082 164.000
13.47077 191.000
13.49072 179.000
13.51067 163.000
13.53061 163.000
13.55056 190.000
13.57051 183.000
13.59045 183.000
13.61040 179.000
13.63035 155.000
13.65029 149.000
13.67024 173.000
13.69019 162.000
13.71013 161.000
13.73008 176.000
13.75003 171.000
13.76998 173.000
13.78992 178.000
13.80987 185.000
13.82982 171.000
13.84976 183.000
13.86971 168.000
13.88966 168.000
13.90960 147.000
13.92955 183.000
13.94950 202.000
13.96945 167.000
13.98939 173.000
14.00934 178.000
14.02929 188.000
14.04923 171.000
14.06918 147.000
14.08913 182.000
14.10907 170.000
14.12902 164.000
14.14897 165.000
14.16892 195.000
14.18886 186.000
14.20881 182.000
14.22876 201.000
14.24870 221.000
14.26865 165.000
14.28860 164.000
14.30854 154.000
14.32849 149.000
14.34844 176.000
14.36838 204.000
14.38833 191.000
14.40828 175.000
14.42823 180.000
14.44817 178.000
14.46812 181.000
14.48807 164.000
14.50801 175.000
14.52796 170.000
14.54791 162.000
14.56785 167.000
14.58780 174.000
14.60775 221.000
14.62770 167.000
14.64764 185.000
14.66759 162.000
14.68754 174.000
14.70748 202.000
14.72743 212.000
14.74738 183.000
14.76732 203.000
14.78727 196.000
14.80722 176.000
14.82716 188.000
14.84711 190.000
14.86706 169.000
14.88701 188.000
14.90695 178.000
14.92690 174.000
14.94685 190.000
14.96679 188.000
14.98674 193.000
15.00669 208.000
15.02663 197.000
15.04658 199.000
15.06653 184.000
15.08648 205.000
15.10642 230.000
15.12637 211.000
15.14632 212.000
15.16626 196.000
15.18621 204.000
15.20616 208.000
15.22610 205.000
15.24605 194.000
15.26600 234.000
15.28594 195.000
15.30589 220.000
15.32584 216.000
15.34579 200.000
15.36573 205.000
15.38568 202.000
15.40563 235.000
15.42557 223.000
15.44552 248.000
15.46547 254.000
15.48541 253.000
15.50536 237.000
15.52531 226.000
15.54526 266.000
15.56520 273.000
15.58515 263.000
15.60510 277.000
15.62504 293.000
15.64499 322.000
15.66494 371.000
15.68488 383.000
15.70483 486.000
15.72478 558.000
15.74472 683.000
15.76467 910.000
15.78462 1257.000
15.80457 1903.000
15.82451 2602.000
15.84446 3514.000
15.86441 4354.000
15.88435 4876.000
15.90430 4772.000
15.92425 3778.000
15.94419 2721.000
15.96414 1679.000
15.98409 1039.000
16.00404 669.000
16.02398 521.000
16.04393 396.000
16.06388 401.000
16.08382 362.000
16.10377 314.000
16.12372 360.000
16.14366 387.000
16.16361 373.000
16.18356 365.000
16.20351 400.000
16.22345 421.000
16.24340 440.000
16.26335 459.000
16.28329 482.000
16.30324 469.000
16.32319 402.000
16.34313 374.000
16.36308 334.000
16.38303 331.000
16.40297 329.000
16.42292 281.000
16.44287 274.000
16.46282 269.000
16.48276 234.000
16.50271 258.000
16.52266 239.000
16.54260 236.000
16.56255 201.000
16.58250 227.000
16.60244 203.000
16.62239 204.000
16.64234 209.000
16.66229 211.000
16.68223 192.000
16.70218 206.000
16.72213 195.000
16.74207 190.000
16.76202 190.000
16.78197 213.000
16.80191 175.000
16.82186 198.000
16.84181 211.000
16.86175 184.000
16.88170 174.000
16.90165 191.000
16.92160 182.000
16.94154 200.000
16.96149 168.000
16.98144 206.000
17.00138 200.000
17.02133 211.000
17.04128 203.000
17.06122 172.000
17.08117 170.000
17.10112 226.000
17.12107 207.000
17.14101 193.000
17.16096 147.000
17.18091 170.000
17.20085 205.000
17.22080 169.000
17.24075 207.000
17.26069 181.000
17.28064 187.000
17.30059 176.000
17.32053 183.000
17.34048 178.000
17.36043 175.000
17.38038 168.000
17.40032 173.000
17.42027 166.000
17.44022 170.000
17.46016 194.000
17.48011 189.000
17.50006 167.000
17.52000 166.000
17.53995 193.000
17.55990 166.000
17.57985 192.000
17.59979 194.000
17.61974 171.000
17.63969 183.000
17.65963 158.000
17.67958 176.000
17.69953 195.000
17.71947 171.000
17.73942 155.000
17.75937 176.000
17.77932 164.000
17.79926 181.000
17.81921 177.000
17.83916 166.000
17.85910 167.000
17.87905 181.000
17.89900 161.000
17.91894 185.000
17.93889 193.000
17.95884 187.000
17.97878 182.000
17.99873 165.000
18.01868 170.000
18.03863 168.000
18.05857 180.000
18.07852 187.000
18.09847 183.000
18.11841 185.000
18.13836 180.000
18.15831 161.000
18.17825 172.000
18.19820 204.000
18.21815 196.000
18.23810 182.000
18.25804 191.000
18.27799 231.000
18.29794 206.000
18.31788 196.000
18.33783 256.000
18.35778 320.000
18.37772 304.000
18.39767 331.000
18.41762 298.000
18.43756 272.000
18.45751 250.000
18.47746 213.000
18.49741 167.000
18.51735 181.000
18.53730 222.000
18.55725 162.000
18.57719 173.000
18.59714 192.000
18.61709 183.000
18.63703 205.000
18.65698 186.000
18.67693 188.000
18.69688 202.000
18.71682 200.000
18.73677 172.000
18.75672 166.000
18.77666 171.000
18.79661 179.000
18.81656 198.000
18.83650 164.000
18.85645 176.000
18.87640 172.000
18.89634 174.000
18.91629 170.000
18.93624 186.000
18.95619 194.000
18.97613 174.000
18.99608 175.000
19.01603 166.000
19.03597 169.000
19.05592 167.000
19.07587 164.000
19.09581 170.000
19.11576 198.000
19.13571 163.000
19.15566 161.000
19.17560 164.000
19.19555 189.000
19.21550 178.000
19.23544 199.000
19.25539 196.000
19.27534 178.000
19.29528 163.000
19.31523 168.000
19.33518 192.000
19.35513 196.000
19.37507 186.000
19.39502 163.000
19.41497 194.000
19.43491 184.000
19.45486 156.000
19.47481 181.000
19.49475 189.000
19.51470 175.000
19.53465 168.000
19.55459 176.000
19.57454 177.000
19.59449 178.000
19.61444 194.000
19.63438 172.000
19.65433 174.000
19.67428 196.000
19.69422 154.000
19.71417 175.000
19.73412 193.000
19.75406 171.000
19.77401 179.000
19.79396 160.000
19.81391 183.000
19.83385 193.000
19.85380 160.000
19.87375 176.000
19.89369 161.000
19.91364 170.000
19.93359 159.000
19.95353 149.000
19.97348 176.000
19.99343 190.000
20.01337 181.000
20.03332 161.000
20.05327 181.000
20.07322 181.000
20.09316 173.000
20.11311 175.000
20.13306 184.000
20.15300 154.000
20.17295 186.000
20.19290 184.000
20.21284 162.000
20.23279 187.000
20.25274 176.000
20.27269 189.000
20.29263 179.000
20.31258 176.000
20.33253 180.000
20.35247 166.000
20.37242 166.000
20.39237 175.000
20.41231 168.000
20.43226 194.000
20.45221 184.000
20.47215 168.000
20.49210 171.000
20.51205 155.000
20.53200 166.000
20.55194 181.000
20.57189 173.000
20.59184 158.000
20.61178 182.000
20.63173 165.000
20.65168 191.000
20.67162 158.000
20.69157 181.000
20.71152 153.000
20.73147 201.000
20.75141 215.000
20.77136 201.000
20.79131 193.000
20.81125 180.000
20.83120 206.000
20.85115 218.000
20.87109 221.000
20.89104 247.000
20.91099 245.000
20.93094 235.000
20.95088 228.000
20.97083 241.000
20.99078 227.000
21.01072 236.000
21.03067 228.000
21.05062 232.000
21.07056 217.000
21.09051 246.000
21.11046 231.000
21.13040 206.000
21.15035 195.000
21.17030 202.000
21.19025 204.000
21.21019 177.000
21.23014 174.000
21.25009 173.000
21.27003 185.000
21.28998 171.000
21.30993 175.000
21.32987 181.000
21.34982 174.000
21.36977 181.000
21.38972 169.000
21.40966 195.000
21.42961 184.000
21.44956 187.000
21.46950 197.000
21.48945 180.000
21.50940 174.000
21.52934 162.000
21.54929 155.000
21.56924 174.000
21.58918 171.000
21.60913 181.000
21.62908 153.000
21.64903 180.000
21.66897 172.000
21.68892 177.000
21.70887 168.000
21.72881 178.000
21.74876 180.000
21.76871 188.000
21.78865 206.000
21.80860 171.000
21.82855 178.000
21.84850 159.000
21.86844 168.000
21.88839 197.000
21.90834 167.000
21.92828 171.000
21.94823 180.000
21.96818 169.000
21.98812 177.000
22.00807 179.000
22.02802 171.000
22.04796 193.000
22.06791 175.000
22.08786 178.000
22.10781 169.000
22.12775 183.000
22.14770 199.000
22.16765 158.000
22.18759 180.000
22.20754 168.000
22.22749 180.000
22.24743 160.000
22.26738 175.000
22.28733 168.000
22.30728 189.000
22.32722 200.000
22.34717 167.000
22.36712 179.000
22.38706 154.000
22.40701 197.000
22.42696 186.000
22.44690 169.000
22.46685 167.000
22.48680 184.000
22.50675 175.000
22.52669 210.000
22.54664 194.000
22.56659 163.000
22.58653 199.000
22.60648 193.000
22.62643 170.000
22.64637 190.000
22.66632 171.000
22.68627 158.000
22.70621 192.000
22.72616 193.000
22.74611 180.000
22.76606 178.000
22.78600 154.000
22.80595 171.000
22.82590 164.000
22.84584 199.000
22.86579 179.000
22.88574 173.000
22.90568 186.000
22.92563 189.000
22.94558 185.000
22.96553 187.000
22.98547 197.000
23.00542 179.000
23.02537 181.000
23.04531 164.000
23.06526 191.000
23.08521 181.000
23.10515 189.000
23.12510 157.000
23.14505 193.000
23.16499 185.000
23.18494 164.000
23.20489 168.000
23.22484 147.000
23.24478 213.000
23.26473 154.000
23.28468 194.000
23.30462 179.000
23.32457 178.000
23.34452 171.000
23.36446 173.000
23.38441 185.000
23.40436 173.000
23.42431 205.000
23.44425 155.000
23.46420 187.000
23.48415 176.000
23.50409 181.000
23.52404 156.000
23.54399 169.000
23.56393 195.000
23.58388 169.000
23.60383 181.000
23.62377 171.000
23.64372 182.000
23.66367 186.000
23.68362 201.000
23.70356 185.000
23.72351 155.000
23.74346 185.000
23.76340 189.000
23.78335 186.000
23.80330 168.000
23.82324 172.000
23.84319 168.000
23.86314 186.000
23.88309 209.000
23.90303 147.000
23.92298 191.000
23.94293 176.000
23.96287 188.000
23.98282 176.000
24.00277 209.000
24.02271 189.000
24.04266 172.000
24.06261 169.000
24.08256 166.000
24.10250 161.000
24.12245 187.000
24.14240 179.000
24.16234 182.000
24.18229 182.000
24.20224 160.000
24.22218 176.000
24.24213 178.000
24.26208 167.000
24.28202 173.000
24.30197 183.000
24.32192 191.000
24.34187 165.000
24.36181 179.000
24.38176 175.000
24.40171 162.000
24.42165 184.000
24.44160 185.000
24.46155 176.000
24.48149 181.000
24.50144 191.000
24.52139 177.000
24.54134 186.000
24.56128 208.000
24.58123 161.000
24.60118 190.000
24.62112 173.000
24.64107 174.000
24.66102 193.000
24.68096 206.000
24.70091 163.000
24.72086 199.000
24.74080 191.000
24.76075 172.000
24.78070 202.000
24.80065 181.000
24.82059 158.000
24.84054 181.000
24.86049 184.000
24.88043 174.000
24.90038 192.000
24.92033 184.000
24.94027 183.000
24.96022 198.000
24.98017 207.000
25.00012 202.000
25.02006 171.000
25.04001 173.000
25.05996 183.000
25.07990 154.000
25.09985 178.000
25.11980 192.000
25.13974 172.000
25.15969 184.000
25.17964 182.000
25.19958 213.000
25.21953 189.000
25.23948 180.000
25.25943 186.000
25.27937 211.000
25.29932 188.000
25.31927 178.000
25.33921 183.000
25.35916 162.000
25.37911 184.000
25.39905 199.000
25.41900 203.000
25.43895 202.000
25.45890 179.000
25.47884 205.000
25.49879 180.000
25.51874 197.000
25.53868 190.000
25.55863 177.000
25.57858 190.000
25.59852 172.000
25.61847 184.000
25.63842 157.000
25.65837 189.000
25.67831 180.000
25.69826 191.000
25.71821 186.000
25.73815 166.000
25.75810 188.000
25.77805 210.000
25.79799 191.000
25.81794 219.000
25.83789 194.000
25.85783 175.000
25.87778 183.000
25.89773 198.000
25.91768 179.000
25.93762 185.000
25.95757 182.000
25.97752 191.000
25.99746 205.000
26.01741 201.000
26.03736 193.000
26.05730 197.000
26.07725 191.000
26.09720 188.000
26.11715 194.000
26.13709 195.000
26.15704 188.000
26.17699 202.000
26.19693 199.000
26.21688 196.000
26.23683 204.000
26.25677 176.000
26.27672 189.000
26.29667 187.000
26.31661 195.000
26.33656 188.000
26.35651 184.000
26.37646 189.000
26.39640 189.000
26.41635 191.000
26.43630 191.000
26.45624 185.000
26.47619 160.000
26.49614 193.000
26.51608 196.000
26.53603 194.000
26.55598 179.000
26.57593 203.000
26.59587 185.000
26.61582 193.000
26.63577 219.000
26.65571 194.000
26.67566 187.000
26.69561 205.000
26.71555 226.000
26.73550 217.000
26.75545 200.000
26.77539 158.000
26.79534 174.000
26.81529 189.000
26.83524 201.000
26.85518 192.000
26.87513 179.000
26.89508 193.000
26.91502 214.000
26.93497 191.000
26.95492 184.000
26.97486 203.000
26.99481 210.000
27.01476 175.000
27.03471 178.000
27.05465 203.000
27.07460 182.000
27.09455 225.000
27.11449 209.000
27.13444 171.000
27.15439 201.000
27.17433 219.000
27.19428 188.000
27.21423 206.000
27.23417 166.000
27.25412 222.000
27.27407 206.000
27.29402 206.000
27.31396 196.000
27.33391 204.000
27.35386 224.000
27.37380 184.000
27.39375 198.000
27.41370 187.000
27.43364 203.000
27.45359 199.000
27.47354 199.000
27.49349 187.000
27.51343 208.000
27.53338 172.000
27.55333 222.000
27.57327 179.000
27.59322 201.000
27.61317 183.000
27.63311 180.000
27.65306 197.000
27.67301 198.000
27.69296 208.000
27.71290 197.000
27.73285 192.000
27.75280 193.000
27.77274 209.000
27.79269 177.000
27.81264 195.000
27.83258 195.000
27.85253 186.000
27.87248 215.000
27.89242 195.000
27.91237 187.000
27.93232 196.000
27.95227 211.000
27.97221 200.000
27.99216 177.000
28.01211 195.000
28.03205 184.000
28.05200 193.000
28.07195 199.000
28.09189 183.000
28.11184 176.000
28.13179 191.000
28.15174 186.000
28.17168 187.000
28.19163 180.000
28.21158 197.000
28.23152 206.000
28.25147 196.000
28.27142 191.000
28.29136 206.000
28.31131 197.000
28.33126 202.000
28.35120 209.000
28.37115 216.000
28.39110 210.000
28.41105 221.000
28.43099 203.000
28.45094 198.000
28.47089 221.000
28.49083 181.000
28.51078 197.000
28.53073 177.000
28.55067 204.000
28.57062 201.000
28.59057 217.000
28.61052 212.000
28.63046 198.000
28.65041 209.000
28.67036 207.000
28.69030 179.000
28.71025 208.000
28.73020 176.000
28.75014 195.000
28.77009 199.000
28.79004 193.000
28.80998 219.000
28.82993 204.000
28.84988 178.000
28.86983 183.000
28.88977 192.000
28.90972 184.000
28.92967 206.000
28.94961 209.000
28.96956 182.000
28.98951 215.000
29.00945 205.000
29.02940 202.000
29.04935 190.000
29.06930 188.000
29.08924 209.000
29.10919 203.000
29.12914 172.000
29.14908 211.000
29.16903 229.000
29.18898 192.000
29.20892 199.000
29.22887 196.000
29.24882 208.000
29.26877 196.000
29.28871 214.000
29.30866 238.000
29.32861 208.000
29.34855 219.000
29.36850 202.000
29.38845 216.000
29.40839 196.000
29.42834 221.000
29.44829 213.000
29.46823 217.000
29.48818 197.000
29.50813 228.000
29.52808 206.000
29.54802 220.000
29.56797 187.000
29.58792 197.000
29.60786 199.000
29.62781 198.000
29.64776 210.000
29.66770 213.000
29.68765 211.000
29.70760 198.000
29.72755 194.000
29.74749 210.000
29.76744 199.000
29.78739 204.000
29.80733 220.000
29.82728 220.000
29.84723 194.000
29.86717 219.000
29.88712 215.000
29.90707 226.000
29.92701 238.000
29.94696 204.000
29.96691 244.000
29.98686 220.000
30.00680 230.000
30.02675 215.000
30.04670 241.000
30.06664 223.000
30.08659 246.000
30.10654 257.000
30.12648 231.000
30.14643 275.000
30.16638 303.000
30.18633 347.000
30.20627 403.000
30.22622 546.000
30.24617 605.000
30.26611 553.000
30.28606 540.000
30.30601 550.000
30.32595 462.000
30.34590 392.000
30.36585 363.000
30.38579 319.000
30.40574 291.000
30.42569 280.000
30.44564 219.000
30.46558 247.000
30.48553 258.000
30.50548 233.000
30.52542 221.000
30.54537 230.000
30.56532 222.000
30.58526 232.000
30.60521 194.000
30.62516 189.000
30.64511 226.000
30.66505 207.000
30.68500 204.000
30.70495 251.000
30.72489 222.000
30.74484 221.000
30.76479 219.000
30.78473 204.000
30.80468 207.000
30.82463 200.000
30.84458 211.000
30.86452 220.000
30.88447 208.000
30.90442 229.000
30.92436 201.000
30.94431 169.000
30.96426 234.000
30.98420 203.000
31.00415 194.000
31.02410 206.000
31.04404 209.000
31.06399 201.000
31.08394 216.000
31.10389 209.000
31.12383 220.000
31.14378 191.000
31.16373 204.000
31.18367 208.000
31.20362 189.000
31.22357 207.000
31.24351 234.000
31.26346 222.000
31.28341 208.000
31.30336 223.000
31.32330 195.000
31.34325 216.000
31.36320 244.000
31.38314 211.000
31.40309 210.000
31.42304 205.000
31.44298 214.000
31.46293 215.000
31.48288 219.000
31.50282 192.000
31.52277 206.000
31.54272 190.000
31.56267 197.000
31.58261 211.000
31.60256 224.000
31.62251 211.000
31.64245 215.000
31.66240 221.000
31.68235 241.000
31.70229 208.000
31.72224 209.000
31.74219 220.000
31.76214 214.000
31.78208 221.000
31.80203 226.000
31.82198 230.000
31.84192 204.000
31.86187 213.000
31.88182 235.000
31.90176 254.000
31.92171 256.000
31.94166 266.000
31.96160 292.000
31.98155 332.000
32.00150 353.000
32.02145 429.000
32.04139 478.000
32.06134 490.000
32.08129 590.000
32.10123 669.000
32.12118 637.000
32.14113 636.000
32.16107 530.000
32.18102 526.000
32.20097 424.000
32.22092 442.000
32.24086 367.000
32.26081 322.000
32.28076 307.000
32.30070 232.000
32.32065 257.000
32.34060 254.000
32.36054 262.000
32.38049 267.000
32.40044 237.000
32.42039 246.000
32.44033 249.000
32.46028 216.000
32.48023 274.000
32.50017 239.000
32.52012 287.000
32.54007 281.000
32.56001 281.000
32.57996 243.000
32.59991 268.000
32.61985 256.000
32.63980 236.000
32.65975 228.000
32.67970 240.000
32.69964 243.000
32.71959 239.000
32.73954 221.000
32.75948 211.000
32.77943 231.000
32.79938 234.000
32.81932 236.000
32.83927 211.000
32.85922 233.000
32.87917 245.000
32.89911 204.000
32.91906 229.000
32.93901 232.000
32.95895 227.000
32.97890 237.000
32.99885 230.000
33.01879 219.000
33.03874 239.000
33.05869 237.000
33.07863 209.000
33.09858 219.000
33.11853 225.000
33.13848 219.000
33.15842 205.000
33.17837 215.000
33.19832 227.000
33.21826 198.000
33.23821 225.000
33.25816 219.000
33.27810 204.000
33.29805 215.000
33.31800 234.000
33.33795 241.000
33.35789 244.000
33.37784 221.000
33.39779 213.000
33.41773 202.000
33.43768 203.000
33.45763 226.000
33.47757 223.000
33.49752 201.000
33.51747 227.000
33.53741 216.000
33.55736 217.000
33.57731 219.000
33.59726 223.000
33.61720 197.000
33.63715 216.000
33.65710 199.000
33.67704 196.000
33.69699 227.000
33.71694 195.000
33.73688 212.000
33.75683 207.000
33.77678 222.000
33.79673 190.000
33.81667 213.000
33.83662 211.000
33.85657 195.000
33.87651 217.000
33.89646 205.000
33.91641 187.000
33.93635 198.000
33.95630 212.000
33.97625 223.000
33.99620 194.000
34.01614 189.000
34.03609 220.000
34.05604 209.000
34.07598 214.000
34.09593 230.000
34.11588 238.000
34.13582 222.000
34.15577 244.000
34.17572 235.000
34.19566 209.000
34.21561 243.000
34.23556 242.000
34.25551 224.000
34.27545 221.000
34.29540 231.000
34.31535 244.000
34.33529 222.000
34.35524 261.000
34.37519 230.000
34.39513 275.000
34.41508 261.000
34.43503 283.000
34.45498 251.000
34.47492 259.000
34.49487 261.000
34.51482 268.000
34.53476 259.000
34.55471 247.000
34.57466 255.000
34.59460 231.000
34.61455 218.000
34.63450 264.000
34.65444 260.000
34.67439 258.000
34.69434 247.000
34.71429 258.000
34.73423 244.000
34.75418 278.000
34.77413 283.000
34.79407 231.000
34.81402 258.000
34.83397 256.000
34.85391 252.000
34.87386 259.000
34.89381 256.000
34.91376 297.000
34.93370 250.000
34.95365 241.000
34.97360 257.000
34.99354 249.000
35.01349 238.000
35.03344 250.000
35.05338 251.000
35.07333 276.000
35.09328 248.000
35.11322 277.000
35.13317 313.000
35.15312 308.000
35.17307 306.000
35.19301 304.000
35.21296 328.000
35.23291 362.000
35.25285 363.000
35.27280 377.000
35.29275 395.000
35.31269 459.000
35.33264 534.000
35.35259 620.000
35.37254 684.000
35.39248 834.000
35.41243 944.000
35.43238 1137.000
35.45232 1185.000
35.47227 1291.000
35.49222 1347.000
35.51216 1458.000
35.53211 1473.000
35.55206 1561.000
35.57201 1626.000
35.59195 1831.000
35.61190 2067.000
35.63185 2072.000
35.65179 1968.000
35.67174 1826.000
35.69169 1699.000
35.71163 1564.000
35.73158 1393.000
35.75153 1177.000
35.77147 932.000
35.79142 710.000
35.81137 627.000
35.83132 506.000
35.85126 442.000
35.87121 403.000
35.89116 364.000
35.91110 355.000
35.93105 333.000
35.95100 293.000
35.97094 296.000
35.99089 264.000
36.01084 252.000
36.03079 242.000
36.05073 301.000
36.07068 277.000
36.09063 233.000
36.11057 261.000
36.13052 226.000
36.15047 231.000
36.17041 247.000
36.19036 213.000
36.21031 230.000
36.23025 269.000
36.25020 265.000
36.27015 242.000
36.29010 275.000
36.31004 243.000
36.32999 255.000
36.34994 273.000
36.36988 253.000
36.38983 261.000
36.40978 295.000
36.42972 268.000
36.44967 271.000
36.46962 268.000
36.48957 245.000
36.50951 277.000
36.52946 289.000
36.54941 255.000
36.56935 280.000
36.58930 273.000
36.60925 280.000
36.62919 288.000
36.64914 276.000
36.66909 262.000
36.68903 324.000
36.70898 306.000
36.72893 308.000
36.74888 321.000
36.76882 347.000
36.78877 345.000
36.80872 335.000
36.82866 370.000
36.84861 353.000
36.86856 449.000
36.88850 442.000
36.90845 449.000
36.92840 489.000
36.94835 556.000
36.96829 657.000
36.98824 592.000
37.00819 662.000
37.02813 687.000
37.04808 642.000
37.06803 587.000
37.08797 633.000
37.10792 565.000
37.12787 552.000
37.14781 485.000
37.16776 509.000
37.18771 437.000
37.20766 451.000
37.22760 400.000
37.24755 402.000
37.26750 363.000
37.28744 369.000
37.30739 329.000
37.32734 296.000
37.34728 318.000
37.36723 283.000
37.38718 280.000
37.40713 273.000
37.42707 259.000
37.44702 267.000
37.46697 232.000
37.48691 261.000
37.50686 249.000
37.52681 243.000
37.54675 226.000
37.56670 252.000
37.58665 231.000
37.60660 255.000
37.62654 258.000
37.64649 239.000
37.66644 222.000
37.68638 253.000
37.70633 249.000
37.72628 227.000
37.74622 220.000
37.76617 223.000
37.78612 248.000
37.80606 235.000
37.82601 206.000
37.84596 225.000
37.86591 216.000
37.88585 242.000
37.90580 230.000
37.92575 246.000
37.94569 258.000
37.96564 251.000
37.98559 219.000
38.00553 232.000
38.02548 261.000
38.04543 267.000
38.06538 259.000
38.08532 238.000
38.10527 243.000
38.12522 254.000
38.14516 251.000
38.16511 268.000
38.18506 246.000
38.20500 235.000
38.22495 265.000
38.24490 279.000
38.26484 255.000
38.28479 261.000
38.30474 275.000
38.32469 286.000
38.34463 294.000
38.36458 288.000
38.38453 275.000
38.40447 296.000
38.42442 308.000
38.44437 312.000
38.46431 352.000
38.48426 402.000
38.50421 392.000
38.52416 395.000
38.54410 506.000
38.56405 518.000
38.58400 598.000
38.60394 629.000
38.62389 635.000
38.64384 695.000
38.66378 766.000
38.68373 800.000
38.70368 819.000
38.72362 768.000
38.74357 864.000
38.76352 831.000
38.78347 852.000
38.80341 730.000
38.82336 756.000
38.84331 734.000
38.86325 719.000
38.88320 673.000
38.90315 692.000
38.92309 689.000
38.94304 652.000
38.96299 665.000
38.98294 706.000
39.00288 782.000
39.02283 913.000
39.04278 979.000
39.06272 1042.000
39.08267 1189.000
39.10262 1109.000
39.12256 1101.000
39.14251 1083.000
39.16246 1053.000
39.18241 953.000
39.20235 995.000
39.22230 890.000
39.24225 790.000
39.26219 698.000
39.28214 631.000
39.30209 608.000
39.32203 577.000
39.34198 517.000
39.36193 515.000
39.38187 456.000
39.40182 395.000
39.42177 371.000
39.44172 344.000
39.46166 307.000
39.48161 320.000
39.50156 323.000
39.52150 258.000
39.54145 244.000
39.56140 250.000
39.58134 243.000
39.60129 238.000
39.62124 252.000
39.64119 269.000
39.66113 234.000
39.68108 238.000
39.70103 228.000
39.72097 224.000
39.74092 236.000
39.76087 249.000
39.78081 227.000
39.80076 242.000
39.82071 226.000
39.84065 236.000
39.86060 203.000
39.88055 213.000
39.90050 229.000
39.92044 234.000
39.94039 224.000
39.96034 206.000
39.98028 218.000
40.00023 236.000
40.02018 214.000
40.04012 194.000
40.06007 207.000
40.08002 215.000
40.09997 210.000
40.11991 187.000
40.13986 208.000
40.15981 208.000
40.17975 210.000
40.19970 210.000
40.21965 202.000
40.23959 224.000
40.25954 213.000
40.27949 200.000
40.29943 214.000
40.31938 229.000
40.33933 207.000
40.35928 226.000
40.37922 212.000
40.39917 224.000
40.41912 211.000
40.43906 210.000
40.45901 209.000
40.47896 187.000
40.49890 195.000
40.51885 188.000
40.53880 210.000
40.55875 184.000
40.57869 230.000
40.59864 211.000
40.61859 211.000
40.63853 186.000
40.65848 193.000
40.67843 205.000
40.69837 206.000
40.71832 232.000
40.73827 209.000
40.75822 236.000
40.77816 198.000
40.79811 219.000
40.81806 212.000
40.83800 246.000
40.85795 198.000
40.87790 229.000
40.89784 210.000
40.91779 224.000
40.93774 202.000
40.95768 212.000
40.97763 203.000
40.99758 248.000
41.01753 213.000
41.03747 189.000
41.05742 205.000
41.07737 222.000
41.09731 229.000
41.11726 194.000
41.13721 252.000
41.15715 224.000
41.17710 247.000
41.19705 218.000
41.21700 235.000
41.23694 208.000
41.25689 251.000
41.27684 247.000
41.29678 243.000
41.31673 234.000
41.33668 273.000
41.35662 257.000
41.37657 253.000
41.39652 301.000
41.41646 309.000
41.43641 265.000
41.45636 277.000
41.47631 329.000
41.49625 295.000
41.51620 369.000
41.53615 354.000
41.55609 393.000
41.57604 405.000
41.59599 434.000
41.61593 427.000
41.63588 426.000
41.65583 404.000
41.67578 397.000
41.69572 431.000
41.71567 355.000
41.73562 322.000
41.75556 344.000
41.77551 302.000
41.79546 295.000
41.81540 288.000
41.83535 261.000
41.85530 248.000
41.87524 259.000
41.89519 245.000
41.91514 250.000
41.93509 237.000
41.95503 216.000
41.97498 246.000
41.99493 228.000
42.01487 212.000
42.03482 245.000
42.05477 230.000
42.07471 244.000
42.09466 237.000
42.11461 233.000
42.13456 219.000
42.15450 205.000
42.17445 218.000
42.19440 225.000
42.21434 227.000
42.23429 225.000
42.25424 230.000
42.27418 255.000
42.29413 242.000
42.31408 245.000
42.33403 253.000
42.35397 238.000
42.37392 214.000
42.39387 245.000
42.41381 253.000
42.43376 226.000
42.45371 236.000
42.47365 228.000
42.49360 267.000
42.51355 262.000
42.53349 240.000
42.55344 244.000
42.57339 258.000
42.59334 260.000
42.61328 271.000
42.63323 284.000
42.65318 298.000
42.67312 281.000
42.69307 306.000
42.71302 311.000
42.73296 314.000
42.75291 386.000
42.77286 362.000
42.79281 384.000
42.81275 395.000
42.83270 444.000
42.85265 471.000
42.87259 520.000
42.89254 527.000
42.91249 545.000
42.93243 627.000
42.95238 647.000
42.97233 671.000
42.99227 648.000
43.01222 714.000
43.03217 733.000
43.05212 702.000
43.07206 811.000
43.09201 801.000
43.11196 720.000
43.13190 795.000
43.15185 761.000
43.17180 795.000
43.19174 827.000
43.21169 845.000
43.23164 851.000
43.25159 855.000
43.27153 881.000
43.29148 926.000
43.31143 888.000
43.33137 823.000
43.35132 808.000
43.37127 743.000
43.39121 717.000
43.41116 618.000
43.43111 573.000
43.45105 549.000
43.47100 512.000
43.49095 449.000
43.51090 357.000
43.53084 363.000
43.55079 299.000
43.57074 312.000
43.59068 300.000
43.61063 289.000
43.63058 262.000
43.65052 230.000
43.67047 256.000
43.69042 253.000
43.71037 236.000
43.73031 238.000
43.75026 231.000
43.77021 227.000
43.79015 236.000
43.81010 226.000
43.83005 236.000
43.84999 202.000
43.86994 209.000
43.88989 198.000
43.90984 229.000
43.92978 218.000
43.94973 212.000
43.96968 220.000
43.98962 206.000
44.00957 209.000
44.02952 205.000
44.04946 223.000
44.06941 210.000
44.08936 198.000
44.10930 201.000
44.12925 212.000
44.14920 203.000
44.16915 206.000
44.18909 221.000
44.20904 242.000
44.22899 218.000
44.24893 198.000
44.26888 218.000
44.28883 192.000
44.30877 187.000
44.32872 233.000
44.34867 169.000
44.36862 208.000
44.38856 195.000
44.40851 203.000
44.42846 195.000
44.44840 206.000
44.46835 208.000
44.48830 196.000
44.50824 208.000
44.52819 206.000
44.54814 186.000
44.56808 211.000
44.58803 219.000
44.60798 198.000
44.62793 200.000
44.64787 196.000
44.66782 188.000
44.68777 217.000
44.70771 190.000
44.72766 199.000
44.74761 203.000
44.76755 202.000
44.78750 195.000
44.80745 204.000
44.82740 180.000
44.84734 207.000
44.86729 219.000
44.88724 221.000
44.90718 207.000
44.92713 227.000
44.94708 197.000
44.96702 230.000
44.98697 207.000
45.00692 179.000
45.02686 249.000
45.04681 192.000
45.06676 228.000
45.08671 220.000
45.10665 214.000
45.12660 191.000
45.14655 184.000
45.16649 217.000
45.18644 201.000
45.20639 202.000
45.22633 185.000
45.24628 214.000
45.26623 213.000
45.28618 204.000
45.30612 205.000
45.32607 189.000
45.34602 219.000
45.36596 194.000
45.38591 198.000
45.40586 197.000
45.42580 195.000
45.44575 197.000
45.46570 220.000
45.48565 186.000
45.50559 211.000
45.52554 199.000
45.54549 224.000
45.56543 214.000
45.58538 208.000
45.60533 195.000
45.62527 200.000
45.64522 214.000
45.66517 198.000
45.68511 191.000
45.70506 210.000
45.72501 193.000
45.74496 212.000
45.76490 223.000
45.78485 180.000
45.80480 193.000
45.82474 209.000
45.84469 187.000
45.86464 217.000
45.88458 197.000
45.90453 202.000
45.92448 198.000
45.94443 208.000
45.96437 202.000
45.98432 181.000
46.00427 183.000
46.02421 185.000
46.04416 206.000
46.06411 233.000
46.08405 187.000
46.10400 203.000
46.12395 185.000
46.14389 203.000
46.16384 212.000
46.18379 197.000
46.20374 217.000
46.22368 193.000
46.24363 210.000
46.26358 210.000
46.28352 226.000
46.30347 216.000
46.32342 223.000
46.34336 195.000
46.36331 191.000
46.38326 210.000
46.40321 237.000
46.42315 199.000
46.44310 206.000
46.46305 214.000
46.48299 215.000
46.50294 231.000
46.52289 211.000
46.54283 212.000
46.56278 208.000
46.58273 203.000
46.60267 205.000
46.62262 194.000
46.64257 183.000
46.66252 208.000
46.68246 210.000
46.70241 218.000
46.72236 208.000
46.74230 210.000
46.76225 201.000
46.78220 220.000
46.80214 201.000
46.82209 192.000
46.84204 195.000
46.86199 181.000
46.88193 198.000
46.90188 197.000
46.92183 214.000
46.94177 203.000
46.96172 193.000
46.98167 199.000
47.00161 216.000
47.02156 203.000
47.04151 210.000
47.06146 197.000
47.08140 174.000
47.10135 224.000
47.12130 208.000
47.14124 182.000
47.16119 201.000
47.18114 194.000
47.20108 194.000
47.22103 197.000
47.24098 197.000
47.26092 211.000
47.28087 191.000
47.30082 225.000
47.32077 224.000
47.34071 222.000
47.36066 213.000
47.38061 210.000
47.40055 201.000
47.42050 230.000
47.44045 201.000
47.46039 232.000
47.48034 196.000
47.50029 209.000
47.52024 204.000
47.54018 177.000
47.56013 222.000
47.58008 226.000
47.60002 234.000
47.61997 214.000
47.63992 210.000
47.65986 211.000
47.67981 227.000
47.69976 218.000
47.71970 197.000
47.73965 213.000
47.75960 215.000
47.77955 217.000
47.79949 204.000
47.81944 213.000
47.83939 205.000
47.85933 223.000
47.87928 190.000
47.89923 216.000
47.91917 196.000
47.93912 218.000
47.95907 210.000
47.97902 227.000
47.99896 229.000
48.01891 223.000
48.03886 214.000
48.05880 197.000
48.07875 228.000
48.09870 243.000
48.11864 204.000
48.13859 221.000
48.15854 246.000
48.17848 234.000
48.19843 231.000
48.21838 251.000
48.23833 255.000
48.25827 244.000
48.27822 273.000
48.29817 284.000
48.31811 264.000
48.33806 287.000
48.35801 281.000
48.37795 322.000
48.39790 350.000
48.41785 324.000
48.43780 388.000
48.45774 382.000
48.47769 449.000
48.49764 501.000
48.51758 590.000
48.53753 724.000
48.55748 776.000
48.57742 863.000
48.59737 907.000
48.61732 1031.000
48.63726 1001.000
48.65721 969.000
48.67716 995.000
48.69711 995.000
48.71705 908.000
48.73700 915.000
48.75695 849.000
48.77689 822.000
48.79684 727.000
48.81679 676.000
48.83673 623.000
48.85668 561.000
48.87663 545.000
48.89658 508.000
48.91652 457.000
48.93647 406.000
48.95642 395.000
48.97636 357.000
48.99631 376.000
49.01626 325.000
49.03620 324.000
49.05615 267.000
49.07610 272.000
49.09605 289.000
49.11599 272.000
49.13594 259.000
49.15589 250.000
49.17583 251.000
49.19578 245.000
49.21573 241.000
49.23567 231.000
49.25562 247.000
49.27557 231.000
49.29551 229.000
49.31546 214.000
49.33541 225.000
49.35536 228.000
49.37530 234.000
49.39525 209.000
49.41520 217.000
49.43514 212.000
49.45509 214.000
49.47504 209.000
49.49498 235.000
49.51493 225.000
49.53488 201.000
49.55483 205.000
49.57477 218.000
49.59472 245.000
49.61467 207.000
49.63461 193.000
49.65456 208.000
49.67451 202.000
49.69445 208.000
49.71440 209.000
49.73435 171.000
49.75429 211.000
49.77424 193.000
49.79419 218.000
49.81414 202.000
49.83408 227.000
49.85403 174.000
49.87398 194.000
49.89392 206.000
49.91387 221.000
49.93382 215.000
49.95376 201.000
49.97371 206.000
49.99366 208.000
50.01361 203.000
50.03355 205.000
50.05350 188.000
50.07345 165.000
50.09339 225.000
50.11334 218.000
50.13329 215.000
50.15323 194.000
50.17318 195.000
50.19313 231.000
50.21307 214.000
50.23302 195.000
50.25297 189.000
50.27292 203.000
50.29286 209.000
50.31281 213.000
50.33276 182.000
50.35270 198.000
50.37265 195.000
50.39260 195.000
50.41254 185.000
50.43249 191.000
50.45244 198.000
50.47239 199.000
50.49233 194.000
50.51228 194.000
50.53223 218.000
50.55217 181.000
50.57212 215.000
50.59207 202.000
50.61201 204.000
50.63196 208.000
50.65191 180.000
50.67186 194.000
50.69180 195.000
50.71175 186.000
50.73170 198.000
50.75164 210.000
50.77159 175.000
50.79154 193.000
50.81148 180.000
50.83143 197.000
50.85138 176.000
50.87132 197.000
50.89127 192.000
50.91122 196.000
50.93117 194.000
50.95111 190.000
50.97106 217.000
50.99101 195.000
51.01095 204.000
51.03090 211.000
51.05085 189.000
51.07079 207.000
51.09074 170.000
51.11069 181.000
51.13064 169.000
51.15058 188.000
51.17053 209.000
51.19048 179.000
51.21042 256.000
51.23037 224.000
51.25032 201.000
51.27026 221.000
51.29021 235.000
51.31016 225.000
51.33010 196.000
51.35005 193.000
51.37000 201.000
51.38995 194.000
51.40989 195.000
51.42984 207.000
51.44979 212.000
51.46973 183.000
51.48968 200.000
51.50963 207.000
51.52957 221.000
51.54952 202.000
51.56947 218.000
51.58942 212.000
51.60936 197.000
51.62931 206.000
51.64926 192.000
51.66920 189.000
51.68915 165.000
51.70910 186.000
51.72904 192.000
51.74899 188.000
51.76894 197.000
51.78888 185.000
51.80883 176.000
51.82878 207.000
51.84873 173.000
51.86867 190.000
51.88862 190.000
51.90857 193.000
51.92851 209.000
51.94846 197.000
51.96841 215.000
51.98835 207.000
52.00830 205.000
52.02825 198.000
52.04820 204.000
52.06814 191.000
52.08809 196.000
52.10804 208.000
52.12798 195.000
52.14793 215.000
52.16788 182.000
52.18782 200.000
52.20777 211.000
52.22772 221.000
52.24767 189.000
52.26761 204.000
52.28756 173.000
52.30751 167.000
52.32745 200.000
52.34740 202.000
52.36735 224.000
52.38729 175.000
52.40724 214.000
52.42719 210.000
52.44713 202.000
52.46708 194.000
52.48703 215.000
52.50698 189.000
52.52692 187.000
52.54687 205.000
52.56682 196.000
52.58676 202.000
52.60671 228.000
52.62666 196.000
52.64660 183.000
52.66655 168.000
52.68650 197.000
52.70645 206.000
52.72639 203.000
52.74634 173.000
52.76629 191.000
52.78623 196.000
52.80618 204.000
52.82613 186.000
52.84607 204.000
52.86602 220.000
52.88597 217.000
52.90591 214.000
52.92586 202.000
52.94581 195.000
52.96576 210.000
52.98570 210.000
53.00565 238.000
53.02560 215.000
53.04554 207.000
53.06549 241.000
53.08544 216.000
53.10538 245.000
53.12533 236.000
53.14528 213.000
53.16523 233.000
53.18517 187.000
53.20512 227.000
53.22507 211.000
53.24501 224.000
53.26496 215.000
53.28491 229.000
53.30485 240.000
53.32480 239.000
53.34475 215.000
53.36469 193.000
53.38464 226.000
53.40459 202.000
53.42454 209.000
53.44448 221.000
53.46443 243.000
53.48438 234.000
53.50432 226.000
53.52427 233.000
53.54422 255.000
53.56416 231.000
53.58411 243.000
53.60406 243.000
53.62401 251.000
53.64395 231.000
53.66390 267.000
53.68385 274.000
53.70379 242.000
53.72374 292.000
53.74369 302.000
53.76363 277.000
53.78358 262.000
53.80353 243.000
53.82348 281.000
53.84342 251.000
53.86337 259.000
53.88332 261.000
53.90326 263.000
53.92321 259.000
53.94316 232.000
53.96310 237.000
53.98305 207.000
54.00300 233.000
54.02294 218.000
54.04289 195.000
54.06284 214.000
54.08279 206.000
54.10273 203.000
54.12268 225.000
54.14263 194.000
54.16257 189.000
54.18252 181.000
54.20247 200.000
54.22241 211.000
54.24236 217.000
54.26231 202.000
54.28226 202.000
54.30220 217.000
54.32215 187.000
54.34210 202.000
54.36204 177.000
54.38199 212.000
54.40194 201.000
54.42188 211.000
54.44183 208.000
54.46178 207.000
54.48172 206.000
54.50167 178.000
54.52162 207.000
54.54157 213.000
54.56151 180.000
54.58146 204.000
54.60141 195.000
54.62135 208.000
54.64130 208.000
54.66125 202.000
54.68119 193.000
54.70114 202.000
54.72109 199.000
54.74104 196.000
54.76098 198.000
54.78093 198.000
54.80088 198.000
54.82082 207.000
54.84077 198.000
54.86072 183.000
54.88066 209.000
54.90061 192.000
54.92056 201.000
54.94050 178.000
54.96045 211.000
54.98040 190.000
55.00035 198.000
55.02029 214.000
55.04024 201.000
55.06019 165.000
55.08013 205.000
55.10008 204.000
55.12003 192.000
55.13997 179.000
55.15992 187.000
55.17987 207.000
55.19982 222.000
55.21976 215.000
55.23971 179.000
55.25966 208.000
55.27960 193.000
55.29955 187.000
55.31950 196.000
55.33944 207.000
55.35939 197.000
55.37934 202.000
55.39929 225.000
55.41923 213.000
55.43918 193.000
55.45913 180.000
55.47907 176.000
55.49902 179.000
55.51897 210.000
55.53891 204.000
55.55886 168.000
55.57881 202.000
55.59875 206.000
55.61870 204.000
55.63865 204.000
55.65860 182.000
55.67854 208.000
55.69849 205.000
55.71844 201.000
55.73838 199.000
55.75833 190.000
55.77828 228.000
55.79822 193.000
55.81817 203.000
55.83812 174.000
55.85807 207.000
55.87801 196.000
55.89796 224.000
55.91791 197.000
55.93785 233.000
55.95780 189.000
55.97775 221.000
55.99769 179.000
56.01764 200.000
56.03759 174.000
56.05753 212.000
56.07748 186.000
56.09743 201.000
56.11738 215.000
56.13732 223.000
56.15727 202.000
56.17722 198.000
56.19716 204.000
56.21711 210.000
56.23706 194.000
56.25700 217.000
56.27695 178.000
56.29690 194.000
56.31685 198.000
56.33679 169.000
56.35674 197.000
56.37669 217.000
56.39663 194.000
56.41658 202.000
56.43653 197.000
56.45647 203.000
56.47642 204.000
56.49637 200.000
56.51631 199.000
56.53626 215.000
56.55621 204.000
56.57616 221.000
56.59610 198.000
56.61605 188.000
56.63600 228.000
56.65594 193.000
56.67589 212.000
56.69584 207.000
56.71578 226.000
56.73573 219.000
56.75568 211.000
56.77563 179.000
56.79557 206.000
56.81552 208.000
56.83547 229.000
56.85541 218.000
56.87536 213.000
56.89531 203.000
56.91525 211.000
56.93520 215.000
56.95515 212.000
56.97510 241.000
56.99504 198.000
57.01499 218.000
57.03494 239.000
57.05488 237.000
57.07483 228.000
57.09478 228.000
57.11472 246.000
57.13467 203.000
57.15462 258.000
57.17456 256.000
57.19451 287.000
57.21446 307.000
57.23441 384.000
57.25435 384.000
57.27430 429.000
57.29425 458.000
57.31419 475.000
57.33414 442.000
57.35409 380.000
57.37403 423.000
57.39398 366.000
57.41393 395.000
57.43388 407.000
57.45382 369.000
57.47377 370.000
57.49372 342.000
57.51366 304.000
57.53361 307.000
57.55356 298.000
57.57350 292.000
57.59345 268.000
57.61340 291.000
57.63334 242.000
57.65329 232.000
57.67324 248.000
57.69319 215.000
57.71313 217.000
57.73308 263.000
57.75303 229.000
57.77297 249.000
57.79292 285.000
57.81287 251.000
57.83281 226.000
57.85276 261.000
57.87271 233.000
57.89266 252.000
57.91260 224.000
57.93255 248.000
57.95250 234.000
57.97244 233.000
57.99239 249.000
58.01234 232.000
58.03228 253.000
58.05223 238.000
58.07218 253.000
58.09212 267.000
58.11207 271.000
58.13202 287.000
58.15197 277.000
58.17191 266.000
58.19186 270.000
58.21181 245.000
58.23175 268.000
58.25170 280.000
58.27165 291.000
58.29159 258.000
58.31154 261.000
58.33149 250.000
58.35144 258.000
58.37138 247.000
58.39133 265.000
58.41128 233.000
58.43122 255.000
58.45117 235.000
58.47112 218.000
58.49106 243.000
58.51101 210.000
58.53096 217.000
58.55090 239.000
58.57085 199.000
58.59080 212.000
58.61075 209.000
58.63069 200.000
58.65064 247.000
58.67059 222.000
58.69053 218.000
58.71048 193.000
58.73043 191.000
58.75037 215.000
58.77032 203.000
58.79027 196.000
58.81022 199.000
58.83016 204.000
58.85011 187.000
58.87006 212.000
58.89000 182.000
58.90995 236.000
58.92990 194.000
58.94984 223.000
58.96979 229.000
58.98974 196.000
59.00969 199.000
59.02963 186.000
59.04958 190.000
59.06953 188.000
59.08947 209.000
59.10942 198.000
59.12937 215.000
59.14931 191.000
59.16926 203.000
59.18921 192.000
59.20915 188.000
59.22910 226.000
59.24905 202.000
59.26900 214.000
59.28894 174.000
59.30889 179.000
59.32884 213.000
59.34878 201.000
59.36873 212.000
59.38868 188.000
59.40862 187.000
59.42857 208.000
59.44852 173.000
59.46847 187.000
59.48841 187.000
59.50836 195.000
59.52831 213.000
59.54825 209.000
59.56820 202.000
59.58815 213.000
59.60809 191.000
59.62804 201.000
59.64799 203.000
59.66793 184.000
59.68788 185.000
59.70783 206.000
59.72778 167.000
59.74772 193.000
59.76767 188.000
59.78762 194.000
59.80756 177.000
59.82751 220.000
59.84746 190.000
59.86740 202.000
59.88735 194.000
59.90730 215.000
59.92725 196.000
59.94719 220.000
59.96714 203.000
59.98709 193.000
60.00703 176.000
60.02698 202.000
60.04693 193.000
60.06687 197.000
60.08682 233.000
60.10677 227.000
60.12671 205.000
60.14666 195.000
60.16661 215.000
60.18656 219.000
60.20650 204.000
60.22645 231.000
60.24640 209.000
60.26634 200.000
60.28629 186.000
60.30624 178.000
60.32618 173.000
60.34613 226.000
60.36608 217.000
60.38603 208.000
60.40597 213.000
60.42592 204.000
60.44587 200.000
60.46581 225.000
60.48576 216.000
60.50571 199.000
60.52565 211.000
60.54560 208.000
60.56555 193.000
60.58550 204.000
60.60544 209.000
60.62539 206.000
60.64534 203.000
60.66528 224.000
60.68523 191.000
60.70518 192.000
60.72512 205.000
60.74507 224.000
60.76502 230.000
60.78496 198.000
60.80491 209.000
60.82486 248.000
60.84481 212.000
60.86475 202.000
60.88470 189.000
60.90465 247.000
60.92459 225.000
60.94454 211.000
60.96449 240.000
60.98443 223.000
61.00438 196.000
61.02433 240.000
61.04428 219.000
61.06422 205.000
61.08417 187.000
61.10412 216.000
61.12406 242.000
61.14401 230.000
61.16396 233.000
61.18390 230.000
61.20385 212.000
61.22380 232.000
61.24374 228.000
61.26369 251.000
61.28364 208.000
61.30359 232.000
61.32353 259.000
61.34348 244.000
61.36343 238.000
61.38337 239.000
61.40332 262.000
61.42327 280.000
61.44321 277.000
61.46316 312.000
61.48311 296.000
61.50306 300.000
61.52300 333.000
61.54295 320.000
61.56290 314.000
61.58284 347.000
61.60279 335.000
61.62274 359.000
61.64268 300.000
61.66263 354.000
61.68258 331.000
61.70252 353.000
61.72247 352.000
61.74242 332.000
61.76237 342.000
61.78231 356.000
61.80226 352.000
61.82221 364.000
61.84215 390.000
61.86210 432.000
61.88205 468.000
61.90199 486.000
61.92194 509.000
61.94189 586.000
61.96184 546.000
61.98178 567.000
62.00173 579.000
62.02168 584.000
62.04162 556.000
62.06157 539.000
62.08152 498.000
62.10146 496.000
62.12141 542.000
62.14136 502.000
62.16131 468.000
62.18125 457.000
62.20120 428.000
62.22115 453.000
62.24109 439.000
62.26104 393.000
62.28099 422.000
62.30093 410.000
62.32088 420.000
62.34083 407.000
62.36077 458.000
62.38072 454.000
62.40067 396.000
62.42062 432.000
62.44056 467.000
62.46051 415.000
62.48046 470.000
62.50040 490.000
62.52035 441.000
62.54030 433.000
62.56024 435.000
62.58019 468.000
62.60014 437.000
62.62009 459.000
62.64003 465.000
62.65998 420.000
62.67993 469.000
62.69987 457.000
62.71982 404.000
62.73977 401.000
62.75971 408.000
62.77966 414.000
62.79961 402.000
62.81955 462.000
62.83950 451.000
62.85945 454.000
62.87940 559.000
62.89934 562.000
62.91929 657.000
62.93924 653.000
62.95918 604.000
62.97913 577.000
62.99908 516.000
63.01902 460.000
63.03897 430.000
63.05892 469.000
63.07887 509.000
63.09881 482.000
63.11876 479.000
63.13871 431.000
63.15865 439.000
63.17860 390.000
63.19855 354.000
63.21849 337.000
63.23844 312.000
63.25839 283.000
63.27833 279.000
63.29828 281.000
63.31823 273.000
63.33818 260.000
63.35812 256.000
63.37807 278.000
63.39802 274.000
63.41796 260.000
63.43791 252.000
63.45786 239.000
63.47780 226.000
63.49775 274.000
63.51770 249.000
63.53765 298.000
63.55759 301.000
63.57754 307.000
63.59749 353.000
63.61743 356.000
63.63738 371.000
63.65733 385.000
63.67727 427.000
63.69722 413.000
63.71717 383.000
63.73712 383.000
63.75706 364.000
63.77701 388.000
63.79696 396.000
63.81690 411.000
63.83685 385.000
63.85680 361.000
63.87674 360.000
63.89669 303.000
63.91664 313.000
63.93658 322.000
63.95653 313.000
63.97648 271.000
63.99643 317.000
64.01637 317.000
64.03632 256.000
64.05627 290.000
64.07621 320.000
64.09616 294.000
64.11611 276.000
64.13605 266.000
64.15600 262.000
64.17595 269.000
64.19590 242.000
64.21584 261.000
64.23579 265.000
64.25574 232.000
64.27568 241.000
64.29563 222.000
64.31558 261.000
64.33552 238.000
64.35547 254.000
64.37542 273.000
64.39536 236.000
64.41531 228.000
64.43526 239.000
64.45521 229.000
64.47515 233.000
64.49510 226.000
64.51505 210.000
64.53499 231.000
64.55494 214.000
64.57489 230.000
64.59483 233.000
64.61478 223.000
64.63473 216.000
64.65468 198.000
64.67462 227.000
64.69457 216.000
64.71452 213.000
64.73446 250.000
64.75441 198.000
64.77436 218.000
64.79430 228.000
64.81425 203.000
64.83420 227.000
64.85414 223.000
64.87409 205.000
64.89404 224.000
64.91399 202.000
64.93393 218.000
64.95388 229.000
64.97383 207.000
64.99377 214.000
65.01372 230.000
65.03367 227.000
65.05361 217.000
65.07356 213.000
65.09351 188.000
65.11346 205.000
65.13340 210.000
65.15335 224.000
65.17330 195.000
65.19324 210.000
65.21319 231.000
65.23314 229.000
65.25308 219.000
65.27303 239.000
65.29298 232.000
65.31293 248.000
65.33287 232.000
65.35282 226.000
65.37277 242.000
65.39271 230.000
65.41266 249.000
65.43261 227.000
65.45255 251.000
65.47250 259.000
65.49245 232.000
65.51239 247.000
65.53234 283.000
65.55229 230.000
65.57224 252.000
65.59218 253.000
65.61213 263.000
65.63208 231.000
65.65202 259.000
65.67197 241.000
65.69192 246.000
65.71186 252.000
65.73181 266.000
65.75176 269.000
65.77171 267.000
65.79165 254.000
65.81160 268.000
65.83155 266.000
65.85149 272.000
65.87144 277.000
65.89139 286.000
65.91133 270.000
65.93128 259.000
65.95123 307.000
65.97117 290.000
65.99112 299.000
66.01107 324.000
66.03102 326.000
66.05096 347.000
66.07091 336.000
66.09086 376.000
66.11080 361.000
66.13075 393.000
66.15070 345.000
66.17064 363.000
66.19059 384.000
66.21054 378.000
66.23049 403.000
66.25043 383.000
66.27038 381.000
66.29033 382.000
66.31027 386.000
66.33022 369.000
66.35017 360.000
66.37011 365.000
66.39006 357.000
66.41001 314.000
66.42995 345.000
66.44990 329.000
66.46985 323.000
66.48980 309.000
66.50974 283.000
66.52969 318.000
66.54964 290.000
66.56958 296.000
66.58953 267.000
66.60948 254.000
66.62942 229.000
66.64937 240.000
66.66932 245.000
66.68927 239.000
66.70921 265.000
66.72916 232.000
66.74911 232.000
66.76905 229.000
66.78900 229.000
66.80895 268.000
66.82889 226.000
66.84884 232.000
66.86879 231.000
66.88874 218.000
66.90868 241.000
66.92863 229.000
66.94858 220.000
66.96852 240.000
66.98847 212.000
67.00842 225.000
67.02836 242.000
67.04831 226.000
67.06826 225.000
67.08820 216.000
67.10815 240.000
67.12810 256.000
67.14805 252.000
67.16799 227.000
67.18794 253.000
67.20789 263.000
67.22783 240.000
67.24778 280.000
67.26773 266.000
67.28767 236.000
67.30762 248.000
67.32757 215.000
67.34752 246.000
67.36746 213.000
67.38741 236.000
67.40736 249.000
67.42730 219.000
67.44725 237.000
67.46720 220.000
67.48714 238.000
67.50709 212.000
67.52704 236.000
67.54698 217.000
67.56693 229.000
67.58688 221.000
67.60683 212.000
67.62677 227.000
67.64672 215.000
67.66667 244.000
67.68661 215.000
67.70656 243.000
67.72651 233.000
67.74645 223.000
67.76640 227.000
67.78635 260.000
67.80630 231.000
67.82624 268.000
67.84619 257.000
67.86614 260.000
67.88608 293.000
67.90603 262.000
67.92598 274.000
67.94592 263.000
67.96587 312.000
67.98582 260.000
68.00576 264.000
68.02571 234.000
68.04566 292.000
68.06561 300.000
68.08555 274.000
68.10550 287.000
68.12545 299.000
68.14539 266.000
68.16534 294.000
68.18529 261.000
68.20523 266.000
68.22518 258.000
68.24513 274.000
68.26508 270.000
68.28502 232.000
68.30497 272.000
68.32492 251.000
68.34486 233.000
68.36481 255.000
68.38476 220.000
68.40470 264.000
68.42465 235.000
68.44460 206.000
68.46455 232.000
68.48449 217.000
68.50444 230.000
68.52439 215.000
68.54433 208.000
68.56428 237.000
68.58423 216.000
68.60417 228.000
68.62412 241.000
68.64407 198.000
68.66401 176.000
68.68396 198.000
68.70391 186.000
68.72386 196.000
68.74380 196.000
68.76375 231.000
68.78370 174.000
68.80364 202.000
68.82359 209.000
68.84354 228.000
68.86348 190.000
68.88343 221.000
68.90338 167.000
68.92333 222.000
68.94327 207.000
68.96322 227.000
68.98317 219.000
69.00311 206.000
69.02306 219.000
69.04301 212.000
69.06295 205.000
69.08290 212.000
69.10285 192.000
69.12279 198.000
69.14274 180.000
69.16269 189.000
69.18264 211.000
69.20258 211.000
69.22253 192.000
69.24248 209.000
69.26242 242.000
69.28237 195.000
69.30232 223.000
69.32226 200.000
69.34221 196.000
69.36216 184.000
69.38211 211.000
69.40205 190.000
69.42200 195.000
69.44195 229.000
69.46189 187.000
69.48184 201.000
69.50179 172.000
69.52173 157.000
69.54168 224.000
69.56163 207.000
69.58157 211.000
69.60152 195.000
69.62147 219.000
69.64142 227.000
69.66136 209.000
69.68131 220.000
69.70126 185.000
69.72120 211.000
69.74115 185.000
69.76110 206.000
69.78104 180.000
69.80099 221.000
69.82094 187.000
69.84089 220.000
69.86083 213.000
69.88078 217.000
69.90073 206.000
69.92067 201.000
69.94062 189.000
69.96057 199.000
69.98051 192.000
70.00046 203.000
70.02041 212.000
70.04035 199.000
70.06030 195.000
70.08025 212.000
70.10020 195.000
70.12014 193.000
70.14009 194.000
70.16004 211.000
70.17998 199.000
70.19993 215.000
70.21988 169.000
70.23982 194.000
70.25977 185.000
70.27972 212.000
70.29967 202.000
70.31961 194.000
70.33956 206.000
70.35951 181.000
70.37945 188.000
70.39940 187.000
70.41935 207.000
70.43929 186.000
70.45924 178.000
70.47919 198.000
70.49914 209.000
70.51908 184.000
70.53903 198.000
70.55898 217.000
70.57892 206.000
70.59887 182.000
70.61882 202.000
70.63876 206.000
70.65871 186.000
70.67866 190.000
70.69860 177.000
70.71855 179.000
70.73850 166.000
70.75845 176.000
70.77839 189.000
70.79834 221.000
70.81829 204.000
70.83823 199.000
70.85818 188.000
70.87813 201.000
70.89807 173.000
70.91802 191.000
70.93797 203.000
70.95792 206.000
70.97786 187.000
70.99781 215.000
71.01776 204.000
71.03770 203.000
71.05765 184.000
71.07760 192.000
71.09754 201.000
71.11749 205.000
71.13744 197.000
71.15738 209.000
71.17733 187.000
71.19728 204.000
71.21723 192.000
71.23717 227.000
71.25712 201.000
71.27707 212.000
71.29701 207.000
71.31696 219.000
71.33691 211.000
71.35685 209.000
71.37680 239.000
71.39675 247.000
71.41670 168.000
71.43664 200.000
71.45659 192.000
71.47654 204.000
71.49648 211.000
71.51643 216.000
71.53638 204.000
71.55632 210.000
71.57627 204.000
71.59622 213.000
71.61616 211.000
71.63611 211.000
71.65606 217.000
71.67601 207.000
71.69595 201.000
71.71590 177.000
71.73585 191.000
71.75579 210.000
71.77574 207.000
71.79569 215.000
71.81563 214.000
71.83558 194.000
71.85553 229.000
71.87548 241.000
71.89542 192.000
71.91537 211.000
71.93532 218.000
71.95526 205.000
71.97521 201.000
71.99516 172.000
72.01510 206.000
72.03505 177.000
72.05500 206.000
72.07495 215.000
72.09489 186.000
72.11484 221.000
72.13479 219.000
72.15473 191.000
72.17468 226.000
72.19463 211.000
72.21457 229.000
72.23452 242.000
72.25447 216.000
72.27441 248.000
72.29436 229.000
72.31431 240.000
72.33426 252.000
72.35420 227.000
72.37415 209.000
72.39410 248.000
72.41404 233.000
72.43399 243.000
72.45394 253.000
72.47388 251.000
72.49383 229.000
72.51378 224.000
72.53373 243.000
72.55367 239.000
72.57362 200.000
72.59357 242.000
72.61351 234.000
72.63346 237.000
72.65341 216.000
72.67335 190.000
72.69330 208.000
72.71325 249.000
72.73319 225.000
72.75314 224.000
72.77309 207.000
72.79304 219.000
72.81298 204.000
72.83293 221.000
72.85288 220.000
72.87282 228.000
72.89277 196.000
72.91272 231.000
72.93266 237.000
72.95261 258.000
72.97256 231.000
72.99251 225.000
73.01245 233.000
73.03240 250.000
73.05235 244.000
73.07229 257.000
73.09224 270.000
73.11219 272.000
73.13213 259.000
73.15208 273.000
73.17203 245.000
73.19197 221.000
73.21192 249.000
73.23187 241.000
73.25182 261.000
73.27176 253.000
73.29171 220.000
73.31166 250.000
73.33160 257.000
73.35155 260.000
73.37150 274.000
73.39144 237.000
73.41139 235.000
73.43134 250.000
73.45129 242.000
73.47123 220.000
73.49118 221.000
73.51113 210.000
73.53107 242.000
73.55102 225.000
73.57097 236.000
73.59091 246.000
73.61086 216.000
73.63081 217.000
73.65076 231.000
73.67070 208.000
73.69065 225.000
73.71060 202.000
73.73054 229.000
73.75049 194.000
73.77044 197.000
73.79038 204.000
73.81033 227.000
73.83028 199.000
73.85022 218.000
73.87017 203.000
73.89012 238.000
73.91007 199.000
73.93001 211.000
73.94996 198.000
73.96991 209.000
73.98985 220.000
74.00980 200.000
74.02975 234.000
74.04969 207.000
74.06964 209.000
74.08959 205.000
74.10954 195.000
74.12948 228.000
74.14943 218.000
74.16938 199.000
74.18932 195.000
74.20927 223.000
74.22922 210.000
74.24916 236.000
74.26911 237.000
74.28906 228.000
74.30900 241.000
74.32895 243.000
74.34890 265.000
74.36885 239.000
74.38879 255.000
74.40874 247.000
74.42869 271.000
74.44863 287.000
74.46858 314.000
74.48853 283.000
74.50847 290.000
74.52842 277.000
74.54837 260.000
74.56832 313.000
74.58826 275.000
74.60821 263.000
74.62816 251.000
74.64810 290.000
74.66805 293.000
74.68800 269.000
74.70794 293.000
74.72789 277.000
74.74784 302.000
74.76778 260.000
74.78773 294.000
74.80768 269.000
74.82763 274.000
74.84757 273.000
74.86752 287.000
74.88747 277.000
74.90741 307.000
74.92736 344.000
74.94731 315.000
74.96725 308.000
74.98720 308.000
75.00715 319.000
75.02710 347.000
75.04704 335.000
75.06699 337.000
75.08694 312.000
75.10688 339.000
75.12683 295.000
75.14678 326.000
75.16672 302.000
75.18667 308.000
75.20662 305.000
75.22657 288.000
75.24651 257.000
75.26646 282.000
75.28641 284.000
75.30635 261.000
75.32630 266.000
75.34625 276.000
75.36619 285.000
75.38614 276.000
75.40609 266.000
75.42603 292.000
75.44598 286.000
75.46593 257.000
75.48588 270.000
75.50582 239.000
75.52577 277.000
75.54572 265.000
75.56566 229.000
75.58561 236.000
75.60556 250.000
75.62550 246.000
75.64545 248.000
75.66540 238.000
75.68535 258.000
75.70529 202.000
75.72524 239.000
75.74519 246.000
75.76513 222.000
75.78508 209.000
75.80503 228.000
75.82497 201.000
75.84492 200.000
75.86487 221.000
75.88481 194.000
75.90476 192.000
75.92471 220.000
75.94466 186.000
75.96460 215.000
75.98455 200.000
76.00450 218.000
76.02444 195.000
76.04439 193.000
76.06434 205.000
76.08428 191.000
76.10423 193.000
76.12418 204.000
76.14413 189.000
76.16407 186.000
76.18402 236.000
76.20397 213.000
76.22391 202.000
76.24386 195.000
76.26381 199.000
76.28375 200.000
76.30370 209.000
76.32365 187.000
76.34359 184.000
76.36354 209.000
76.38349 185.000
76.40344 203.000
76.42338 200.000
76.44333 201.000
76.46328 195.000
76.48322 199.000
76.50317 205.000
76.52312 183.000
76.54306 190.000
76.56301 191.000
76.58296 186.000
76.60291 174.000
76.62285 214.000
76.64280 216.000
76.66275 206.000
76.68269 188.000
76.70264 209.000
76.72259 204.000
76.74253 197.000
76.76248 211.000
76.78243 185.000
76.80238 192.000
76.82232 204.000
76.84227 203.000
76.86222 215.000
76.88216 209.000
76.90211 229.000
76.92206 207.000
76.94200 214.000
76.96195 198.000
76.98190 199.000
77.00184 185.000
77.02179 209.000
77.04174 236.000
77.06169 220.000
77.08163 187.000
77.10158 213.000
77.12153 232.000
77.14147 237.000
77.16142 205.000
77.18137 214.000
77.20131 237.000
77.22126 263.000
77.24121 207.000
77.26116 252.000
77.28110 228.000
77.30105 256.000
77.32100 267.000
77.34094 247.000
77.36089 258.000
77.38084 239.000
77.40078 254.000
77.42073 266.000
77.44068 230.000
77.46062 254.000
77.48057 246.000
77.50052 227.000
77.52047 223.000
77.54041 243.000
77.56036 207.000
77.58031 257.000
77.60025 231.000
77.62020 233.000
77.64015 219.000
77.66009 217.000
77.68004 223.000
77.69999 229.000
77.71994 216.000
77.73988 197.000
77.75983 230.000
77.77978 214.000
77.79972 234.000
77.81967 211.000
77.83962 243.000
77.85956 229.000
77.87951 202.000
77.89946 224.000
77.91940 236.000
77.93935 235.000
77.95930 237.000
77.97925 226.000
77.99919 220.000
78.01914 216.000
78.03909 226.000
78.05903 247.000
78.07898 232.000
78.09893 190.000
78.11887 249.000
78.13882 233.000
78.15877 213.000
78.17872 233.000
78.19866 271.000
78.21861 226.000
78.23856 276.000
78.25850 286.000
78.27845 282.000
78.29840 280.000
78.31834 297.000
78.33829 292.000
78.35824 274.000
78.37819 277.000
78.39813 290.000
78.41808 270.000
78.43803 297.000
78.45797 261.000
78.47792 285.000
78.49787 252.000
78.51781 256.000
78.53776 285.000
78.55771 254.000
78.57765 279.000
78.59760 241.000
78.61755 227.000
78.63750 290.000
78.65744 256.000
78.67739 264.000
78.69734 245.000
78.71728 277.000
78.73723 290.000
78.75718 277.000
78.77712 263.000
78.79707 253.000
78.81702 264.000
78.83697 257.000
78.85691 243.000
78.87686 241.000
78.89681 248.000
78.91675 255.000
78.93670 238.000
78.95665 255.000
78.97659 247.000
78.99654 241.000
79.01649 250.000
79.03643 223.000
79.05638 243.000
79.07633 243.000
79.09628 217.000
79.11622 251.000
79.13617 237.000
79.15612 256.000
79.17606 247.000
79.19601 229.000
79.21596 215.000
79.23590 201.000
79.25585 217.000
79.27580 223.000
79.29575 229.000
79.31569 232.000
79.33564 258.000
79.35559 203.000
79.37553 191.000
79.39548 220.000
79.41543 234.000
79.43537 234.000
79.45532 241.000
79.47527 240.000
79.49521 213.000
79.51516 225.000
79.53511 192.000
79.55506 192.000
79.57500 193.000
79.59495 216.000
79.61490 221.000
79.63484 195.000
79.65479 216.000
79.67474 219.000
79.69468 212.000
79.71463 197.000
79.73458 231.000
79.75453 213.000
79.77447 198.000
79.79442 217.000
79.81437 198.000
79.83431 212.000
79.85426 235.000
79.87421 213.000
79.89415 219.000
79.91410 210.000
79.93405 183.000
79.95399 223.000
79.97394 201.000
79.99389 208.000
80.01384 197.000
80.03378 216.000
80.05373 222.000
80.07368 216.000
80.09362 220.000
80.11357 208.000
80.13352 203.000
80.15346 229.000
80.17341 218.000
80.19336 196.000
80.21331 206.000
80.23325 205.000
80.25320 219.000
80.27315 211.000
80.29309 229.000
80.31304 220.000
80.33299 221.000
80.35293 194.000
80.37288 221.000
80.39283 220.000
80.41278 219.000
80.43272 219.000
80.45267 216.000
80.47262 183.000
80.49256 227.000
80.51251 226.000
80.53246 210.000
80.55240 196.000
80.57235 214.000
80.59230 197.000
80.61224 214.000
80.63219 230.000
80.65214 209.000
80.67209 207.000
80.69203 205.000
80.71198 205.000
80.73193 199.000
80.75187 205.000
80.77182 206.000
80.79177 183.000
80.81171 193.000
80.83166 209.000
80.85161 166.000
80.87156 209.000
80.89150 183.000
80.91145 216.000
80.93140 218.000
80.95134 197.000
80.97129 196.000
80.99124 206.000
81.01118 175.000
81.03113 168.000
81.05108 209.000
81.07102 210.000
81.09097 212.000
81.11092 177.000
81.13087 210.000
81.15081 212.000
81.17076 204.000
81.19071 186.000
81.21065 204.000
81.23060 186.000
81.25055 197.000
81.27049 195.000
81.29044 207.000
81.31039 214.000
81.33034 179.000
81.35028 220.000
81.37023 216.000
81.39018 189.000
81.41012 189.000
81.43007 211.000
81.45002 202.000
81.46996 192.000
81.48991 151.000
81.50986 200.000
81.52980 211.000
81.54975 186.000
81.56970 195.000
81.58965 185.000
81.60959 188.000
81.62954 216.000
81.64949 200.000
81.66943 231.000
81.68938 191.000
81.70933 192.000
81.72927 207.000
81.74922 200.000
81.76917 204.000
81.78912 197.000
81.80906 186.000
81.82901 172.000
81.84896 196.000
81.86890 216.000
81.88885 178.000
81.90880 227.000
81.92874 190.000
81.94869 202.000
81.96864 206.000
81.98859 205.000
82.00853 194.000
82.02848 204.000
82.04843 198.000
82.06837 193.000
82.08832 199.000
82.10827 199.000
82.12821 179.000
82.14816 201.000
82.16811 192.000
82.18805 192.000
82.20800 179.000
82.22795 212.000
82.24790 202.000
82.26784 182.000
82.28779 211.000
82.30774 204.000
82.32768 213.000
82.34763 210.000
82.36758 237.000
82.38752 217.000
82.40747 223.000
82.42742 215.000
82.44737 233.000
82.46731 211.000
82.48726 218.000
82.50721 223.000
82.52715 212.000
82.54710 252.000
82.56705 224.000
82.58699 234.000
82.60694 205.000
82.62689 181.000
82.64683 210.000
82.66678 236.000
82.68673 213.000
82.70668 204.000
82.72662 183.000
82.74657 187.000
82.76652 244.000
82.78646 203.000
82.80641 215.000
82.82636 192.000
82.84630 233.000
82.86625 208.000
82.88620 189.000
82.90615 206.000
82.92609 223.000
82.94604 211.000
82.96599 208.000
82.98593 206.000
83.00588 207.000
83.02583 220.000
83.04577 231.000
83.06572 239.000
83.08567 223.000
83.10561 231.000
83.12556 215.000
83.14551 219.000
83.16546 236.000
83.18540 211.000
83.20535 201.000
83.22530 208.000
83.24524 219.000
83.26519 229.000
83.28514 207.000
83.30508 237.000
83.32503 203.000
83.34498 209.000
83.36493 228.000
83.38487 212.000
83.40482 222.000
83.42477 207.000
83.44471 221.000
83.46466 198.000
83.48461 208.000
83.50455 195.000
83.52450 217.000
83.54445 222.000
83.56440 231.000
83.58434 219.000
83.60429 219.000
83.62424 193.000
83.64418 237.000
83.66413 217.000
83.68408 220.000
83.70402 228.000
83.72397 225.000
83.74392 232.000
83.76386 219.000
83.78381 236.000
83.80376 231.000
83.82371 242.000
83.84365 234.000
83.86360 242.000
83.88355 227.000
83.90349 246.000
83.92344 242.000
83.94339 270.000
83.96333 252.000
83.98328 257.000
84.00323 273.000
84.02318 282.000
84.04312 231.000
84.06307 236.000
84.08302 283.000
84.10296 244.000
84.12291 253.000
84.14286 225.000
84.16280 233.000
84.18275 263.000
84.20270 262.000
84.22264 263.000
84.24259 240.000
84.26254 239.000
84.28249 223.000
84.30243 248.000
84.32238 249.000
84.34233 236.000
84.36227 224.000
84.38222 251.000
84.40217 253.000
84.42211 212.000
84.44206 232.000
84.46201 245.000
84.48196 201.000
84.50190 242.000
84.52185 228.000
84.54180 223.000
84.56174 213.000
84.58169 237.000
84.60164 186.000
84.62158 218.000
84.64153 237.000
84.66148 206.000
84.68142 240.000
84.70137 203.000
84.72132 210.000
84.74127 216.000
84.76121 210.000
84.78116 209.000
84.80111 207.000
84.82105 207.000
84.84100 225.000
84.86095 210.000
84.88089 195.000
84.90084 206.000
84.92079 209.000
84.94074 200.000
84.96068 196.000
84.98063 217.000
85.00058 161.000
85.02052 174.000
85.04047 161.000
85.06042 181.000
85.08036 175.000
85.10031 180.000
85.12026 178.000
85.14021 183.000
85.16015 185.000
85.18010 189.000
85.20005 179.000
85.21999 189.000
85.23994 203.000
85.25989 196.000
85.27983 205.000
85.29978 200.000
85.31973 186.000
85.33967 193.000
85.35962 186.000
85.37957 194.000
85.39952 173.000
85.41946 194.000
85.43941 192.000
85.45936 193.000
85.47930 190.000
85.49925 189.000
85.51920 199.000
85.53914 209.000
85.55909 181.000
85.57904 161.000
85.59899 205.000
85.61893 207.000
85.63888 213.000
85.65883 220.000
85.67877 169.000
85.69872 175.000
85.71867 187.000
85.73861 167.000
85.75856 181.000
85.77851 200.000
85.79845 181.000
85.81840 215.000
85.83835 207.000
85.85830 184.000
85.87824 198.000
85.89819 188.000
85.91814 202.000
85.93808 184.000
85.95803 181.000
85.97798 179.000
85.99792 214.000
86.01787 196.000
86.03782 209.000
86.05777 210.000
86.07771 200.000
86.09766 207.000
86.11761 180.000
86.13755 198.000
86.15750 182.000
86.17745 171.000
86.19739 183.000
86.21734 199.000
86.23729 186.000
86.25723 195.000
86.27718 199.000
86.29713 206.000
86.31708 206.000
86.33702 199.000
86.35697 183.000
86.37692 201.000
86.39686 210.000
86.41681 217.000
86.43676 213.000
86.45670 196.000
86.47665 211.000
86.49660 181.000
86.51655 205.000
86.53649 189.000
86.55644 177.000
86.57639 188.000
86.59633 173.000
86.61628 205.000
86.63623 189.000
86.65617 224.000
86.67612 201.000
86.69607 195.000
86.71602 202.000
86.73596 180.000
86.75591 211.000
86.77586 170.000
86.79580 205.000
86.81575 216.000
86.83570 199.000
86.85564 207.000
86.87559 193.000
86.89554 198.000
86.91548 191.000
86.93543 188.000
86.95538 203.000
86.97533 210.000
86.99527 211.000
87.01522 198.000
87.03517 211.000
87.05511 216.000
87.07506 211.000
87.09501 190.000
87.11495 236.000
87.13490 195.000
87.15485 204.000
87.17480 209.000
87.19474 212.000
87.21469 202.000
87.23464 223.000
87.25458 230.000
87.27453 224.000
87.29448 214.000
87.31442 196.000
87.33437 224.000
87.35432 232.000
87.37426 231.000
87.39421 235.000
87.41416 229.000
87.43411 226.000
87.45405 229.000
87.47400 236.000
87.49395 224.000
87.51389 205.000
87.53384 247.000
87.55379 203.000
87.57373 213.000
87.59368 242.000
87.61363 204.000
87.63358 236.000
87.65352 223.000
87.67347 222.000
87.69342 218.000
87.71336 223.000
87.73331 211.000
87.75326 208.000
87.77320 216.000
87.79315 200.000
87.81310 211.000
87.83304 232.000
87.85299 218.000
87.87294 196.000
87.89289 211.000
87.91283 196.000
87.93278 213.000
87.95273 223.000
87.97267 228.000
87.99262 213.000
88.01257 192.000
88.03251 197.000
88.05246 200.000
88.07241 201.000
88.09236 209.000
88.11230 229.000
88.13225 209.000
88.15220 219.000
88.17214 205.000
88.19209 216.000
88.21204 210.000
88.23198 201.000
88.25193 183.000
88.27188 214.000
88.29183 183.000
88.31177 194.000
88.33172 190.000
88.35167 198.000
88.37161 185.000
88.39156 178.000
88.41151 180.000
88.43145 180.000
88.45140 171.000
88.47135 175.000
88.49129 218.000
88.51124 225.000
88.53119 199.000
88.55114 206.000
88.57108 205.000
88.59103 199.000
88.61098 185.000
88.63092 177.000
88.65087 198.000
88.67082 169.000
88.69076 215.000
88.71071 170.000
88.73066 207.000
88.75061 187.000
88.77055 184.000
88.79050 192.000
88.81045 202.000
88.83039 185.000
88.85034 190.000
88.87029 193.000
88.89023 188.000
88.91018 171.000
88.93013 194.000
88.95007 175.000
88.97002 200.000
88.98997 196.000
89.00992 193.000
89.02986 202.000
89.04981 196.000
89.06976 191.000
89.08970 183.000
89.10965 184.000
89.12960 187.000
89.14954 178.000
89.16949 204.000
89.18944 207.000
89.20939 193.000
89.22933 226.000
89.24928 208.000
89.26923 207.000
89.28917 217.000
89.30912 186.000
89.32907 167.000
89.34901 209.000
89.36896 191.000
89.38891 188.000
89.40885 199.000
89.42880 197.000
89.44875 206.000
89.46870 218.000
89.48864 215.000
89.50859 218.000
89.52854 203.000
89.54848 214.000
89.56843 206.000
89.58838 211.000
89.60832 207.000
89.62827 211.000
89.64822 191.000
89.66817 200.000
89.68811 198.000
89.70806 203.000
89.72801 200.000
89.74795 218.000
89.76790 206.000
89.78785 197.000
89.80779 198.000
89.82774 187.000
89.84769 217.000
89.86764 216.000
89.88758 231.000
89.90753 207.000
89.92748 231.000
89.94742 230.000
89.96737 205.000
89.98732 193.000
90.00726 221.000
