10.00000 314.000
10.01995 310.000
10.03989 278.000
10.05984 306.000
10.07979 307.000
10.09973 326.000
10.11968 299.000
10.13963 300.000
10.15958 304.000
10.17952 320.000
10.19947 335.000
10.21942 271.000
10.23936 316.000
10.25931 292.000
10.27926 309.000
10.29920 318.000
10.31915 313.000
10.33910 321.000
10.35905 317.000
10.37899 336.000
10.39894 320.000
10.41889 342.000
10.43883 290.000
10.45878 328.000
10.47873 329.000
10.49867 349.000
10.51862 330.000
10.53857 305.000
10.55851 318.000
10.57846 359.000
10.59841 329.000
10.61836 329.000
10.63830 304.000
10.65825 293.000
10.67820 325.000
10.69814 322.000
10.71809 324.000
10.73804 265.000
10.75798 323.000
10.77793 311.000
10.79788 363.000
10.81783 314.000
10.83777 321.000
10.85772 357.000
10.87767 304.000
10.89761 317.000
10.91756 340.000
10.93751 310.000
10.95745 352.000
10.97740 332.000
10.99735 318.000
11.01730 320.000
11.03724 304.000
11.05719 361.000
11.07714 340.000
11.09708 333.000
11.11703 306.000
11.13698 309.000
11.15692 324.000
11.17687 353.000
11.19682 299.000
11.21676 362.000
11.23671 335.000
11.25666 358.000
11.27661 343.000
11.29655 358.000
11.31650 318.000
11.33645 343.000
11.35639 357.000
11.37634 327.000
11.39629 318.000
11.41623 346.000
11.43618 365.000
11.45613 364.000
11.47608 321.000
11.49602 328.000
11.51597 301.000
11.53592 333.000
11.55586 316.000
11.57581 336.000
11.59576 331.000
11.61570 355.000
11.63565 363.000
11.65560 354.000
11.67554 369.000
11.69549 365.000
11.71544 406.000
11.73539 337.000
11.75533 352.000
11.77528 335.000
11.79523 361.000
11.81517 372.000
11.83512 383.000
11.85507 336.000
11.87501 345.000
11.89496 347.000
11.91491 380.000
11.93486 358.000
11.95480 376.000
11.97475 379.000
11.99470 344.000
12.01464 356.000
12.03459 371.000
12.05454 383.000
12.07448 361.000
12.09443 347.000
12.11438 362.000
12.13432 372.000
12.15427 364.000
12.17422 375.000
12.19417 356.000
12.21411 361.000
12.23406 341.000
12.25401 357.000
12.27395 367.000
12.29390 352.000
12.31385 371.000
12.33379 339.000
12.35374 344.000
12.37369 347.000
12.39364 364.000
12.41358 379.000
12.43353 344.000
12.45348 355.000
12.47342 370.000
12.49337 379.000
12.51332 360.000
12.53326 356.000
12.55321 370.000
12.57316 357.000
12.59311 346.000
12.61305 341.000
12.63300 375.000
12.65295 359.000
12.67289 375.000
12.69284 370.000
12.71279 371.000
12.73273 366.000
12.75268 385.000
12.77263 382.000
12.79257 367.000
12.81252 377.000
12.83247 359.000
12.85242 331.000
12.87236 375.000
12.89231 391.000
12.91226 385.000
12.93220 338.000
12.95215 397.000
12.97210 407.000
12.99204 376.000
13.01199 365.000
13.03194 377.000
13.05189 373.000
13.07183 371.000
13.09178 372.000
13.11173 387.000
13.13167 385.000
13.15162 388.000
13.17157 383.000
13.19151 360.000
13.21146 407.000
13.23141 396.000
13.25135 394.000
13.27130 347.000
13.29125 356.000
13.31120 376.000
13.33114 393.000
13.35109 385.000
13.37104 370.000
13.39098 412.000
13.41093 359.000
13.43088 361.000
13.45082 401.000
13.47077 365.000
13.49072 408.000
13.51067 399.000
13.53061 377.000
13.55056 405.000
13.57051 371.000
13.59045 390.000
13.61040 353.000
13.63035 399.000
13.65029 371.000
13.67024 357.000
13.69019 373.000
13.71013 403.000
13.73008 369.000
13.75003 369.000
13.76998 357.000
13.78992 395.000
13.80987 386.000
13.82982 363.000
13.84976 352.000
13.86971 374.000
13.88966 358.000
13.90960 392.000
13.92955 389.000
13.94950 365.000
13.96945 393.000
13.98939 377.000
14.00934 354.000
14.02929 369.000
14.04923 413.000
14.06918 377.000
14.08913 415.000
14.10907 397.000
14.12902 374.000
14.14897 418.000
14.16892 426.000
14.18886 408.000
14.20881 408.000
14.22876 429.000
14.24870 412.000
14.26865 367.000
14.28860 409.000
14.30854 397.000
14.32849 387.000
14.34844 397.000
14.36838 389.000
14.38833 403.000
14.40828 428.000
14.42823 412.000
14.44817 372.000
14.46812 403.000
14.48807 356.000
14.50801 365.000
14.52796 403.000
14.54791 380.000
14.56785 349.000
14.58780 405.000
14.60775 385.000
14.62770 399.000
14.64764 434.000
14.66759 385.000
14.68754 397.000
14.70748 402.000
14.72743 434.000
14.74738 417.000
14.76732 397.000
14.78727 395.000
14.80722 398.000
14.82716 402.000
14.84711 380.000
14.86706 398.000
14.88701 425.000
14.90695 428.000
14.92690 408.000
14.94685 407.000
14.96679 413.000
14.98674 385.000
15.00669 423.000
15.02663 420.000
15.04658 410.000
15.06653 439.000
15.08648 409.000
15.10642 419.000
15.12637 444.000
15.14632 437.000
15.16626 458.000
15.18621 396.000
15.20616 433.000
15.22610 437.000
15.24605 458.000
15.26600 411.000
15.28594 418.000
15.30589 507.000
15.32584 421.000
15.34579 439.000
15.36573 445.000
15.38568 462.000
15.40563 479.000
15.42557 483.000
15.44552 470.000
15.46547 528.000
15.48541 562.000
15.50536 584.000
15.52531 618.000
15.54526 681.000
15.56520 855.000
15.58515 937.000
15.60510 1209.000
15.62504 1498.000
15.64499 1800.000
15.66494 2379.000
15.68488 2866.000
15.70483 3265.000
15.72478 3796.000
15.74472 3976.000
15.76467 3811.000
15.78462 3170.000
15.80457 2361.000
15.82451 1624.000
15.84446 1217.000
15.86441 880.000
15.88435 782.000
15.90430 662.000
15.92425 597.000
15.94419 520.000
15.96414 528.000
15.98409 422.000
16.00404 466.000
16.02398 449.000
16.04393 484.000
16.06388 489.000
16.08382 497.000
16.10377 467.000
16.12372 468.000
16.14366 418.000
16.16361 463.000
16.18356 436.000
16.20351 438.000
16.22345 450.000
16.24340 409.000
16.26335 450.000
16.28329 407.000
16.30324 451.000
16.32319 458.000
16.34313 451.000
16.36308 457.000
16.38303 446.000
16.40297 451.000
16.42292 451.000
16.44287 445.000
16.46282 457.000
16.48276 465.000
16.50271 447.000
16.52266 426.000
16.54260 468.000
16.56255 439.000
16.58250 445.000
16.60244 458.000
16.62239 480.000
16.64234 556.000
16.66229 514.000
16.68223 551.000
16.70218 580.000
16.72213 553.000
16.74207 573.000
16.76202 575.000
16.78197 525.000
16.80191 485.000
16.82186 494.000
16.84181 486.000
16.86175 477.000
16.88170 413.000
16.90165 401.000
16.92160 441.000
16.94154 444.000
16.96149 434.000
16.98144 436.000
17.00138 414.000
17.02133 432.000
17.04128 399.000
17.06122 429.000
17.08117 448.000
17.10112 420.000
17.12107 424.000
17.14101 408.000
17.16096 423.000
17.18091 399.000
17.20085 406.000
17.22080 429.000
17.24075 376.000
17.26069 419.000
17.28064 446.000
17.30059 441.000
17.32053 457.000
17.34048 408.000
17.36043 443.000
17.38038 424.000
17.40032 438.000
17.42027 461.000
17.44022 427.000
17.46016 451.000
17.48011 404.000
17.50006 421.000
17.52000 420.000
17.53995 435.000
17.55990 417.000
17.57985 437.000
17.59979 431.000
17.61974 394.000
17.63969 425.000
17.65963 405.000
17.67958 381.000
17.69953 468.000
17.71947 425.000
17.73942 438.000
17.75937 379.000
17.77932 438.000
17.79926 424.000
17.81921 427.000
17.83916 419.000
17.85910 448.000
17.87905 417.000
17.89900 393.000
17.91894 451.000
17.93889 406.000
17.95884 446.000
17.97878 400.000
17.99873 464.000
18.01868 410.000
18.03863 453.000
18.05857 413.000
18.07852 430.000
18.09847 452.000
18.11841 418.000
18.13836 405.000
18.15831 411.000
18.17825 407.000
18.19820 422.000
18.21815 453.000
18.23810 446.000
18.25804 410.000
18.27799 418.000
18.29794 402.000
18.31788 407.000
18.33783 427.000
18.35778 433.000
18.37772 441.000
18.39767 443.000
18.41762 460.000
18.43756 432.000
18.45751 446.000
18.47746 420.000
18.49741 470.000
18.51735 447.000
18.53730 472.000
18.55725 407.000
18.57719 427.000
18.59714 465.000
18.61709 401.000
18.63703 443.000
18.65698 386.000
18.67693 402.000
18.69688 426.000
18.71682 412.000
18.73677 445.000
18.75672 416.000
18.77666 440.000
18.79661 462.000
18.81656 424.000
18.83650 456.000
18.85645 436.000
18.87640 417.000
18.89634 428.000
18.91629 443.000
18.93624 442.000
18.95619 424.000
18.97613 390.000
18.99608 427.000
19.01603 446.000
19.03597 477.000
19.05592 393.000
19.07587 393.000
19.09581 418.000
19.11576 437.000
19.13571 433.000
19.15566 442.000
19.17560 442.000
19.19555 399.000
19.21550 429.000
19.23544 414.000
19.25539 471.000
19.27534 414.000
19.29528 445.000
19.31523 413.000
19.33518 436.000
19.35513 409.000
19.37507 433.000
19.39502 431.000
19.41497 438.000
19.43491 426.000
19.45486 437.000
19.47481 434.000
19.49475 451.000
19.51470 424.000
19.53465 428.000
19.55459 420.000
19.57454 467.000
19.59449 415.000
19.61444 414.000
19.63438 469.000
19.65433 457.000
19.67428 465.000
19.69422 479.000
19.71417 448.000
19.73412 419.000
19.75406 462.000
19.77401 477.000
19.79396 447.000
19.81391 444.000
19.83385 447.000
19.85380 458.000
19.87375 477.000
19.89369 477.000
19.91364 448.000
19.93359 478.000
19.95353 464.000
19.97348 422.000
19.99343 434.000
20.01337 455.000
20.03332 444.000
20.05327 424.000
20.07322 412.000
20.09316 399.000
20.11311 424.000
20.13306 430.000
20.15300 459.000
20.17295 463.000
20.19290 434.000
20.21284 443.000
20.23279 445.000
20.25274 428.000
20.27269 406.000
20.29263 445.000
20.31258 453.000
20.33253 446.000
20.35247 447.000
20.37242 521.000
20.39237 480.000
20.41231 448.000
20.43226 467.000
20.45221 476.000
20.47215 446.000
20.49210 460.000
20.51205 448.000
20.53200 464.000
20.55194 484.000
20.57189 479.000
20.59184 448.000
20.61178 461.000
20.63173 452.000
20.65168 449.000
20.67162 436.000
20.69157 456.000
20.71152 478.000
20.73147 494.000
20.75141 481.000
20.77136 541.000
20.79131 543.000
20.81125 544.000
20.83120 544.000
20.85115 542.000
20.87109 580.000
20.89104 610.000
20.91099 651.000
20.93094 666.000
20.95088 731.000
20.97083 767.000
20.99078 728.000
21.01072 708.000
21.03067 708.000
21.05062 706.000
21.07056 634.000
21.09051 580.000
21.11046 550.000
21.13040 524.000
21.15035 505.000
21.17030 471.000
21.19025 521.000
21.21019 421.000
21.23014 461.000
21.25009 484.000
21.27003 451.000
21.28998 488.000
21.30993 447.000
21.32987 418.000
21.34982 431.000
21.36977 477.000
21.38972 465.000
21.40966 480.000
21.42961 449.000
21.44956 440.000
21.46950 466.000
21.48945 458.000
21.50940 425.000
21.52934 457.000
21.54929 454.000
21.56924 472.000
21.58918 474.000
21.60913 430.000
21.62908 445.000
21.64903 437.000
21.66897 474.000
21.68892 485.000
21.70887 459.000
21.72881 452.000
21.74876 438.000
21.76871 453.000
21.78865 427.000
21.80860 472.000
21.82855 448.000
21.84850 450.000
21.86844 507.000
21.88839 464.000
21.90834 426.000
21.92828 421.000
21.94823 476.000
21.96818 500.000
21.98812 470.000
22.00807 407.000
22.02802 468.000
22.04796 472.000
22.06791 441.000
22.08786 483.000
22.10781 436.000
22.12775 458.000
22.14770 475.000
22.16765 450.000
22.18759 446.000
22.20754 422.000
22.22749 480.000
22.24743 452.000
22.26738 494.000
22.28733 454.000
22.30728 440.000
22.32722 458.000
22.34717 462.000
22.36712 460.000
22.38706 456.000
22.40701 457.000
22.42696 446.000
22.44690 480.000
22.46685 443.000
22.48680 443.000
22.50675 447.000
22.52669 446.000
22.54664 438.000
22.56659 455.000
22.58653 448.000
22.60648 479.000
22.62643 420.000
22.64637 427.000
22.66632 432.000
22.68627 439.000
22.70621 457.000
22.72616 470.000
22.74611 467.000
22.76606 476.000
22.78600 470.000
22.80595 429.000
22.82590 447.000
22.84584 438.000
22.86579 469.000
22.88574 496.000
22.90568 445.000
22.92563 459.000
22.94558 481.000
22.96553 508.000
22.98547 482.000
23.00542 481.000
23.02537 496.000
23.04531 456.000
23.06526 449.000
23.08521 439.000
23.10515 448.000
23.12510 449.000
23.14505 460.000
23.16499 460.000
23.18494 480.000
23.20489 420.000
23.22484 459.000
23.24478 464.000
23.26473 440.000
23.28468 472.000
23.30462 425.000
23.32457 475.000
23.34452 481.000
23.36446 453.000
23.38441 427.000
23.40436 476.000
23.42431 476.000
23.44425 447.000
23.46420 473.000
23.48415 470.000
23.50409 497.000
23.52404 463.000
23.54399 439.000
23.56393 453.000
23.58388 485.000
23.60383 449.000
23.62377 487.000
23.64372 483.000
23.66367 462.000
23.68362 449.000
23.70356 481.000
23.72351 455.000
23.74346 506.000
23.76340 474.000
23.78335 481.000
23.80330 474.000
23.82324 496.000
23.84319 467.000
23.86314 444.000
23.88309 457.000
23.90303 470.000
23.92298 467.000
23.94293 492.000
23.96287 471.000
23.98282 481.000
24.00277 499.000
24.02271 465.000
24.04266 497.000
24.06261 444.000
24.08256 458.000
24.10250 427.000
24.12245 479.000
24.14240 487.000
24.16234 464.000
24.18229 496.000
24.20224 468.000
24.22218 487.000
24.24213 468.000
24.26208 458.000
24.28202 446.000
24.30197 494.000
24.32192 419.000
24.34187 479.000
24.36181 474.000
24.38176 477.000
24.40171 464.000
24.42165 471.000
24.44160 463.000
24.46155 469.000
24.48149 473.000
24.50144 474.000
24.52139 470.000
24.54134 489.000
24.56128 469.000
24.58123 467.000
24.60118 434.000
24.62112 515.000
24.64107 477.000
24.66102 475.000
24.68096 498.000
24.70091 498.000
24.72086 485.000
24.74080 464.000
24.76075 508.000
24.78070 521.000
24.80065 545.000
24.82059 491.000
24.84054 558.000
24.86049 525.000
24.88043 545.000
24.90038 574.000
24.92033 555.000
24.94027 584.000
24.96022 560.000
24.98017 485.000
25.00012 505.000
25.02006 517.000
25.04001 491.000
25.05996 465.000
25.07990 490.000
25.09985 472.000
25.11980 486.000
25.13974 470.000
25.15969 484.000
25.17964 491.000
25.19958 461.000
25.21953 431.000
25.23948 497.000
25.25943 457.000
25.27937 442.000
25.29932 463.000
25.31927 436.000
25.33921 487.000
25.35916 483.000
25.37911 500.000
25.39905 465.000
25.41900 466.000
25.43895 476.000
25.45890 484.000
25.47884 477.000
25.49879 486.000
25.51874 456.000
25.53868 500.000
25.55863 460.000
25.57858 491.000
25.59852 479.000
25.61847 449.000
25.63842 459.000
25.65837 487.000
25.67831 465.000
25.69826 493.000
25.71821 441.000
25.73815 456.000
25.75810 451.000
25.77805 497.000
25.79799 491.000
25.81794 473.000
25.83789 466.000
25.85783 516.000
25.87778 505.000
25.89773 472.000
25.91768 461.000
25.93762 493.000
25.95757 474.000
25.97752 472.000
25.99746 497.000
26.01741 503.000
26.03736 459.000
26.05730 493.000
26.07725 519.000
26.09720 448.000
26.11715 464.000
26.13709 465.000
26.15704 460.000
26.17699 484.000
26.19693 468.000
26.21688 474.000
26.23683 470.000
26.25677 465.000
26.27672 454.000
26.29667 523.000
26.31661 518.000
26.33656 501.000
26.35651 502.000
26.37646 469.000
26.39640 473.000
26.41635 504.000
26.43630 516.000
26.45624 488.000
26.47619 513.000
26.49614 509.000
26.51608 502.000
26.53603 501.000
26.55598 523.000
26.57593 520.000
26.59587 470.000
26.61582 505.000
26.63577 513.000
26.65571 558.000
26.67566 500.000
26.69561 460.000
26.71555 503.000
26.73550 506.000
26.75545 488.000
26.77539 475.000
26.79534 490.000
26.81529 472.000
26.83524 523.000
26.85518 539.000
26.87513 473.000
26.89508 522.000
26.91502 452.000
26.93497 508.000
26.95492 529.000
26.97486 496.000
26.99481 524.000
27.01476 521.000
27.03471 494.000
27.05465 531.000
27.07460 515.000
27.09455 501.000
27.11449 507.000
27.13444 505.000
27.15439 494.000
27.17433 517.000
27.19428 564.000
27.21423 488.000
27.23417 543.000
27.25412 513.000
27.27407 506.000
27.29402 466.000
27.31396 481.000
27.33391 517.000
27.35386 549.000
27.37380 504.000
27.39375 486.000
27.41370 520.000
27.43364 497.000
27.45359 484.000
27.47354 545.000
27.49349 515.000
27.51343 513.000
27.53338 538.000
27.55333 496.000
27.57327 494.000
27.59322 511.000
27.61317 529.000
27.63311 481.000
27.65306 455.000
27.67301 519.000
27.69296 525.000
27.71290 508.000
27.73285 486.000
27.75280 516.000
27.77274 527.000
27.79269 491.000
27.81264 487.000
27.83258 562.000
27.85253 516.000
27.87248 516.000
27.89242 544.000
27.91237 503.000
27.93232 491.000
27.95227 496.000
27.97221 495.000
27.99216 515.000
28.01211 500.000
28.03205 492.000
28.05200 490.000
28.07195 512.000
28.09189 495.000
28.11184 522.000
28.13179 483.000
28.15174 531.000
28.17168 493.000
28.19163 525.000
28.21158 523.000
28.23152 561.000
28.25147 558.000
28.27142 562.000
28.29136 543.000
28.31131 554.000
28.33126 543.000
28.35120 524.000
28.37115 504.000
28.39110 519.000
28.41105 513.000
28.43099 515.000
28.45094 524.000
28.47089 538.000
28.49083 516.000
28.51078 537.000
28.53073 507.000
28.55067 533.000
28.57062 500.000
28.59057 499.000
28.61052 505.000
28.63046 555.000
28.65041 503.000
28.67036 543.000
28.69030 519.000
28.71025 510.000
28.73020 493.000
28.75014 523.000
28.77009 562.000
28.79004 499.000
28.80998 522.000
28.82993 512.000
28.84988 521.000
28.86983 546.000
28.88977 537.000
28.90972 536.000
28.92967 516.000
28.94961 519.000
28.96956 534.000
28.98951 519.000
29.00945 534.000
29.02940 570.000
29.04935 584.000
29.06930 576.000
29.08924 599.000
29.10919 621.000
29.12914 676.000
29.14908 626.000
29.16903 719.000
29.18898 775.000
29.20892 850.000
29.22887 850.000
29.24882 942.000
29.26877 883.000
29.28871 869.000
29.30866 894.000
29.32861 883.000
29.34855 833.000
29.36850 754.000
29.38845 687.000
29.40839 678.000
29.42834 620.000
29.44829 609.000
29.46823 542.000
29.48818 578.000
29.50813 639.000
29.52808 573.000
29.54802 571.000
29.56797 556.000
29.58792 540.000
29.60786 514.000
29.62781 540.000
29.64776 552.000
29.66770 536.000
29.68765 517.000
29.70760 481.000
29.72755 504.000
29.74749 520.000
29.76744 489.000
29.78739 535.000
29.80733 535.000
29.82728 537.000
29.84723 543.000
29.86717 495.000
29.88712 562.000
29.90707 527.000
29.92701 556.000
29.94696 566.000
29.96691 551.000
29.98686 554.000
30.00680 545.000
30.02675 588.000
30.04670 513.000
30.06664 511.000
30.08659 542.000
30.10654 559.000
30.12648 551.000
30.14643 501.000
30.16638 506.000
30.18633 554.000
30.20627 567.000
30.22622 487.000
30.24617 539.000
30.26611 539.000
30.28606 557.000
30.30601 555.000
30.32595 550.000
30.34590 516.000
30.36585 507.000
30.38579 549.000
30.40574 535.000
30.42569 511.000
30.44564 496.000
30.46558 555.000
30.48553 488.000
30.50548 516.000
30.52542 530.000
30.54537 532.000
30.56532 550.000
30.58526 522.000
30.60521 506.000
30.62516 519.000
30.64511 525.000
30.66505 544.000
30.68500 492.000
30.70495 527.000
30.72489 537.000
30.74484 555.000
30.76479 558.000
30.78473 519.000
30.80468 566.000
30.82463 559.000
30.84458 529.000
30.86452 548.000
30.88447 547.000
30.90442 505.000
30.92436 544.000
30.94431 529.000
30.96426 518.000
30.98420 511.000
31.00415 528.000
31.02410 543.000
31.04404 536.000
31.06399 561.000
31.08394 493.000
31.10389 541.000
31.12383 535.000
31.14378 521.000
31.16373 543.000
31.18367 546.000
31.20362 550.000
31.22357 531.000
31.24351 544.000
31.26346 549.000
31.28341 575.000
31.30336 595.000
31.32330 506.000
31.34325 550.000
31.36320 533.000
31.38314 555.000
31.40309 565.000
31.42304 530.000
31.44298 575.000
31.46293 529.000
31.48288 545.000
31.50282 534.000
31.52277 535.000
31.54272 553.000
31.56267 560.000
31.58261 564.000
31.60256 582.000
31.62251 565.000
31.64245 553.000
31.66240 559.000
31.68235 564.000
31.70229 531.000
31.72224 574.000
31.74219 556.000
31.76214 641.000
31.78208 631.000
31.80203 632.000
31.82198 666.000
31.84192 737.000
31.86187 786.000
31.88182 786.000
31.90176 843.000
31.92171 910.000
31.94166 942.000
31.96160 849.000
31.98155 882.000
32.00150 793.000
32.02145 784.000
32.04139 705.000
32.06134 637.000
32.08129 634.000
32.10123 645.000
32.12118 556.000
32.14113 604.000
32.16107 587.000
32.18102 587.000
32.20097 571.000
32.22092 636.000
32.24086 595.000
32.26081 684.000
32.28076 744.000
32.30070 769.000
32.32065 781.000
32.34060 828.000
32.36054 867.000
32.38049 813.000
32.40044 763.000
32.42039 805.000
32.44033 770.000
32.46028 742.000
32.48023 668.000
32.50017 659.000
32.52012 625.000
32.54007 583.000
32.56001 582.000
32.57996 595.000
32.59991 542.000
32.61985 535.000
32.63980 509.000
32.65975 529.000
32.67970 540.000
32.69964 525.000
32.71959 551.000
32.73954 538.000
32.75948 571.000
32.77943 533.000
32.79938 517.000
32.81932 512.000
32.83927 564.000
32.85922 509.000
32.87917 569.000
32.89911 555.000
32.91906 500.000
32.93901 512.000
32.95895 532.000
32.97890 540.000
32.99885 516.000
33.01879 517.000
33.03874 543.000
33.05869 535.000
33.07863 526.000
33.09858 566.000
33.11853 497.000
33.13848 535.000
33.15842 553.000
33.17837 520.000
33.19832 506.000
33.21826 506.000
33.23821 511.000
33.25816 522.000
33.27810 524.000
33.29805 540.000
33.31800 569.000
33.33795 533.000
33.35789 539.000
33.37784 543.000
33.39779 539.000
33.41773 497.000
33.43768 535.000
33.45763 538.000
33.47757 519.000
33.49752 589.000
33.51747 536.000
33.53741 536.000
33.55736 561.000
33.57731 556.000
33.59726 539.000
33.61720 512.000
33.63715 563.000
33.65710 519.000
33.67704 497.000
33.69699 550.000
33.71694 530.000
33.73688 560.000
33.75683 520.000
33.77678 550.000
33.79673 525.000
33.81667 519.000
33.83662 544.000
33.85657 563.000
33.87651 531.000
33.89646 569.000
33.91641 557.000
33.93635 583.000
33.95630 561.000
33.97625 590.000
33.99620 579.000
34.01614 542.000
34.03609 567.000
34.05604 575.000
34.07598 583.000
34.09593 588.000
34.11588 571.000
34.13582 581.000
34.15577 576.000
34.17572 557.000
34.19566 588.000
34.21561 588.000
34.23556 557.000
34.25551 593.000
34.27545 606.000
34.29540 594.000
34.31535 605.000
34.33529 620.000
34.35524 614.000
34.37519 630.000
34.39513 685.000
34.41508 678.000
34.43503 661.000
34.45498 689.000
34.47492 714.000
34.49487 684.000
34.51482 676.000
34.53476 697.000
34.55471 753.000
34.57466 781.000
34.59460 820.000
34.61455 789.000
34.63450 816.000
34.65444 875.000
34.67439 918.000
34.69434 838.000
34.71429 936.000
34.73423 917.000
34.75418 933.000
34.77413 924.000
34.79407 914.000
34.81402 864.000
34.83397 812.000
34.85391 782.000
34.87386 720.000
34.89381 770.000
34.91376 765.000
34.93370 711.000
34.95365 707.000
34.97360 773.000
34.99354 780.000
35.01349 763.000
35.03344 814.000
35.05338 772.000
35.07333 829.000
35.09328 807.000
35.11322 926.000
35.13317 911.000
35.15312 1064.000
35.17307 1093.000
35.19301 1197.000
35.21296 1388.000
35.23291 1587.000
35.25285 1800.000
35.27280 2055.000
35.29275 2547.000
35.31269 2872.000
35.33264 3149.000
35.35259 3525.000
35.37254 3780.000
35.39248 3986.000
35.41243 3945.000
35.43238 3904.000
35.45232 3691.000
35.47227 3337.000
35.49222 3039.000
35.51216 2634.000
35.53211 2227.000
35.55206 1972.000
35.57201 1697.000
35.59195 1420.000
35.61190 1174.000
35.63185 1110.000
35.65179 993.000
35.67174 1023.000
35.69169 1005.000
35.71163 956.000
35.73158 1061.000
35.75153 1018.000
35.77147 1042.000
35.79142 1082.000
35.81137 1042.000
35.83132 1001.000
35.85126 957.000
35.87121 885.000
35.89116 823.000
35.91110 775.000
35.93105 758.000
35.95100 661.000
35.97094 688.000
35.99089 656.000
36.01084 603.000
36.03079 568.000
36.05073 595.000
36.07068 622.000
36.09063 620.000
36.11057 591.000
36.13052 583.000
36.15047 573.000
36.17041 612.000
36.19036 613.000
36.21031 594.000
36.23025 638.000
36.25020 604.000
36.27015 615.000
36.29010 633.000
36.31004 644.000
36.32999 631.000
36.34994 611.000
36.36988 630.000
36.38983 554.000
36.40978 587.000
36.42972 595.000
36.44967 612.000
36.46962 625.000
36.48957 620.000
36.50951 592.000
36.52946 599.000
36.54941 603.000
36.56935 573.000
36.58930 609.000
36.60925 596.000
36.62919 572.000
36.64914 622.000
36.66909 647.000
36.68903 630.000
36.70898 641.000
36.72893 623.000
36.74888 607.000
36.76882 616.000
36.78877 642.000
36.80872 640.000
36.82866 662.000
36.84861 677.000
36.86856 681.000
36.88850 656.000
36.90845 775.000
36.92840 837.000
36.94835 906.000
36.96829 1040.000
36.98824 1114.000
37.00819 1205.000
37.02813 1245.000
37.04808 1160.000
37.06803 1207.000
37.08797 1214.000
37.10792 1107.000
37.12787 1099.000
37.14781 1013.000
37.16776 1044.000
37.18771 908.000
37.20766 816.000
37.22760 782.000
37.24755 748.000
37.26750 769.000
37.28744 703.000
37.30739 670.000
37.32734 591.000
37.34728 627.000
37.36723 609.000
37.38718 645.000
37.40713 633.000
37.42707 548.000
37.44702 614.000
37.46697 581.000
37.48691 635.000
37.50686 582.000
37.52681 561.000
37.54675 593.000
37.56670 553.000
37.58665 585.000
37.60660 570.000
37.62654 597.000
37.64649 598.000
37.66644 558.000
37.68638 579.000
37.70633 591.000
37.72628 596.000
37.74622 578.000
37.76617 593.000
37.78612 646.000
37.80606 633.000
37.82601 632.000
37.84596 611.000
37.86591 616.000
37.88585 607.000
37.90580 665.000
37.92575 685.000
37.94569 619.000
37.96564 688.000
37.98559 672.000
38.00553 664.000
38.02548 704.000
38.04543 701.000
38.06538 710.000
38.08532 725.000
38.10527 782.000
38.12522 759.000
38.14516 766.000
38.16511 808.000
38.18506 809.000
38.20500 797.000
38.22495 877.000
38.24490 883.000
38.26484 919.000
38.28479 1000.000
38.30474 1043.000
38.32469 1080.000
38.34463 1205.000
38.36458 1302.000
38.38453 1503.000
38.40447 1686.000
38.42442 1793.000
38.44437 2104.000
38.46431 2506.000
38.48426 2821.000
38.50421 3179.000
38.52416 3422.000
38.54410 3467.000
38.56405 3364.000
38.58400 3115.000
38.60394 3075.000
38.62389 2939.000
38.64384 2687.000
38.66378 2350.000
38.68373 2219.000
38.70368 1817.000
38.72362 1732.000
38.74357 1525.000
38.76352 1451.000
38.78347 1417.000
38.80341 1374.000
38.82336 1388.000
38.84331 1318.000
38.86325 1357.000
38.88320 1374.000
38.90315 1336.000
38.92309 1398.000
38.94304 1259.000
38.96299 1254.000
38.98294 1146.000
39.00288 1108.000
39.02283 997.000
39.04278 979.000
39.06272 890.000
39.08267 860.000
39.10262 784.000
39.12256 800.000
39.14251 803.000
39.16246 790.000
39.18241 862.000
39.20235 854.000
39.22230 862.000
39.24225 931.000
39.26219 934.000
39.28214 1068.000
39.30209 1182.000
39.32203 1222.000
39.34198 1292.000
39.36193 1289.000
39.38187 1217.000
39.40182 1162.000
39.42177 1067.000
39.44172 1006.000
39.46166 972.000
39.48161 984.000
39.50156 854.000
39.52150 768.000
39.54145 757.000
39.56140 689.000
39.58134 668.000
39.60129 608.000
39.62124 646.000
39.64119 622.000
39.66113 569.000
39.68108 610.000
39.70103 606.000
39.72097 600.000
39.74092 545.000
39.76087 598.000
39.78081 567.000
39.80076 547.000
39.82071 557.000
39.84065 564.000
39.86060 606.000
39.88055 540.000
39.90050 547.000
39.92044 546.000
39.94039 554.000
39.96034 561.000
39.98028 575.000
40.00023 529.000
40.02018 561.000
40.04012 467.000
40.06007 560.000
40.08002 529.000
40.09997 513.000
40.11991 520.000
40.13986 532.000
40.15981 530.000
40.17975 520.000
40.19970 546.000
40.21965 562.000
40.23959 538.000
40.25954 514.000
40.27949 517.000
40.29943 509.000
40.31938 500.000
40.33933 525.000
40.35928 502.000
40.37922 540.000
40.39917 522.000
40.41912 516.000
40.43906 529.000
40.45901 528.000
40.47896 510.000
40.49890 532.000
40.51885 519.000
40.53880 507.000
40.55875 534.000
40.57869 541.000
40.59864 510.000
40.61859 499.000
40.63853 518.000
40.65848 533.000
40.67843 503.000
40.69837 525.000
40.71832 484.000
40.73827 477.000
40.75822 510.000
40.77816 491.000
40.79811 514.000
40.81806 492.000
40.83800 560.000
40.85795 518.000
40.87790 491.000
40.89784 514.000
40.91779 547.000
40.93774 483.000
40.95768 520.000
40.97763 499.000
40.99758 534.000
41.01753 498.000
41.03747 498.000
41.05742 501.000
41.07737 541.000
41.09731 532.000
41.11726 497.000
41.13721 537.000
41.15715 530.000
41.17710 552.000
41.19705 525.000
41.21700 510.000
41.23694 546.000
41.25689 498.000
41.27684 508.000
41.29678 523.000
41.31673 502.000
41.33668 486.000
41.35662 507.000
41.37657 532.000
41.39652 504.000
41.41646 486.000
41.43641 515.000
41.45636 498.000
41.47631 515.000
41.49625 501.000
41.51620 529.000
41.53615 492.000
41.55609 523.000
41.57604 513.000
41.59599 534.000
41.61593 511.000
41.63588 538.000
41.65583 508.000
41.67578 484.000
41.69572 508.000
41.71567 511.000
41.73562 529.000
41.75556 547.000
41.77551 483.000
41.79546 501.000
41.81540 515.000
41.83535 561.000
41.85530 516.000
41.87524 514.000
41.89519 520.000
41.91514 533.000
41.93509 537.000
41.95503 536.000
41.97498 495.000
41.99493 533.000
42.01487 525.000
42.03482 506.000
42.05477 525.000
42.07471 511.000
42.09466 535.000
42.11461 524.000
42.13456 519.000
42.15450 519.000
42.17445 547.000
42.19440 573.000
42.21434 557.000
42.23429 550.000
42.25424 530.000
42.27418 511.000
42.29413 528.000
42.31408 485.000
42.33403 538.000
42.35397 537.000
42.37392 548.000
42.39387 574.000
42.41381 555.000
42.43376 526.000
42.45371 516.000
42.47365 553.000
42.49360 596.000
42.51355 515.000
42.53349 526.000
42.55344 589.000
42.57339 530.000
42.59334 554.000
42.61328 586.000
42.63323 530.000
42.65318 543.000
42.67312 606.000
42.69307 622.000
42.71302 603.000
42.73296 625.000
42.75291 670.000
42.77286 687.000
42.79281 674.000
42.81275 752.000
42.83270 763.000
42.85265 718.000
42.87259 813.000
42.89254 816.000
42.91249 851.000
42.93243 944.000
42.95238 970.000
42.97233 993.000
42.99227 1088.000
43.01222 1116.000
43.03217 1096.000
43.05212 1182.000
43.07206 1134.000
43.09201 1205.000
43.11196 1159.000
43.13190 1197.000
43.15185 1159.000
43.17180 1112.000
43.19174 1030.000
43.21169 974.000
43.23164 972.000
43.25159 937.000
43.27153 913.000
43.29148 854.000
43.31143 899.000
43.33137 804.000
43.35132 802.000
43.37127 789.000
43.39121 883.000
43.41116 843.000
43.43111 830.000
43.45105 880.000
43.47100 835.000
43.49095 781.000
43.51090 852.000
43.53084 810.000
43.55079 769.000
43.57074 716.000
43.59068 677.000
43.61063 658.000
43.63058 635.000
43.65052 607.000
43.67047 572.000
43.69042 597.000
43.71037 556.000
43.73031 539.000
43.75026 537.000
43.77021 534.000
43.79015 534.000
43.81010 537.000
43.83005 561.000
43.84999 533.000
43.86994 509.000
43.88989 539.000
43.90984 493.000
43.92978 511.000
43.94973 514.000
43.96968 535.000
43.98962 493.000
44.00957 547.000
44.02952 498.000
44.04946 500.000
44.06941 509.000
44.08936 490.000
44.10930 555.000
44.12925 502.000
44.14920 468.000
44.16915 511.000
44.18909 520.000
44.20904 531.000
44.22899 497.000
44.24893 489.000
44.26888 518.000
44.28883 502.000
44.30877 525.000
44.32872 520.000
44.34867 522.000
44.36862 501.000
44.38856 542.000
44.40851 513.000
44.42846 517.000
44.44840 456.000
44.46835 514.000
44.48830 494.000
44.50824 524.000
44.52819 523.000
44.54814 555.000
44.56808 494.000
44.58803 499.000
44.60798 519.000
44.62793 539.000
44.64787 554.000
44.66782 518.000
44.68777 547.000
44.70771 504.000
44.72766 501.000
44.74761 527.000
44.76755 549.000
44.78750 493.000
44.80745 577.000
44.82740 499.000
44.84734 518.000
44.86729 490.000
44.88724 500.000
44.90718 526.000
44.92713 570.000
44.94708 517.000
44.96702 524.000
44.98697 522.000
45.00692 528.000
45.02686 498.000
45.04681 559.000
45.06676 546.000
45.08671 535.000
45.10665 503.000
45.12660 511.000
45.14655 528.000
45.16649 554.000
45.18644 557.000
45.20639 563.000
45.22633 491.000
45.24628 522.000
45.26623 502.000
45.28618 570.000
45.30612 553.000
45.32607 510.000
45.34602 552.000
45.36596 524.000
45.38591 503.000
45.40586 551.000
45.42580 531.000
45.44575 538.000
45.46570 544.000
45.48565 528.000
45.50559 529.000
45.52554 549.000
45.54549 517.000
45.56543 529.000
45.58538 530.000
45.60533 495.000
45.62527 520.000
45.64522 565.000
45.66517 531.000
45.68511 509.000
45.70506 513.000
45.72501 470.000
45.74496 544.000
45.76490 516.000
45.78485 513.000
45.80480 495.000
45.82474 514.000
45.84469 518.000
45.86464 563.000
45.88458 488.000
45.90453 514.000
45.92448 527.000
45.94443 549.000
45.96437 524.000
45.98432 513.000
46.00427 522.000
46.02421 546.000
46.04416 534.000
46.06411 546.000
46.08405 546.000
46.10400 564.000
46.12395 578.000
46.14389 569.000
46.16384 564.000
46.18379 555.000
46.20374 539.000
46.22368 577.000
46.24363 540.000
46.26358 540.000
46.28352 523.000
46.30347 512.000
46.32342 509.000
46.34336 542.000
46.36331 496.000
46.38326 534.000
46.40321 497.000
46.42315 507.000
46.44310 504.000
46.46305 530.000
46.48299 491.000
46.50294 498.000
46.52289 512.000
46.54283 487.000
46.56278 528.000
46.58273 520.000
46.60267 485.000
46.62262 449.000
46.64257 521.000
46.66252 539.000
46.68246 482.000
46.70241 480.000
46.72236 532.000
46.74230 509.000
46.76225 499.000
46.78220 523.000
46.80214 506.000
46.82209 493.000
46.84204 492.000
46.86199 520.000
46.88193 480.000
46.90188 525.000
46.92183 524.000
46.94177 496.000
46.96172 498.000
46.98167 496.000
47.00161 506.000
47.02156 457.000
47.04151 508.000
47.06146 512.000
47.08140 459.000
47.10135 529.000
47.12130 498.000
47.14124 472.000
47.16119 492.000
47.18114 569.000
47.20108 509.000
47.22103 522.000
47.24098 491.000
47.26092 508.000
47.28087 471.000
47.30082 487.000
47.32077 511.000
47.34071 480.000
47.36066 467.000
47.38061 501.000
47.40055 473.000
47.42050 537.000
47.44045 512.000
47.46039 542.000
47.48034 464.000
47.50029 520.000
47.52024 487.000
47.54018 456.000
47.56013 526.000
47.58008 539.000
47.60002 462.000
47.61997 453.000
47.63992 473.000
47.65986 502.000
47.67981 539.000
47.69976 522.000
47.71970 520.000
47.73965 494.000
47.75960 513.000
47.77955 535.000
47.79949 540.000
47.81944 541.000
47.83939 516.000
47.85933 511.000
47.87928 522.000
47.89923 556.000
47.91917 591.000
47.93912 572.000
47.95907 604.000
47.97902 596.000
47.99896 582.000
48.01891 626.000
48.03886 554.000
48.05880 592.000
48.07875 588.000
48.09870 558.000
48.11864 594.000
48.13859 602.000
48.15854 589.000
48.17848 597.000
48.19843 595.000
48.21838 590.000
48.23833 618.000
48.25827 592.000
48.27822 602.000
48.29817 570.000
48.31811 612.000
48.33806 621.000
48.35801 634.000
48.37795 645.000
48.39790 618.000
48.41785 652.000
48.43780 645.000
48.45774 657.000
48.47769 722.000
48.49764 713.000
48.51758 758.000
48.53753 736.000
48.55748 881.000
48.57742 896.000
48.59737 959.000
48.61732 1056.000
48.63726 1133.000
48.65721 1295.000
48.67716 1417.000
48.69711 1494.000
48.71705 1682.000
48.73700 1747.000
48.75695 1752.000
48.77689 1835.000
48.79684 1756.000
48.81679 1684.000
48.83673 1649.000
48.85668 1532.000
48.87663 1458.000
48.89658 1411.000
48.91652 1319.000
48.93647 1124.000
48.95642 1111.000
48.97636 997.000
48.99631 855.000
49.01626 833.000
49.03620 775.000
49.05615 719.000
49.07610 657.000
49.09605 703.000
49.11599 689.000
49.13594 617.000
49.15589 622.000
49.17583 566.000
49.19578 588.000
49.21573 590.000
49.23567 575.000
49.25562 566.000
49.27557 560.000
49.29551 578.000
49.31546 549.000
49.33541 568.000
49.35536 635.000
49.37530 566.000
49.39525 549.000
49.41520 579.000
49.43514 557.000
49.45509 525.000
49.47504 512.000
49.49498 513.000
49.51493 595.000
49.53488 540.000
49.55483 508.000
49.57477 516.000
49.59472 559.000
49.61467 544.000
49.63461 514.000
49.65456 547.000
49.67451 514.000
49.69445 569.000
49.71440 493.000
49.73435 574.000
49.75429 499.000
49.77424 529.000
49.79419 498.000
49.81414 540.000
49.83408 515.000
49.85403 522.000
49.87398 542.000
49.89392 498.000
49.91387 490.000
49.93382 499.000
49.95376 504.000
49.97371 510.000
49.99366 501.000
50.01361 524.000
50.03355 451.000
50.05350 463.000
50.07345 543.000
50.09339 514.000
50.11334 513.000
50.13329 468.000
50.15323 496.000
50.17318 532.000
50.19313 535.000
50.21307 493.000
50.23302 496.000
50.25297 482.000
50.27292 509.000
50.29286 498.000
50.31281 498.000
50.33276 520.000
50.35270 487.000
50.37265 500.000
50.39260 486.000
50.41254 499.000
50.43249 527.000
50.45244 547.000
50.47239 513.000
50.49233 528.000
50.51228 479.000
50.53223 464.000
50.55217 465.000
50.57212 526.000
50.59207 509.000
50.61201 538.000
50.63196 497.000
50.65191 468.000
50.67186 505.000
50.69180 461.000
50.71175 494.000
50.73170 511.000
50.75164 465.000
50.77159 540.000
50.79154 556.000
50.81148 529.000
50.83143 495.000
50.85138 514.000
50.87132 499.000
50.89127 472.000
50.91122 500.000
50.93117 512.000
50.95111 506.000
50.97106 491.000
50.99101 466.000
51.01095 525.000
51.03090 511.000
51.05085 487.000
51.07079 513.000
51.09074 591.000
51.11069 554.000
51.13064 521.000
51.15058 522.000
51.17053 479.000
51.19048 525.000
51.21042 505.000
51.23037 521.000
51.25032 558.000
51.27026 510.000
51.29021 495.000
51.31016 505.000
51.33010 491.000
51.35005 508.000
51.37000 499.000
51.38995 555.000
51.40989 477.000
51.42984 507.000
51.44979 495.000
51.46973 457.000
51.48968 519.000
51.50963 489.000
51.52957 508.000
51.54952 522.000
51.56947 461.000
51.58942 516.000
51.60936 532.000
51.62931 502.000
51.64926 518.000
51.66920 505.000
51.68915 463.000
51.70910 478.000
51.72904 475.000
51.74899 514.000
51.76894 505.000
51.78888 503.000
51.80883 544.000
51.82878 550.000
51.84873 487.000
51.86867 536.000
51.88862 543.000
51.90857 530.000
51.92851 587.000
51.94846 565.000
51.96841 583.000
51.98835 542.000
52.00830 618.000
52.02825 560.000
52.04820 601.000
52.06814 636.000
52.08809 559.000
52.10804 579.000
52.12798 599.000
52.14793 546.000
52.16788 576.000
52.18782 600.000
52.20777 586.000
52.22772 534.000
52.24767 521.000
52.26761 502.000
52.28756 540.000
52.30751 547.000
52.32745 551.000
52.34740 490.000
52.36735 494.000
52.38729 531.000
52.40724 536.000
52.42719 486.000
52.44713 500.000
52.46708 494.000
52.48703 531.000
52.50698 514.000
52.52692 546.000
52.54687 493.000
52.56682 523.000
52.58676 541.000
52.60671 528.000
52.62666 473.000
52.64660 523.000
52.66655 542.000
52.68650 564.000
52.70645 515.000
52.72639 545.000
52.74634 485.000
52.76629 544.000
52.78623 535.000
52.80618 534.000
52.82613 531.000
52.84607 545.000
52.86602 552.000
52.88597 573.000
52.90591 504.000
52.92586 582.000
52.94581 572.000
52.96576 567.000
52.98570 585.000
53.00565 596.000
53.02560 604.000
53.04554 633.000
53.06549 650.000
53.08544 664.000
53.10538 620.000
53.12533 655.000
53.14528 730.000
53.16523 690.000
53.18517 753.000
53.20512 728.000
53.22507 715.000
53.24501 733.000
53.26496 693.000
53.28491 663.000
53.30485 716.000
53.32480 682.000
53.34475 624.000
53.36469 684.000
53.38464 631.000
53.40459 650.000
53.42454 628.000
53.44448 590.000
53.46443 588.000
53.48438 551.000
53.50432 571.000
53.52427 554.000
53.54422 543.000
53.56416 584.000
53.58411 529.000
53.60406 523.000
53.62401 519.000
53.64395 546.000
53.66390 506.000
53.68385 514.000
53.70379 500.000
53.72374 492.000
53.74369 503.000
53.76363 504.000
53.78358 545.000
53.80353 517.000
53.82348 497.000
53.84342 520.000
53.86337 515.000
53.88332 521.000
53.90326 484.000
53.92321 498.000
53.94316 506.000
53.96310 460.000
53.98305 499.000
54.00300 518.000
54.02294 462.000
54.04289 477.000
54.06284 499.000
54.08279 487.000
54.10273 477.000
54.12268 489.000
54.14263 518.000
54.16257 498.000
54.18252 499.000
54.20247 434.000
54.22241 491.000
54.24236 504.000
54.26231 518.000
54.28226 534.000
54.30220 475.000
54.32215 504.000
54.34210 493.000
54.36204 508.000
54.38199 501.000
54.40194 468.000
54.42188 512.000
54.44183 516.000
54.46178 479.000
54.48172 483.000
54.50167 489.000
54.52162 491.000
54.54157 508.000
54.56151 493.000
54.58146 479.000
54.60141 479.000
54.62135 502.000
54.64130 490.000
54.66125 476.000
54.68119 511.000
54.70114 489.000
54.72109 479.000
54.74104 510.000
54.76098 475.000
54.78093 494.000
54.80088 510.000
54.82082 466.000
54.84077 493.000
54.86072 482.000
54.88066 451.000
54.90061 501.000
54.92056 518.000
54.94050 501.000
54.96045 499.000
54.98040 472.000
55.00035 521.000
55.02029 470.000
55.04024 485.000
55.06019 509.000
55.08013 478.000
55.10008 480.000
55.12003 476.000
55.13997 509.000
55.15992 460.000
55.17987 466.000
55.19982 455.000
55.21976 454.000
55.23971 490.000
55.25966 488.000
55.27960 480.000
55.29955 505.000
55.31950 513.000
55.33944 499.000
55.35939 506.000
55.37934 465.000
55.39929 484.000
55.41923 494.000
55.43918 485.000
55.45913 521.000
55.47907 470.000
55.49902 508.000
55.51897 500.000
55.53891 533.000
55.55886 497.000
55.57881 515.000
55.59875 493.000
55.61870 482.000
55.63865 476.000
55.65860 511.000
55.67854 482.000
55.69849 482.000
55.71844 512.000
55.73838 463.000
55.75833 474.000
55.77828 487.000
55.79822 469.000
55.81817 495.000
55.83812 479.000
55.85807 512.000
55.87801 417.000
55.89796 507.000
55.91791 523.000
55.93785 503.000
55.95780 512.000
55.97775 507.000
55.99769 501.000
56.01764 462.000
56.03759 532.000
56.05753 492.000
56.07748 513.000
56.09743 476.000
56.11738 502.000
56.13732 519.000
56.15727 502.000
56.17722 496.000
56.19716 501.000
56.21711 485.000
56.23706 511.000
56.25700 506.000
56.27695 493.000
56.29690 489.000
56.31685 511.000
56.33679 534.000
56.35674 527.000
56.37669 472.000
56.39663 454.000
56.41658 509.000
56.43653 554.000
56.45647 498.000
56.47642 488.000
56.49637 466.000
56.51631 492.000
56.53626 517.000
56.55621 480.000
56.57616 557.000
56.59610 520.000
56.61605 516.000
56.63600 498.000
56.65594 506.000
56.67589 478.000
56.69584 562.000
56.71578 523.000
56.73573 503.000
56.75568 492.000
56.77563 485.000
56.79557 494.000
56.81552 525.000
56.83547 496.000
56.85541 483.000
56.87536 522.000
56.89531 500.000
56.91525 486.000
56.93520 499.000
56.95515 553.000
56.97510 509.000
56.99504 519.000
57.01499 513.000
57.03494 496.000
57.05488 492.000
57.07483 531.000
57.09478 504.000
57.11472 504.000
57.13467 513.000
57.15462 556.000
57.17456 510.000
57.19451 526.000
57.21446 507.000
57.23441 485.000
57.25435 515.000
57.27430 499.000
57.29425 477.000
57.31419 499.000
57.33414 517.000
57.35409 496.000
57.37403 517.000
57.39398 492.000
57.41393 485.000
57.43388 514.000
57.45382 461.000
57.47377 549.000
57.49372 531.000
57.51366 495.000
57.53361 525.000
57.55356 513.000
57.57350 483.000
57.59345 518.000
57.61340 525.000
57.63334 504.000
57.65329 547.000
57.67324 510.000
57.69319 474.000
57.71313 580.000
57.73308 503.000
57.75303 553.000
57.77297 551.000
57.79292 506.000
57.81287 504.000
57.83281 537.000
57.85276 554.000
57.87271 554.000
57.89266 511.000
57.91260 601.000
57.93255 571.000
57.95250 592.000
57.97244 565.000
57.99239 612.000
58.01234 620.000
58.03228 700.000
58.05223 742.000
58.07218 711.000
58.09212 794.000
58.11207 831.000
58.13202 828.000
58.15197 811.000
58.17191 872.000
58.19186 816.000
58.21181 769.000
58.23175 731.000
58.25170 820.000
58.27165 721.000
58.29159 753.000
58.31154 726.000
58.33149 695.000
58.35144 623.000
58.37138 609.000
58.39133 598.000
58.41128 578.000
58.43122 586.000
58.45117 580.000
58.47112 561.000
58.49106 558.000
58.51101 548.000
58.53096 512.000
58.55090 558.000
58.57085 473.000
58.59080 540.000
58.61075 544.000
58.63069 518.000
58.65064 489.000
58.67059 489.000
58.69053 509.000
58.71048 439.000
58.73043 503.000
58.75037 534.000
58.77032 496.000
58.79027 521.000
58.81022 483.000
58.83016 498.000
58.85011 481.000
58.87006 489.000
58.89000 527.000
58.90995 477.000
58.92990 475.000
58.94984 483.000
58.96979 518.000
58.98974 477.000
59.00969 479.000
59.02963 492.000
59.04958 496.000
59.06953 494.000
59.08947 498.000
59.10942 486.000
59.12937 494.000
59.14931 474.000
59.16926 516.000
59.18921 486.000
59.20915 509.000
59.22910 478.000
59.24905 518.000
59.26900 499.000
59.28894 498.000
59.30889 522.000
59.32884 536.000
59.34878 492.000
59.36873 541.000
59.38868 488.000
59.40862 520.000
59.42857 503.000
59.44852 525.000
59.46847 491.000
59.48841 506.000
59.50836 478.000
59.52831 474.000
59.54825 544.000
59.56820 510.000
59.58815 468.000
59.60809 507.000
59.62804 481.000
59.64799 525.000
59.66793 531.000
59.68788 509.000
59.70783 474.000
59.72778 510.000
59.74772 499.000
59.76767 505.000
59.78762 504.000
59.80756 471.000
59.82751 532.000
59.84746 523.000
59.86740 472.000
59.88735 491.000
59.90730 459.000
59.92725 476.000
59.94719 534.000
59.96714 465.000
59.98709 566.000
60.00703 506.000
60.02698 469.000
60.04693 492.000
60.06687 460.000
60.08682 488.000
60.10677 513.000
60.12671 551.000
60.14666 508.000
60.16661 557.000
60.18656 523.000
60.20650 527.000
60.22645 501.000
60.24640 516.000
60.26634 525.000
60.28629 486.000
60.30624 505.000
60.32618 520.000
60.34613 506.000
60.36608 466.000
60.38603 479.000
60.40597 506.000
60.42592 494.000
60.44587 468.000
60.46581 494.000
60.48576 456.000
60.50571 508.000
60.52565 536.000
60.54560 531.000
60.56555 502.000
60.58550 489.000
60.60544 472.000
60.62539 502.000
60.64534 476.000
60.66528 463.000
60.68523 491.000
60.70518 502.000
60.72512 507.000
60.74507 521.000
60.76502 538.000
60.78496 491.000
60.80491 506.000
60.82486 523.000
60.84481 521.000
60.86475 523.000
60.88470 504.000
60.90465 538.000
60.92459 511.000
60.94454 552.000
60.96449 547.000
60.98443 516.000
61.00438 550.000
61.02433 507.000
61.04428 515.000
61.06422 553.000
61.08417 513.000
61.10412 599.000
61.12406 602.000
61.14401 549.000
61.16396 544.000
61.18390 611.000
61.20385 570.000
61.22380 601.000
61.24374 646.000
61.26369 640.000
61.28364 703.000
61.30359 696.000
61.32353 781.000
61.34348 804.000
61.36343 836.000
61.38337 937.000
61.40332 982.000
61.42327 1035.000
61.44321 1039.000
61.46316 1000.000
61.48311 1038.000
61.50306 981.000
61.52300 935.000
61.54295 943.000
61.56290 897.000
61.58284 904.000
61.60279 871.000
61.62274 871.000
61.64268 864.000
61.66263 800.000
61.68258 790.000
61.70252 700.000
61.72247 726.000
61.74242 691.000
61.76237 637.000
61.78231 668.000
61.80226 620.000
61.82221 624.000
61.84215 635.000
61.86210 687.000
61.88205 672.000
61.90199 685.000
61.92194 711.000
61.94189 690.000
61.96184 707.000
61.98178 810.000
62.00173 811.000
62.02168 765.000
62.04162 787.000
62.06157 796.000
62.08152 781.000
62.10146 792.000
62.12141 732.000
62.14136 759.000
62.16131 738.000
62.18125 742.000
62.20120 729.000
62.22115 732.000
62.24109 739.000
62.26104 715.000
62.28099 653.000
62.30093 684.000
62.32088 638.000
62.34083 676.000
62.36077 708.000
62.38072 681.000
62.40067 686.000
62.42062 746.000
62.44056 692.000
62.46051 729.000
62.48046 735.000
62.50040 765.000
62.52035 816.000
62.54030 842.000
62.56024 854.000
62.58019 778.000
62.60014 812.000
62.62009 778.000
62.64003 798.000
62.65998 803.000
62.67993 779.000
62.69987 795.000
62.71982 821.000
62.73977 748.000
62.75971 769.000
62.77966 715.000
62.79961 670.000
62.81955 640.000
62.83950 694.000
62.85945 613.000
62.87940 636.000
62.89934 620.000
62.91929 643.000
62.93924 563.000
62.95918 597.000
62.97913 579.000
62.99908 595.000
63.01902 559.000
63.03897 498.000
63.05892 507.000
63.07887 566.000
63.09881 553.000
63.11876 581.000
63.13871 561.000
63.15865 524.000
63.17860 548.000
63.19855 519.000
63.21849 490.000
63.23844 528.000
63.25839 537.000
63.27833 498.000
63.29828 460.000
63.31823 556.000
63.33818 540.000
63.35812 502.000
63.37807 494.000
63.39802 530.000
63.41796 458.000
63.43791 512.000
63.45786 503.000
63.47780 545.000
63.49775 488.000
63.51770 499.000
63.53765 522.000
63.55759 518.000
63.57754 515.000
63.59749 512.000
63.61743 461.000
63.63738 494.000
63.65733 515.000
63.67727 510.000
63.69722 525.000
63.71717 528.000
63.73712 513.000
63.75706 507.000
63.77701 500.000
63.79696 498.000
63.81690 509.000
63.83685 486.000
63.85680 528.000
63.87674 544.000
63.89669 495.000
63.91664 525.000
63.93658 539.000
63.95653 524.000
63.97648 550.000
63.99643 538.000
64.01637 543.000
64.03632 538.000
64.05627 535.000
64.07621 580.000
64.09616 525.000
64.11611 535.000
64.13605 603.000
64.15600 592.000
64.17595 553.000
64.19590 571.000
64.21584 554.000
64.23579 592.000
64.25574 657.000
64.27568 636.000
64.29563 646.000
64.31558 629.000
64.33552 672.000
64.35547 608.000
64.37542 689.000
64.39536 688.000
64.41531 675.000
64.43526 688.000
64.45521 691.000
64.47515 674.000
64.49510 712.000
64.51505 651.000
64.53499 621.000
64.55494 673.000
64.57489 638.000
64.59483 644.000
64.61478 623.000
64.63473 608.000
64.65468 564.000
64.67462 564.000
64.69457 580.000
64.71452 581.000
64.73446 545.000
64.75441 575.000
64.77436 539.000
64.79430 553.000
64.81425 552.000
64.83420 567.000
64.85414 554.000
64.87409 547.000
64.89404 511.000
64.91399 532.000
64.93393 522.000
64.95388 520.000
64.97383 544.000
64.99377 515.000
65.01372 558.000
65.03367 544.000
65.05361 507.000
65.07356 562.000
65.09351 579.000
65.11346 559.000
65.13340 526.000
65.15335 550.000
65.17330 579.000
65.19324 563.000
65.21319 575.000
65.23314 628.000
65.25308 582.000
65.27303 590.000
65.29298 635.000
65.31293 618.000
65.33287 648.000
65.35282 653.000
65.37277 681.000
65.39271 729.000
65.41266 725.000
65.43261 757.000
65.45255 752.000
65.47250 775.000
65.49245 792.000
65.51239 842.000
65.53234 807.000
65.55229 822.000
65.57224 799.000
65.59218 836.000
65.61213 830.000
65.63208 808.000
65.65202 781.000
65.67197 778.000
65.69192 801.000
65.71186 804.000
65.73181 812.000
65.75176 753.000
65.77171 727.000
65.79165 743.000
65.81160 743.000
65.83155 715.000
65.85149 682.000
65.87144 671.000
65.89139 637.000
65.91133 667.000
65.93128 662.000
65.95123 649.000
65.97117 662.000
65.99112 658.000
66.01107 676.000
66.03102 635.000
66.05096 640.000
66.07091 652.000
66.09086 694.000
66.11080 677.000
66.13075 716.000
66.15070 744.000
66.17064 760.000
66.19059 790.000
66.21054 890.000
66.23049 848.000
66.25043 923.000
66.27038 986.000
66.29033 885.000
66.31027 920.000
66.33022 875.000
66.35017 858.000
66.37011 763.000
66.39006 805.000
66.41001 805.000
66.42995 752.000
66.44990 783.000
66.46985 812.000
66.48980 725.000
66.50974 774.000
66.52969 662.000
66.54964 689.000
66.56958 642.000
66.58953 653.000
66.60948 694.000
66.62942 665.000
66.64937 599.000
66.66932 650.000
66.68927 670.000
66.70921 710.000
66.72916 667.000
66.74911 623.000
66.76905 733.000
66.78900 665.000
66.80895 729.000
66.82889 687.000
66.84884 683.000
66.86879 681.000
66.88874 698.000
66.90868 729.000
66.92863 696.000
66.94858 662.000
66.96852 626.000
66.98847 604.000
67.00842 633.000
67.02836 618.000
67.04831 618.000
67.06826 639.000
67.08820 624.000
67.10815 596.000
67.12810 592.000
67.14805 573.000
67.16799 538.000
67.18794 620.000
67.20789 519.000
67.22783 587.000
67.24778 553.000
67.26773 531.000
67.28767 579.000
67.30762 575.000
67.32757 569.000
67.34752 548.000
67.36746 587.000
67.38741 583.000
67.40736 536.000
67.42730 567.000
67.44725 636.000
67.46720 629.000
67.48714 617.000
67.50709 625.000
67.52704 643.000
67.54698 656.000
67.56693 704.000
67.58688 656.000
67.60683 711.000
67.62677 730.000
67.64672 787.000
67.66667 784.000
67.68661 826.000
67.70656 837.000
67.72651 830.000
67.74645 844.000
67.76640 923.000
67.78635 846.000
67.80630 863.000
67.82624 914.000
67.84619 924.000
67.86614 983.000
67.88608 955.000
67.90603 924.000
67.92598 899.000
67.94592 916.000
67.96587 872.000
67.98582 839.000
68.00576 822.000
68.02571 805.000
68.04566 766.000
68.06561 752.000
68.08555 724.000
68.10550 681.000
68.12545 720.000
68.14539 660.000
68.16534 703.000
68.18529 622.000
68.20523 611.000
68.22518 615.000
68.24513 611.000
68.26508 564.000
68.28502 540.000
68.30497 564.000
68.32492 559.000
68.34486 536.000
68.36481 491.000
68.38476 561.000
68.40470 471.000
68.42465 531.000
68.44460 518.000
68.46455 547.000
68.48449 485.000
68.50444 495.000
68.52439 502.000
68.54433 460.000
68.56428 504.000
68.58423 505.000
68.60417 495.000
68.62412 508.000
68.64407 508.000
68.66401 499.000
68.68396 488.000
68.70391 581.000
68.72386 497.000
68.74380 527.000
68.76375 555.000
68.78370 503.000
68.80364 524.000
68.82359 484.000
68.84354 529.000
68.86348 497.000
68.88343 497.000
68.90338 529.000
68.92333 500.000
68.94327 500.000
68.96322 510.000
68.98317 507.000
69.00311 508.000
69.02306 503.000
69.04301 487.000
69.06295 475.000
69.08290 534.000
69.10285 490.000
69.12279 534.000
69.14274 472.000
69.16269 505.000
69.18264 485.000
69.20258 478.000
69.22253 464.000
69.24248 493.000
69.26242 498.000
69.28237 488.000
69.30232 468.000
69.32226 474.000
69.34221 500.000
69.36216 487.000
69.38211 498.000
69.40205 489.000
69.42200 487.000
69.44195 571.000
69.46189 535.000
69.48184 509.000
69.50179 512.000
69.52173 489.000
69.54168 485.000
69.56163 502.000
69.58157 507.000
69.60152 480.000
69.62147 498.000
69.64142 494.000
69.66136 448.000
69.68131 520.000
69.70126 498.000
69.72120 524.000
69.74115 474.000
69.76110 483.000
69.78104 493.000
69.80099 510.000
69.82094 491.000
69.84089 508.000
69.86083 483.000
69.88078 495.000
69.90073 491.000
69.92067 488.000
69.94062 486.000
69.96057 510.000
69.98051 465.000
70.00046 465.000
70.02041 484.000
70.04035 479.000
70.06030 431.000
70.08025 464.000
70.10020 461.000
70.12014 449.000
70.14009 527.000
70.16004 460.000
70.17998 501.000
70.19993 463.000
70.21988 471.000
70.23982 484.000
70.25977 477.000
70.27972 474.000
70.29967 500.000
70.31961 471.000
70.33956 481.000
70.35951 525.000
70.37945 452.000
70.39940 477.000
70.41935 495.000
70.43929 458.000
70.45924 452.000
70.47919 440.000
70.49914 487.000
70.51908 487.000
70.53903 489.000
70.55898 471.000
70.57892 504.000
70.59887 471.000
70.61882 526.000
70.63876 509.000
70.65871 482.000
70.67866 494.000
70.69860 500.000
70.71855 466.000
70.73850 485.000
70.75845 508.000
70.77839 490.000
70.79834 467.000
70.81829 509.000
70.83823 518.000
70.85818 489.000
70.87813 486.000
70.89807 467.000
70.91802 484.000
70.93797 496.000
70.95792 464.000
70.97786 484.000
70.99781 507.000
71.01776 469.000
71.03770 452.000
71.05765 478.000
71.07760 516.000
71.09754 445.000
71.11749 475.000
71.13744 486.000
71.15738 479.000
71.17733 474.000
71.19728 468.000
71.21723 470.000
71.23717 511.000
71.25712 492.000
71.27707 493.000
71.29701 451.000
71.31696 481.000
71.33691 469.000
71.35685 509.000
71.37680 495.000
71.39675 487.000
71.41670 440.000
71.43664 502.000
71.45659 490.000
71.47654 482.000
71.49648 499.000
71.51643 485.000
71.53638 469.000
71.55632 490.000
71.57627 468.000
71.59622 503.000
71.61616 478.000
71.63611 469.000
71.65606 456.000
71.67601 562.000
71.69595 513.000
71.71590 504.000
71.73585 508.000
71.75579 512.000
71.77574 512.000
71.79569 486.000
71.81563 472.000
71.83558 500.000
71.85553 477.000
71.87548 536.000
71.89542 519.000
71.91537 543.000
71.93532 533.000
71.95526 530.000
71.97521 502.000
71.99516 504.000
72.01510 522.000
72.03505 519.000
72.05500 488.000
72.07495 519.000
72.09489 511.000
72.11484 551.000
72.13479 537.000
72.15473 558.000
72.17468 581.000
72.19463 564.000
72.21457 585.000
72.23452 643.000
72.25447 623.000
72.27441 617.000
72.29436 663.000
72.31431 654.000
72.33426 611.000
72.35420 651.000
72.37415 600.000
72.39410 617.000
72.41404 632.000
72.43399 602.000
72.45394 551.000
72.47388 586.000
72.49383 582.000
72.51378 587.000
72.53373 596.000
72.55367 599.000
72.57362 567.000
72.59357 538.000
72.61351 560.000
72.63346 518.000
72.65341 513.000
72.67335 519.000
72.69330 502.000
72.71325 504.000
72.73319 508.000
72.75314 513.000
72.77309 465.000
72.79304 501.000
72.81298 488.000
72.83293 510.000
72.85288 487.000
72.87282 472.000
72.89277 512.000
72.91272 502.000
72.93266 490.000
72.95261 530.000
72.97256 529.000
72.99251 484.000
73.01245 460.000
73.03240 511.000
73.05235 504.000
73.07229 489.000
73.09224 474.000
73.11219 514.000
73.13213 506.000
73.15208 512.000
73.17203 508.000
73.19197 453.000
73.21192 470.000
73.23187 526.000
73.25182 491.000
73.27176 480.000
73.29171 486.000
73.31166 464.000
73.33160 535.000
73.35155 523.000
73.37150 470.000
73.39144 541.000
73.41139 505.000
73.43134 526.000
73.45129 507.000
73.47123 529.000
73.49118 513.000
73.51113 519.000
73.53107 520.000
73.55102 495.000
73.57097 514.000
73.59091 479.000
73.61086 514.000
73.63081 483.000
73.65076 527.000
73.67070 506.000
73.69065 542.000
73.71060 549.000
73.73054 597.000
73.75049 549.000
73.77044 504.000
73.79038 529.000
73.81033 577.000
73.83028 544.000
73.85022 513.000
73.87017 528.000
73.89012 529.000
73.91007 543.000
73.93001 538.000
73.94996 528.000
73.96991 523.000
73.98985 559.000
74.00980 499.000
74.02975 499.000
74.04969 535.000
74.06964 491.000
74.08959 512.000
74.10954 500.000
74.12948 488.000
74.14943 469.000
74.16938 507.000
74.18932 509.000
74.20927 483.000
74.22922 493.000
74.24916 552.000
74.26911 518.000
74.28906 491.000
74.30900 477.000
74.32895 501.000
74.34890 514.000
74.36885 527.000
74.38879 504.000
74.40874 510.000
74.42869 498.000
74.44863 516.000
74.46858 502.000
74.48853 571.000
74.50847 559.000
74.52842 538.000
74.54837 516.000
74.56832 542.000
74.58826 517.000
74.60821 502.000
74.62816 553.000
74.64810 516.000
74.66805 611.000
74.68800 572.000
74.70794 598.000
74.72789 607.000
74.74784 620.000
74.76778 630.000
74.78773 662.000
74.80768 664.000
74.82763 695.000
74.84757 735.000
74.86752 695.000
74.88747 769.000
74.90741 743.000
74.92736 697.000
74.94731 714.000
74.96725 703.000
74.98720 705.000
75.00715 703.000
75.02710 743.000
75.04704 723.000
75.06699 728.000
75.08694 734.000
75.10688 755.000
75.12683 771.000
75.14678 747.000
75.16672 763.000
75.18667 692.000
75.20662 711.000
75.22657 727.000
75.24651 668.000
75.26646 663.000
75.28641 675.000
75.30635 624.000
75.32630 647.000
75.34625 588.000
75.36619 642.000
75.38614 624.000
75.40609 591.000
75.42603 558.000
75.44598 576.000
75.46593 583.000
75.48588 586.000
75.50582 556.000
75.52577 581.000
75.54572 523.000
75.56566 503.000
75.58561 548.000
75.60556 536.000
75.62550 502.000
75.64545 517.000
75.66540 547.000
75.68535 497.000
75.70529 480.000
75.72524 452.000
75.74519 506.000
75.76513 500.000
75.78508 494.000
75.80503 514.000
75.82497 511.000
75.84492 507.000
75.86487 505.000
75.88481 513.000
75.90476 497.000
75.92471 510.000
75.94466 531.000
75.96460 494.000
75.98455 509.000
76.00450 507.000
76.02444 490.000
76.04439 503.000
76.06434 514.000
76.08428 458.000
76.10423 552.000
76.12418 518.000
76.14413 485.000
76.16407 537.000
76.18402 467.000
76.20397 498.000
76.22391 512.000
76.24386 500.000
76.26381 467.000
76.28375 535.000
76.30370 459.000
76.32365 516.000
76.34359 501.000
76.36354 483.000
76.38349 493.000
76.40344 491.000
76.42338 491.000
76.44333 495.000
76.46328 466.000
76.48322 509.000
76.50317 478.000
76.52312 452.000
76.54306 475.000
76.56301 490.000
76.58296 492.000
76.60291 474.000
76.62285 505.000
76.64280 471.000
76.66275 466.000
76.68269 454.000
76.70264 452.000
76.72259 427.000
76.74253 449.000
76.76248 467.000
76.78243 449.000
76.80238 514.000
76.82232 471.000
76.84227 477.000
76.86222 471.000
76.88216 431.000
76.90211 494.000
76.92206 524.000
76.94200 482.000
76.96195 470.000
76.98190 452.000
77.00184 476.000
77.02179 504.000
77.04174 501.000
77.06169 478.000
77.08163 462.000
77.10158 477.000
77.12153 458.000
77.14147 478.000
77.16142 490.000
77.18137 481.000
77.20131 483.000
77.22126 429.000
77.24121 469.000
77.26116 480.000
77.28110 479.000
77.30105 438.000
77.32100 512.000
77.34094 485.000
77.36089 545.000
77.38084 470.000
77.40078 482.000
77.42073 489.000
77.44068 500.000
77.46062 475.000
77.48057 495.000
77.50052 470.000
77.52047 445.000
77.54041 503.000
77.56036 512.000
77.58031 515.000
77.60025 489.000
77.62020 464.000
77.64015 491.000
77.66009 513.000
77.68004 474.000
77.69999 487.000
77.71994 477.000
77.73988 461.000
77.75983 483.000
77.77978 449.000
77.79972 465.000
77.81967 484.000
77.83962 522.000
77.85956 518.000
77.87951 501.000
77.89946 506.000
77.91940 472.000
77.93935 496.000
77.95930 462.000
77.97925 526.000
77.99919 536.000
78.01914 533.000
78.03909 543.000
78.05903 548.000
78.07898 510.000
78.09893 543.000
78.11887 493.000
78.13882 568.000
78.15877 532.000
78.17872 556.000
78.19866 550.000
78.21861 547.000
78.23856 573.000
78.25850 578.000
78.27845 634.000
78.29840 604.000
78.31834 554.000
78.33829 608.000
78.35824 586.000
78.37819 565.000
78.39813 566.000
78.41808 574.000
78.43803 555.000
78.45797 537.000
78.47792 531.000
78.49787 567.000
78.51781 566.000
78.53776 521.000
78.55771 544.000
78.57765 571.000
78.59760 510.000
78.61755 526.000
78.63750 529.000
78.65744 549.000
78.67739 529.000
78.69734 478.000
78.71728 535.000
78.73723 510.000
78.75718 509.000
78.77712 496.000
78.79707 508.000
78.81702 545.000
78.83697 496.000
78.85691 499.000
78.87686 491.000
78.89681 517.000
78.91675 516.000
78.93670 563.000
78.95665 514.000
78.97659 526.000
78.99654 559.000
79.01649 546.000
79.03643 586.000
79.05638 571.000
79.07633 573.000
79.09628 546.000
79.11622 552.000
79.13617 569.000
79.15612 548.000
79.17606 515.000
79.19601 544.000
79.21596 567.000
79.23590 519.000
79.25585 536.000
79.27580 538.000
79.29575 528.000
79.31569 497.000
79.33564 546.000
79.35559 530.000
79.37553 531.000
79.39548 558.000
79.41543 490.000
79.43537 510.000
79.45532 534.000
79.47527 536.000
79.49521 505.000
79.51516 486.000
79.53511 483.000
79.55506 515.000
79.57500 476.000
79.59495 518.000
79.61490 481.000
79.63484 504.000
79.65479 464.000
79.67474 468.000
79.69468 517.000
79.71463 476.000
79.73458 501.000
79.75453 474.000
79.77447 476.000
79.79442 472.000
79.81437 486.000
79.83431 509.000
79.85426 503.000
79.87421 449.000
79.89415 474.000
79.91410 461.000
79.93405 494.000
79.95399 480.000
79.97394 481.000
79.99389 494.000
80.01384 487.000
80.03378 501.000
80.05373 457.000
80.07368 548.000
80.09362 521.000
80.11357 519.000
80.13352 550.000
80.15346 563.000
80.17341 497.000
80.19336 535.000
80.21331 572.000
80.23325 561.000
80.25320 549.000
80.27315 547.000
80.29309 527.000
80.31304 515.000
80.33299 510.000
80.35293 513.000
80.37288 539.000
80.39283 514.000
80.41278 553.000
80.43272 488.000
80.45267 483.000
80.47262 488.000
80.49256 558.000
80.51251 518.000
80.53246 543.000
80.55240 481.000
80.57235 482.000
80.59230 509.000
80.61224 514.000
80.63219 456.000
80.65214 463.000
80.67209 530.000
80.69203 493.000
80.71198 475.000
80.73193 509.000
80.75187 514.000
80.77182 514.000
80.79177 507.000
80.81171 484.000
80.83166 515.000
80.85161 485.000
80.87156 475.000
80.89150 471.000
80.91145 503.000
80.93140 507.000
80.95134 453.000
80.97129 481.000
80.99124 484.000
81.01118 506.000
81.03113 475.000
81.05108 484.000
81.07102 478.000
81.09097 518.000
81.11092 466.000
81.13087 488.000
81.15081 502.000
81.17076 502.000
81.19071 497.000
81.21065 506.000
81.23060 534.000
81.25055 483.000
81.27049 481.000
81.29044 520.000
81.31039 504.000
81.33034 462.000
81.35028 491.000
81.37023 504.000
81.39018 480.000
81.41012 468.000
81.43007 482.000
81.45002 474.000
81.46996 526.000
81.48991 467.000
81.50986 483.000
81.52980 506.000
81.54975 461.000
81.56970 533.000
81.58965 505.000
81.60959 464.000
81.62954 489.000
81.64949 469.000
81.66943 457.000
81.68938 423.000
81.70933 472.000
81.72927 513.000
81.74922 518.000
81.76917 500.000
81.78912 488.000
81.80906 516.000
81.82901 482.000
81.84896 464.000
81.86890 480.000
81.88885 471.000
81.90880 508.000
81.92874 511.000
81.94869 484.000
81.96864 496.000
81.98859 510.000
82.00853 516.000
82.02848 428.000
82.04843 489.000
82.06837 508.000
82.08832 462.000
82.10827 525.000
82.12821 549.000
82.14816 556.000
82.16811 548.000
82.18805 512.000
82.20800 520.000
82.22795 514.000
82.24790 497.000
82.26784 531.000
82.28779 547.000
82.30774 522.000
82.32768 543.000
82.34763 566.000
82.36758 518.000
82.38752 567.000
82.40747 573.000
82.42742 545.000
82.44737 522.000
82.46731 563.000
82.48726 593.000
82.50721 587.000
82.52715 602.000
82.54710 635.000
82.56705 623.000
82.58699 585.000
82.60694 596.000
82.62689 606.000
82.64683 560.000
82.66678 622.000
82.68673 589.000
82.70668 581.000
82.72662 601.000
82.74657 619.000
82.76652 592.000
82.78646 613.000
82.80641 581.000
82.82636 562.000
82.84630 546.000
82.86625 576.000
82.88620 581.000
82.90615 539.000
82.92609 546.000
82.94604 530.000
82.96599 581.000
82.98593 550.000
83.00588 550.000
83.02583 556.000
83.04577 589.000
83.06572 569.000
83.08567 561.000
83.10561 570.000
83.12556 554.000
83.14551 541.000
83.16546 532.000
83.18540 541.000
83.20535 512.000
83.22530 524.000
83.24524 511.000
83.26519 522.000
83.28514 498.000
83.30508 509.000
83.32503 513.000
83.34498 545.000
83.36493 583.000
83.38487 538.000
83.40482 520.000
83.42477 498.000
83.44471 513.000
83.46466 547.000
83.48461 514.000
83.50455 514.000
83.52450 545.000
83.54445 554.000
83.56440 570.000
83.58434 539.000
83.60429 563.000
83.62424 517.000
83.64418 545.000
83.66413 531.000
83.68408 554.000
83.70402 586.000
83.72397 576.000
83.74392 574.000
83.76386 542.000
83.78381 518.000
83.80376 601.000
83.82371 581.000
83.84365 533.000
83.86360 550.000
83.88355 540.000
83.90349 537.000
83.92344 514.000
83.94339 527.000
83.96333 508.000
83.98328 531.000
84.00323 533.000
84.02318 492.000
84.04312 532.000
84.06307 488.000
84.08302 498.000
84.10296 495.000
84.12291 528.000
84.14286 529.000
84.16280 496.000
84.18275 485.000
84.20270 520.000
84.22264 535.000
84.24259 503.000
84.26254 499.000
84.28249 496.000
84.30243 544.000
84.32238 531.000
84.34233 467.000
84.36227 510.000
84.38222 487.000
84.40217 495.000
84.42211 469.000
84.44206 516.000
84.46201 483.000
84.48196 502.000
84.50190 514.000
84.52185 517.000
84.54180 530.000
84.56174 507.000
84.58169 511.000
84.60164 511.000
84.62158 522.000
84.64153 516.000
84.66148 535.000
84.68142 519.000
84.70137 543.000
84.72132 518.000
84.74127 534.000
84.76121 499.000
84.78116 508.000
84.80111 528.000
84.82105 521.000
84.84100 517.000
84.86095 498.000
84.88089 542.000
84.90084 520.000
84.92079 488.000
84.94074 481.000
84.96068 514.000
84.98063 510.000
85.00058 504.000
85.02052 511.000
85.04047 540.000
85.06042 499.000
85.08036 524.000
85.10031 523.000
85.12026 516.000
85.14021 485.000
85.16015 494.000
85.18010 522.000
85.20005 546.000
85.21999 507.000
85.23994 499.000
85.25989 495.000
85.27983 497.000
85.29978 501.000
85.31973 530.000
85.33967 493.000
85.35962 472.000
85.37957 490.000
85.39952 473.000
85.41946 479.000
85.43941 474.000
85.45936 501.000
85.47930 483.000
85.49925 442.000
85.51920 482.000
85.53914 486.000
85.55909 489.000
85.57904 488.000
85.59899 504.000
85.61893 473.000
85.63888 461.000
85.65883 476.000
85.67877 476.000
85.69872 465.000
85.71867 497.000
85.73861 467.000
85.75856 477.000
85.77851 493.000
85.79845 466.000
85.81840 468.000
85.83835 460.000
85.85830 477.000
85.87824 440.000
85.89819 454.000
85.91814 441.000
85.93808 484.000
85.95803 452.000
85.97798 507.000
85.99792 474.000
86.01787 468.000
86.03782 485.000
86.05777 487.000
86.07771 453.000
86.09766 510.000
86.11761 465.000
86.13755 495.000
86.15750 460.000
86.17745 517.000
86.19739 473.000
86.21734 511.000
86.23729 540.000
86.25723 504.000
86.27718 514.000
86.29713 443.000
86.31708 494.000
86.33702 501.000
86.35697 488.000
86.37692 497.000
86.39686 482.000
86.41681 505.000
86.43676 514.000
86.45670 455.000
86.47665 523.000
86.49660 527.000
86.51655 476.000
86.53649 524.000
86.55644 539.000
86.57639 500.000
86.59633 494.000
86.61628 503.000
86.63623 522.000
86.65617 521.000
86.67612 512.000
86.69607 516.000
86.71602 505.000
86.73596 483.000
86.75591 489.000
86.77586 516.000
86.79580 534.000
86.81575 553.000
86.83570 503.000
86.85564 505.000
86.87559 505.000
86.89554 511.000
86.91548 529.000
86.93543 476.000
86.95538 544.000
86.97533 529.000
86.99527 527.000
87.01522 497.000
87.03517 519.000
87.05511 515.000
87.07506 506.000
87.09501 542.000
87.11495 527.000
87.13490 537.000
87.15485 529.000
87.17480 510.000
87.19474 547.000
87.21469 555.000
87.23464 517.000
87.25458 480.000
87.27453 532.000
87.29448 513.000
87.31442 487.000
87.33437 543.000
87.35432 510.000
87.37426 550.000
87.39421 509.000
87.41416 502.000
87.43411 496.000
87.45405 458.000
87.47400 488.000
87.49395 513.000
87.51389 467.000
87.53384 505.000
87.55379 482.000
87.57373 487.000
87.59368 473.000
87.61363 487.000
87.63358 495.000
87.65352 519.000
87.67347 514.000
87.69342 507.000
87.71336 485.000
87.73331 499.000
87.75326 477.000
87.77320 463.000
87.79315 446.000
87.81310 504.000
87.83304 475.000
87.85299 506.000
87.87294 452.000
87.89289 469.000
87.91283 468.000
87.93278 490.000
87.95273 477.000
87.97267 492.000
87.99262 451.000
88.01257 505.000
88.03251 497.000
88.05246 475.000
88.07241 511.000
88.09236 486.000
88.11230 471.000
88.13225 466.000
88.15220 478.000
88.17214 491.000
88.19209 523.000
88.21204 471.000
88.23198 486.000
88.25193 472.000
88.27188 485.000
88.29183 463.000
88.31177 483.000
88.33172 531.000
88.35167 475.000
88.37161 531.000
88.39156 490.000
88.41151 484.000
88.43145 463.000
88.45140 439.000
88.47135 453.000
88.49129 484.000
88.51124 518.000
88.53119 464.000
88.55114 492.000
88.57108 508.000
88.59103 469.000
88.61098 505.000
88.63092 463.000
88.65087 524.000
88.67082 473.000
88.69076 462.000
88.71071 456.000
88.73066 481.000
88.75061 512.000
88.77055 510.000
88.79050 512.000
88.81045 472.000
88.83039 474.000
88.85034 475.000
88.87029 506.000
88.89023 507.000
88.91018 469.000
88.93013 519.000
88.95007 464.000
88.97002 514.000
88.98997 503.000
89.00992 507.000
89.02986 532.000
89.04981 509.000
89.06976 534.000
89.08970 537.000
89.10965 515.000
89.12960 504.000
89.14954 539.000
89.16949 531.000
89.18944 549.000
89.20939 532.000
89.22933 552.000
89.24928 541.000
89.26923 518.000
89.28917 553.000
89.30912 562.000
89.32907 541.000
89.34901 528.000
89.36896 579.000
89.38891 555.000
89.40885 544.000
89.42880 548.000
89.44875 512.000
89.46870 548.000
89.48864 507.000
89.50859 517.000
89.52854 582.000
89.54848 524.000
89.56843 576.000
89.58838 540.000
89.60832 580.000
89.62827 484.000
89.64822 538.000
89.66817 503.000
89.68811 549.000
89.70806 520.000
89.72801 481.000
89.74795 542.000
89.76790 540.000
89.78785 530.000
89.80779 501.000
89.82774 522.000
89.84769 473.000
89.86764 503.000
89.88758 513.000
89.90753 466.000
89.92748 539.000
89.94742 527.000
89.96737 501.000
89.98732 507.000
90.00726 512.000
