10.00000 216.000
10.01995 205.000
10.03989 206.000
10.05984 223.000
10.07979 210.000
10.09973 240.000
10.11968 224.000
10.13963 184.000
10.15958 208.000
10.17952 253.000
10.19947 220.000
10.21942 205.000
10.23936 223.000
10.25931 211.000
10.27926 234.000
10.29920 236.000
10.31915 209.000
10.33910 214.000
10.35905 232.000
10.37899 217.000
10.39894 222.000
10.41889 223.000
10.43883 229.000
10.45878 225.000
10.47873 189.000
10.49867 219.000
10.51862 224.000
10.53857 211.000
10.55851 220.000
10.57846 225.000
10.59841 230.000
10.61836 232.000
10.63830 226.000
10.65825 245.000
10.67820 231.000
10.69814 214.000
10.71809 227.000
10.73804 217.000
10.75798 227.000
10.77793 252.000
10.79788 211.000
10.81783 232.000
10.83777 197.000
10.85772 227.000
10.87767 233.000
10.89761 228.000
10.91756 231.000
10.93751 201.000
10.95745 237.000
10.97740 224.000
10.99735 204.000
11.01730 211.000
11.03724 225.000
11.05719 229.000
11.07714 231.000
11.09708 232.000
11.11703 219.000
11.13698 215.000
11.15692 231.000
11.17687 214.000
11.19682 223.000
11.21676 249.000
11.23671 231.000
11.25666 196.000
11.27661 194.000
11.29655 230.000
11.31650 219.000
11.33645 246.000
11.35639 243.000
11.37634 216.000
11.39629 212.000
11.41623 240.000
11.43618 222.000
11.45613 187.000
11.47608 229.000
11.49602 237.000
11.51597 235.000
11.53592 218.000
11.55586 212.000
11.57581 212.000
11.59576 246.000
11.61570 219.000
11.63565 218.000
11.65560 238.000
11.67554 250.000
11.69549 228.000
11.71544 196.000
11.73539 202.000
11.75533 236.000
11.77528 238.000
11.79523 217.000
11.81517 215.000
11.83512 264.000
11.85507 192.000
11.87501 243.000
11.89496 227.000
11.91491 228.000
11.93486 223.000
11.95480 241.000
11.97475 229.000
11.99470 207.000
12.01464 242.000
12.03459 246.000
12.05454 205.000
12.07448 250.000
12.09443 255.000
12.11438 209.000
12.13432 228.000
12.15427 214.000
12.17422 243.000
12.19417 227.000
12.21411 214.000
12.23406 229.000
12.25401 217.000
12.27395 227.000
12.29390 240.000
12.31385 253.000
12.33379 230.000
12.35374 244.000
12.37369 223.000
12.39364 214.000
12.41358 242.000
12.43353 244.000
12.45348 253.000
12.47342 240.000
12.49337 254.000
12.51332 203.000
12.53326 241.000
12.55321 249.000
12.57316 230.000
12.59311 230.000
12.61305 230.000
12.63300 241.000
12.65295 226.000
12.67289 212.000
12.69284 213.000
12.71279 240.000
12.73273 251.000
12.75268 221.000
12.77263 235.000
12.79257 234.000
12.81252 233.000
12.83247 237.000
12.85242 219.000
12.87236 196.000
12.89231 229.000
12.91226 204.000
12.93220 213.000
12.95215 247.000
12.97210 242.000
12.99204 227.000
13.01199 202.000
13.03194 211.000
13.05189 231.000
13.07183 212.000
13.09178 218.000
13.11173 220.000
13.13167 211.000
13.15162 233.000
13.17157 216.000
13.19151 271.000
13.21146 224.000
13.23141 243.000
13.25135 250.000
13.27130 229.000
13.29125 250.000
13.31120 225.000
13.33114 229.000
13.35109 250.000
13.37104 233.000
13.39098 228.000
13.41093 195.000
13.43088 238.000
13.45082 246.000
13.47077 225.000
13.49072 230.000
13.51067 259.000
13.53061 232.000
13.55056 227.000
13.57051 230.000
13.59045 210.000
13.61040 213.000
13.63035 248.000
13.65029 245.000
13.67024 242.000
13.69019 219.000
13.71013 243.000
13.73008 248.000
13.75003 237.000
13.76998 207.000
13.78992 250.000
13.80987 203.000
13.82982 224.000
13.84976 232.000
13.86971 234.000
13.88966 235.000
13.90960 246.000
13.92955 248.000
13.94950 226.000
13.96945 208.000
13.98939 235.000
14.00934 253.000
14.02929 228.000
14.04923 229.000
14.06918 232.000
14.08913 242.000
14.10907 227.000
14.12902 247.000
14.14897 210.000
14.16892 226.000
14.18886 241.000
14.20881 243.000
14.22876 250.000
14.24870 244.000
14.26865 235.000
14.28860 232.000
14.30854 229.000
14.32849 233.000
14.34844 241.000
14.36838 238.000
14.38833 211.000
14.40828 235.000
14.42823 227.000
14.44817 232.000
14.46812 238.000
14.48807 239.000
14.50801 242.000
14.52796 210.000
14.54791 230.000
14.56785 222.000
14.58780 221.000
14.60775 259.000
14.62770 208.000
14.64764 232.000
14.66759 237.000
14.68754 257.000
14.70748 245.000
14.72743 239.000
14.74738 259.000
14.76732 258.000
14.78727 239.000
14.80722 254.000
14.82716 255.000
14.84711 235.000
14.86706 255.000
14.88701 238.000
14.90695 257.000
14.92690 221.000
14.94685 252.000
14.96679 254.000
14.98674 239.000
15.00669 275.000
15.02663 237.000
15.04658 267.000
15.06653 229.000
15.08648 243.000
15.10642 268.000
15.12637 280.000
15.14632 268.000
15.16626 239.000
15.18621 271.000
15.20616 268.000
15.22610 272.000
15.24605 257.000
15.26600 260.000
15.28594 281.000
15.30589 266.000
15.32584 316.000
15.34579 272.000
15.36573 311.000
15.38568 279.000
15.40563 276.000
15.42557 323.000
15.44552 298.000
15.46547 309.000
15.48541 339.000
15.50536 352.000
15.52531 376.000
15.54526 331.000
15.56520 387.000
15.58515 430.000
15.60510 487.000
15.62504 558.000
15.64499 618.000
15.66494 766.000
15.68488 1008.000
15.70483 1356.000
15.72478 2095.000
15.74472 3090.000
15.76467 4681.000
15.78462 5864.000
15.80457 5957.000
15.82451 4575.000
15.84446 3089.000
15.86441 1778.000
15.88435 940.000
15.90430 621.000
15.92425 476.000
15.94419 419.000
15.96414 357.000
15.98409 339.000
16.00404 311.000
16.02398 303.000
16.04393 289.000
16.06388 295.000
16.08382 294.000
16.10377 266.000
16.12372 257.000
16.14366 277.000
16.16361 275.000
16.18356 281.000
16.20351 303.000
16.22345 291.000
16.24340 240.000
16.26335 318.000
16.28329 254.000
16.30324 284.000
16.32319 263.000
16.34313 268.000
16.36308 275.000
16.38303 260.000
16.40297 282.000
16.42292 261.000
16.44287 271.000
16.46282 265.000
16.48276 274.000
16.50271 258.000
16.52266 273.000
16.54260 273.000
16.56255 256.000
16.58250 260.000
16.60244 270.000
16.62239 277.000
16.64234 266.000
16.66229 257.000
16.68223 254.000
16.70218 258.000
16.72213 244.000
16.74207 255.000
16.76202 246.000
16.78197 242.000
16.80191 255.000
16.82186 239.000
16.84181 248.000
16.86175 276.000
16.88170 231.000
16.90165 273.000
16.92160 242.000
16.94154 250.000
16.96149 252.000
16.98144 279.000
17.00138 258.000
17.02133 285.000
17.04128 269.000
17.06122 248.000
17.08117 239.000
17.10112 269.000
17.12107 224.000
17.14101 253.000
17.16096 250.000
17.18091 266.000
17.20085 239.000
17.22080 239.000
17.24075 269.000
17.26069 247.000
17.28064 247.000
17.30059 260.000
17.32053 254.000
17.34048 207.000
17.36043 259.000
17.38038 246.000
17.40032 273.000
17.42027 238.000
17.44022 252.000
17.46016 254.000
17.48011 257.000
17.50006 251.000
17.52000 260.000
17.53995 212.000
17.55990 247.000
17.57985 250.000
17.59979 301.000
17.61974 235.000
17.63969 267.000
17.65963 237.000
17.67958 261.000
17.69953 229.000
17.71947 279.000
17.73942 262.000
17.75937 246.000
17.77932 241.000
17.79926 227.000
17.81921 245.000
17.83916 256.000
17.85910 214.000
17.87905 251.000
17.89900 229.000
17.91894 250.000
17.93889 264.000
17.95884 306.000
17.97878 243.000
17.99873 239.000
18.01868 243.000
18.03863 256.000
18.05857 285.000
18.07852 236.000
18.09847 240.000
18.11841 279.000
18.13836 260.000
18.15831 239.000
18.17825 260.000
18.19820 289.000
18.21815 268.000
18.23810 268.000
18.25804 242.000
18.27799 255.000
18.29794 258.000
18.31788 273.000
18.33783 257.000
18.35778 271.000
18.37772 310.000
18.39767 267.000
18.41762 292.000
18.43756 318.000
18.45751 346.000
18.47746 368.000
18.49741 466.000
18.51735 554.000
18.53730 543.000
18.55725 507.000
18.57719 457.000
18.59714 370.000
18.61709 310.000
18.63703 285.000
18.65698 282.000
18.67693 255.000
18.69688 265.000
18.71682 285.000
18.73677 277.000
18.75672 258.000
18.77666 261.000
18.79661 263.000
18.81656 246.000
18.83650 244.000
18.85645 274.000
18.87640 246.000
18.89634 284.000
18.91629 239.000
18.93624 255.000
18.95619 245.000
18.97613 271.000
18.99608 259.000
19.01603 247.000
19.03597 270.000
19.05592 271.000
19.07587 268.000
19.09581 253.000
19.11576 267.000
19.13571 284.000
19.15566 258.000
19.17560 258.000
19.19555 264.000
19.21550 268.000
19.23544 253.000
19.25539 243.000
19.27534 262.000
19.29528 241.000
19.31523 229.000
19.33518 248.000
19.35513 259.000
19.37507 287.000
19.39502 271.000
19.41497 266.000
19.43491 249.000
19.45486 280.000
19.47481 267.000
19.49475 297.000
19.51470 251.000
19.53465 276.000
19.55459 253.000
19.57454 255.000
19.59449 272.000
19.61444 258.000
19.63438 268.000
19.65433 251.000
19.67428 290.000
19.69422 267.000
19.71417 253.000
19.73412 256.000
19.75406 238.000
19.77401 241.000
19.79396 258.000
19.81391 297.000
19.83385 253.000
19.85380 271.000
19.87375 262.000
19.89369 259.000
19.91364 270.000
19.93359 236.000
19.95353 287.000
19.97348 274.000
19.99343 269.000
20.01337 281.000
20.03332 293.000
20.05327 248.000
20.07322 253.000
20.09316 250.000
20.11311 281.000
20.13306 247.000
20.15300 276.000
20.17295 293.000
20.19290 297.000
20.21284 242.000
20.23279 279.000
20.25274 285.000
20.27269 255.000
20.29263 245.000
20.31258 242.000
20.33253 256.000
20.35247 283.000
20.37242 253.000
20.39237 296.000
20.41231 276.000
20.43226 279.000
20.45221 286.000
20.47215 302.000
20.49210 277.000
20.51205 278.000
20.53200 268.000
20.55194 269.000
20.57189 275.000
20.59184 272.000
20.61178 300.000
20.63173 280.000
20.65168 301.000
20.67162 281.000
20.69157 250.000
20.71152 287.000
20.73147 249.000
20.75141 282.000
20.77136 278.000
20.79131 273.000
20.81125 267.000
20.83120 275.000
20.85115 299.000
20.87109 266.000
20.89104 280.000
20.91099 294.000
20.93094 270.000
20.95088 295.000
20.97083 265.000
20.99078 294.000
21.01072 252.000
21.03067 283.000
21.05062 268.000
21.07056 295.000
21.09051 266.000
21.11046 279.000
21.13040 294.000
21.15035 280.000
21.17030 290.000
21.19025 298.000
21.21019 295.000
21.23014 271.000
21.25009 282.000
21.27003 303.000
21.28998 297.000
21.30993 238.000
21.32987 286.000
21.34982 277.000
21.36977 269.000
21.38972 266.000
21.40966 301.000
21.42961 257.000
21.44956 277.000
21.46950 302.000
21.48945 269.000
21.50940 300.000
21.52934 275.000
21.54929 272.000
21.56924 270.000
21.58918 267.000
21.60913 290.000
21.62908 287.000
21.64903 305.000
21.66897 299.000
21.68892 284.000
21.70887 254.000
21.72881 239.000
21.74876 287.000
21.76871 288.000
21.78865 274.000
21.80860 300.000
21.82855 300.000
21.84850 291.000
21.86844 284.000
21.88839 322.000
21.90834 266.000
21.92828 271.000
21.94823 307.000
21.96818 300.000
21.98812 279.000
22.00807 272.000
22.02802 283.000
22.04796 287.000
22.06791 282.000
22.08786 284.000
22.10781 277.000
22.12775 279.000
22.14770 278.000
22.16765 284.000
22.18759 265.000
22.20754 272.000
22.22749 290.000
22.24743 270.000
22.26738 287.000
22.28733 294.000
22.30728 299.000
22.32722 274.000
22.34717 284.000
22.36712 284.000
22.38706 296.000
22.40701 265.000
22.42696 249.000
22.44690 303.000
22.46685 282.000
22.48680 269.000
22.50675 277.000
22.52669 271.000
22.54664 275.000
22.56659 299.000
22.58653 302.000
22.60648 265.000
22.62643 298.000
22.64637 295.000
22.66632 312.000
22.68627 295.000
22.70621 291.000
22.72616 287.000
22.74611 331.000
22.76606 259.000
22.78600 301.000
22.80595 286.000
22.82590 292.000
22.84584 307.000
22.86579 296.000
22.88574 267.000
22.90568 282.000
22.92563 283.000
22.94558 287.000
22.96553 287.000
22.98547 312.000
23.00542 284.000
23.02537 236.000
23.04531 305.000
23.06526 324.000
23.08521 320.000
23.10515 275.000
23.12510 277.000
23.14505 285.000
23.16499 291.000
23.18494 274.000
23.20489 292.000
23.22484 268.000
23.24478 289.000
23.26473 296.000
23.28468 276.000
23.30462 287.000
23.32457 307.000
23.34452 281.000
23.36446 310.000
23.38441 297.000
23.40436 273.000
23.42431 282.000
23.44425 311.000
23.46420 269.000
23.48415 277.000
23.50409 312.000
23.52404 312.000
23.54399 311.000
23.56393 299.000
23.58388 306.000
23.60383 292.000
23.62377 306.000
23.64372 294.000
23.66367 291.000
23.68362 303.000
23.70356 279.000
23.72351 269.000
23.74346 287.000
23.76340 272.000
23.78335 294.000
23.80330 311.000
23.82324 306.000
23.84319 316.000
23.86314 303.000
23.88309 288.000
23.90303 278.000
23.92298 299.000
23.94293 294.000
23.96287 313.000
23.98282 279.000
24.00277 280.000
24.02271 275.000
24.04266 300.000
24.06261 314.000
24.08256 321.000
24.10250 303.000
24.12245 314.000
24.14240 305.000
24.16234 285.000
24.18229 305.000
24.20224 305.000
24.22218 288.000
24.24213 315.000
24.26208 320.000
24.28202 302.000
24.30197 301.000
24.32192 279.000
24.34187 282.000
24.36181 304.000
24.38176 336.000
24.40171 298.000
24.42165 298.000
24.44160 326.000
24.46155 329.000
24.48149 311.000
24.50144 305.000
24.52139 287.000
24.54134 290.000
24.56128 304.000
24.58123 328.000
24.60118 293.000
24.62112 293.000
24.64107 321.000
24.66102 292.000
24.68096 335.000
24.70091 299.000
24.72086 320.000
24.74080 290.000
24.76075 341.000
24.78070 318.000
24.80065 299.000
24.82059 335.000
24.84054 317.000
24.86049 316.000
24.88043 278.000
24.90038 295.000
24.92033 314.000
24.94027 329.000
24.96022 330.000
24.98017 334.000
25.00012 320.000
25.02006 296.000
25.04001 338.000
25.05996 356.000
25.07990 302.000
25.09985 302.000
25.11980 331.000
25.13974 265.000
25.15969 301.000
25.17964 289.000
25.19958 331.000
25.21953 302.000
25.23948 340.000
25.25943 324.000
25.27937 316.000
25.29932 336.000
25.31927 301.000
25.33921 337.000
25.35916 327.000
25.37911 322.000
25.39905 342.000
25.41900 308.000
25.43895 329.000
25.45890 295.000
25.47884 314.000
25.49879 341.000
25.51874 316.000
25.53868 330.000
25.55863 329.000
25.57858 313.000
25.59852 305.000
25.61847 329.000
25.63842 321.000
25.65837 331.000
25.67831 299.000
25.69826 347.000
25.71821 303.000
25.73815 319.000
25.75810 302.000
25.77805 328.000
25.79799 316.000
25.81794 322.000
25.83789 307.000
25.85783 325.000
25.87778 283.000
25.89773 299.000
25.91768 315.000
25.93762 333.000
25.95757 333.000
25.97752 331.000
25.99746 325.000
26.01741 337.000
26.03736 333.000
26.05730 329.000
26.07725 355.000
26.09720 337.000
26.11715 336.000
26.13709 360.000
26.15704 366.000
26.17699 331.000
26.19693 318.000
26.21688 360.000
26.23683 358.000
26.25677 330.000
26.27672 356.000
26.29667 328.000
26.31661 338.000
26.33656 377.000
26.35651 330.000
26.37646 348.000
26.39640 351.000
26.41635 332.000
26.43630 360.000
26.45624 311.000
26.47619 324.000
26.49614 313.000
26.51608 328.000
26.53603 327.000
26.55598 349.000
26.57593 349.000
26.59587 345.000
26.61582 341.000
26.63577 327.000
26.65571 336.000
26.67566 324.000
26.69561 348.000
26.71555 316.000
26.73550 362.000
26.75545 353.000
26.77539 352.000
26.79534 354.000
26.81529 313.000
26.83524 312.000
26.85518 349.000
26.87513 362.000
26.89508 343.000
26.91502 341.000
26.93497 332.000
26.95492 340.000
26.97486 331.000
26.99481 334.000
27.01476 348.000
27.03471 359.000
27.05465 354.000
27.07460 333.000
27.09455 344.000
27.11449 350.000
27.13444 353.000
27.15439 342.000
27.17433 345.000
27.19428 349.000
27.21423 296.000
27.23417 363.000
27.25412 351.000
27.27407 320.000
27.29402 351.000
27.31396 318.000
27.33391 340.000
27.35386 346.000
27.37380 386.000
27.39375 340.000
27.41370 341.000
27.43364 345.000
27.45359 342.000
27.47354 332.000
27.49349 337.000
27.51343 353.000
27.53338 355.000
27.55333 314.000
27.57327 366.000
27.59322 361.000
27.61317 362.000
27.63311 340.000
27.65306 365.000
27.67301 342.000
27.69296 340.000
27.71290 379.000
27.73285 359.000
27.75280 351.000
27.77274 345.000
27.79269 373.000
27.81264 381.000
27.83258 341.000
27.85253 377.000
27.87248 327.000
27.89242 356.000
27.91237 348.000
27.93232 336.000
27.95227 374.000
27.97221 367.000
27.99216 389.000
28.01211 367.000
28.03205 364.000
28.05200 342.000
28.07195 392.000
28.09189 376.000
28.11184 368.000
28.13179 344.000
28.15174 360.000
28.17168 355.000
28.19163 314.000
28.21158 378.000
28.23152 344.000
28.25147 347.000
28.27142 360.000
28.29136 381.000
28.31131 343.000
28.33126 381.000
28.35120 370.000
28.37115 330.000
28.39110 368.000
28.41105 360.000
28.43099 382.000
28.45094 352.000
28.47089 367.000
28.49083 377.000
28.51078 364.000
28.53073 371.000
28.55067 395.000
28.57062 372.000
28.59057 388.000
28.61052 364.000
28.63046 380.000
28.65041 377.000
28.67036 331.000
28.69030 398.000
28.71025 370.000
28.73020 378.000
28.75014 363.000
28.77009 403.000
28.79004 364.000
28.80998 387.000
28.82993 357.000
28.84988 365.000
28.86983 417.000
28.88977 353.000
28.90972 382.000
28.92967 362.000
28.94961 403.000
28.96956 364.000
28.98951 357.000
29.00945 364.000
29.02940 373.000
29.04935 368.000
29.06930 397.000
29.08924 380.000
29.10919 347.000
29.12914 377.000
29.14908 415.000
29.16903 375.000
29.18898 380.000
29.20892 393.000
29.22887 395.000
29.24882 321.000
29.26877 376.000
29.28871 336.000
29.30866 386.000
29.32861 369.000
29.34855 322.000
29.36850 364.000
29.38845 371.000
29.40839 375.000
29.42834 357.000
29.44829 371.000
29.46823 371.000
29.48818 357.000
29.50813 365.000
29.52808 400.000
29.54802 381.000
29.56797 405.000
29.58792 364.000
29.60786 354.000
29.62781 400.000
29.64776 355.000
29.66770 331.000
29.68765 370.000
29.70760 375.000
29.72755 356.000
29.74749 375.000
29.76744 370.000
29.78739 428.000
29.80733 363.000
29.82728 385.000
29.84723 399.000
29.86717 366.000
29.88712 406.000
29.90707 409.000
29.92701 333.000
29.94696 416.000
29.96691 394.000
29.98686 375.000
30.00680 396.000
30.02675 418.000
30.04670 382.000
30.06664 401.000
30.08659 379.000
30.10654 414.000
30.12648 418.000
30.14643 383.000
30.16638 385.000
30.18633 382.000
30.20627 403.000
30.22622 378.000
30.24617 383.000
30.26611 435.000
30.28606 435.000
30.30601 461.000
30.32595 420.000
30.34590 475.000
30.36585 494.000
30.38579 494.000
30.40574 541.000
30.42569 636.000
30.44564 689.000
30.46558 805.000
30.48553 938.000
30.50548 975.000
30.52542 879.000
30.54537 837.000
30.56532 758.000
30.58526 653.000
30.60521 677.000
30.62516 514.000
30.64511 475.000
30.66505 403.000
30.68500 458.000
30.70495 377.000
30.72489 393.000
30.74484 406.000
30.76479 379.000
30.78473 377.000
30.80468 395.000
30.82463 398.000
30.84458 375.000
30.86452 367.000
30.88447 394.000
30.90442 389.000
30.92436 409.000
30.94431 392.000
30.96426 410.000
30.98420 380.000
31.00415 387.000
31.02410 396.000
31.04404 373.000
31.06399 351.000
31.08394 389.000
31.10389 374.000
31.12383 358.000
31.14378 363.000
31.16373 366.000
31.18367 375.000
31.20362 368.000
31.22357 348.000
31.24351 382.000
31.26346 366.000
31.28341 378.000
31.30336 382.000
31.32330 405.000
31.34325 370.000
31.36320 385.000
31.38314 407.000
31.40309 383.000
31.42304 421.000
31.44298 410.000
31.46293 375.000
31.48288 422.000
31.50282 370.000
31.52277 388.000
31.54272 428.000
31.56267 354.000
31.58261 382.000
31.60256 412.000
31.62251 405.000
31.64245 410.000
31.66240 400.000
31.68235 392.000
31.70229 394.000
31.72224 422.000
31.74219 411.000
31.76214 456.000
31.78208 418.000
31.80203 470.000
31.82198 540.000
31.84192 535.000
31.86187 651.000
31.88182 764.000
31.90176 843.000
31.92171 825.000
31.94166 773.000
31.96160 671.000
31.98155 690.000
32.00150 628.000
32.02145 551.000
32.04139 488.000
32.06134 468.000
32.08129 427.000
32.10123 406.000
32.12118 404.000
32.14113 378.000
32.16107 407.000
32.18102 383.000
32.20097 398.000
32.22092 411.000
32.24086 357.000
32.26081 396.000
32.28076 390.000
32.30070 351.000
32.32065 391.000
32.34060 380.000
32.36054 364.000
32.38049 387.000
32.40044 434.000
32.42039 417.000
32.44033 448.000
32.46028 434.000
32.48023 475.000
32.50017 430.000
32.52012 444.000
32.54007 438.000
32.56001 436.000
32.57996 449.000
32.59991 412.000
32.61985 386.000
32.63980 405.000
32.65975 393.000
32.67970 406.000
32.69964 371.000
32.71959 372.000
32.73954 406.000
32.75948 365.000
32.77943 374.000
32.79938 371.000
32.81932 361.000
32.83927 369.000
32.85922 375.000
32.87917 393.000
32.89911 324.000
32.91906 386.000
32.93901 355.000
32.95895 322.000
32.97890 332.000
32.99885 359.000
33.01879 383.000
33.03874 364.000
33.05869 374.000
33.07863 369.000
33.09858 360.000
33.11853 345.000
33.13848 355.000
33.15842 378.000
33.17837 365.000
33.19832 357.000
33.21826 381.000
33.23821 338.000
33.25816 343.000
33.27810 348.000
33.29805 365.000
33.31800 375.000
33.33795 404.000
33.35789 393.000
33.37784 369.000
33.39779 356.000
33.41773 388.000
33.43768 359.000
33.45763 393.000
33.47757 344.000
33.49752 335.000
33.51747 333.000
33.53741 381.000
33.55736 370.000
33.57731 385.000
33.59726 350.000
33.61720 380.000
33.63715 396.000
33.65710 384.000
33.67704 359.000
33.69699 369.000
33.71694 355.000
33.73688 375.000
33.75683 381.000
33.77678 341.000
33.79673 348.000
33.81667 347.000
33.83662 364.000
33.85657 361.000
33.87651 374.000
33.89646 340.000
33.91641 321.000
33.93635 348.000
33.95630 345.000
33.97625 331.000
33.99620 372.000
34.01614 359.000
34.03609 362.000
34.05604 342.000
34.07598 354.000
34.09593 329.000
34.11588 368.000
34.13582 385.000
34.15577 387.000
34.17572 374.000
34.19566 357.000
34.21561 355.000
34.23556 364.000
34.25551 370.000
34.27545 375.000
34.29540 376.000
34.31535 341.000
34.33529 413.000
34.35524 380.000
34.37519 350.000
34.39513 353.000
34.41508 337.000
34.43503 346.000
34.45498 332.000
34.47492 392.000
34.49487 351.000
34.51482 361.000
34.53476 354.000
34.55471 368.000
34.57466 403.000
34.59460 388.000
34.61455 366.000
34.63450 373.000
34.65444 401.000
34.67439 377.000
34.69434 367.000
34.71429 353.000
34.73423 389.000
34.75418 370.000
34.77413 406.000
34.79407 392.000
34.81402 372.000
34.83397 411.000
34.85391 390.000
34.87386 388.000
34.89381 383.000
34.91376 414.000
34.93370 389.000
34.95365 400.000
34.97360 404.000
34.99354 391.000
35.01349 367.000
35.03344 437.000
35.05338 384.000
35.07333 424.000
35.09328 441.000
35.11322 438.000
35.13317 442.000
35.15312 434.000
35.17307 478.000
35.19301 491.000
35.21296 491.000
35.23291 440.000
35.25285 440.000
35.27280 543.000
35.29275 554.000
35.31269 596.000
35.33264 572.000
35.35259 712.000
35.37254 778.000
35.39248 933.000
35.41243 1035.000
35.43238 1001.000
35.45232 1077.000
35.47227 1166.000
35.49222 1423.000
35.51216 1448.000
35.53211 1382.000
35.55206 1339.000
35.57201 1223.000
35.59195 1229.000
35.61190 1144.000
35.63185 1112.000
35.65179 959.000
35.67174 876.000
35.69169 790.000
35.71163 782.000
35.73158 722.000
35.75153 745.000
35.77147 745.000
35.79142 846.000
35.81137 886.000
35.83132 1007.000
35.85126 1298.000
35.87121 1541.000
35.89116 1754.000
35.91110 2156.000
35.93105 2411.000
35.95100 2426.000
35.97094 2134.000
35.99089 1745.000
36.01084 1639.000
36.03079 1483.000
36.05073 1314.000
36.07068 1048.000
36.09063 840.000
36.11057 673.000
36.13052 571.000
36.15047 527.000
36.17041 471.000
36.19036 474.000
36.21031 449.000
36.23025 460.000
36.25020 398.000
36.27015 408.000
36.29010 396.000
36.31004 426.000
36.32999 433.000
36.34994 395.000
36.36988 384.000
36.38983 426.000
36.40978 406.000
36.42972 407.000
36.44967 416.000
36.46962 411.000
36.48957 387.000
36.50951 353.000
36.52946 403.000
36.54941 390.000
36.56935 368.000
36.58930 350.000
36.60925 424.000
36.62919 391.000
36.64914 420.000
36.66909 409.000
36.68903 422.000
36.70898 384.000
36.72893 400.000
36.74888 437.000
36.76882 414.000
36.78877 448.000
36.80872 419.000
36.82866 420.000
36.84861 494.000
36.86856 485.000
36.88850 474.000
36.90845 458.000
36.92840 501.000
36.94835 484.000
36.96829 476.000
36.98824 524.000
37.00819 583.000
37.02813 613.000
37.04808 650.000
37.06803 795.000
37.08797 1100.000
37.10792 1361.000
37.12787 1552.000
37.14781 1417.000
37.16776 1200.000
37.18771 1138.000
37.20766 1144.000
37.22760 1052.000
37.24755 868.000
37.26750 777.000
37.28744 594.000
37.30739 522.000
37.32734 538.000
37.34728 461.000
37.36723 456.000
37.38718 396.000
37.40713 439.000
37.42707 435.000
37.44702 408.000
37.46697 432.000
37.48691 459.000
37.50686 405.000
37.52681 433.000
37.54675 461.000
37.56670 517.000
37.58665 522.000
37.60660 461.000
37.62654 504.000
37.64649 520.000
37.66644 475.000
37.68638 394.000
37.70633 418.000
37.72628 456.000
37.74622 419.000
37.76617 396.000
37.78612 390.000
37.80606 346.000
37.82601 371.000
37.84596 391.000
37.86591 376.000
37.88585 411.000
37.90580 350.000
37.92575 384.000
37.94569 372.000
37.96564 370.000
37.98559 335.000
38.00553 408.000
38.02548 374.000
38.04543 399.000
38.06538 396.000
38.08532 405.000
38.10527 417.000
38.12522 396.000
38.14516 388.000
38.16511 394.000
38.18506 411.000
38.20500 418.000
38.22495 415.000
38.24490 411.000
38.26484 438.000
38.28479 427.000
38.30474 414.000
38.32469 444.000
38.34463 420.000
38.36458 433.000
38.38453 425.000
38.40447 492.000
38.42442 508.000
38.44437 500.000
38.46431 520.000
38.48426 578.000
38.50421 587.000
38.52416 619.000
38.54410 788.000
38.56405 816.000
38.58400 993.000
38.60394 1132.000
38.62389 1205.000
38.64384 1236.000
38.66378 1345.000
38.68373 1307.000
38.70368 1280.000
38.72362 1223.000
38.74357 1197.000
38.76352 1084.000
38.78347 996.000
38.80341 860.000
38.82336 867.000
38.84331 758.000
38.86325 757.000
38.88320 701.000
38.90315 672.000
38.92309 657.000
38.94304 646.000
38.96299 645.000
38.98294 641.000
39.00288 662.000
39.02283 615.000
39.04278 579.000
39.06272 570.000
39.08267 524.000
39.10262 503.000
39.12256 526.000
39.14251 515.000
39.16246 449.000
39.18241 465.000
39.20235 448.000
39.22230 451.000
39.24225 459.000
39.26219 459.000
39.28214 479.000
39.30209 485.000
39.32203 535.000
39.34198 579.000
39.36193 663.000
39.38187 679.000
39.40182 761.000
39.42177 947.000
39.44172 1173.000
39.46166 1328.000
39.48161 1588.000
39.50156 1374.000
39.52150 1180.000
39.54145 1113.000
39.56140 1072.000
39.58134 1060.000
39.60129 961.000
39.62124 726.000
39.64119 623.000
39.66113 536.000
39.68108 477.000
39.70103 459.000
39.72097 435.000
39.74092 428.000
39.76087 379.000
39.78081 408.000
39.80076 394.000
39.82071 342.000
39.84065 387.000
39.86060 359.000
39.88055 386.000
39.90050 375.000
39.92044 359.000
39.94039 354.000
39.96034 385.000
39.98028 346.000
40.00023 368.000
40.02018 340.000
40.04012 337.000
40.06007 392.000
40.08002 355.000
40.09997 334.000
40.11991 362.000
40.13986 337.000
40.15981 344.000
40.17975 348.000
40.19970 339.000
40.21965 349.000
40.23959 347.000
40.25954 366.000
40.27949 385.000
40.29943 315.000
40.31938 326.000
40.33933 340.000
40.35928 343.000
40.37922 383.000
40.39917 352.000
40.41912 363.000
40.43906 341.000
40.45901 330.000
40.47896 351.000
40.49890 336.000
40.51885 359.000
40.53880 375.000
40.55875 359.000
40.57869 351.000
40.59864 350.000
40.61859 359.000
40.63853 365.000
40.65848 301.000
40.67843 337.000
40.69837 372.000
40.71832 343.000
40.73827 342.000
40.75822 368.000
40.77816 324.000
40.79811 350.000
40.81806 340.000
40.83800 355.000
40.85795 346.000
40.87790 338.000
40.89784 337.000
40.91779 330.000
40.93774 353.000
40.95768 356.000
40.97763 330.000
40.99758 352.000
41.01753 363.000
41.03747 295.000
41.05742 357.000
41.07737 330.000
41.09731 365.000
41.11726 326.000
41.13721 367.000
41.15715 341.000
41.17710 359.000
41.19705 368.000
41.21700 352.000
41.23694 327.000
41.25689 357.000
41.27684 366.000
41.29678 342.000
41.31673 336.000
41.33668 353.000
41.35662 343.000
41.37657 324.000
41.39652 375.000
41.41646 358.000
41.43641 410.000
41.45636 347.000
41.47631 345.000
41.49625 320.000
41.51620 362.000
41.53615 349.000
41.55609 336.000
41.57604 369.000
41.59599 332.000
41.61593 352.000
41.63588 350.000
41.65583 300.000
41.67578 384.000
41.69572 348.000
41.71567 313.000
41.73562 350.000
41.75556 348.000
41.77551 361.000
41.79546 346.000
41.81540 361.000
41.83535 339.000
41.85530 346.000
41.87524 325.000
41.89519 318.000
41.91514 363.000
41.93509 372.000
41.95503 374.000
41.97498 331.000
41.99493 343.000
42.01487 333.000
42.03482 386.000
42.05477 341.000
42.07471 350.000
42.09466 358.000
42.11461 355.000
42.13456 332.000
42.15450 361.000
42.17445 331.000
42.19440 331.000
42.21434 380.000
42.23429 333.000
42.25424 386.000
42.27418 332.000
42.29413 403.000
42.31408 352.000
42.33403 381.000
42.35397 403.000
42.37392 332.000
42.39387 364.000
42.41381 366.000
42.43376 362.000
42.45371 347.000
42.47365 366.000
42.49360 346.000
42.51355 377.000
42.53349 378.000
42.55344 384.000
42.57339 385.000
42.59334 356.000
42.61328 383.000
42.63323 410.000
42.65318 415.000
42.67312 402.000
42.69307 435.000
42.71302 416.000
42.73296 391.000
42.75291 450.000
42.77286 431.000
42.79281 391.000
42.81275 420.000
42.83270 458.000
42.85265 461.000
42.87259 456.000
42.89254 490.000
42.91249 509.000
42.93243 536.000
42.95238 599.000
42.97233 612.000
42.99227 640.000
43.01222 754.000
43.03217 814.000
43.05212 946.000
43.07206 1119.000
43.09201 1283.000
43.11196 1352.000
43.13190 1618.000
43.15185 1667.000
43.17180 1560.000
43.19174 1535.000
43.21169 1523.000
43.23164 1322.000
43.25159 1307.000
43.27153 1160.000
43.29148 1051.000
43.31143 961.000
43.33137 841.000
43.35132 727.000
43.37127 703.000
43.39121 619.000
43.41116 571.000
43.43111 591.000
43.45105 618.000
43.47100 601.000
43.49095 657.000
43.51090 669.000
43.53084 796.000
43.55079 873.000
43.57074 885.000
43.59068 854.000
43.61063 809.000
43.63058 807.000
43.65052 842.000
43.67047 851.000
43.69042 787.000
43.71037 781.000
43.73031 686.000
43.75026 603.000
43.77021 598.000
43.79015 524.000
43.81010 494.000
43.83005 470.000
43.84999 447.000
43.86994 437.000
43.88989 448.000
43.90984 404.000
43.92978 396.000
43.94973 412.000
43.96968 390.000
43.98962 348.000
44.00957 350.000
44.02952 368.000
44.04946 373.000
44.06941 357.000
44.08936 316.000
44.10930 345.000
44.12925 331.000
44.14920 352.000
44.16915 336.000
44.18909 315.000
44.20904 358.000
44.22899 383.000
44.24893 324.000
44.26888 327.000
44.28883 340.000
44.30877 330.000
44.32872 366.000
44.34867 319.000
44.36862 357.000
44.38856 318.000
44.40851 333.000
44.42846 334.000
44.44840 359.000
44.46835 329.000
44.48830 330.000
44.50824 332.000
44.52819 339.000
44.54814 351.000
44.56808 308.000
44.58803 344.000
44.60798 319.000
44.62793 325.000
44.64787 347.000
44.66782 294.000
44.68777 291.000
44.70771 339.000
44.72766 334.000
44.74761 339.000
44.76755 325.000
44.78750 373.000
44.80745 309.000
44.82740 327.000
44.84734 318.000
44.86729 355.000
44.88724 319.000
44.90718 352.000
44.92713 353.000
44.94708 355.000
44.96702 367.000
44.98697 320.000
45.00692 329.000
45.02686 356.000
45.04681 358.000
45.06676 367.000
45.08671 371.000
45.10665 359.000
45.12660 341.000
45.14655 352.000
45.16649 383.000
45.18644 380.000
45.20639 365.000
45.22633 368.000
45.24628 365.000
45.26623 355.000
45.28618 332.000
45.30612 383.000
45.32607 350.000
45.34602 348.000
45.36596 330.000
45.38591 356.000
45.40586 328.000
45.42580 352.000
45.44575 314.000
45.46570 322.000
45.48565 330.000
45.50559 319.000
45.52554 352.000
45.54549 347.000
45.56543 321.000
45.58538 342.000
45.60533 304.000
45.62527 322.000
45.64522 315.000
45.66517 333.000
45.68511 310.000
45.70506 326.000
45.72501 326.000
45.74496 301.000
45.76490 308.000
45.78485 337.000
45.80480 344.000
45.82474 340.000
45.84469 312.000
45.86464 333.000
45.88458 314.000
45.90453 320.000
45.92448 305.000
45.94443 297.000
45.96437 328.000
45.98432 359.000
46.00427 330.000
46.02421 302.000
46.04416 344.000
46.06411 331.000
46.08405 323.000
46.10400 296.000
46.12395 309.000
46.14389 302.000
46.16384 315.000
46.18379 319.000
46.20374 333.000
46.22368 344.000
46.24363 323.000
46.26358 345.000
46.28352 337.000
46.30347 337.000
46.32342 336.000
46.34336 326.000
46.36331 346.000
46.38326 344.000
46.40321 350.000
46.42315 355.000
46.44310 312.000
46.46305 340.000
46.48299 348.000
46.50294 333.000
46.52289 324.000
46.54283 306.000
46.56278 302.000
46.58273 346.000
46.60267 292.000
46.62262 323.000
46.64257 310.000
46.66252 292.000
46.68246 328.000
46.70241 320.000
46.72236 295.000
46.74230 264.000
46.76225 319.000
46.78220 323.000
46.80214 345.000
46.82209 322.000
46.84204 351.000
46.86199 303.000
46.88193 312.000
46.90188 270.000
46.92183 301.000
46.94177 269.000
46.96172 343.000
46.98167 286.000
47.00161 320.000
47.02156 302.000
47.04151 324.000
47.06146 293.000
47.08140 311.000
47.10135 292.000
47.12130 318.000
47.14124 299.000
47.16119 329.000
47.18114 344.000
47.20108 314.000
47.22103 350.000
47.24098 304.000
47.26092 328.000
47.28087 301.000
47.30082 320.000
47.32077 327.000
47.34071 310.000
47.36066 315.000
47.38061 336.000
47.40055 307.000
47.42050 298.000
47.44045 339.000
47.46039 307.000
47.48034 263.000
47.50029 340.000
47.52024 344.000
47.54018 342.000
47.56013 321.000
47.58008 289.000
47.60002 299.000
47.61997 291.000
47.63992 339.000
47.65986 317.000
47.67981 315.000
47.69976 331.000
47.71970 308.000
47.73965 284.000
47.75960 318.000
47.77955 332.000
47.79949 304.000
47.81944 286.000
47.83939 355.000
47.85933 330.000
47.87928 323.000
47.89923 329.000
47.91917 301.000
47.93912 313.000
47.95907 303.000
47.97902 303.000
47.99896 313.000
48.01891 313.000
48.03886 317.000
48.05880 346.000
48.07875 344.000
48.09870 333.000
48.11864 324.000
48.13859 326.000
48.15854 376.000
48.17848 354.000
48.19843 344.000
48.21838 376.000
48.23833 356.000
48.25827 385.000
48.27822 350.000
48.29817 362.000
48.31811 364.000
48.33806 381.000
48.35801 430.000
48.37795 384.000
48.39790 398.000
48.41785 380.000
48.43780 408.000
48.45774 372.000
48.47769 448.000
48.49764 397.000
48.51758 463.000
48.53753 442.000
48.55748 437.000
48.57742 506.000
48.59737 492.000
48.61732 507.000
48.63726 572.000
48.65721 533.000
48.67716 650.000
48.69711 754.000
48.71705 748.000
48.73700 857.000
48.75695 1030.000
48.77689 1196.000
48.79684 1407.000
48.81679 1520.000
48.83673 1472.000
48.85668 1364.000
48.87663 1177.000
48.89658 1126.000
48.91652 1093.000
48.93647 1070.000
48.95642 992.000
48.97636 934.000
48.99631 803.000
49.01626 656.000
49.03620 563.000
49.05615 554.000
49.07610 513.000
49.09605 455.000
49.11599 405.000
49.13594 417.000
49.15589 367.000
49.17583 368.000
49.19578 355.000
49.21573 309.000
49.23567 347.000
49.25562 357.000
49.27557 332.000
49.29551 352.000
49.31546 330.000
49.33541 351.000
49.35536 355.000
49.37530 331.000
49.39525 329.000
49.41520 317.000
49.43514 312.000
49.45509 303.000
49.47504 356.000
49.49498 340.000
49.51493 315.000
49.53488 307.000
49.55483 321.000
49.57477 348.000
49.59472 319.000
49.61467 344.000
49.63461 283.000
49.65456 322.000
49.67451 314.000
49.69445 310.000
49.71440 317.000
49.73435 301.000
49.75429 312.000
49.77424 324.000
49.79419 299.000
49.81414 288.000
49.83408 335.000
49.85403 327.000
49.87398 287.000
49.89392 329.000
49.91387 317.000
49.93382 343.000
49.95376 348.000
49.97371 314.000
49.99366 294.000
50.01361 279.000
50.03355 308.000
50.05350 325.000
50.07345 350.000
50.09339 259.000
50.11334 308.000
50.13329 335.000
50.15323 309.000
50.17318 282.000
50.19313 289.000
50.21307 327.000
50.23302 303.000
50.25297 323.000
50.27292 303.000
50.29286 296.000
50.31281 300.000
50.33276 323.000
50.35270 313.000
50.37265 304.000
50.39260 321.000
50.41254 306.000
50.43249 307.000
50.45244 299.000
50.47239 320.000
50.49233 302.000
50.51228 323.000
50.53223 303.000
50.55217 296.000
50.57212 334.000
50.59207 321.000
50.61201 315.000
50.63196 333.000
50.65191 310.000
50.67186 290.000
50.69180 332.000
50.71175 284.000
50.73170 306.000
50.75164 307.000
50.77159 325.000
50.79154 325.000
50.81148 336.000
50.83143 307.000
50.85138 314.000
50.87132 290.000
50.89127 315.000
50.91122 305.000
50.93117 299.000
50.95111 301.000
50.97106 339.000
50.99101 328.000
51.01095 326.000
51.03090 314.000
51.05085 319.000
51.07079 324.000
51.09074 306.000
51.11069 324.000
51.13064 322.000
51.15058 288.000
51.17053 304.000
51.19048 287.000
51.21042 282.000
51.23037 299.000
51.25032 312.000
51.27026 323.000
51.29021 309.000
51.31016 298.000
51.33010 331.000
51.35005 314.000
51.37000 316.000
51.38995 328.000
51.40989 309.000
51.42984 315.000
51.44979 322.000
51.46973 316.000
51.48968 333.000
51.50963 329.000
51.52957 305.000
51.54952 324.000
51.56947 298.000
51.58942 277.000
51.60936 296.000
51.62931 292.000
51.64926 291.000
51.66920 308.000
51.68915 308.000
51.70910 320.000
51.72904 299.000
51.74899 308.000
51.76894 306.000
51.78888 274.000
51.80883 258.000
51.82878 286.000
51.84873 331.000
51.86867 305.000
51.88862 298.000
51.90857 329.000
51.92851 316.000
51.94846 310.000
51.96841 314.000
51.98835 296.000
52.00830 316.000
52.02825 307.000
52.04820 285.000
52.06814 310.000
52.08809 288.000
52.10804 312.000
52.12798 298.000
52.14793 321.000
52.16788 308.000
52.18782 303.000
52.20777 323.000
52.22772 306.000
52.24767 287.000
52.26761 292.000
52.28756 313.000
52.30751 280.000
52.32745 310.000
52.34740 339.000
52.36735 311.000
52.38729 307.000
52.40724 276.000
52.42719 320.000
52.44713 335.000
52.46708 299.000
52.48703 349.000
52.50698 301.000
52.52692 282.000
52.54687 265.000
52.56682 315.000
52.58676 287.000
52.60671 304.000
52.62666 316.000
52.64660 297.000
52.66655 330.000
52.68650 307.000
52.70645 330.000
52.72639 328.000
52.74634 321.000
52.76629 331.000
52.78623 298.000
52.80618 334.000
52.82613 333.000
52.84607 323.000
52.86602 324.000
52.88597 295.000
52.90591 352.000
52.92586 315.000
52.94581 315.000
52.96576 326.000
52.98570 315.000
53.00565 297.000
53.02560 301.000
53.04554 336.000
53.06549 310.000
53.08544 335.000
53.10538 338.000
53.12533 328.000
53.14528 325.000
53.16523 310.000
53.18517 371.000
53.20512 332.000
53.22507 344.000
53.24501 356.000
53.26496 351.000
53.28491 340.000
53.30485 344.000
53.32480 356.000
53.34475 354.000
53.36469 368.000
53.38464 320.000
53.40459 338.000
53.42454 384.000
53.44448 352.000
53.46443 347.000
53.48438 376.000
53.50432 330.000
53.52427 353.000
53.54422 346.000
53.56416 324.000
53.58411 352.000
53.60406 359.000
53.62401 348.000
53.64395 330.000
53.66390 288.000
53.68385 293.000
53.70379 313.000
53.72374 368.000
53.74369 305.000
53.76363 299.000
53.78358 316.000
53.80353 313.000
53.82348 331.000
53.84342 317.000
53.86337 340.000
53.88332 332.000
53.90326 317.000
53.92321 352.000
53.94316 315.000
53.96310 314.000
53.98305 312.000
54.00300 341.000
54.02294 343.000
54.04289 342.000
54.06284 321.000
54.08279 321.000
54.10273 321.000
54.12268 351.000
54.14263 354.000
54.16257 392.000
54.18252 372.000
54.20247 381.000
54.22241 404.000
54.24236 418.000
54.26231 411.000
54.28226 390.000
54.30220 399.000
54.32215 372.000
54.34210 374.000
54.36204 370.000
54.38199 363.000
54.40194 365.000
54.42188 364.000
54.44183 332.000
54.46178 334.000
54.48172 316.000
54.50167 310.000
54.52162 314.000
54.54157 328.000
54.56151 311.000
54.58146 333.000
54.60141 290.000
54.62135 303.000
54.64130 288.000
54.66125 321.000
54.68119 332.000
54.70114 313.000
54.72109 314.000
54.74104 303.000
54.76098 320.000
54.78093 277.000
54.80088 294.000
54.82082 307.000
54.84077 325.000
54.86072 320.000
54.88066 263.000
54.90061 318.000
54.92056 295.000
54.94050 316.000
54.96045 310.000
54.98040 267.000
55.00035 262.000
55.02029 307.000
55.04024 352.000
55.06019 279.000
55.08013 292.000
55.10008 315.000
55.12003 294.000
55.13997 295.000
55.15992 308.000
55.17987 342.000
55.19982 287.000
55.21976 288.000
55.23971 291.000
55.25966 302.000
55.27960 286.000
55.29955 307.000
55.31950 327.000
55.33944 309.000
55.35939 287.000
55.37934 292.000
55.39929 307.000
55.41923 334.000
55.43918 287.000
55.45913 311.000
55.47907 293.000
55.49902 300.000
55.51897 305.000
55.53891 279.000
55.55886 353.000
55.57881 323.000
55.59875 289.000
55.61870 298.000
55.63865 273.000
55.65860 264.000
55.67854 305.000
55.69849 317.000
55.71844 332.000
55.73838 274.000
55.75833 267.000
55.77828 299.000
55.79822 316.000
55.81817 273.000
55.83812 307.000
55.85807 298.000
55.87801 309.000
55.89796 304.000
55.91791 312.000
55.93785 310.000
55.95780 312.000
55.97775 296.000
55.99769 283.000
56.01764 314.000
56.03759 318.000
56.05753 313.000
56.07748 290.000
56.09743 304.000
56.11738 323.000
56.13732 294.000
56.15727 298.000
56.17722 297.000
56.19716 297.000
56.21711 312.000
56.23706 287.000
56.25700 327.000
56.27695 309.000
56.29690 304.000
56.31685 296.000
56.33679 309.000
56.35674 291.000
56.37669 286.000
56.39663 323.000
56.41658 267.000
56.43653 298.000
56.45647 305.000
56.47642 311.000
56.49637 303.000
56.51631 287.000
56.53626 299.000
56.55621 301.000
56.57616 336.000
56.59610 309.000
56.61605 318.000
56.63600 293.000
56.65594 339.000
56.67589 340.000
56.69584 301.000
56.71578 298.000
56.73573 304.000
56.75568 283.000
56.77563 325.000
56.79557 333.000
56.81552 320.000
56.83547 306.000
56.85541 305.000
56.87536 306.000
56.89531 334.000
56.91525 313.000
56.93520 312.000
56.95515 329.000
56.97510 304.000
56.99504 308.000
57.01499 296.000
57.03494 302.000
57.05488 345.000
57.07483 309.000
57.09478 297.000
57.11472 292.000
57.13467 322.000
57.15462 301.000
57.17456 287.000
57.19451 361.000
57.21446 334.000
57.23441 330.000
57.25435 341.000
57.27430 312.000
57.29425 341.000
57.31419 315.000
57.33414 342.000
57.35409 332.000
57.37403 320.000
57.39398 320.000
57.41393 351.000
57.43388 364.000
57.45382 354.000
57.47377 357.000
57.49372 374.000
57.51366 363.000
57.53361 356.000
57.55356 386.000
57.57350 391.000
57.59345 413.000
57.61340 427.000
57.63334 444.000
57.65329 464.000
57.67324 447.000
57.69319 521.000
57.71313 561.000
57.73308 544.000
57.75303 554.000
57.77297 579.000
57.79292 636.000
57.81287 611.000
57.83281 609.000
57.85276 606.000
57.87271 533.000
57.89266 594.000
57.91260 509.000
57.93255 540.000
57.95250 536.000
57.97244 486.000
57.99239 468.000
58.01234 449.000
58.03228 477.000
58.05223 452.000
58.07218 431.000
58.09212 397.000
58.11207 415.000
58.13202 410.000
58.15197 406.000
58.17191 400.000
58.19186 433.000
58.21181 463.000
58.23175 390.000
58.25170 386.000
58.27165 397.000
58.29159 401.000
58.31154 400.000
58.33149 389.000
58.35144 398.000
58.37138 393.000
58.39133 383.000
58.41128 366.000
58.43122 319.000
58.45117 369.000
58.47112 346.000
58.49106 336.000
58.51101 308.000
58.53096 349.000
58.55090 361.000
58.57085 319.000
58.59080 327.000
58.61075 335.000
58.63069 322.000
58.65064 318.000
58.67059 320.000
58.69053 322.000
58.71048 325.000
58.73043 304.000
58.75037 303.000
58.77032 326.000
58.79027 311.000
58.81022 316.000
58.83016 323.000
58.85011 268.000
58.87006 312.000
58.89000 279.000
58.90995 306.000
58.92990 302.000
58.94984 311.000
58.96979 305.000
58.98974 302.000
59.00969 282.000
59.02963 307.000
59.04958 306.000
59.06953 281.000
59.08947 276.000
59.10942 300.000
59.12937 284.000
59.14931 300.000
59.16926 325.000
59.18921 279.000
59.20915 293.000
59.22910 313.000
59.24905 306.000
59.26900 279.000
59.28894 277.000
59.30889 331.000
59.32884 312.000
59.34878 295.000
59.36873 320.000
59.38868 280.000
59.40862 311.000
59.42857 288.000
59.44852 315.000
59.46847 285.000
59.48841 282.000
59.50836 280.000
59.52831 309.000
59.54825 303.000
59.56820 307.000
59.58815 316.000
59.60809 293.000
59.62804 290.000
59.64799 295.000
59.66793 299.000
59.68788 308.000
59.70783 289.000
59.72778 313.000
59.74772 309.000
59.76767 289.000
59.78762 298.000
59.80756 271.000
59.82751 290.000
59.84746 304.000
59.86740 307.000
59.88735 299.000
59.90730 301.000
59.92725 297.000
59.94719 280.000
59.96714 287.000
59.98709 288.000
60.00703 310.000
60.02698 332.000
60.04693 301.000
60.06687 320.000
60.08682 285.000
60.10677 309.000
60.12671 314.000
60.14666 288.000
60.16661 325.000
60.18656 336.000
60.20650 290.000
60.22645 309.000
60.24640 287.000
60.26634 291.000
60.28629 281.000
60.30624 323.000
60.32618 321.000
60.34613 294.000
60.36608 297.000
60.38603 335.000
60.40597 310.000
60.42592 280.000
60.44587 305.000
60.46581 332.000
60.48576 278.000
60.50571 306.000
60.52565 320.000
60.54560 326.000
60.56555 334.000
60.58550 293.000
60.60544 333.000
60.62539 280.000
60.64534 307.000
60.66528 334.000
60.68523 324.000
60.70518 319.000
60.72512 298.000
60.74507 325.000
60.76502 320.000
60.78496 321.000
60.80491 309.000
60.82486 299.000
60.84481 316.000
60.86475 282.000
60.88470 313.000
60.90465 318.000
60.92459 307.000
60.94454 347.000
60.96449 316.000
60.98443 309.000
61.00438 309.000
61.02433 328.000
61.04428 320.000
61.06422 347.000
61.08417 299.000
61.10412 321.000
61.12406 308.000
61.14401 331.000
61.16396 333.000
61.18390 323.000
61.20385 316.000
61.22380 341.000
61.24374 340.000
61.26369 355.000
61.28364 338.000
61.30359 332.000
61.32353 375.000
61.34348 342.000
61.36343 372.000
61.38337 350.000
61.40332 385.000
61.42327 373.000
61.44321 429.000
61.46316 435.000
61.48311 444.000
61.50306 456.000
61.52300 524.000
61.54295 492.000
61.56290 454.000
61.58284 451.000
61.60279 460.000
61.62274 482.000
61.64268 494.000
61.66263 482.000
61.68258 499.000
61.70252 421.000
61.72247 494.000
61.74242 470.000
61.76237 467.000
61.78231 475.000
61.80226 427.000
61.82221 456.000
61.84215 414.000
61.86210 422.000
61.88205 454.000
61.90199 494.000
61.92194 544.000
61.94189 533.000
61.96184 539.000
61.98178 610.000
62.00173 580.000
62.02168 603.000
62.04162 646.000
62.06157 602.000
62.08152 572.000
62.10146 566.000
62.12141 503.000
62.14136 535.000
62.16131 552.000
62.18125 517.000
62.20120 486.000
62.22115 528.000
62.24109 460.000
62.26104 460.000
62.28099 440.000
62.30093 424.000
62.32088 410.000
62.34083 391.000
62.36077 416.000
62.38072 379.000
62.40067 362.000
62.42062 392.000
62.44056 413.000
62.46051 432.000
62.48046 479.000
62.50040 477.000
62.52035 491.000
62.54030 548.000
62.56024 574.000
62.58019 672.000
62.60014 694.000
62.62009 714.000
62.64003 867.000
62.65998 875.000
62.67993 807.000
62.69987 862.000
62.71982 772.000
62.73977 778.000
62.75971 706.000
62.77966 681.000
62.79961 653.000
62.81955 708.000
62.83950 680.000
62.85945 648.000
62.87940 629.000
62.89934 570.000
62.91929 502.000
62.93924 504.000
62.95918 468.000
62.97913 438.000
62.99908 420.000
63.01902 380.000
63.03897 357.000
63.05892 397.000
63.07887 364.000
63.09881 374.000
63.11876 368.000
63.13871 374.000
63.15865 389.000
63.17860 372.000
63.19855 408.000
63.21849 386.000
63.23844 404.000
63.25839 392.000
63.27833 431.000
63.29828 447.000
63.31823 459.000
63.33818 453.000
63.35812 492.000
63.37807 518.000
63.39802 542.000
63.41796 603.000
63.43791 633.000
63.45786 640.000
63.47780 653.000
63.49775 666.000
63.51770 703.000
63.53765 641.000
63.55759 694.000
63.57754 603.000
63.59749 587.000
63.61743 550.000
63.63738 555.000
63.65733 504.000
63.67727 553.000
63.69722 514.000
63.71717 451.000
63.73712 502.000
63.75706 444.000
63.77701 409.000
63.79696 371.000
63.81690 375.000
63.83685 368.000
63.85680 354.000
63.87674 337.000
63.89669 353.000
63.91664 323.000
63.93658 308.000
63.95653 341.000
63.97648 335.000
63.99643 332.000
64.01637 337.000
64.03632 323.000
64.05627 298.000
64.07621 337.000
64.09616 329.000
64.11611 357.000
64.13605 336.000
64.15600 353.000
64.17595 306.000
64.19590 299.000
64.21584 324.000
64.23579 353.000
64.25574 328.000
64.27568 299.000
64.29563 346.000
64.31558 370.000
64.33552 348.000
64.35547 346.000
64.37542 341.000
64.39536 333.000
64.41531 359.000
64.43526 350.000
64.45521 364.000
64.47515 368.000
64.49510 412.000
64.51505 426.000
64.53499 470.000
64.55494 532.000
64.57489 563.000
64.59483 621.000
64.61478 630.000
64.63473 593.000
64.65468 567.000
64.67462 531.000
64.69457 483.000
64.71452 506.000
64.73446 491.000
64.75441 482.000
64.77436 498.000
64.79430 489.000
64.81425 469.000
64.83420 473.000
64.85414 411.000
64.87409 348.000
64.89404 317.000
64.91399 360.000
64.93393 371.000
64.95388 353.000
64.97383 361.000
64.99377 375.000
65.01372 297.000
65.03367 299.000
65.05361 307.000
65.07356 317.000
65.09351 307.000
65.11346 319.000
65.13340 344.000
65.15335 339.000
65.17330 320.000
65.19324 333.000
65.21319 354.000
65.23314 292.000
65.25308 285.000
65.27303 300.000
65.29298 314.000
65.31293 337.000
65.33287 336.000
65.35282 344.000
65.37277 344.000
65.39271 364.000
65.41266 324.000
65.43261 319.000
65.45255 330.000
65.47250 328.000
65.49245 354.000
65.51239 361.000
65.53234 377.000
65.55229 382.000
65.57224 334.000
65.59218 351.000
65.61213 353.000
65.63208 389.000
65.65202 345.000
65.67197 407.000
65.69192 381.000
65.71186 417.000
65.73181 384.000
65.75176 389.000
65.77171 381.000
65.79165 352.000
65.81160 348.000
65.83155 375.000
65.85149 385.000
65.87144 380.000
65.89139 370.000
65.91133 378.000
65.93128 401.000
65.95123 333.000
65.97117 391.000
65.99112 365.000
66.01107 341.000
66.03102 360.000
66.05096 349.000
66.07091 355.000
66.09086 362.000
66.11080 387.000
66.13075 348.000
66.15070 408.000
66.17064 407.000
66.19059 375.000
66.21054 419.000
66.23049 427.000
66.25043 382.000
66.27038 408.000
66.29033 459.000
66.31027 430.000
66.33022 466.000
66.35017 431.000
66.37011 462.000
66.39006 422.000
66.41001 396.000
66.42995 440.000
66.44990 402.000
66.46985 412.000
66.48980 379.000
66.50974 397.000
66.52969 394.000
66.54964 371.000
66.56958 400.000
66.58953 370.000
66.60948 426.000
66.62942 397.000
66.64937 383.000
66.66932 373.000
66.68927 403.000
66.70921 376.000
66.72916 392.000
66.74911 400.000
66.76905 348.000
66.78900 390.000
66.80895 442.000
66.82889 407.000
66.84884 431.000
66.86879 450.000
66.88874 482.000
66.90868 459.000
66.92863 514.000
66.94858 490.000
66.96852 510.000
66.98847 604.000
67.00842 522.000
67.02836 509.000
67.04831 490.000
67.06826 428.000
67.08820 403.000
67.10815 425.000
67.12810 464.000
67.14805 436.000
67.16799 394.000
67.18794 424.000
67.20789 411.000
67.22783 388.000
67.24778 379.000
67.26773 372.000
67.28767 350.000
67.30762 337.000
67.32757 349.000
67.34752 343.000
67.36746 371.000
67.38741 325.000
67.40736 331.000
67.42730 320.000
67.44725 314.000
67.46720 351.000
67.48714 336.000
67.50709 356.000
67.52704 339.000
67.54698 339.000
67.56693 316.000
67.58688 330.000
67.60683 327.000
67.62677 359.000
67.64672 359.000
67.66667 345.000
67.68661 353.000
67.70656 355.000
67.72651 364.000
67.74645 360.000
67.76640 391.000
67.78635 411.000
67.80630 350.000
67.82624 349.000
67.84619 393.000
67.86614 387.000
67.88608 361.000
67.90603 427.000
67.92598 416.000
67.94592 379.000
67.96587 391.000
67.98582 438.000
68.00576 401.000
68.02571 433.000
68.04566 418.000
68.06561 393.000
68.08555 402.000
68.10550 386.000
68.12545 407.000
68.14539 369.000
68.16534 359.000
68.18529 372.000
68.20523 352.000
68.22518 391.000
68.24513 388.000
68.26508 387.000
68.28502 334.000
68.30497 350.000
68.32492 331.000
68.34486 319.000
68.36481 307.000
68.38476 328.000
68.40470 319.000
68.42465 351.000
68.44460 315.000
68.46455 285.000
68.48449 337.000
68.50444 303.000
68.52439 286.000
68.54433 333.000
68.56428 317.000
68.58423 334.000
68.60417 322.000
68.62412 307.000
68.64407 310.000
68.66401 335.000
68.68396 279.000
68.70391 301.000
68.72386 264.000
68.74380 304.000
68.76375 317.000
68.78370 310.000
68.80364 307.000
68.82359 307.000
68.84354 296.000
68.86348 275.000
68.88343 306.000
68.90338 253.000
68.92333 322.000
68.94327 284.000
68.96322 315.000
68.98317 310.000
69.00311 275.000
69.02306 300.000
69.04301 297.000
69.06295 300.000
69.08290 289.000
69.10285 259.000
69.12279 288.000
69.14274 313.000
69.16269 285.000
69.18264 302.000
69.20258 292.000
69.22253 298.000
69.24248 280.000
69.26242 309.000
69.28237 284.000
69.30232 302.000
69.32226 300.000
69.34221 293.000
69.36216 287.000
69.38211 283.000
69.40205 303.000
69.42200 295.000
69.44195 305.000
69.46189 294.000
69.48184 284.000
69.50179 275.000
69.52173 287.000
69.54168 308.000
69.56163 297.000
69.58157 275.000
69.60152 278.000
69.62147 330.000
69.64142 303.000
69.66136 306.000
69.68131 304.000
69.70126 292.000
69.72120 291.000
69.74115 311.000
69.76110 307.000
69.78104 305.000
69.80099 308.000
69.82094 309.000
69.84089 279.000
69.86083 284.000
69.88078 278.000
69.90073 275.000
69.92067 285.000
69.94062 293.000
69.96057 271.000
69.98051 309.000
70.00046 280.000
70.02041 300.000
70.04035 310.000
70.06030 284.000
70.08025 297.000
70.10020 300.000
70.12014 301.000
70.14009 301.000
70.16004 291.000
70.17998 304.000
70.19993 331.000
70.21988 299.000
70.23982 286.000
70.25977 290.000
70.27972 304.000
70.29967 307.000
70.31961 293.000
70.33956 305.000
70.35951 282.000
70.37945 271.000
70.39940 278.000
70.41935 273.000
70.43929 272.000
70.45924 282.000
70.47919 323.000
70.49914 274.000
70.51908 280.000
70.53903 274.000
70.55898 307.000
70.57892 275.000
70.59887 288.000
70.61882 319.000
70.63876 280.000
70.65871 267.000
70.67866 263.000
70.69860 290.000
70.71855 321.000
70.73850 314.000
70.75845 263.000
70.77839 314.000
70.79834 307.000
70.81829 287.000
70.83823 287.000
70.85818 277.000
70.87813 301.000
70.89807 305.000
70.91802 262.000
70.93797 310.000
70.95792 300.000
70.97786 274.000
70.99781 272.000
71.01776 269.000
71.03770 294.000
71.05765 308.000
71.07760 289.000
71.09754 305.000
71.11749 289.000
71.13744 298.000
71.15738 303.000
71.17733 281.000
71.19728 298.000
71.21723 291.000
71.23717 306.000
71.25712 270.000
71.27707 278.000
71.29701 327.000
71.31696 280.000
71.33691 285.000
71.35685 297.000
71.37680 282.000
71.39675 304.000
71.41670 278.000
71.43664 298.000
71.45659 302.000
71.47654 291.000
71.49648 310.000
71.51643 298.000
71.53638 284.000
71.55632 261.000
71.57627 295.000
71.59622 300.000
71.61616 295.000
71.63611 290.000
71.65606 279.000
71.67601 280.000
71.69595 302.000
71.71590 341.000
71.73585 333.000
71.75579 285.000
71.77574 313.000
71.79569 310.000
71.81563 294.000
71.83558 277.000
71.85553 322.000
71.87548 304.000
71.89542 326.000
71.91537 295.000
71.93532 290.000
71.95526 358.000
71.97521 313.000
71.99516 344.000
72.01510 325.000
72.03505 322.000
72.05500 342.000
72.07495 325.000
72.09489 357.000
72.11484 326.000
72.13479 329.000
72.15473 299.000
72.17468 307.000
72.19463 322.000
72.21457 339.000
72.23452 312.000
72.25447 359.000
72.27441 331.000
72.29436 359.000
72.31431 388.000
72.33426 376.000
72.35420 367.000
72.37415 389.000
72.39410 337.000
72.41404 392.000
72.43399 349.000
72.45394 328.000
72.47388 351.000
72.49383 326.000
72.51378 329.000
72.53373 330.000
72.55367 343.000
72.57362 299.000
72.59357 295.000
72.61351 304.000
72.63346 311.000
72.65341 276.000
72.67335 294.000
72.69330 332.000
72.71325 307.000
72.73319 307.000
72.75314 305.000
72.77309 306.000
72.79304 322.000
72.81298 288.000
72.83293 339.000
72.85288 292.000
72.87282 321.000
72.89277 287.000
72.91272 280.000
72.93266 346.000
72.95261 294.000
72.97256 275.000
72.99251 287.000
73.01245 291.000
73.03240 276.000
73.05235 294.000
73.07229 315.000
73.09224 303.000
73.11219 296.000
73.13213 312.000
73.15208 297.000
73.17203 314.000
73.19197 301.000
73.21192 297.000
73.23187 275.000
73.25182 293.000
73.27176 293.000
73.29171 264.000
73.31166 303.000
73.33160 307.000
73.35155 272.000
73.37150 302.000
73.39144 306.000
73.41139 316.000
73.43134 289.000
73.45129 297.000
73.47123 311.000
73.49118 312.000
73.51113 282.000
73.53107 333.000
73.55102 332.000
73.57097 312.000
73.59091 273.000
73.61086 306.000
73.63081 327.000
73.65076 319.000
73.67070 327.000
73.69065 304.000
73.71060 312.000
73.73054 316.000
73.75049 318.000
73.77044 338.000
73.79038 334.000
73.81033 347.000
73.83028 357.000
73.85022 379.000
73.87017 365.000
73.89012 396.000
73.91007 397.000
73.93001 377.000
73.94996 347.000
73.96991 337.000
73.98985 344.000
74.00980 321.000
74.02975 346.000
74.04969 347.000
74.06964 329.000
74.08959 304.000
74.10954 329.000
74.12948 339.000
74.14943 340.000
74.16938 298.000
74.18932 317.000
74.20927 347.000
74.22922 310.000
74.24916 322.000
74.26911 280.000
74.28906 286.000
74.30900 297.000
74.32895 341.000
74.34890 310.000
74.36885 282.000
74.38879 278.000
74.40874 298.000
74.42869 281.000
74.44863 290.000
74.46858 301.000
74.48853 316.000
74.50847 313.000
74.52842 301.000
74.54837 322.000
74.56832 319.000
74.58826 300.000
74.60821 294.000
74.62816 316.000
74.64810 328.000
74.66805 318.000
74.68800 323.000
74.70794 375.000
74.72789 330.000
74.74784 309.000
74.76778 365.000
74.78773 333.000
74.80768 351.000
74.82763 330.000
74.84757 390.000
74.86752 410.000
74.88747 378.000
74.90741 436.000
74.92736 370.000
74.94731 412.000
74.96725 383.000
74.98720 424.000
75.00715 418.000
75.02710 433.000
75.04704 499.000
75.06699 511.000
75.08694 485.000
75.10688 535.000
75.12683 520.000
75.14678 564.000
75.16672 585.000
75.18667 581.000
75.20662 559.000
75.22657 552.000
75.24651 580.000
75.26646 579.000
75.28641 510.000
75.30635 416.000
75.32630 481.000
75.34625 460.000
75.36619 495.000
75.38614 461.000
75.40609 411.000
75.42603 423.000
75.44598 437.000
75.46593 389.000
75.48588 405.000
75.50582 384.000
75.52577 394.000
75.54572 332.000
75.56566 343.000
75.58561 327.000
75.60556 331.000
75.62550 331.000
75.64545 328.000
75.66540 315.000
75.68535 354.000
75.70529 312.000
75.72524 330.000
75.74519 306.000
75.76513 308.000
75.78508 291.000
75.80503 293.000
75.82497 289.000
75.84492 331.000
75.86487 301.000
75.88481 314.000
75.90476 291.000
75.92471 329.000
75.94466 295.000
75.96460 307.000
75.98455 318.000
76.00450 351.000
76.02444 319.000
76.04439 327.000
76.06434 305.000
76.08428 326.000
76.10423 341.000
76.12418 362.000
76.14413 359.000
76.16407 321.000
76.18402 346.000
76.20397 353.000
76.22391 391.000
76.24386 384.000
76.26381 339.000
76.28375 333.000
76.30370 299.000
76.32365 318.000
76.34359 328.000
76.36354 337.000
76.38349 316.000
76.40344 339.000
76.42338 326.000
76.44333 338.000
76.46328 365.000
76.48322 326.000
76.50317 329.000
76.52312 301.000
76.54306 284.000
76.56301 311.000
76.58296 283.000
76.60291 279.000
76.62285 301.000
76.64280 327.000
76.66275 291.000
76.68269 316.000
76.70264 322.000
76.72259 292.000
76.74253 283.000
76.76248 284.000
76.78243 314.000
76.80238 298.000
76.82232 292.000
76.84227 335.000
76.86222 288.000
76.88216 302.000
76.90211 295.000
76.92206 292.000
76.94200 285.000
76.96195 281.000
76.98190 282.000
77.00184 305.000
77.02179 306.000
77.04174 296.000
77.06169 289.000
77.08163 333.000
77.10158 283.000
77.12153 292.000
77.14147 309.000
77.16142 292.000
77.18137 279.000
77.20131 292.000
77.22126 293.000
77.24121 290.000
77.26116 306.000
77.28110 283.000
77.30105 290.000
77.32100 296.000
77.34094 316.000
77.36089 299.000
77.38084 312.000
77.40078 319.000
77.42073 291.000
77.44068 294.000
77.46062 275.000
77.48057 313.000
77.50052 297.000
77.52047 279.000
77.54041 296.000
77.56036 310.000
77.58031 314.000
77.60025 309.000
77.62020 292.000
77.64015 319.000
77.66009 328.000
77.68004 307.000
77.69999 313.000
77.71994 276.000
77.73988 285.000
77.75983 302.000
77.77978 308.000
77.79972 329.000
77.81967 316.000
77.83962 304.000
77.85956 309.000
77.87951 347.000
77.89946 300.000
77.91940 303.000
77.93935 334.000
77.95930 330.000
77.97925 333.000
77.99919 334.000
78.01914 344.000
78.03909 340.000
78.05903 388.000
78.07898 317.000
78.09893 350.000
78.11887 379.000
78.13882 370.000
78.15877 407.000
78.17872 410.000
78.19866 380.000
78.21861 368.000
78.23856 373.000
78.25850 373.000
78.27845 408.000
78.29840 368.000
78.31834 365.000
78.33829 378.000
78.35824 403.000
78.37819 397.000
78.39813 423.000
78.41808 399.000
78.43803 370.000
78.45797 446.000
78.47792 415.000
78.49787 409.000
78.51781 394.000
78.53776 352.000
78.55771 347.000
78.57765 337.000
78.59760 345.000
78.61755 395.000
78.63750 361.000
78.65744 346.000
78.67739 351.000
78.69734 351.000
78.71728 324.000
78.73723 309.000
78.75718 324.000
78.77712 371.000
78.79707 367.000
78.81702 318.000
78.83697 357.000
78.85691 344.000
78.87686 347.000
78.89681 335.000
78.91675 345.000
78.93670 339.000
78.95665 343.000
78.97659 342.000
78.99654 352.000
79.01649 349.000
79.03643 345.000
79.05638 375.000
79.07633 393.000
79.09628 400.000
79.11622 422.000
79.13617 432.000
79.15612 400.000
79.17606 407.000
79.19601 420.000
79.21596 380.000
79.23590 376.000
79.25585 357.000
79.27580 359.000
79.29575 380.000
79.31569 374.000
79.33564 353.000
79.35559 341.000
79.37553 367.000
79.39548 348.000
79.41543 328.000
79.43537 358.000
79.45532 325.000
79.47527 331.000
79.49521 353.000
79.51516 303.000
79.53511 325.000
79.55506 299.000
79.57500 330.000
79.59495 323.000
79.61490 274.000
79.63484 295.000
79.65479 317.000
79.67474 307.000
79.69468 338.000
79.71463 267.000
79.73458 292.000
79.75453 297.000
79.77447 326.000
79.79442 285.000
79.81437 309.000
79.83431 311.000
79.85426 310.000
79.87421 299.000
79.89415 328.000
79.91410 256.000
79.93405 336.000
79.95399 311.000
79.97394 275.000
79.99389 310.000
80.01384 327.000
80.03378 303.000
80.05373 308.000
80.07368 311.000
80.09362 307.000
80.11357 313.000
80.13352 281.000
80.15346 300.000
80.17341 278.000
80.19336 297.000
80.21331 310.000
80.23325 317.000
80.25320 311.000
80.27315 337.000
80.29309 338.000
80.31304 313.000
80.33299 315.000
80.35293 329.000
80.37288 323.000
80.39283 304.000
80.41278 287.000
80.43272 303.000
80.45267 292.000
80.47262 309.000
80.49256 316.000
80.51251 310.000
80.53246 302.000
80.55240 307.000
80.57235 297.000
80.59230 311.000
80.61224 279.000
80.63219 307.000
80.65214 288.000
80.67209 305.000
80.69203 322.000
80.71198 277.000
80.73193 287.000
80.75187 270.000
80.77182 287.000
80.79177 287.000
80.81171 288.000
80.83166 303.000
80.85161 300.000
80.87156 293.000
80.89150 287.000
80.91145 281.000
80.93140 307.000
80.95134 283.000
80.97129 313.000
80.99124 296.000
81.01118 308.000
81.03113 302.000
81.05108 299.000
81.07102 297.000
81.09097 293.000
81.11092 294.000
81.13087 294.000
81.15081 275.000
81.17076 303.000
81.19071 314.000
81.21065 292.000
81.23060 306.000
81.25055 302.000
81.27049 297.000
81.29044 287.000
81.31039 286.000
81.33034 306.000
81.35028 279.000
81.37023 285.000
81.39018 304.000
81.41012 286.000
81.43007 304.000
81.45002 310.000
81.46996 294.000
81.48991 316.000
81.50986 295.000
81.52980 274.000
81.54975 262.000
81.56970 290.000
81.58965 282.000
81.60959 267.000
81.62954 288.000
81.64949 276.000
81.66943 281.000
81.68938 310.000
81.70933 281.000
81.72927 279.000
81.74922 302.000
81.76917 281.000
81.78912 256.000
81.80906 261.000
81.82901 294.000
81.84896 307.000
81.86890 292.000
81.88885 289.000
81.90880 298.000
81.92874 281.000
81.94869 268.000
81.96864 290.000
81.98859 319.000
82.00853 275.000
82.02848 294.000
82.04843 302.000
82.06837 316.000
82.08832 287.000
82.10827 281.000
82.12821 303.000
82.14816 302.000
82.16811 300.000
82.18805 285.000
82.20800 309.000
82.22795 284.000
82.24790 288.000
82.26784 313.000
82.28779 308.000
82.30774 286.000
82.32768 308.000
82.34763 310.000
82.36758 334.000
82.38752 314.000
82.40747 263.000
82.42742 286.000
82.44737 335.000
82.46731 334.000
82.48726 325.000
82.50721 347.000
82.52715 312.000
82.54710 314.000
82.56705 336.000
82.58699 311.000
82.60694 338.000
82.62689 297.000
82.64683 316.000
82.66678 308.000
82.68673 321.000
82.70668 316.000
82.72662 301.000
82.74657 314.000
82.76652 317.000
82.78646 316.000
82.80641 307.000
82.82636 306.000
82.84630 338.000
82.86625 302.000
82.88620 324.000
82.90615 311.000
82.92609 290.000
82.94604 315.000
82.96599 328.000
82.98593 325.000
83.00588 327.000
83.02583 296.000
83.04577 294.000
83.06572 349.000
83.08567 331.000
83.10561 309.000
83.12556 306.000
83.14551 336.000
83.16546 320.000
83.18540 304.000
83.20535 297.000
83.22530 319.000
83.24524 331.000
83.26519 304.000
83.28514 300.000
83.30508 309.000
83.32503 288.000
83.34498 318.000
83.36493 314.000
83.38487 309.000
83.40482 316.000
83.42477 287.000
83.44471 316.000
83.46466 294.000
83.48461 319.000
83.50455 303.000
83.52450 346.000
83.54445 318.000
83.56440 337.000
83.58434 315.000
83.60429 286.000
83.62424 318.000
83.64418 300.000
83.66413 316.000
83.68408 312.000
83.70402 322.000
83.72397 293.000
83.74392 308.000
83.76386 277.000
83.78381 300.000
83.80376 322.000
83.82371 294.000
83.84365 318.000
83.86360 324.000
83.88355 276.000
83.90349 289.000
83.92344 281.000
83.94339 275.000
83.96333 319.000
83.98328 336.000
84.00323 274.000
84.02318 290.000
84.04312 260.000
84.06307 280.000
84.08302 299.000
84.10296 311.000
84.12291 276.000
84.14286 323.000
84.16280 281.000
84.18275 279.000
84.20270 287.000
84.22264 271.000
84.24259 292.000
84.26254 284.000
84.28249 295.000
84.30243 281.000
84.32238 296.000
84.34233 284.000
84.36227 320.000
84.38222 287.000
84.40217 292.000
84.42211 276.000
84.44206 300.000
84.46201 266.000
84.48196 287.000
84.50190 345.000
84.52185 285.000
84.54180 266.000
84.56174 285.000
84.58169 315.000
84.60164 289.000
84.62158 280.000
84.64153 295.000
84.66148 290.000
84.68142 333.000
84.70137 321.000
84.72132 302.000
84.74127 307.000
84.76121 309.000
84.78116 318.000
84.80111 316.000
84.82105 298.000
84.84100 322.000
84.86095 321.000
84.88089 319.000
84.90084 365.000
84.92079 318.000
84.94074 326.000
84.96068 364.000
84.98063 380.000
85.00058 398.000
85.02052 360.000
85.04047 344.000
85.06042 370.000
85.08036 350.000
85.10031 358.000
85.12026 320.000
85.14021 340.000
85.16015 339.000
85.18010 321.000
85.20005 341.000
85.21999 314.000
85.23994 357.000
85.25989 334.000
85.27983 308.000
85.29978 339.000
85.31973 358.000
85.33967 340.000
85.35962 291.000
85.37957 317.000
85.39952 330.000
85.41946 307.000
85.43941 318.000
85.45936 300.000
85.47930 299.000
85.49925 268.000
85.51920 314.000
85.53914 303.000
85.55909 307.000
85.57904 318.000
85.59899 275.000
85.61893 275.000
85.63888 291.000
85.65883 302.000
85.67877 292.000
85.69872 264.000
85.71867 287.000
85.73861 268.000
85.75856 276.000
85.77851 278.000
85.79845 283.000
85.81840 331.000
85.83835 273.000
85.85830 309.000
85.87824 280.000
85.89819 262.000
85.91814 267.000
85.93808 332.000
85.95803 287.000
85.97798 310.000
85.99792 283.000
86.01787 306.000
86.03782 322.000
86.05777 299.000
86.07771 290.000
86.09766 277.000
86.11761 292.000
86.13755 271.000
86.15750 265.000
86.17745 276.000
86.19739 307.000
86.21734 263.000
86.23729 317.000
86.25723 265.000
86.27718 286.000
86.29713 254.000
86.31708 280.000
86.33702 301.000
86.35697 269.000
86.37692 282.000
86.39686 274.000
86.41681 301.000
86.43676 298.000
86.45670 289.000
86.47665 315.000
86.49660 309.000
86.51655 306.000
86.53649 302.000
86.55644 288.000
86.57639 311.000
86.59633 272.000
86.61628 301.000
86.63623 298.000
86.65617 301.000
86.67612 278.000
86.69607 317.000
86.71602 292.000
86.73596 299.000
86.75591 341.000
86.77586 293.000
86.79580 292.000
86.81575 280.000
86.83570 286.000
86.85564 283.000
86.87559 316.000
86.89554 273.000
86.91548 284.000
86.93543 296.000
86.95538 303.000
86.97533 306.000
86.99527 266.000
87.01522 272.000
87.03517 313.000
87.05511 301.000
87.07506 306.000
87.09501 296.000
87.11495 320.000
87.13490 291.000
87.15485 325.000
87.17480 286.000
87.19474 280.000
87.21469 309.000
87.23464 279.000
87.25458 327.000
87.27453 308.000
87.29448 285.000
87.31442 267.000
87.33437 300.000
87.35432 303.000
87.37426 298.000
87.39421 289.000
87.41416 273.000
87.43411 319.000
87.45405 272.000
87.47400 304.000
87.49395 287.000
87.51389 296.000
87.53384 303.000
87.55379 308.000
87.57373 307.000
87.59368 316.000
87.61363 301.000
87.63358 316.000
87.65352 300.000
87.67347 317.000
87.69342 299.000
87.71336 300.000
87.73331 284.000
87.75326 318.000
87.77320 309.000
87.79315 295.000
87.81310 284.000
87.83304 292.000
87.85299 294.000
87.87294 288.000
87.89289 290.000
87.91283 306.000
87.93278 328.000
87.95273 317.000
87.97267 306.000
87.99262 331.000
88.01257 306.000
88.03251 298.000
88.05246 301.000
88.07241 302.000
88.09236 300.000
88.11230 304.000
88.13225 310.000
88.15220 303.000
88.17214 320.000
88.19209 295.000
88.21204 335.000
88.23198 317.000
88.25193 281.000
88.27188 290.000
88.29183 312.000
88.31177 315.000
88.33172 327.000
88.35167 304.000
88.37161 317.000
88.39156 290.000
88.41151 295.000
88.43145 321.000
88.45140 324.000
88.47135 310.000
88.49129 278.000
88.51124 293.000
88.53119 303.000
88.55114 330.000
88.57108 315.000
88.59103 289.000
88.61098 282.000
88.63092 259.000
88.65087 285.000
88.67082 300.000
88.69076 272.000
88.71071 285.000
88.73066 300.000
88.75061 275.000
88.77055 309.000
88.79050 291.000
88.81045 281.000
88.83039 268.000
88.85034 314.000
88.87029 272.000
88.89023 262.000
88.91018 265.000
88.93013 274.000
88.95007 248.000
88.97002 286.000
88.98997 295.000
89.00992 264.000
89.02986 269.000
89.04981 298.000
89.06976 280.000
89.08970 323.000
89.10965 310.000
89.12960 288.000
89.14954 293.000
89.16949 297.000
89.18944 282.000
89.20939 285.000
89.22933 298.000
89.24928 263.000
89.26923 297.000
89.28917 300.000
89.30912 307.000
89.32907 301.000
89.34901 297.000
89.36896 279.000
89.38891 288.000
89.40885 288.000
89.42880 293.000
89.44875 318.000
89.46870 323.000
89.48864 282.000
89.50859 313.000
89.52854 287.000
89.54848 321.000
89.56843 305.000
89.58838 287.000
89.60832 307.000
89.62827 303.000
89.64822 305.000
89.66817 295.000
89.68811 319.000
89.70806 272.000
89.72801 276.000
89.74795 298.000
89.76790 307.000
89.78785 291.000
89.80779 301.000
89.82774 327.000
89.84769 304.000
89.86764 334.000
89.88758 284.000
89.90753 314.000
89.92748 315.000
89.94742 303.000
89.96737 290.000
89.98732 293.000
90.00726 317.000
