10.00000 102.000
10.01995 89.000
10.03989 89.000
10.05984 97.000
10.07979 109.000
10.09973 97.000
10.11968 95.000
10.13963 74.000
10.15958 92.000
10.17952 93.000
10.19947 106.000
10.21942 79.000
10.23936 107.000
10.25931 100.000
10.27926 96.000
10.29920 88.000
10.31915 106.000
10.33910 117.000
10.35905 103.000
10.37899 113.000
10.39894 101.000
10.41889 99.000
10.43883 107.000
10.45878 93.000
10.47873 108.000
10.49867 111.000
10.51862 102.000
10.53857 112.000
10.55851 101.000
10.57846 103.000
10.59841 100.000
10.61836 88.000
10.63830 89.000
10.65825 99.000
10.67820 97.000
10.69814 98.000
10.71809 91.000
10.73804 81.000
10.75798 95.000
10.77793 95.000
10.79788 101.000
10.81783 106.000
10.83777 104.000
10.85772 108.000
10.87767 107.000
10.89761 118.000
10.91756 111.000
10.93751 84.000
10.95745 74.000
10.97740 108.000
10.99735 91.000
11.01730 92.000
11.03724 109.000
11.05719 104.000
11.07714 104.000
11.09708 100.000
11.11703 104.000
11.13698 94.000
11.15692 116.000
11.17687 99.000
11.19682 86.000
11.21676 82.000
11.23671 86.000
11.25666 80.000
11.27661 94.000
11.29655 97.000
11.31650 84.000
11.33645 110.000
11.35639 103.000
11.37634 121.000
11.39629 88.000
11.41623 96.000
11.43618 96.000
11.45613 81.000
11.47608 102.000
11.49602 98.000
11.51597 111.000
11.53592 112.000
11.55586 100.000
11.57581 114.000
11.59576 99.000
11.61570 119.000
11.63565 110.000
11.65560 87.000
11.67554 98.000
11.69549 98.000
11.71544 107.000
11.73539 113.000
11.75533 104.000
11.77528 107.000
11.79523 96.000
11.81517 103.000
11.83512 106.000
11.85507 94.000
11.87501 104.000
11.89496 95.000
11.91491 100.000
11.93486 109.000
11.95480 109.000
11.97475 91.000
11.99470 98.000
12.01464 83.000
12.03459 88.000
12.05454 132.000
12.07448 95.000
12.09443 88.000
12.11438 85.000
12.13432 103.000
12.15427 98.000
12.17422 89.000
12.19417 111.000
12.21411 91.000
12.23406 120.000
12.25401 125.000
12.27395 100.000
12.29390 101.000
12.31385 81.000
12.33379 102.000
12.35374 92.000
12.37369 90.000
12.39364 93.000
12.41358 119.000
12.43353 103.000
12.45348 101.000
12.47342 87.000
12.49337 109.000
12.51332 99.000
12.53326 111.000
12.55321 83.000
12.57316 113.000
12.59311 100.000
12.61305 99.000
12.63300 88.000
12.65295 92.000
12.67289 103.000
12.69284 92.000
12.71279 101.000
12.73273 91.000
12.75268 102.000
12.77263 109.000
12.79257 96.000
12.81252 90.000
12.83247 89.000
12.85242 97.000
12.87236 109.000
12.89231 97.000
12.91226 101.000
12.93220 82.000
12.95215 104.000
12.97210 111.000
12.99204 106.000
13.01199 109.000
13.03194 96.000
13.05189 93.000
13.07183 107.000
13.09178 113.000
13.11173 106.000
13.13167 111.000
13.15162 112.000
13.17157 91.000
13.19151 101.000
13.21146 109.000
13.23141 99.000
13.25135 116.000
13.27130 121.000
13.29125 96.000
13.31120 80.000
13.33114 78.000
13.35109 105.000
13.37104 88.000
13.39098 104.000
13.41093 91.000
13.43088 92.000
13.45082 97.000
13.47077 117.000
13.49072 105.000
13.51067 88.000
13.53061 116.000
13.55056 123.000
13.57051 116.000
13.59045 101.000
13.61040 116.000
13.63035 107.000
13.65029 118.000
13.67024 118.000
13.69019 93.000
13.71013 115.000
13.73008 109.000
13.75003 104.000
13.76998 130.000
13.78992 118.000
13.80987 96.000
13.82982 102.000
13.84976 113.000
13.86971 106.000
13.88966 99.000
13.90960 98.000
13.92955 93.000
13.94950 125.000
13.96945 110.000
13.98939 115.000
14.00934 117.000
14.02929 121.000
14.04923 109.000
14.06918 95.000
14.08913 110.000
14.10907 113.000
14.12902 115.000
14.14897 143.000
14.16892 152.000
14.18886 147.000
14.20881 146.000
14.22876 145.000
14.24870 139.000
14.26865 126.000
14.28860 120.000
14.30854 132.000
14.32849 108.000
14.34844 129.000
14.36838 123.000
14.38833 103.000
14.40828 132.000
14.42823 118.000
14.44817 124.000
14.46812 131.000
14.48807 133.000
14.50801 115.000
14.52796 124.000
14.54791 126.000
14.56785 121.000
14.58780 123.000
14.60775 111.000
14.62770 129.000
14.64764 103.000
14.66759 150.000
14.68754 131.000
14.70748 141.000
14.72743 143.000
14.74738 127.000
14.76732 142.000
14.78727 173.000
14.80722 168.000
14.82716 171.000
14.84711 173.000
14.86706 158.000
14.88701 145.000
14.90695 171.000
14.92690 159.000
14.94685 173.000
14.96679 197.000
14.98674 204.000
15.00669 216.000
15.02663 219.000
15.04658 252.000
15.06653 271.000
15.08648 273.000
15.10642 264.000
15.12637 243.000
15.14632 238.000
15.16626 275.000
15.18621 251.000
15.20616 291.000
15.22610 271.000
15.24605 282.000
15.26600 279.000
15.28594 299.000
15.30589 310.000
15.32584 314.000
15.34579 348.000
15.36573 353.000
15.38568 362.000
15.40563 439.000
15.42557 444.000
15.44552 495.000
15.46547 540.000
15.48541 644.000
15.50536 731.000
15.52531 886.000
15.54526 1112.000
15.56520 1418.000
15.58515 1884.000
15.60510 2701.000
15.62504 4173.000
15.64499 6411.000
15.66494 10914.000
15.68488 16130.000
15.70483 21869.000
15.72478 25724.000
15.74472 25082.000
15.76467 20591.000
15.78462 14555.000
15.80457 8792.000
15.82451 4694.000
15.84446 2487.000
15.86441 1425.000
15.88435 978.000
15.90430 690.000
15.92425 598.000
15.94419 514.000
15.96414 424.000
15.98409 420.000
16.00404 386.000
16.02398 331.000
16.04393 341.000
16.06388 282.000
16.08382 302.000
16.10377 266.000
16.12372 269.000
16.14366 238.000
16.16361 238.000
16.18356 233.000
16.20351 234.000
16.22345 218.000
16.24340 229.000
16.26335 203.000
16.28329 220.000
16.30324 186.000
16.32319 198.000
16.34313 169.000
16.36308 173.000
16.38303 170.000
16.40297 162.000
16.42292 168.000
16.44287 155.000
16.46282 168.000
16.48276 158.000
16.50271 163.000
16.52266 150.000
16.54260 136.000
16.56255 121.000
16.58250 133.000
16.60244 137.000
16.62239 136.000
16.64234 132.000
16.66229 108.000
16.68223 132.000
16.70218 122.000
16.72213 118.000
16.74207 127.000
16.76202 104.000
16.78197 94.000
16.80191 119.000
16.82186 108.000
16.84181 143.000
16.86175 104.000
16.88170 116.000
16.90165 107.000
16.92160 104.000
16.94154 94.000
16.96149 117.000
16.98144 109.000
17.00138 95.000
17.02133 109.000
17.04128 114.000
17.06122 104.000
17.08117 118.000
17.10112 90.000
17.12107 95.000
17.14101 115.000
17.16096 113.000
17.18091 111.000
17.20085 101.000
17.22080 102.000
17.24075 110.000
17.26069 100.000
17.28064 93.000
17.30059 90.000
17.32053 107.000
17.34048 107.000
17.36043 123.000
17.38038 86.000
17.40032 96.000
17.42027 100.000
17.44022 103.000
17.46016 100.000
17.48011 87.000
17.50006 108.000
17.52000 101.000
17.53995 115.000
17.55990 84.000
17.57985 95.000
17.59979 100.000
17.61974 94.000
17.63969 102.000
17.65963 108.000
17.67958 90.000
17.69953 113.000
17.71947 122.000
17.73942 95.000
17.75937 90.000
17.77932 103.000
17.79926 79.000
17.81921 97.000
17.83916 97.000
17.85910 99.000
17.87905 96.000
17.89900 107.000
17.91894 96.000
17.93889 105.000
17.95884 82.000
17.97878 98.000
17.99873 94.000
18.01868 89.000
18.03863 96.000
18.05857 92.000
18.07852 94.000
18.09847 86.000
18.11841 87.000
18.13836 85.000
18.15831 81.000
18.17825 80.000
18.19820 93.000
18.21815 102.000
18.23810 99.000
18.25804 89.000
18.27799 113.000
18.29794 99.000
18.31788 110.000
18.33783 106.000
18.35778 105.000
18.37772 92.000
18.39767 109.000
18.41762 102.000
18.43756 96.000
18.45751 96.000
18.47746 102.000
18.49741 111.000
18.51735 87.000
18.53730 114.000
18.55725 109.000
18.57719 90.000
18.59714 117.000
18.61709 84.000
18.63703 89.000
18.65698 83.000
18.67693 93.000
18.69688 73.000
18.71682 101.000
18.73677 84.000
18.75672 89.000
18.77666 99.000
18.79661 101.000
18.81656 97.000
18.83650 79.000
18.85645 86.000
18.87640 104.000
18.89634 92.000
18.91629 97.000
18.93624 96.000
18.95619 98.000
18.97613 82.000
18.99608 94.000
19.01603 86.000
19.03597 83.000
19.05592 99.000
19.07587 79.000
19.09581 103.000
19.11576 101.000
19.13571 96.000
19.15566 94.000
19.17560 95.000
19.19555 80.000
19.21550 100.000
19.23544 95.000
19.25539 102.000
19.27534 102.000
19.29528 101.000
19.31523 92.000
19.33518 90.000
19.35513 91.000
19.37507 84.000
19.39502 90.000
19.41497 100.000
19.43491 100.000
19.45486 84.000
19.47481 100.000
19.49475 75.000
19.51470 100.000
19.53465 75.000
19.55459 114.000
19.57454 90.000
19.59449 84.000
19.61444 115.000
19.63438 97.000
19.65433 97.000
19.67428 73.000
19.69422 85.000
19.71417 90.000
19.73412 99.000
19.75406 99.000
19.77401 89.000
19.79396 86.000
19.81391 101.000
19.83385 95.000
19.85380 103.000
19.87375 101.000
19.89369 87.000
19.91364 111.000
19.93359 99.000
19.95353 79.000
19.97348 100.000
19.99343 106.000
20.01337 83.000
20.03332 83.000
20.05327 84.000
20.07322 92.000
20.09316 81.000
20.11311 90.000
20.13306 104.000
20.15300 104.000
20.17295 89.000
20.19290 102.000
20.21284 89.000
20.23279 96.000
20.25274 97.000
20.27269 107.000
20.29263 84.000
20.31258 84.000
20.33253 89.000
20.35247 91.000
20.37242 76.000
20.39237 106.000
20.41231 87.000
20.43226 96.000
20.45221 100.000
20.47215 84.000
20.49210 87.000
20.51205 85.000
20.53200 94.000
20.55194 109.000
20.57189 104.000
20.59184 87.000
20.61178 102.000
20.63173 92.000
20.65168 94.000
20.67162 86.000
20.69157 95.000
20.71152 98.000
20.73147 101.000
20.75141 103.000
20.77136 109.000
20.79131 100.000
20.81125 78.000
20.83120 76.000
20.85115 107.000
20.87109 96.000
20.89104 110.000
20.91099 127.000
20.93094 146.000
20.95088 154.000
20.97083 150.000
20.99078 152.000
21.01072 149.000
21.03067 162.000
21.05062 177.000
21.07056 126.000
21.09051 131.000
21.11046 108.000
21.13040 107.000
21.15035 119.000
21.17030 85.000
21.19025 97.000
21.21019 93.000
21.23014 92.000
21.25009 101.000
21.27003 101.000
21.28998 98.000
21.30993 103.000
21.32987 90.000
21.34982 98.000
21.36977 110.000
21.38972 104.000
21.40966 84.000
21.42961 92.000
21.44956 78.000
21.46950 86.000
21.48945 95.000
21.50940 95.000
21.52934 71.000
21.54929 96.000
21.56924 95.000
21.58918 103.000
21.60913 96.000
21.62908 93.000
21.64903 82.000
21.66897 106.000
21.68892 111.000
21.70887 83.000
21.72881 101.000
21.74876 93.000
21.76871 104.000
21.78865 77.000
21.80860 97.000
21.82855 97.000
21.84850 93.000
21.86844 82.000
21.88839 83.000
21.90834 73.000
21.92828 94.000
21.94823 87.000
21.96818 104.000
21.98812 113.000
22.00807 82.000
22.02802 95.000
22.04796 93.000
22.06791 95.000
22.08786 109.000
22.10781 106.000
22.12775 85.000
22.14770 106.000
22.16765 81.000
22.18759 80.000
22.20754 106.000
22.22749 102.000
22.24743 83.000
22.26738 87.000
22.28733 94.000
22.30728 107.000
22.32722 91.000
22.34717 89.000
22.36712 102.000
22.38706 87.000
22.40701 86.000
22.42696 99.000
22.44690 92.000
22.46685 77.000
22.48680 95.000
22.50675 73.000
22.52669 98.000
22.54664 88.000
22.56659 109.000
22.58653 89.000
22.60648 99.000
22.62643 87.000
22.64637 74.000
22.66632 98.000
22.68627 87.000
22.70621 87.000
22.72616 104.000
22.74611 90.000
22.76606 104.000
22.78600 83.000
22.80595 85.000
22.82590 93.000
22.84584 94.000
22.86579 83.000
22.88574 109.000
22.90568 94.000
22.92563 82.000
22.94558 101.000
22.96553 86.000
22.98547 88.000
23.00542 82.000
23.02537 86.000
23.04531 97.000
23.06526 73.000
23.08521 90.000
23.10515 92.000
23.12510 81.000
23.14505 89.000
23.16499 101.000
23.18494 88.000
23.20489 85.000
23.22484 103.000
23.24478 94.000
23.26473 94.000
23.28468 103.000
23.30462 88.000
23.32457 100.000
23.34452 96.000
23.36446 90.000
23.38441 85.000
23.40436 95.000
23.42431 97.000
23.44425 109.000
23.46420 98.000
23.48415 91.000
23.50409 96.000
23.52404 97.000
23.54399 104.000
23.56393 104.000
23.58388 119.000
23.60383 92.000
23.62377 104.000
23.64372 93.000
23.66367 89.000
23.68362 100.000
23.70356 96.000
23.72351 95.000
23.74346 89.000
23.76340 112.000
23.78335 88.000
23.80330 82.000
23.82324 90.000
23.84319 113.000
23.86314 98.000
23.88309 114.000
23.90303 88.000
23.92298 91.000
23.94293 88.000
23.96287 90.000
23.98282 99.000
24.00277 77.000
24.02271 113.000
24.04266 98.000
24.06261 91.000
24.08256 94.000
24.10250 87.000
24.12245 110.000
24.14240 93.000
24.16234 105.000
24.18229 98.000
24.20224 102.000
24.22218 101.000
24.24213 92.000
24.26208 94.000
24.28202 92.000
24.30197 99.000
24.32192 86.000
24.34187 105.000
24.36181 110.000
24.38176 88.000
24.40171 94.000
24.42165 112.000
24.44160 92.000
24.46155 111.000
24.48149 98.000
24.50144 93.000
24.52139 100.000
24.54134 94.000
24.56128 100.000
24.58123 95.000
24.60118 110.000
24.62112 110.000
24.64107 92.000
24.66102 114.000
24.68096 103.000
24.70091 97.000
24.72086 97.000
24.74080 102.000
24.76075 97.000
24.78070 114.000
24.80065 102.000
24.82059 112.000
24.84054 92.000
24.86049 96.000
24.88043 94.000
24.90038 89.000
24.92033 102.000
24.94027 100.000
24.96022 101.000
24.98017 102.000
25.00012 109.000
25.02006 137.000
25.04001 110.000
25.05996 100.000
25.07990 104.000
25.09985 96.000
25.11980 104.000
25.13974 118.000
25.15969 111.000
25.17964 120.000
25.19958 89.000
25.21953 103.000
25.23948 98.000
25.25943 113.000
25.27937 106.000
25.29932 89.000
25.31927 98.000
25.33921 105.000
25.35916 98.000
25.37911 115.000
25.39905 90.000
25.41900 90.000
25.43895 89.000
25.45890 122.000
25.47884 113.000
25.49879 102.000
25.51874 102.000
25.53868 106.000
25.55863 101.000
25.57858 96.000
25.59852 101.000
25.61847 105.000
25.63842 124.000
25.65837 99.000
25.67831 105.000
25.69826 104.000
25.71821 87.000
25.73815 92.000
25.75810 99.000
25.77805 91.000
25.79799 105.000
25.81794 107.000
25.83789 107.000
25.85783 101.000
25.87778 110.000
25.89773 92.000
25.91768 94.000
25.93762 97.000
25.95757 96.000
25.97752 121.000
25.99746 113.000
26.01741 111.000
26.03736 112.000
26.05730 99.000
26.07725 98.000
26.09720 109.000
26.11715 94.000
26.13709 100.000
26.15704 109.000
26.17699 98.000
26.19693 113.000
26.21688 94.000
26.23683 91.000
26.25677 83.000
26.27672 100.000
26.29667 112.000
26.31661 95.000
26.33656 111.000
26.35651 91.000
26.37646 88.000
26.39640 100.000
26.41635 89.000
26.43630 111.000
26.45624 102.000
26.47619 90.000
26.49614 116.000
26.51608 123.000
26.53603 103.000
26.55598 109.000
26.57593 118.000
26.59587 101.000
26.61582 102.000
26.63577 104.000
26.65571 104.000
26.67566 105.000
26.69561 122.000
26.71555 122.000
26.73550 120.000
26.75545 109.000
26.77539 99.000
26.79534 112.000
26.81529 122.000
26.83524 88.000
26.85518 111.000
26.87513 138.000
26.89508 102.000
26.91502 122.000
26.93497 86.000
26.95492 91.000
26.97486 90.000
26.99481 111.000
27.01476 88.000
27.03471 123.000
27.05465 107.000
27.07460 119.000
27.09455 79.000
27.11449 103.000
27.13444 116.000
27.15439 102.000
27.17433 96.000
27.19428 120.000
27.21423 109.000
27.23417 99.000
27.25412 96.000
27.27407 110.000
27.29402 122.000
27.31396 92.000
27.33391 92.000
27.35386 113.000
27.37380 107.000
27.39375 105.000
27.41370 92.000
27.43364 102.000
27.45359 106.000
27.47354 90.000
27.49349 102.000
27.51343 111.000
27.53338 93.000
27.55333 107.000
27.57327 103.000
27.59322 116.000
27.61317 122.000
27.63311 96.000
27.65306 108.000
27.67301 103.000
27.69296 119.000
27.71290 104.000
27.73285 116.000
27.75280 110.000
27.77274 116.000
27.79269 107.000
27.81264 103.000
27.83258 86.000
27.85253 102.000
27.87248 105.000
27.89242 98.000
27.91237 99.000
27.93232 89.000
27.95227 93.000
27.97221 98.000
27.99216 100.000
28.01211 108.000
28.03205 94.000
28.05200 96.000
28.07195 95.000
28.09189 108.000
28.11184 95.000
28.13179 104.000
28.15174 107.000
28.17168 100.000
28.19163 93.000
28.21158 86.000
28.23152 94.000
28.25147 112.000
28.27142 84.000
28.29136 92.000
28.31131 113.000
28.33126 101.000
28.35120 94.000
28.37115 120.000
28.39110 104.000
28.41105 102.000
28.43099 108.000
28.45094 85.000
28.47089 97.000
28.49083 111.000
28.51078 111.000
28.53073 104.000
28.55067 108.000
28.57062 113.000
28.59057 79.000
28.61052 103.000
28.63046 95.000
28.65041 93.000
28.67036 104.000
28.69030 94.000
28.71025 98.000
28.73020 106.000
28.75014 106.000
28.77009 108.000
28.79004 99.000
28.80998 101.000
28.82993 106.000
28.84988 106.000
28.86983 87.000
28.88977 104.000
28.90972 131.000
28.92967 109.000
28.94961 104.000
28.96956 124.000
28.98951 98.000
29.00945 91.000
29.02940 110.000
29.04935 119.000
29.06930 112.000
29.08924 101.000
29.10919 116.000
29.12914 103.000
29.14908 116.000
29.16903 94.000
29.18898 114.000
29.20892 105.000
29.22887 85.000
29.24882 107.000
29.26877 134.000
29.28871 116.000
29.30866 118.000
29.32861 125.000
29.34855 125.000
29.36850 126.000
29.38845 136.000
29.40839 138.000
29.42834 104.000
29.44829 105.000
29.46823 125.000
29.48818 125.000
29.50813 105.000
29.52808 110.000
29.54802 131.000
29.56797 111.000
29.58792 114.000
29.60786 125.000
29.62781 109.000
29.64776 97.000
29.66770 129.000
29.68765 137.000
29.70760 111.000
29.72755 102.000
29.74749 107.000
29.76744 109.000
29.78739 100.000
29.80733 93.000
29.82728 120.000
29.84723 114.000
29.86717 95.000
29.88712 117.000
29.90707 116.000
29.92701 117.000
29.94696 120.000
29.96691 117.000
29.98686 134.000
30.00680 113.000
30.02675 115.000
30.04670 134.000
30.06664 129.000
30.08659 120.000
30.10654 151.000
30.12648 125.000
30.14643 143.000
30.16638 129.000
30.18633 160.000
30.20627 138.000
30.22622 121.000
30.24617 120.000
30.26611 118.000
30.28606 111.000
30.30601 103.000
30.32595 118.000
30.34590 113.000
30.36585 92.000
30.38579 129.000
30.40574 118.000
30.42569 94.000
30.44564 119.000
30.46558 112.000
30.48553 108.000
30.50548 105.000
30.52542 120.000
30.54537 119.000
30.56532 104.000
30.58526 99.000
30.60521 118.000
30.62516 114.000
30.64511 129.000
30.66505 116.000
30.68500 103.000
30.70495 115.000
30.72489 129.000
30.74484 120.000
30.76479 107.000
30.78473 118.000
30.80468 113.000
30.82463 121.000
30.84458 110.000
30.86452 114.000
30.88447 126.000
30.90442 107.000
30.92436 114.000
30.94431 118.000
30.96426 137.000
30.98420 117.000
31.00415 119.000
31.02410 118.000
31.04404 120.000
31.06399 86.000
31.08394 109.000
31.10389 110.000
31.12383 111.000
31.14378 114.000
31.16373 107.000
31.18367 120.000
31.20362 125.000
31.22357 124.000
31.24351 133.000
31.26346 111.000
31.28341 118.000
31.30336 126.000
31.32330 144.000
31.34325 115.000
31.36320 114.000
31.38314 125.000
31.40309 146.000
31.42304 136.000
31.44298 165.000
31.46293 133.000
31.48288 133.000
31.50282 157.000
31.52277 148.000
31.54272 156.000
31.56267 200.000
31.58261 195.000
31.60256 241.000
31.62251 299.000
31.64245 401.000
31.66240 469.000
31.68235 672.000
31.70229 819.000
31.72224 967.000
31.74219 1061.000
31.76214 1328.000
31.78208 1389.000
31.80203 1521.000
31.82198 1440.000
31.84192 1342.000
31.86187 1197.000
31.88182 1015.000
31.90176 850.000
31.92171 759.000
31.94166 571.000
31.96160 409.000
31.98155 332.000
32.00150 272.000
32.02145 241.000
32.04139 192.000
32.06134 185.000
32.08129 136.000
32.10123 151.000
32.12118 126.000
32.14113 131.000
32.16107 122.000
32.18102 115.000
32.20097 121.000
32.22092 127.000
32.24086 136.000
32.26081 118.000
32.28076 112.000
32.30070 112.000
32.32065 112.000
32.34060 128.000
32.36054 105.000
32.38049 113.000
32.40044 119.000
32.42039 107.000
32.44033 131.000
32.46028 137.000
32.48023 103.000
32.50017 120.000
32.52012 103.000
32.54007 121.000
32.56001 118.000
32.57996 111.000
32.59991 99.000
32.61985 107.000
32.63980 107.000
32.65975 108.000
32.67970 100.000
32.69964 116.000
32.71959 98.000
32.73954 113.000
32.75948 104.000
32.77943 135.000
32.79938 123.000
32.81932 107.000
32.83927 116.000
32.85922 107.000
32.87917 88.000
32.89911 130.000
32.91906 99.000
32.93901 115.000
32.95895 121.000
32.97890 126.000
32.99885 96.000
33.01879 115.000
33.03874 113.000
33.05869 110.000
33.07863 115.000
33.09858 107.000
33.11853 81.000
33.13848 105.000
33.15842 123.000
33.17837 105.000
33.19832 115.000
33.21826 111.000
33.23821 112.000
33.25816 90.000
33.27810 119.000
33.29805 110.000
33.31800 106.000
33.33795 106.000
33.35789 137.000
33.37784 97.000
33.39779 113.000
33.41773 99.000
33.43768 100.000
33.45763 113.000
33.47757 112.000
33.49752 105.000
33.51747 102.000
33.53741 117.000
33.55736 116.000
33.57731 104.000
33.59726 113.000
33.61720 108.000
33.63715 105.000
33.65710 95.000
33.67704 111.000
33.69699 93.000
33.71694 97.000
33.73688 113.000
33.75683 101.000
33.77678 124.000
33.79673 101.000
33.81667 135.000
33.83662 93.000
33.85657 94.000
33.87651 104.000
33.89646 114.000
33.91641 117.000
33.93635 102.000
33.95630 113.000
33.97625 112.000
33.99620 97.000
34.01614 90.000
34.03609 112.000
34.05604 95.000
34.07598 117.000
34.09593 112.000
34.11588 118.000
34.13582 128.000
34.15577 118.000
34.17572 110.000
34.19566 136.000
34.21561 132.000
34.23556 121.000
34.25551 121.000
34.27545 137.000
34.29540 123.000
34.31535 121.000
34.33529 125.000
34.35524 132.000
34.37519 117.000
34.39513 107.000
34.41508 120.000
34.43503 108.000
34.45498 147.000
34.47492 151.000
34.49487 142.000
34.51482 133.000
34.53476 128.000
34.55471 159.000
34.57466 141.000
34.59460 172.000
34.61455 144.000
34.63450 174.000
34.65444 187.000
34.67439 146.000
34.69434 173.000
34.71429 161.000
34.73423 160.000
34.75418 137.000
34.77413 154.000
34.79407 149.000
34.81402 142.000
34.83397 161.000
34.85391 122.000
34.87386 146.000
34.89381 118.000
34.91376 128.000
34.93370 115.000
34.95365 141.000
34.97360 110.000
34.99354 129.000
35.01349 123.000
35.03344 109.000
35.05338 117.000
35.07333 124.000
35.09328 143.000
35.11322 122.000
35.13317 124.000
35.15312 130.000
35.17307 122.000
35.19301 140.000
35.21296 138.000
35.23291 114.000
35.25285 148.000
35.27280 149.000
35.29275 134.000
35.31269 160.000
35.33264 138.000
35.35259 139.000
35.37254 163.000
35.39248 158.000
35.41243 160.000
35.43238 171.000
35.45232 191.000
35.47227 185.000
35.49222 200.000
35.51216 229.000
35.53211 201.000
35.55206 196.000
35.57201 213.000
35.59195 212.000
35.61190 209.000
35.63185 213.000
35.65179 229.000
35.67174 244.000
35.69169 250.000
35.71163 309.000
35.73158 345.000
35.75153 447.000
35.77147 638.000
35.79142 869.000
35.81137 1020.000
35.83132 1097.000
35.85126 1032.000
35.87121 998.000
35.89116 877.000
35.91110 838.000
35.93105 750.000
35.95100 610.000
35.97094 488.000
35.99089 385.000
36.01084 319.000
36.03079 248.000
36.05073 230.000
36.07068 182.000
36.09063 190.000
36.11057 167.000
36.13052 159.000
36.15047 156.000
36.17041 140.000
36.19036 150.000
36.21031 129.000
36.23025 121.000
36.25020 150.000
36.27015 127.000
36.29010 124.000
36.31004 142.000
36.32999 136.000
36.34994 120.000
36.36988 127.000
36.38983 119.000
36.40978 133.000
36.42972 115.000
36.44967 113.000
36.46962 120.000
36.48957 102.000
36.50951 123.000
36.52946 128.000
36.54941 105.000
36.56935 136.000
36.58930 139.000
36.60925 132.000
36.62919 125.000
36.64914 135.000
36.66909 192.000
36.68903 167.000
36.70898 198.000
36.72893 220.000
36.74888 236.000
36.76882 170.000
36.78877 191.000
36.80872 180.000
36.82866 186.000
36.84861 182.000
36.86856 159.000
36.88850 140.000
36.90845 151.000
36.92840 123.000
36.94835 120.000
36.96829 127.000
36.98824 133.000
37.00819 121.000
37.02813 124.000
37.04808 106.000
37.06803 123.000
37.08797 124.000
37.10792 123.000
37.12787 122.000
37.14781 124.000
37.16776 132.000
37.18771 125.000
37.20766 126.000
37.22760 124.000
37.24755 119.000
37.26750 120.000
37.28744 116.000
37.30739 114.000
37.32734 110.000
37.34728 98.000
37.36723 93.000
37.38718 112.000
37.40713 95.000
37.42707 126.000
37.44702 122.000
37.46697 130.000
37.48691 99.000
37.50686 105.000
37.52681 124.000
37.54675 94.000
37.56670 112.000
37.58665 121.000
37.60660 116.000
37.62654 104.000
37.64649 111.000
37.66644 106.000
37.68638 117.000
37.70633 123.000
37.72628 136.000
37.74622 131.000
37.76617 148.000
37.78612 95.000
37.80606 130.000
37.82601 132.000
37.84596 131.000
37.86591 138.000
37.88585 134.000
37.90580 146.000
37.92575 124.000
37.94569 144.000
37.96564 112.000
37.98559 144.000
38.00553 127.000
38.02548 142.000
38.04543 144.000
38.06538 154.000
38.08532 119.000
38.10527 141.000
38.12522 130.000
38.14516 129.000
38.16511 148.000
38.18506 130.000
38.20500 96.000
38.22495 123.000
38.24490 111.000
38.26484 120.000
38.28479 99.000
38.30474 119.000
38.32469 135.000
38.34463 115.000
38.36458 120.000
38.38453 124.000
38.40447 134.000
38.42442 117.000
38.44437 149.000
38.46431 142.000
38.48426 107.000
38.50421 157.000
38.52416 133.000
38.54410 138.000
38.56405 125.000
38.58400 135.000
38.60394 143.000
38.62389 169.000
38.64384 165.000
38.66378 179.000
38.68373 176.000
38.70368 156.000
38.72362 159.000
38.74357 181.000
38.76352 158.000
38.78347 166.000
38.80341 186.000
38.82336 171.000
38.84331 160.000
38.86325 123.000
38.88320 156.000
38.90315 191.000
38.92309 177.000
38.94304 180.000
38.96299 182.000
38.98294 196.000
39.00288 175.000
39.02283 213.000
39.04278 229.000
39.06272 223.000
39.08267 218.000
39.10262 225.000
39.12256 279.000
39.14251 290.000
39.16246 352.000
39.18241 363.000
39.20235 414.000
39.22230 483.000
39.24225 575.000
39.26219 761.000
39.28214 963.000
39.30209 1383.000
39.32203 1757.000
39.34198 2018.000
39.36193 2031.000
39.38187 1833.000
39.40182 1673.000
39.42177 1625.000
39.44172 1556.000
39.46166 1457.000
39.48161 1136.000
39.50156 876.000
39.52150 740.000
39.54145 570.000
39.56140 493.000
39.58134 405.000
39.60129 350.000
39.62124 310.000
39.64119 279.000
39.66113 239.000
39.68108 223.000
39.70103 174.000
39.72097 189.000
39.74092 181.000
39.76087 172.000
39.78081 158.000
39.80076 166.000
39.82071 164.000
39.84065 142.000
39.86060 166.000
39.88055 146.000
39.90050 137.000
39.92044 150.000
39.94039 126.000
39.96034 160.000
39.98028 131.000
40.00023 150.000
40.02018 121.000
40.04012 131.000
40.06007 132.000
40.08002 116.000
40.09997 119.000
40.11991 102.000
40.13986 128.000
40.15981 126.000
40.17975 133.000
40.19970 112.000
40.21965 109.000
40.23959 116.000
40.25954 114.000
40.27949 113.000
40.29943 105.000
40.31938 114.000
40.33933 116.000
40.35928 121.000
40.37922 132.000
40.39917 126.000
40.41912 114.000
40.43906 111.000
40.45901 101.000
40.47896 110.000
40.49890 109.000
40.51885 112.000
40.53880 120.000
40.55875 115.000
40.57869 100.000
40.59864 99.000
40.61859 100.000
40.63853 107.000
40.65848 99.000
40.67843 99.000
40.69837 109.000
40.71832 87.000
40.73827 116.000
40.75822 123.000
40.77816 90.000
40.79811 114.000
40.81806 110.000
40.83800 94.000
40.85795 92.000
40.87790 109.000
40.89784 108.000
40.91779 117.000
40.93774 98.000
40.95768 114.000
40.97763 117.000
40.99758 106.000
41.01753 109.000
41.03747 101.000
41.05742 115.000
41.07737 117.000
41.09731 117.000
41.11726 124.000
41.13721 111.000
41.15715 85.000
41.17710 133.000
41.19705 129.000
41.21700 122.000
41.23694 95.000
41.25689 128.000
41.27684 89.000
41.29678 117.000
41.31673 116.000
41.33668 92.000
41.35662 103.000
41.37657 93.000
41.39652 112.000
41.41646 117.000
41.43641 110.000
41.45636 108.000
41.47631 133.000
41.49625 121.000
41.51620 120.000
41.53615 96.000
41.55609 109.000
41.57604 106.000
41.59599 120.000
41.61593 103.000
41.63588 95.000
41.65583 106.000
41.67578 111.000
41.69572 80.000
41.71567 98.000
41.73562 113.000
41.75556 96.000
41.77551 102.000
41.79546 108.000
41.81540 103.000
41.83535 98.000
41.85530 108.000
41.87524 96.000
41.89519 94.000
41.91514 105.000
41.93509 115.000
41.95503 110.000
41.97498 108.000
41.99493 105.000
42.01487 117.000
42.03482 93.000
42.05477 98.000
42.07471 97.000
42.09466 112.000
42.11461 118.000
42.13456 108.000
42.15450 110.000
42.17445 98.000
42.19440 93.000
42.21434 104.000
42.23429 107.000
42.25424 104.000
42.27418 104.000
42.29413 107.000
42.31408 105.000
42.33403 102.000
42.35397 107.000
42.37392 109.000
42.39387 104.000
42.41381 123.000
42.43376 110.000
42.45371 111.000
42.47365 110.000
42.49360 117.000
42.51355 107.000
42.53349 93.000
42.55344 114.000
42.57339 105.000
42.59334 79.000
42.61328 108.000
42.63323 94.000
42.65318 106.000
42.67312 111.000
42.69307 111.000
42.71302 97.000
42.73296 125.000
42.75291 115.000
42.77286 115.000
42.79281 109.000
42.81275 93.000
42.83270 107.000
42.85265 138.000
42.87259 120.000
42.89254 119.000
42.91249 128.000
42.93243 110.000
42.95238 128.000
42.97233 114.000
42.99227 117.000
43.01222 128.000
43.03217 101.000
43.05212 133.000
43.07206 135.000
43.09201 130.000
43.11196 148.000
43.13190 154.000
43.15185 155.000
43.17180 186.000
43.19174 179.000
43.21169 184.000
43.23164 217.000
43.25159 226.000
43.27153 272.000
43.29148 260.000
43.31143 308.000
43.33137 401.000
43.35132 463.000
43.37127 632.000
43.39121 707.000
43.41116 824.000
43.43111 800.000
43.45105 735.000
43.47100 653.000
43.49095 665.000
43.51090 535.000
43.53084 575.000
43.55079 519.000
43.57074 468.000
43.59068 361.000
43.61063 329.000
43.63058 259.000
43.65052 206.000
43.67047 212.000
43.69042 203.000
43.71037 142.000
43.73031 144.000
43.75026 148.000
43.77021 136.000
43.79015 158.000
43.81010 138.000
43.83005 125.000
43.84999 120.000
43.86994 123.000
43.88989 132.000
43.90984 112.000
43.92978 110.000
43.94973 122.000
43.96968 116.000
43.98962 116.000
44.00957 111.000
44.02952 123.000
44.04946 102.000
44.06941 115.000
44.08936 104.000
44.10930 107.000
44.12925 92.000
44.14920 95.000
44.16915 97.000
44.18909 108.000
44.20904 115.000
44.22899 120.000
44.24893 100.000
44.26888 103.000
44.28883 120.000
44.30877 107.000
44.32872 107.000
44.34867 106.000
44.36862 99.000
44.38856 93.000
44.40851 126.000
44.42846 85.000
44.44840 102.000
44.46835 104.000
44.48830 112.000
44.50824 112.000
44.52819 112.000
44.54814 101.000
44.56808 107.000
44.58803 112.000
44.60798 95.000
44.62793 114.000
44.64787 97.000
44.66782 100.000
44.68777 84.000
44.70771 109.000
44.72766 98.000
44.74761 108.000
44.76755 119.000
44.78750 105.000
44.80745 94.000
44.82740 99.000
44.84734 94.000
44.86729 97.000
44.88724 101.000
44.90718 92.000
44.92713 103.000
44.94708 98.000
44.96702 108.000
44.98697 85.000
45.00692 100.000
45.02686 108.000
45.04681 110.000
45.06676 122.000
45.08671 91.000
45.10665 96.000
45.12660 87.000
45.14655 112.000
45.16649 104.000
45.18644 97.000
45.20639 114.000
45.22633 96.000
45.24628 103.000
45.26623 111.000
45.28618 92.000
45.30612 92.000
45.32607 112.000
45.34602 97.000
45.36596 83.000
45.38591 89.000
45.40586 103.000
45.42580 74.000
45.44575 108.000
45.46570 104.000
45.48565 106.000
45.50559 108.000
45.52554 77.000
45.54549 97.000
45.56543 100.000
45.58538 76.000
45.60533 107.000
45.62527 115.000
45.64522 114.000
45.66517 130.000
45.68511 91.000
45.70506 122.000
45.72501 112.000
45.74496 95.000
45.76490 123.000
45.78485 103.000
45.80480 104.000
45.82474 79.000
45.84469 85.000
45.86464 91.000
45.88458 95.000
45.90453 107.000
45.92448 109.000
45.94443 83.000
45.96437 115.000
45.98432 90.000
46.00427 107.000
46.02421 105.000
46.04416 111.000
46.06411 120.000
46.08405 86.000
46.10400 102.000
46.12395 89.000
46.14389 105.000
46.16384 105.000
46.18379 107.000
46.20374 105.000
46.22368 115.000
46.24363 107.000
46.26358 127.000
46.28352 123.000
46.30347 107.000
46.32342 105.000
46.34336 118.000
46.36331 124.000
46.38326 115.000
46.40321 129.000
46.42315 105.000
46.44310 116.000
46.46305 110.000
46.48299 105.000
46.50294 115.000
46.52289 139.000
46.54283 99.000
46.56278 100.000
46.58273 126.000
46.60267 108.000
46.62262 109.000
46.64257 117.000
46.66252 106.000
46.68246 111.000
46.70241 112.000
46.72236 86.000
46.74230 90.000
46.76225 111.000
46.78220 94.000
46.80214 106.000
46.82209 123.000
46.84204 111.000
46.86199 107.000
46.88193 102.000
46.90188 96.000
46.92183 120.000
46.94177 85.000
46.96172 98.000
46.98167 118.000
47.00161 114.000
47.02156 115.000
47.04151 108.000
47.06146 88.000
47.08140 102.000
47.10135 95.000
47.12130 100.000
47.14124 106.000
47.16119 93.000
47.18114 101.000
47.20108 102.000
47.22103 116.000
47.24098 108.000
47.26092 103.000
47.28087 108.000
47.30082 100.000
47.32077 95.000
47.34071 110.000
47.36066 105.000
47.38061 108.000
47.40055 106.000
47.42050 112.000
47.44045 118.000
47.46039 98.000
47.48034 95.000
47.50029 96.000
47.52024 113.000
47.54018 110.000
47.56013 100.000
47.58008 116.000
47.60002 113.000
47.61997 102.000
47.63992 110.000
47.65986 106.000
47.67981 107.000
47.69976 108.000
47.71970 126.000
47.73965 128.000
47.75960 107.000
47.77955 115.000
47.79949 117.000
47.81944 112.000
47.83939 95.000
47.85933 125.000
47.87928 110.000
47.89923 116.000
47.91917 112.000
47.93912 148.000
47.95907 118.000
47.97902 134.000
47.99896 121.000
48.01891 142.000
48.03886 146.000
48.05880 129.000
48.07875 138.000
48.09870 158.000
48.11864 138.000
48.13859 153.000
48.15854 136.000
48.17848 168.000
48.19843 180.000
48.21838 178.000
48.23833 199.000
48.25827 195.000
48.27822 215.000
48.29817 236.000
48.31811 230.000
48.33806 232.000
48.35801 252.000
48.37795 276.000
48.39790 324.000
48.41785 328.000
48.43780 400.000
48.45774 429.000
48.47769 480.000
48.49764 523.000
48.51758 618.000
48.53753 712.000
48.55748 1016.000
48.57742 1163.000
48.59737 1375.000
48.61732 1625.000
48.63726 1682.000
48.65721 1743.000
48.67716 1694.000
48.69711 1651.000
48.71705 1521.000
48.73700 1434.000
48.75695 1456.000
48.77689 1327.000
48.79684 1131.000
48.81679 1079.000
48.83673 839.000
48.85668 671.000
48.87663 567.000
48.89658 471.000
48.91652 421.000
48.93647 382.000
48.95642 324.000
48.97636 251.000
48.99631 263.000
49.01626 261.000
49.03620 228.000
49.05615 213.000
49.07610 213.000
49.09605 207.000
49.11599 159.000
49.13594 156.000
49.15589 157.000
49.17583 157.000
49.19578 155.000
49.21573 142.000
49.23567 139.000
49.25562 130.000
49.27557 163.000
49.29551 148.000
49.31546 150.000
49.33541 125.000
49.35536 136.000
49.37530 128.000
49.39525 131.000
49.41520 120.000
49.43514 130.000
49.45509 136.000
49.47504 113.000
49.49498 131.000
49.51493 109.000
49.53488 128.000
49.55483 124.000
49.57477 119.000
49.59472 125.000
49.61467 121.000
49.63461 116.000
49.65456 128.000
49.67451 116.000
49.69445 115.000
49.71440 121.000
49.73435 121.000
49.75429 106.000
49.77424 93.000
49.79419 127.000
49.81414 105.000
49.83408 106.000
49.85403 125.000
49.87398 126.000
49.89392 96.000
49.91387 110.000
49.93382 102.000
49.95376 103.000
49.97371 118.000
49.99366 121.000
50.01361 94.000
50.03355 100.000
50.05350 111.000
50.07345 119.000
50.09339 105.000
50.11334 91.000
50.13329 106.000
50.15323 104.000
50.17318 112.000
50.19313 111.000
50.21307 106.000
50.23302 97.000
50.25297 101.000
50.27292 98.000
50.29286 104.000
50.31281 103.000
50.33276 111.000
50.35270 105.000
50.37265 99.000
50.39260 106.000
50.41254 110.000
50.43249 107.000
50.45244 108.000
50.47239 100.000
50.49233 116.000
50.51228 102.000
50.53223 92.000
50.55217 116.000
50.57212 95.000
50.59207 104.000
50.61201 102.000
50.63196 98.000
50.65191 104.000
50.67186 95.000
50.69180 132.000
50.71175 103.000
50.73170 91.000
50.75164 120.000
50.77159 101.000
50.79154 92.000
50.81148 106.000
50.83143 108.000
50.85138 104.000
50.87132 108.000
50.89127 111.000
50.91122 110.000
50.93117 110.000
50.95111 97.000
50.97106 91.000
50.99101 86.000
51.01095 105.000
51.03090 111.000
51.05085 100.000
51.07079 85.000
51.09074 108.000
51.11069 117.000
51.13064 104.000
51.15058 106.000
51.17053 102.000
51.19048 103.000
51.21042 121.000
51.23037 113.000
51.25032 85.000
51.27026 113.000
51.29021 88.000
51.31016 89.000
51.33010 95.000
51.35005 86.000
51.37000 103.000
51.38995 90.000
51.40989 89.000
51.42984 107.000
51.44979 77.000
51.46973 86.000
51.48968 100.000
51.50963 99.000
51.52957 96.000
51.54952 98.000
51.56947 107.000
51.58942 102.000
51.60936 105.000
51.62931 99.000
51.64926 100.000
51.66920 84.000
51.68915 114.000
51.70910 102.000
51.72904 99.000
51.74899 81.000
51.76894 74.000
51.78888 89.000
51.80883 117.000
51.82878 93.000
51.84873 88.000
51.86867 97.000
51.88862 90.000
51.90857 81.000
51.92851 102.000
51.94846 85.000
51.96841 96.000
51.98835 93.000
52.00830 84.000
52.02825 88.000
52.04820 114.000
52.06814 88.000
52.08809 88.000
52.10804 97.000
52.12798 101.000
52.14793 87.000
52.16788 108.000
52.18782 94.000
52.20777 80.000
52.22772 99.000
52.24767 115.000
52.26761 83.000
52.28756 88.000
52.30751 94.000
52.32745 89.000
52.34740 80.000
52.36735 105.000
52.38729 106.000
52.40724 97.000
52.42719 96.000
52.44713 107.000
52.46708 102.000
52.48703 76.000
52.50698 75.000
52.52692 94.000
52.54687 84.000
52.56682 88.000
52.58676 93.000
52.60671 102.000
52.62666 96.000
52.64660 87.000
52.66655 101.000
52.68650 86.000
52.70645 92.000
52.72639 99.000
52.74634 96.000
52.76629 89.000
52.78623 94.000
52.80618 102.000
52.82613 98.000
52.84607 104.000
52.86602 76.000
52.88597 104.000
52.90591 78.000
52.92586 99.000
52.94581 89.000
52.96576 89.000
52.98570 95.000
53.00565 98.000
53.02560 105.000
53.04554 84.000
53.06549 95.000
53.08544 99.000
53.10538 93.000
53.12533 101.000
53.14528 92.000
53.16523 88.000
53.18517 95.000
53.20512 94.000
53.22507 87.000
53.24501 94.000
53.26496 91.000
53.28491 103.000
53.30485 87.000
53.32480 84.000
53.34475 117.000
53.36469 112.000
53.38464 111.000
53.40459 97.000
53.42454 103.000
53.44448 98.000
53.46443 109.000
53.48438 88.000
53.50432 108.000
53.52427 106.000
53.54422 113.000
53.56416 104.000
53.58411 110.000
53.60406 93.000
53.62401 88.000
53.64395 105.000
53.66390 103.000
53.68385 87.000
53.70379 92.000
53.72374 92.000
53.74369 82.000
53.76363 81.000
53.78358 84.000
53.80353 87.000
53.82348 107.000
53.84342 83.000
53.86337 91.000
53.88332 72.000
53.90326 103.000
53.92321 119.000
53.94316 112.000
53.96310 92.000
53.98305 85.000
54.00300 97.000
54.02294 81.000
54.04289 93.000
54.06284 110.000
54.08279 98.000
54.10273 101.000
54.12268 102.000
54.14263 101.000
54.16257 90.000
54.18252 97.000
54.20247 96.000
54.22241 111.000
54.24236 104.000
54.26231 83.000
54.28226 90.000
54.30220 83.000
54.32215 94.000
54.34210 70.000
54.36204 96.000
54.38199 113.000
54.40194 91.000
54.42188 89.000
54.44183 75.000
54.46178 96.000
54.48172 84.000
54.50167 92.000
54.52162 88.000
54.54157 110.000
54.56151 94.000
54.58146 91.000
54.60141 111.000
54.62135 100.000
54.64130 97.000
54.66125 117.000
54.68119 108.000
54.70114 101.000
54.72109 100.000
54.74104 91.000
54.76098 82.000
54.78093 88.000
54.80088 90.000
54.82082 106.000
54.84077 105.000
54.86072 98.000
54.88066 105.000
54.90061 106.000
54.92056 94.000
54.94050 105.000
54.96045 102.000
54.98040 91.000
55.00035 85.000
55.02029 91.000
55.04024 84.000
55.06019 86.000
55.08013 102.000
55.10008 83.000
55.12003 101.000
55.13997 97.000
55.15992 85.000
55.17987 91.000
55.19982 97.000
55.21976 86.000
55.23971 101.000
55.25966 95.000
55.27960 101.000
55.29955 81.000
55.31950 94.000
55.33944 89.000
55.35939 90.000
55.37934 87.000
55.39929 96.000
55.41923 123.000
55.43918 91.000
55.45913 97.000
55.47907 79.000
55.49902 90.000
55.51897 101.000
55.53891 82.000
55.55886 100.000
55.57881 103.000
55.59875 96.000
55.61870 85.000
55.63865 109.000
55.65860 90.000
55.67854 88.000
55.69849 84.000
55.71844 104.000
55.73838 101.000
55.75833 102.000
55.77828 87.000
55.79822 91.000
55.81817 93.000
55.83812 79.000
55.85807 107.000
55.87801 80.000
55.89796 90.000
55.91791 84.000
55.93785 104.000
55.95780 93.000
55.97775 94.000
55.99769 91.000
56.01764 90.000
56.03759 110.000
56.05753 88.000
56.07748 86.000
56.09743 93.000
56.11738 104.000
56.13732 93.000
56.15727 90.000
56.17722 80.000
56.19716 107.000
56.21711 90.000
56.23706 99.000
56.25700 94.000
56.27695 100.000
56.29690 108.000
56.31685 97.000
56.33679 88.000
56.35674 95.000
56.37669 104.000
56.39663 90.000
56.41658 114.000
56.43653 124.000
56.45647 100.000
56.47642 95.000
56.49637 116.000
56.51631 75.000
56.53626 93.000
56.55621 83.000
56.57616 88.000
56.59610 100.000
56.61605 89.000
56.63600 90.000
56.65594 86.000
56.67589 114.000
56.69584 99.000
56.71578 81.000
56.73573 83.000
56.75568 101.000
56.77563 95.000
56.79557 92.000
56.81552 74.000
56.83547 82.000
56.85541 117.000
56.87536 97.000
56.89531 80.000
56.91525 100.000
56.93520 87.000
56.95515 87.000
56.97510 121.000
56.99504 107.000
57.01499 113.000
57.03494 81.000
57.05488 100.000
57.07483 106.000
57.09478 111.000
57.11472 102.000
57.13467 111.000
57.15462 101.000
57.17456 106.000
57.19451 82.000
57.21446 98.000
57.23441 106.000
57.25435 105.000
57.27430 93.000
57.29425 82.000
57.31419 93.000
57.33414 119.000
57.35409 116.000
57.37403 118.000
57.39398 87.000
57.41393 90.000
57.43388 116.000
57.45382 102.000
57.47377 104.000
57.49372 93.000
57.51366 94.000
57.53361 70.000
57.55356 105.000
57.57350 97.000
57.59345 83.000
57.61340 93.000
57.63334 88.000
57.65329 92.000
57.67324 79.000
57.69319 110.000
57.71313 93.000
57.73308 83.000
57.75303 83.000
57.77297 111.000
57.79292 100.000
57.81287 114.000
57.83281 94.000
57.85276 98.000
57.87271 104.000
57.89266 85.000
57.91260 93.000
57.93255 108.000
57.95250 87.000
57.97244 97.000
57.99239 100.000
58.01234 95.000
58.03228 90.000
58.05223 114.000
58.07218 87.000
58.09212 96.000
58.11207 126.000
58.13202 115.000
58.15197 93.000
58.17191 96.000
58.19186 92.000
58.21181 100.000
58.23175 98.000
58.25170 79.000
58.27165 104.000
58.29159 98.000
58.31154 119.000
58.33149 98.000
58.35144 99.000
58.37138 110.000
58.39133 99.000
58.41128 102.000
58.43122 106.000
58.45117 100.000
58.47112 86.000
58.49106 94.000
58.51101 99.000
58.53096 105.000
58.55090 81.000
58.57085 86.000
58.59080 86.000
58.61075 105.000
58.63069 108.000
58.65064 93.000
58.67059 101.000
58.69053 88.000
58.71048 106.000
58.73043 101.000
58.75037 100.000
58.77032 96.000
58.79027 113.000
58.81022 94.000
58.83016 87.000
58.85011 95.000
58.87006 102.000
58.89000 90.000
58.90995 101.000
58.92990 80.000
58.94984 109.000
58.96979 93.000
58.98974 104.000
59.00969 126.000
59.02963 100.000
59.04958 103.000
59.06953 96.000
59.08947 96.000
59.10942 96.000
59.12937 90.000
59.14931 99.000
59.16926 103.000
59.18921 112.000
59.20915 121.000
59.22910 109.000
59.24905 106.000
59.26900 102.000
59.28894 92.000
59.30889 101.000
59.32884 95.000
59.34878 95.000
59.36873 112.000
59.38868 78.000
59.40862 107.000
59.42857 101.000
59.44852 118.000
59.46847 95.000
59.48841 94.000
59.50836 98.000
59.52831 99.000
59.54825 106.000
59.56820 92.000
59.58815 90.000
59.60809 111.000
59.62804 83.000
59.64799 103.000
59.66793 101.000
59.68788 85.000
59.70783 100.000
59.72778 85.000
59.74772 83.000
59.76767 115.000
59.78762 100.000
59.80756 90.000
59.82751 95.000
59.84746 86.000
59.86740 97.000
59.88735 92.000
59.90730 102.000
59.92725 91.000
59.94719 80.000
59.96714 74.000
59.98709 98.000
60.00703 88.000
60.02698 107.000
60.04693 108.000
60.06687 93.000
60.08682 78.000
60.10677 84.000
60.12671 95.000
60.14666 88.000
60.16661 94.000
60.18656 93.000
60.20650 106.000
60.22645 109.000
60.24640 110.000
60.26634 96.000
60.28629 94.000
60.30624 102.000
60.32618 88.000
60.34613 103.000
60.36608 96.000
60.38603 83.000
60.40597 105.000
60.42592 110.000
60.44587 100.000
60.46581 94.000
60.48576 97.000
60.50571 103.000
60.52565 121.000
60.54560 108.000
60.56555 102.000
60.58550 115.000
60.60544 100.000
60.62539 118.000
60.64534 94.000
60.66528 94.000
60.68523 119.000
60.70518 96.000
60.72512 101.000
60.74507 106.000
60.76502 106.000
60.78496 103.000
60.80491 115.000
60.82486 99.000
60.84481 112.000
60.86475 104.000
60.88470 112.000
60.90465 112.000
60.92459 98.000
60.94454 145.000
60.96449 119.000
60.98443 119.000
61.00438 109.000
61.02433 125.000
61.04428 117.000
61.06422 104.000
61.08417 122.000
61.10412 113.000
61.12406 106.000
61.14401 116.000
61.16396 107.000
61.18390 108.000
61.20385 134.000
61.22380 126.000
61.24374 133.000
61.26369 130.000
61.28364 128.000
61.30359 130.000
61.32353 146.000
61.34348 140.000
61.36343 140.000
61.38337 165.000
61.40332 175.000
61.42327 179.000
61.44321 181.000
61.46316 196.000
61.48311 201.000
61.50306 218.000
61.52300 232.000
61.54295 227.000
61.56290 244.000
61.58284 299.000
61.60279 318.000
61.62274 358.000
61.64268 414.000
61.66263 474.000
61.68258 554.000
61.70252 547.000
61.72247 613.000
61.74242 646.000
61.76237 677.000
61.78231 675.000
61.80226 681.000
61.82221 663.000
61.84215 724.000
61.86210 652.000
61.88205 643.000
61.90199 591.000
61.92194 580.000
61.94189 578.000
61.96184 514.000
61.98178 473.000
62.00173 434.000
62.02168 412.000
62.04162 359.000
62.06157 341.000
62.08152 294.000
62.10146 295.000
62.12141 275.000
62.14136 236.000
62.16131 200.000
62.18125 225.000
62.20120 183.000
62.22115 183.000
62.24109 184.000
62.26104 164.000
62.28099 175.000
62.30093 160.000
62.32088 131.000
62.34083 136.000
62.36077 120.000
62.38072 144.000
62.40067 129.000
62.42062 146.000
62.44056 153.000
62.46051 121.000
62.48046 123.000
62.50040 119.000
62.52035 139.000
62.54030 104.000
62.56024 133.000
62.58019 136.000
62.60014 140.000
62.62009 116.000
62.64003 136.000
62.65998 108.000
62.67993 121.000
62.69987 114.000
62.71982 139.000
62.73977 126.000
62.75971 138.000
62.77966 122.000
62.79961 118.000
62.81955 111.000
62.83950 120.000
62.85945 112.000
62.87940 129.000
62.89934 122.000
62.91929 100.000
62.93924 135.000
62.95918 113.000
62.97913 131.000
62.99908 115.000
63.01902 107.000
63.03897 108.000
63.05892 104.000
63.07887 100.000
63.09881 104.000
63.11876 138.000
63.13871 117.000
63.15865 96.000
63.17860 110.000
63.19855 110.000
63.21849 129.000
63.23844 120.000
63.25839 108.000
63.27833 108.000
63.29828 120.000
63.31823 113.000
63.33818 97.000
63.35812 112.000
63.37807 98.000
63.39802 96.000
63.41796 121.000
63.43791 115.000
63.45786 122.000
63.47780 108.000
63.49775 104.000
63.51770 85.000
63.53765 110.000
63.55759 86.000
63.57754 113.000
63.59749 100.000
63.61743 88.000
63.63738 120.000
63.65733 101.000
63.67727 93.000
63.69722 122.000
63.71717 105.000
63.73712 108.000
63.75706 107.000
63.77701 94.000
63.79696 122.000
63.81690 102.000
63.83685 116.000
63.85680 134.000
63.87674 139.000
63.89669 115.000
63.91664 114.000
63.93658 114.000
63.95653 117.000
63.97648 129.000
63.99643 124.000
64.01637 140.000
64.03632 122.000
64.05627 134.000
64.07621 132.000
64.09616 136.000
64.11611 132.000
64.13605 137.000
64.15600 146.000
64.17595 148.000
64.19590 186.000
64.21584 164.000
64.23579 178.000
64.25574 207.000
64.27568 292.000
64.29563 272.000
64.31558 352.000
64.33552 422.000
64.35547 450.000
64.37542 504.000
64.39536 548.000
64.41531 498.000
64.43526 498.000
64.45521 438.000
64.47515 441.000
64.49510 421.000
64.51505 428.000
64.53499 420.000
64.55494 388.000
64.57489 392.000
64.59483 339.000
64.61478 347.000
64.63473 308.000
64.65468 303.000
64.67462 251.000
64.69457 246.000
64.71452 203.000
64.73446 194.000
64.75441 180.000
64.77436 159.000
64.79430 154.000
64.81425 121.000
64.83420 160.000
64.85414 133.000
64.87409 129.000
64.89404 150.000
64.91399 117.000
64.93393 124.000
64.95388 110.000
64.97383 120.000
64.99377 104.000
65.01372 110.000
65.03367 105.000
65.05361 89.000
65.07356 112.000
65.09351 119.000
65.11346 118.000
65.13340 115.000
65.15335 119.000
65.17330 110.000
65.19324 100.000
65.21319 92.000
65.23314 119.000
65.25308 97.000
65.27303 107.000
65.29298 117.000
65.31293 92.000
65.33287 105.000
65.35282 102.000
65.37277 97.000
65.39271 113.000
65.41266 92.000
65.43261 113.000
65.45255 96.000
65.47250 109.000
65.49245 113.000
65.51239 114.000
65.53234 106.000
65.55229 95.000
65.57224 112.000
65.59218 104.000
65.61213 116.000
65.63208 122.000
65.65202 116.000
65.67197 108.000
65.69192 116.000
65.71186 113.000
65.73181 105.000
65.75176 99.000
65.77171 121.000
65.79165 97.000
65.81160 126.000
65.83155 107.000
65.85149 113.000
65.87144 118.000
65.89139 114.000
65.91133 103.000
65.93128 98.000
65.95123 121.000
65.97117 106.000
65.99112 116.000
66.01107 120.000
66.03102 132.000
66.05096 123.000
66.07091 102.000
66.09086 117.000
66.11080 154.000
66.13075 125.000
66.15070 120.000
66.17064 127.000
66.19059 148.000
66.21054 150.000
66.23049 157.000
66.25043 186.000
66.27038 176.000
66.29033 183.000
66.31027 188.000
66.33022 180.000
66.35017 181.000
66.37011 205.000
66.39006 192.000
66.41001 245.000
66.42995 226.000
66.44990 203.000
66.46985 257.000
66.48980 212.000
66.50974 247.000
66.52969 259.000
66.54964 259.000
66.56958 252.000
66.58953 259.000
66.60948 297.000
66.62942 285.000
66.64937 315.000
66.66932 345.000
66.68927 389.000
66.70921 383.000
66.72916 409.000
66.74911 414.000
66.76905 407.000
66.78900 384.000
66.80895 390.000
66.82889 348.000
66.84884 348.000
66.86879 380.000
66.88874 359.000
66.90868 335.000
66.92863 309.000
66.94858 326.000
66.96852 287.000
66.98847 263.000
67.00842 236.000
67.02836 214.000
67.04831 206.000
67.06826 191.000
67.08820 179.000
67.10815 167.000
67.12810 182.000
67.14805 154.000
67.16799 141.000
67.18794 141.000
67.20789 129.000
67.22783 122.000
67.24778 133.000
67.26773 133.000
67.28767 123.000
67.30762 116.000
67.32757 98.000
67.34752 110.000
67.36746 108.000
67.38741 103.000
67.40736 104.000
67.42730 119.000
67.44725 103.000
67.46720 105.000
67.48714 90.000
67.50709 95.000
67.52704 90.000
67.54698 115.000
67.56693 92.000
67.58688 82.000
67.60683 87.000
67.62677 108.000
67.64672 104.000
67.66667 102.000
67.68661 87.000
67.70656 94.000
67.72651 105.000
67.74645 113.000
67.76640 126.000
67.78635 100.000
67.80630 105.000
67.82624 116.000
67.84619 82.000
67.86614 93.000
67.88608 104.000
67.90603 102.000
67.92598 105.000
67.94592 104.000
67.96587 122.000
67.98582 120.000
68.00576 127.000
68.02571 116.000
68.04566 102.000
68.06561 80.000
68.08555 101.000
68.10550 102.000
68.12545 107.000
68.14539 118.000
68.16534 118.000
68.18529 102.000
68.20523 89.000
68.22518 101.000
68.24513 95.000
68.26508 90.000
68.28502 102.000
68.30497 94.000
68.32492 90.000
68.34486 94.000
68.36481 108.000
68.38476 101.000
68.40470 97.000
68.42465 105.000
68.44460 82.000
68.46455 117.000
68.48449 122.000
68.50444 93.000
68.52439 106.000
68.54433 97.000
68.56428 85.000
68.58423 94.000
68.60417 88.000
68.62412 77.000
68.64407 113.000
68.66401 92.000
68.68396 103.000
68.70391 97.000
68.72386 108.000
68.74380 102.000
68.76375 97.000
68.78370 92.000
68.80364 111.000
68.82359 105.000
68.84354 85.000
68.86348 108.000
68.88343 97.000
68.90338 88.000
68.92333 109.000
68.94327 93.000
68.96322 83.000
68.98317 100.000
69.00311 95.000
69.02306 102.000
69.04301 92.000
69.06295 99.000
69.08290 86.000
69.10285 104.000
69.12279 112.000
69.14274 76.000
69.16269 118.000
69.18264 81.000
69.20258 84.000
69.22253 86.000
69.24248 109.000
69.26242 87.000
69.28237 110.000
69.30232 93.000
69.32226 108.000
69.34221 96.000
69.36216 95.000
69.38211 107.000
69.40205 91.000
69.42200 89.000
69.44195 108.000
69.46189 89.000
69.48184 122.000
69.50179 99.000
69.52173 100.000
69.54168 90.000
69.56163 92.000
69.58157 97.000
69.60152 99.000
69.62147 104.000
69.64142 101.000
69.66136 96.000
69.68131 91.000
69.70126 102.000
69.72120 96.000
69.74115 90.000
69.76110 89.000
69.78104 83.000
69.80099 97.000
69.82094 96.000
69.84089 87.000
69.86083 90.000
69.88078 92.000
69.90073 107.000
69.92067 97.000
69.94062 91.000
69.96057 102.000
69.98051 109.000
70.00046 95.000
70.02041 91.000
70.04035 96.000
70.06030 99.000
70.08025 94.000
70.10020 76.000
70.12014 96.000
70.14009 90.000
70.16004 78.000
70.17998 78.000
70.19993 78.000
70.21988 85.000
70.23982 92.000
70.25977 110.000
70.27972 82.000
70.29967 102.000
70.31961 85.000
70.33956 95.000
70.35951 90.000
70.37945 87.000
70.39940 75.000
70.41935 95.000
70.43929 74.000
70.45924 104.000
70.47919 93.000
70.49914 70.000
70.51908 88.000
70.53903 85.000
70.55898 76.000
70.57892 99.000
70.59887 91.000
70.61882 95.000
70.63876 88.000
70.65871 86.000
70.67866 80.000
70.69860 92.000
70.71855 94.000
70.73850 93.000
70.75845 86.000
70.77839 82.000
70.79834 100.000
70.81829 92.000
70.83823 80.000
70.85818 91.000
70.87813 99.000
70.89807 77.000
70.91802 84.000
70.93797 87.000
70.95792 108.000
70.97786 91.000
70.99781 84.000
71.01776 97.000
71.03770 94.000
71.05765 99.000
71.07760 83.000
71.09754 90.000
71.11749 84.000
71.13744 89.000
71.15738 70.000
71.17733 87.000
71.19728 99.000
71.21723 89.000
71.23717 100.000
71.25712 99.000
71.27707 106.000
71.29701 74.000
71.31696 122.000
71.33691 94.000
71.35685 90.000
71.37680 91.000
71.39675 78.000
71.41670 76.000
71.43664 102.000
71.45659 89.000
71.47654 91.000
71.49648 84.000
71.51643 97.000
71.53638 82.000
71.55632 92.000
71.57627 105.000
71.59622 103.000
71.61616 99.000
71.63611 81.000
71.65606 103.000
71.67601 112.000
71.69595 85.000
71.71590 101.000
71.73585 89.000
71.75579 101.000
71.77574 102.000
71.79569 101.000
71.81563 107.000
71.83558 106.000
71.85553 93.000
71.87548 97.000
71.89542 70.000
71.91537 100.000
71.93532 107.000
71.95526 113.000
71.97521 98.000
71.99516 78.000
72.01510 99.000
72.03505 102.000
72.05500 96.000
72.07495 87.000
72.09489 92.000
72.11484 105.000
72.13479 90.000
72.15473 100.000
72.17468 87.000
72.19463 93.000
72.21457 91.000
72.23452 84.000
72.25447 81.000
72.27441 84.000
72.29436 109.000
72.31431 93.000
72.33426 91.000
72.35420 96.000
72.37415 105.000
72.39410 96.000
72.41404 81.000
72.43399 102.000
72.45394 88.000
72.47388 104.000
72.49383 85.000
72.51378 103.000
72.53373 86.000
72.55367 100.000
72.57362 75.000
72.59357 96.000
72.61351 98.000
72.63346 92.000
72.65341 79.000
72.67335 75.000
72.69330 98.000
72.71325 78.000
72.73319 101.000
72.75314 75.000
72.77309 107.000
72.79304 84.000
72.81298 97.000
72.83293 93.000
72.85288 88.000
72.87282 96.000
72.89277 88.000
72.91272 81.000
72.93266 88.000
72.95261 104.000
72.97256 95.000
72.99251 93.000
73.01245 99.000
73.03240 93.000
73.05235 106.000
73.07229 102.000
73.09224 99.000
73.11219 92.000
73.13213 109.000
73.15208 97.000
73.17203 104.000
73.19197 99.000
73.21192 109.000
73.23187 108.000
73.25182 116.000
73.27176 102.000
73.29171 105.000
73.31166 94.000
73.33160 101.000
73.35155 103.000
73.37150 134.000
73.39144 99.000
73.41139 120.000
73.43134 121.000
73.45129 130.000
73.47123 144.000
73.49118 143.000
73.51113 175.000
73.53107 179.000
73.55102 201.000
73.57097 196.000
73.59091 232.000
73.61086 212.000
73.63081 214.000
73.65076 234.000
73.67070 214.000
73.69065 209.000
73.71060 204.000
73.73054 186.000
73.75049 182.000
73.77044 183.000
73.79038 169.000
73.81033 178.000
73.83028 167.000
73.85022 153.000
73.87017 166.000
73.89012 164.000
73.91007 155.000
73.93001 142.000
73.94996 139.000
73.96991 135.000
73.98985 116.000
74.00980 120.000
74.02975 132.000
74.04969 111.000
74.06964 115.000
74.08959 106.000
74.10954 100.000
74.12948 97.000
74.14943 83.000
74.16938 110.000
74.18932 100.000
74.20927 102.000
74.22922 91.000
74.24916 104.000
74.26911 81.000
74.28906 95.000
74.30900 105.000
74.32895 86.000
74.34890 87.000
74.36885 111.000
74.38879 97.000
74.40874 88.000
74.42869 97.000
74.44863 94.000
74.46858 104.000
74.48853 92.000
74.50847 114.000
74.52842 83.000
74.54837 95.000
74.56832 91.000
74.58826 98.000
74.60821 97.000
74.62816 100.000
74.64810 96.000
74.66805 82.000
74.68800 91.000
74.70794 86.000
74.72789 93.000
74.74784 87.000
74.76778 96.000
74.78773 93.000
74.80768 103.000
74.82763 96.000
74.84757 98.000
74.86752 102.000
74.88747 106.000
74.90741 95.000
74.92736 95.000
74.94731 98.000
74.96725 74.000
74.98720 110.000
75.00715 97.000
75.02710 79.000
75.04704 106.000
75.06699 98.000
75.08694 88.000
75.10688 103.000
75.12683 85.000
75.14678 112.000
75.16672 108.000
75.18667 100.000
75.20662 99.000
75.22657 102.000
75.24651 94.000
75.26646 89.000
75.28641 121.000
75.30635 80.000
75.32630 92.000
75.34625 93.000
75.36619 83.000
75.38614 100.000
75.40609 92.000
75.42603 98.000
75.44598 116.000
75.46593 114.000
75.48588 89.000
75.50582 82.000
75.52577 91.000
75.54572 90.000
75.56566 76.000
75.58561 92.000
75.60556 118.000
75.62550 102.000
75.64545 96.000
75.66540 84.000
75.68535 83.000
75.70529 89.000
75.72524 93.000
75.74519 106.000
75.76513 103.000
75.78508 121.000
75.80503 104.000
75.82497 128.000
75.84492 96.000
75.86487 150.000
75.88481 139.000
75.90476 120.000
75.92471 124.000
75.94466 150.000
75.96460 123.000
75.98455 160.000
76.00450 167.000
76.02444 142.000
76.04439 145.000
76.06434 138.000
76.08428 153.000
76.10423 126.000
76.12418 136.000
76.14413 113.000
76.16407 133.000
76.18402 125.000
76.20397 129.000
76.22391 110.000
76.24386 108.000
76.26381 110.000
76.28375 116.000
76.30370 118.000
76.32365 112.000
76.34359 119.000
76.36354 112.000
76.38349 96.000
76.40344 108.000
76.42338 108.000
76.44333 89.000
76.46328 107.000
76.48322 99.000
76.50317 95.000
76.52312 98.000
76.54306 95.000
76.56301 105.000
76.58296 103.000
76.60291 112.000
76.62285 106.000
76.64280 112.000
76.66275 71.000
76.68269 104.000
76.70264 103.000
76.72259 95.000
76.74253 97.000
76.76248 86.000
76.78243 105.000
76.80238 95.000
76.82232 109.000
76.84227 85.000
76.86222 104.000
76.88216 98.000
76.90211 83.000
76.92206 88.000
76.94200 89.000
76.96195 105.000
76.98190 96.000
77.00184 95.000
77.02179 89.000
77.04174 103.000
77.06169 94.000
77.08163 88.000
77.10158 99.000
77.12153 103.000
77.14147 96.000
77.16142 103.000
77.18137 100.000
77.20131 124.000
77.22126 97.000
77.24121 113.000
77.26116 109.000
77.28110 110.000
77.30105 105.000
77.32100 90.000
77.34094 105.000
77.36089 100.000
77.38084 86.000
77.40078 113.000
77.42073 94.000
77.44068 115.000
77.46062 128.000
77.48057 117.000
77.50052 114.000
77.52047 115.000
77.54041 116.000
77.56036 138.000
77.58031 130.000
77.60025 180.000
77.62020 143.000
77.64015 181.000
77.66009 177.000
77.68004 162.000
77.69999 195.000
77.71994 169.000
77.73988 206.000
77.75983 234.000
77.77978 203.000
77.79972 231.000
77.81967 223.000
77.83962 243.000
77.85956 284.000
77.87951 258.000
77.89946 270.000
77.91940 280.000
77.93935 248.000
77.95930 270.000
77.97925 267.000
77.99919 284.000
78.01914 297.000
78.03909 294.000
78.05903 250.000
78.07898 319.000
78.09893 270.000
78.11887 290.000
78.13882 310.000
78.15877 283.000
78.17872 250.000
78.19866 286.000
78.21861 256.000
78.23856 236.000
78.25850 240.000
78.27845 213.000
78.29840 224.000
78.31834 197.000
78.33829 203.000
78.35824 203.000
78.37819 195.000
78.39813 201.000
78.41808 188.000
78.43803 176.000
78.45797 170.000
78.47792 144.000
78.49787 156.000
78.51781 156.000
78.53776 135.000
78.55771 136.000
78.57765 122.000
78.59760 139.000
78.61755 127.000
78.63750 116.000
78.65744 112.000
78.67739 110.000
78.69734 110.000
78.71728 115.000
78.73723 98.000
78.75718 116.000
78.77712 95.000
78.79707 95.000
78.81702 117.000
78.83697 87.000
78.85691 115.000
78.87686 79.000
78.89681 108.000
78.91675 91.000
78.93670 92.000
78.95665 111.000
78.97659 91.000
78.99654 98.000
79.01649 109.000
79.03643 104.000
79.05638 91.000
79.07633 99.000
79.09628 97.000
79.11622 96.000
79.13617 105.000
79.15612 79.000
79.17606 113.000
79.19601 96.000
79.21596 81.000
79.23590 98.000
79.25585 116.000
79.27580 118.000
79.29575 108.000
79.31569 85.000
79.33564 98.000
79.35559 80.000
79.37553 105.000
79.39548 96.000
79.41543 100.000
79.43537 99.000
79.45532 85.000
79.47527 81.000
79.49521 131.000
79.51516 90.000
79.53511 89.000
79.55506 81.000
79.57500 87.000
79.59495 98.000
79.61490 90.000
79.63484 90.000
79.65479 80.000
79.67474 91.000
79.69468 85.000
79.71463 99.000
79.73458 71.000
79.75453 105.000
79.77447 113.000
79.79442 74.000
79.81437 87.000
79.83431 97.000
79.85426 98.000
79.87421 83.000
79.89415 84.000
79.91410 101.000
79.93405 89.000
79.95399 98.000
79.97394 99.000
79.99389 113.000
80.01384 100.000
80.03378 93.000
80.05373 80.000
80.07368 98.000
80.09362 77.000
80.11357 105.000
80.13352 88.000
80.15346 98.000
80.17341 77.000
80.19336 84.000
80.21331 102.000
80.23325 89.000
80.25320 95.000
80.27315 85.000
80.29309 100.000
80.31304 91.000
80.33299 87.000
80.35293 85.000
80.37288 84.000
80.39283 76.000
80.41278 96.000
80.43272 95.000
80.45267 94.000
80.47262 97.000
80.49256 100.000
80.51251 87.000
80.53246 88.000
80.55240 110.000
80.57235 97.000
80.59230 79.000
80.61224 97.000
80.63219 102.000
80.65214 91.000
80.67209 82.000
80.69203 92.000
80.71198 88.000
80.73193 95.000
80.75187 114.000
80.77182 102.000
80.79177 98.000
80.81171 110.000
80.83166 114.000
80.85161 114.000
80.87156 107.000
80.89150 105.000
80.91145 88.000
80.93140 107.000
80.95134 91.000
80.97129 90.000
80.99124 107.000
81.01118 103.000
81.03113 104.000
81.05108 97.000
81.07102 120.000
81.09097 100.000
81.11092 112.000
81.13087 95.000
81.15081 106.000
81.17076 102.000
81.19071 86.000
81.21065 88.000
81.23060 112.000
81.25055 89.000
81.27049 92.000
81.29044 77.000
81.31039 83.000
81.33034 97.000
81.35028 79.000
81.37023 97.000
81.39018 99.000
81.41012 85.000
81.43007 77.000
81.45002 98.000
81.46996 92.000
81.48991 84.000
81.50986 84.000
81.52980 78.000
81.54975 76.000
81.56970 85.000
81.58965 102.000
81.60959 106.000
81.62954 86.000
81.64949 84.000
81.66943 69.000
81.68938 87.000
81.70933 88.000
81.72927 87.000
81.74922 82.000
81.76917 94.000
81.78912 97.000
81.80906 83.000
81.82901 87.000
81.84896 87.000
81.86890 84.000
81.88885 110.000
81.90880 105.000
81.92874 78.000
81.94869 103.000
81.96864 103.000
81.98859 80.000
82.00853 83.000
82.02848 84.000
82.04843 84.000
82.06837 78.000
82.08832 87.000
82.10827 80.000
82.12821 76.000
82.14816 91.000
82.16811 91.000
82.18805 99.000
82.20800 98.000
82.22795 95.000
82.24790 96.000
82.26784 84.000
82.28779 97.000
82.30774 91.000
82.32768 78.000
82.34763 100.000
82.36758 88.000
82.38752 83.000
82.40747 93.000
82.42742 91.000
82.44737 90.000
82.46731 78.000
82.48726 93.000
82.50721 97.000
82.52715 96.000
82.54710 104.000
82.56705 75.000
82.58699 85.000
82.60694 83.000
82.62689 97.000
82.64683 93.000
82.66678 79.000
82.68673 74.000
82.70668 67.000
82.72662 81.000
82.74657 99.000
82.76652 78.000
82.78646 87.000
82.80641 109.000
82.82636 76.000
82.84630 96.000
82.86625 81.000
82.88620 79.000
82.90615 99.000
82.92609 93.000
82.94604 97.000
82.96599 88.000
82.98593 96.000
83.00588 78.000
83.02583 97.000
83.04577 104.000
83.06572 76.000
83.08567 83.000
83.10561 96.000
83.12556 106.000
83.14551 73.000
83.16546 93.000
83.18540 95.000
83.20535 92.000
83.22530 89.000
83.24524 90.000
83.26519 78.000
83.28514 76.000
83.30508 100.000
83.32503 93.000
83.34498 93.000
83.36493 100.000
83.38487 90.000
83.40482 88.000
83.42477 94.000
83.44471 102.000
83.46466 112.000
83.48461 94.000
83.50455 101.000
83.52450 86.000
83.54445 98.000
83.56440 102.000
83.58434 87.000
83.60429 80.000
83.62424 105.000
83.64418 99.000
83.66413 104.000
83.68408 80.000
83.70402 83.000
83.72397 97.000
83.74392 84.000
83.76386 89.000
83.78381 77.000
83.80376 86.000
83.82371 89.000
83.84365 89.000
83.86360 91.000
83.88355 109.000
83.90349 72.000
83.92344 84.000
83.94339 92.000
83.96333 109.000
83.98328 93.000
84.00323 93.000
84.02318 102.000
84.04312 86.000
84.06307 92.000
84.08302 102.000
84.10296 87.000
84.12291 91.000
84.14286 83.000
84.16280 102.000
84.18275 96.000
84.20270 96.000
84.22264 94.000
84.24259 72.000
84.26254 112.000
84.28249 103.000
84.30243 82.000
84.32238 107.000
84.34233 118.000
84.36227 118.000
84.38222 86.000
84.40217 123.000
84.42211 128.000
84.44206 106.000
84.46201 139.000
84.48196 126.000
84.50190 141.000
84.52185 173.000
84.54180 166.000
84.56174 169.000
84.58169 202.000
84.60164 207.000
84.62158 256.000
84.64153 190.000
84.66148 220.000
84.68142 262.000
84.70137 225.000
84.72132 229.000
84.74127 247.000
84.76121 212.000
84.78116 213.000
84.80111 209.000
84.82105 208.000
84.84100 186.000
84.86095 197.000
84.88089 202.000
84.90084 190.000
84.92079 168.000
84.94074 178.000
84.96068 197.000
84.98063 184.000
85.00058 185.000
85.02052 158.000
85.04047 153.000
85.06042 131.000
85.08036 162.000
85.10031 143.000
85.12026 125.000
85.14021 136.000
85.16015 100.000
85.18010 126.000
85.20005 109.000
85.21999 128.000
85.23994 98.000
85.25989 123.000
85.27983 111.000
85.29978 92.000
85.31973 117.000
85.33967 90.000
85.35962 104.000
85.37957 114.000
85.39952 95.000
85.41946 105.000
85.43941 85.000
85.45936 88.000
85.47930 90.000
85.49925 114.000
85.51920 109.000
85.53914 118.000
85.55909 109.000
85.57904 76.000
85.59899 108.000
85.61893 83.000
85.63888 85.000
85.65883 94.000
85.67877 90.000
85.69872 98.000
85.71867 88.000
85.73861 86.000
85.75856 111.000
85.77851 84.000
85.79845 92.000
85.81840 82.000
85.83835 74.000
85.85830 95.000
85.87824 92.000
85.89819 94.000
85.91814 78.000
85.93808 84.000
85.95803 80.000
85.97798 104.000
85.99792 90.000
86.01787 107.000
86.03782 94.000
86.05777 94.000
86.07771 93.000
86.09766 111.000
86.11761 98.000
86.13755 100.000
86.15750 86.000
86.17745 108.000
86.19739 102.000
86.21734 99.000
86.23729 109.000
86.25723 98.000
86.27718 110.000
86.29713 105.000
86.31708 95.000
86.33702 102.000
86.35697 118.000
86.37692 108.000
86.39686 115.000
86.41681 119.000
86.43676 98.000
86.45670 104.000
86.47665 130.000
86.49660 118.000
86.51655 110.000
86.53649 116.000
86.55644 104.000
86.57639 131.000
86.59633 134.000
86.61628 113.000
86.63623 122.000
86.65617 105.000
86.67612 100.000
86.69607 117.000
86.71602 128.000
86.73596 108.000
86.75591 119.000
86.77586 114.000
86.79580 122.000
86.81575 120.000
86.83570 122.000
86.85564 107.000
86.87559 119.000
86.89554 114.000
86.91548 114.000
86.93543 110.000
86.95538 135.000
86.97533 120.000
86.99527 120.000
87.01522 120.000
87.03517 108.000
87.05511 115.000
87.07506 117.000
87.09501 107.000
87.11495 99.000
87.13490 107.000
87.15485 122.000
87.17480 109.000
87.19474 108.000
87.21469 100.000
87.23464 112.000
87.25458 119.000
87.27453 102.000
87.29448 100.000
87.31442 119.000
87.33437 104.000
87.35432 94.000
87.37426 89.000
87.39421 101.000
87.41416 119.000
87.43411 99.000
87.45405 116.000
87.47400 88.000
87.49395 106.000
87.51389 98.000
87.53384 83.000
87.55379 93.000
87.57373 94.000
87.59368 87.000
87.61363 91.000
87.63358 84.000
87.65352 93.000
87.67347 84.000
87.69342 95.000
87.71336 93.000
87.73331 82.000
87.75326 91.000
87.77320 91.000
87.79315 81.000
87.81310 98.000
87.83304 74.000
87.85299 109.000
87.87294 74.000
87.89289 82.000
87.91283 81.000
87.93278 89.000
87.95273 100.000
87.97267 99.000
87.99262 72.000
88.01257 106.000
88.03251 86.000
88.05246 101.000
88.07241 82.000
88.09236 88.000
88.11230 89.000
88.13225 95.000
88.15220 90.000
88.17214 85.000
88.19209 97.000
88.21204 86.000
88.23198 77.000
88.25193 91.000
88.27188 78.000
88.29183 72.000
88.31177 90.000
88.33172 87.000
88.35167 78.000
88.37161 74.000
88.39156 84.000
88.41151 99.000
88.43145 89.000
88.45140 88.000
88.47135 88.000
88.49129 100.000
88.51124 77.000
88.53119 88.000
88.55114 88.000
88.57108 70.000
88.59103 106.000
88.61098 98.000
88.63092 81.000
88.65087 87.000
88.67082 78.000
88.69076 75.000
88.71071 90.000
88.73066 82.000
88.75061 92.000
88.77055 80.000
88.79050 81.000
88.81045 95.000
88.83039 77.000
88.85034 91.000
88.87029 92.000
88.89023 98.000
88.91018 92.000
88.93013 83.000
88.95007 104.000
88.97002 84.000
88.98997 95.000
89.00992 81.000
89.02986 78.000
89.04981 84.000
89.06976 76.000
89.08970 82.000
89.10965 93.000
89.12960 99.000
89.14954 94.000
89.16949 89.000
89.18944 78.000
89.20939 90.000
89.22933 83.000
89.24928 88.000
89.26923 75.000
89.28917 94.000
89.30912 97.000
89.32907 81.000
89.34901 89.000
89.36896 75.000
89.38891 84.000
89.40885 101.000
89.42880 76.000
89.44875 88.000
89.46870 101.000
89.48864 82.000
89.50859 72.000
89.52854 97.000
89.54848 94.000
89.56843 91.000
89.58838 93.000
89.60832 85.000
89.62827 79.000
89.64822 87.000
89.66817 70.000
89.68811 67.000
89.70806 77.000
89.72801 99.000
89.74795 77.000
89.76790 88.000
89.78785 86.000
89.80779 82.000
89.82774 84.000
89.84769 86.000
89.86764 89.000
89.88758 92.000
89.90753 75.000
89.92748 100.000
89.94742 80.000
89.96737 77.000
89.98732 90.000
90.00726 80.000
