10.00000 472.000
10.01995 460.000
10.03989 486.000
10.05984 448.000
10.07979 480.000
10.09973 459.000
10.11968 469.000
10.13963 450.000
10.15958 486.000
10.17952 499.000
10.19947 496.000
10.21942 437.000
10.23936 439.000
10.25931 464.000
10.27926 455.000
10.29920 481.000
10.31915 396.000
10.33910 443.000
10.35905 486.000
10.37899 458.000
10.39894 512.000
10.41889 467.000
10.43883 451.000
10.45878 513.000
10.47873 469.000
10.49867 473.000
10.51862 463.000
10.53857 463.000
10.55851 458.000
10.57846 445.000
10.59841 512.000
10.61836 464.000
10.63830 521.000
10.65825 475.000
10.67820 481.000
10.69814 469.000
10.71809 477.000
10.73804 511.000
10.75798 505.000
10.77793 481.000
10.79788 460.000
10.81783 466.000
10.83777 497.000
10.85772 524.000
10.87767 487.000
10.89761 486.000
10.91756 478.000
10.93751 459.000
10.95745 478.000
10.97740 475.000
10.99735 500.000
11.01730 445.000
11.03724 476.000
11.05719 513.000
11.07714 460.000
11.09708 443.000
11.11703 496.000
11.13698 489.000
11.15692 500.000
11.17687 526.000
11.19682 513.000
11.21676 507.000
11.23671 483.000
11.25666 461.000
11.27661 497.000
11.29655 500.000
11.31650 438.000
11.33645 524.000
11.35639 509.000
11.37634 489.000
11.39629 502.000
11.41623 477.000
11.43618 505.000
11.45613 506.000
11.47608 486.000
11.49602 480.000
11.51597 477.000
11.53592 520.000
11.55586 496.000
11.57581 483.000
11.59576 483.000
11.61570 521.000
11.63565 470.000
11.65560 480.000
11.67554 478.000
11.69549 457.000
11.71544 482.000
11.73539 500.000
11.75533 513.000
11.77528 526.000
11.79523 502.000
11.81517 501.000
11.83512 499.000
11.85507 464.000
11.87501 467.000
11.89496 496.000
11.91491 513.000
11.93486 493.000
11.95480 492.000
11.97475 482.000
11.99470 445.000
12.01464 487.000
12.03459 476.000
12.05454 514.000
12.07448 526.000
12.09443 505.000
12.11438 488.000
12.13432 499.000
12.15427 500.000
12.17422 503.000
12.19417 513.000
12.21411 541.000
12.23406 491.000
12.25401 498.000
12.27395 505.000
12.29390 496.000
12.31385 506.000
12.33379 473.000
12.35374 510.000
12.37369 478.000
12.39364 545.000
12.41358 530.000
12.43353 509.000
12.45348 498.000
12.47342 461.000
12.49337 502.000
12.51332 486.000
12.53326 506.000
12.55321 478.000
12.57316 485.000
12.59311 515.000
12.61305 512.000
12.63300 473.000
12.65295 489.000
12.67289 494.000
12.69284 486.000
12.71279 511.000
12.73273 506.000
12.75268 521.000
12.77263 513.000
12.79257 495.000
12.81252 485.000
12.83247 438.000
12.85242 483.000
12.87236 510.000
12.89231 536.000
12.91226 515.000
12.93220 518.000
12.95215 522.000
12.97210 501.000
12.99204 498.000
13.01199 489.000
13.03194 498.000
13.05189 469.000
13.07183 477.000
13.09178 485.000
13.11173 475.000
13.13167 481.000
13.15162 523.000
13.17157 537.000
13.19151 472.000
13.21146 520.000
13.23141 507.000
13.25135 511.000
13.27130 471.000
13.29125 515.000
13.31120 496.000
13.33114 509.000
13.35109 454.000
13.37104 497.000
13.39098 483.000
13.41093 543.000
13.43088 517.000
13.45082 544.000
13.47077 505.000
13.49072 496.000
13.51067 497.000
13.53061 494.000
13.55056 503.000
13.57051 531.000
13.59045 496.000
13.61040 525.000
13.63035 503.000
13.65029 542.000
13.67024 511.000
13.69019 483.000
13.71013 504.000
13.73008 507.000
13.75003 532.000
13.76998 451.000
13.78992 485.000
13.80987 490.000
13.82982 484.000
13.84976 493.000
13.86971 513.000
13.88966 490.000
13.90960 501.000
13.92955 513.000
13.94950 498.000
13.96945 521.000
13.98939 498.000
14.00934 476.000
14.02929 519.000
14.04923 485.000
14.06918 509.000
14.08913 483.000
14.10907 522.000
14.12902 497.000
14.14897 461.000
14.16892 493.000
14.18886 526.000
14.20881 502.000
14.22876 540.000
14.24870 524.000
14.26865 511.000
14.28860 493.000
14.30854 513.000
14.32849 505.000
14.34844 520.000
14.36838 502.000
14.38833 512.000
14.40828 474.000
14.42823 541.000
14.44817 512.000
14.46812 485.000
14.48807 522.000
14.50801 481.000
14.52796 517.000
14.54791 525.000
14.56785 492.000
14.58780 500.000
14.60775 490.000
14.62770 547.000
14.64764 516.000
14.66759 517.000
14.68754 497.000
14.70748 522.000
14.72743 486.000
14.74738 510.000
14.76732 502.000
14.78727 485.000
14.80722 509.000
14.82716 499.000
14.84711 497.000
14.86706 526.000
14.88701 492.000
14.90695 490.000
14.92690 484.000
14.94685 489.000
14.96679 592.000
14.98674 503.000
15.00669 550.000
15.02663 524.000
15.04658 505.000
15.06653 521.000
15.08648 581.000
15.10642 547.000
15.12637 542.000
15.14632 552.000
15.16626 537.000
15.18621 563.000
15.20616 532.000
15.22610 537.000
15.24605 554.000
15.26600 555.000
15.28594 578.000
15.30589 572.000
15.32584 569.000
15.34579 604.000
15.36573 564.000
15.38568 588.000
15.40563 490.000
15.42557 612.000
15.44552 604.000
15.46547 655.000
15.48541 615.000
15.50536 685.000
15.52531 696.000
15.54526 793.000
15.56520 818.000
15.58515 945.000
15.60510 1141.000
15.62504 1465.000
15.64499 1663.000
15.66494 2055.000
15.68488 2413.000
15.70483 3098.000
15.72478 3632.000
15.74472 4287.000
15.76467 4846.000
15.78462 5644.000
15.80457 5651.000
15.82451 5208.000
15.84446 4018.000
15.86441 2713.000
15.88435 1921.000
15.90430 1100.000
15.92425 851.000
15.94419 768.000
15.96414 723.000
15.98409 712.000
16.00404 670.000
16.02398 654.000
16.04393 610.000
16.06388 627.000
16.08382 604.000
16.10377 642.000
16.12372 608.000
16.14366 624.000
16.16361 629.000
16.18356 550.000
16.20351 553.000
16.22345 548.000
16.24340 585.000
16.26335 544.000
16.28329 548.000
16.30324 565.000
16.32319 554.000
16.34313 514.000
16.36308 528.000
16.38303 504.000
16.40297 524.000
16.42292 556.000
16.44287 536.000
16.46282 526.000
16.48276 565.000
16.50271 480.000
16.52266 539.000
16.54260 488.000
16.56255 534.000
16.58250 521.000
16.60244 576.000
16.62239 547.000
16.64234 560.000
16.66229 523.000
16.68223 545.000
16.70218 564.000
16.72213 593.000
16.74207 588.000
16.76202 572.000
16.78197 595.000
16.80191 579.000
16.82186 581.000
16.84181 565.000
16.86175 517.000
16.88170 537.000
16.90165 542.000
16.92160 503.000
16.94154 587.000
16.96149 516.000
16.98144 488.000
17.00138 525.000
17.02133 537.000
17.04128 518.000
17.06122 510.000
17.08117 518.000
17.10112 506.000
17.12107 522.000
17.14101 545.000
17.16096 529.000
17.18091 499.000
17.20085 479.000
17.22080 533.000
17.24075 473.000
17.26069 559.000
17.28064 507.000
17.30059 480.000
17.32053 554.000
17.34048 461.000
17.36043 503.000
17.38038 526.000
17.40032 490.000
17.42027 527.000
17.44022 501.000
17.46016 536.000
17.48011 510.000
17.50006 468.000
17.52000 507.000
17.53995 489.000
17.55990 517.000
17.57985 548.000
17.59979 501.000
17.61974 539.000
17.63969 542.000
17.65963 522.000
17.67958 520.000
17.69953 519.000
17.71947 512.000
17.73942 483.000
17.75937 519.000
17.77932 534.000
17.79926 508.000
17.81921 523.000
17.83916 527.000
17.85910 557.000
17.87905 546.000
17.89900 463.000
17.91894 531.000
17.93889 554.000
17.95884 532.000
17.97878 493.000
17.99873 574.000
18.01868 519.000
18.03863 489.000
18.05857 519.000
18.07852 474.000
18.09847 529.000
18.11841 498.000
18.13836 506.000
18.15831 505.000
18.17825 530.000
18.19820 502.000
18.21815 503.000
18.23810 532.000
18.25804 589.000
18.27799 555.000
18.29794 581.000
18.31788 610.000
18.33783 622.000
18.35778 594.000
18.37772 548.000
18.39767 501.000
18.41762 507.000
18.43756 538.000
18.45751 485.000
18.47746 502.000
18.49741 489.000
18.51735 513.000
18.53730 465.000
18.55725 539.000
18.57719 548.000
18.59714 528.000
18.61709 513.000
18.63703 494.000
18.65698 504.000
18.67693 509.000
18.69688 490.000
18.71682 486.000
18.73677 504.000
18.75672 497.000
18.77666 508.000
18.79661 477.000
18.81656 510.000
18.83650 519.000
18.85645 491.000
18.87640 490.000
18.89634 516.000
18.91629 464.000
18.93624 530.000
18.95619 523.000
18.97613 515.000
18.99608 489.000
19.01603 437.000
19.03597 496.000
19.05592 547.000
19.07587 495.000
19.09581 497.000
19.11576 507.000
19.13571 496.000
19.15566 534.000
19.17560 527.000
19.19555 516.000
19.21550 527.000
19.23544 471.000
19.25539 523.000
19.27534 473.000
19.29528 487.000
19.31523 469.000
19.33518 506.000
19.35513 526.000
19.37507 519.000
19.39502 530.000
19.41497 507.000
19.43491 493.000
19.45486 516.000
19.47481 537.000
19.49475 514.000
19.51470 541.000
19.53465 540.000
19.55459 527.000
19.57454 510.000
19.59449 474.000
19.61444 500.000
19.63438 510.000
19.65433 513.000
19.67428 508.000
19.69422 499.000
19.71417 485.000
19.73412 548.000
19.75406 520.000
19.77401 537.000
19.79396 523.000
19.81391 524.000
19.83385 494.000
19.85380 551.000
19.87375 489.000
19.89369 507.000
19.91364 470.000
19.93359 538.000
19.95353 523.000
19.97348 535.000
19.99343 455.000
20.01337 496.000
20.03332 487.000
20.05327 491.000
20.07322 477.000
20.09316 508.000
20.11311 479.000
20.13306 490.000
20.15300 503.000
20.17295 517.000
20.19290 530.000
20.21284 487.000
20.23279 516.000
20.25274 514.000
20.27269 540.000
20.29263 538.000
20.31258 490.000
20.33253 503.000
20.35247 515.000
20.37242 486.000
20.39237 505.000
20.41231 514.000
20.43226 523.000
20.45221 526.000
20.47215 547.000
20.49210 522.000
20.51205 519.000
20.53200 557.000
20.55194 531.000
20.57189 547.000
20.59184 600.000
20.61178 563.000
20.63173 561.000
20.65168 573.000
20.67162 590.000
20.69157 657.000
20.71152 697.000
20.73147 733.000
20.75141 773.000
20.77136 783.000
20.79131 848.000
20.81125 832.000
20.83120 818.000
20.85115 896.000
20.87109 937.000
20.89104 1008.000
20.91099 998.000
20.93094 1011.000
20.95088 975.000
20.97083 993.000
20.99078 993.000
21.01072 892.000
21.03067 780.000
21.05062 737.000
21.07056 623.000
21.09051 613.000
21.11046 602.000
21.13040 555.000
21.15035 515.000
21.17030 550.000
21.19025 540.000
21.21019 468.000
21.23014 502.000
21.25009 512.000
21.27003 495.000
21.28998 514.000
21.30993 508.000
21.32987 510.000
21.34982 499.000
21.36977 486.000
21.38972 518.000
21.40966 496.000
21.42961 495.000
21.44956 531.000
21.46950 493.000
21.48945 502.000
21.50940 496.000
21.52934 495.000
21.54929 551.000
21.56924 503.000
21.58918 500.000
21.60913 523.000
21.62908 494.000
21.64903 520.000
21.66897 528.000
21.68892 534.000
21.70887 484.000
21.72881 518.000
21.74876 555.000
21.76871 519.000
21.78865 530.000
21.80860 549.000
21.82855 521.000
21.84850 511.000
21.86844 506.000
21.88839 509.000
21.90834 497.000
21.92828 519.000
21.94823 542.000
21.96818 518.000
21.98812 541.000
22.00807 541.000
22.02802 542.000
22.04796 545.000
22.06791 511.000
22.08786 510.000
22.10781 514.000
22.12775 462.000
22.14770 499.000
22.16765 502.000
22.18759 530.000
22.20754 450.000
22.22749 513.000
22.24743 517.000
22.26738 520.000
22.28733 529.000
22.30728 493.000
22.32722 542.000
22.34717 507.000
22.36712 512.000
22.38706 502.000
22.40701 507.000
22.42696 488.000
22.44690 522.000
22.46685 491.000
22.48680 485.000
22.50675 527.000
22.52669 515.000
22.54664 497.000
22.56659 528.000
22.58653 501.000
22.60648 517.000
22.62643 521.000
22.64637 520.000
22.66632 494.000
22.68627 503.000
22.70621 508.000
22.72616 496.000
22.74611 514.000
22.76606 506.000
22.78600 493.000
22.80595 506.000
22.82590 522.000
22.84584 472.000
22.86579 512.000
22.88574 483.000
22.90568 517.000
22.92563 508.000
22.94558 485.000
22.96553 548.000
22.98547 537.000
23.00542 543.000
23.02537 525.000
23.04531 497.000
23.06526 510.000
23.08521 526.000
23.10515 503.000
23.12510 525.000
23.14505 546.000
23.16499 494.000
23.18494 496.000
23.20489 504.000
23.22484 509.000
23.24478 527.000
23.26473 506.000
23.28468 473.000
23.30462 482.000
23.32457 507.000
23.34452 493.000
23.36446 553.000
23.38441 533.000
23.40436 544.000
23.42431 553.000
23.44425 486.000
23.46420 505.000
23.48415 556.000
23.50409 485.000
23.52404 482.000
23.54399 525.000
23.56393 468.000
23.58388 495.000
23.60383 509.000
23.62377 472.000
23.64372 520.000
23.66367 490.000
23.68362 466.000
23.70356 532.000
23.72351 509.000
23.74346 497.000
23.76340 564.000
23.78335 541.000
23.80330 528.000
23.82324 513.000
23.84319 501.000
23.86314 526.000
23.88309 499.000
23.90303 515.000
23.92298 486.000
23.94293 543.000
23.96287 500.000
23.98282 509.000
24.00277 569.000
24.02271 527.000
24.04266 531.000
24.06261 518.000
24.08256 529.000
24.10250 565.000
24.12245 508.000
24.14240 528.000
24.16234 539.000
24.18229 523.000
24.20224 556.000
24.22218 521.000
24.24213 506.000
24.26208 530.000
24.28202 514.000
24.30197 493.000
24.32192 530.000
24.34187 549.000
24.36181 554.000
24.38176 525.000
24.40171 527.000
24.42165 519.000
24.44160 502.000
24.46155 509.000
24.48149 502.000
24.50144 454.000
24.52139 510.000
24.54134 503.000
24.56128 468.000
24.58123 496.000
24.60118 487.000
24.62112 537.000
24.64107 533.000
24.66102 497.000
24.68096 515.000
24.70091 538.000
24.72086 525.000
24.74080 562.000
24.76075 523.000
24.78070 549.000
24.80065 555.000
24.82059 525.000
24.84054 514.000
24.86049 532.000
24.88043 548.000
24.90038 548.000
24.92033 565.000
24.94027 590.000
24.96022 560.000
24.98017 536.000
25.00012 526.000
25.02006 562.000
25.04001 543.000
25.05996 542.000
25.07990 489.000
25.09985 566.000
25.11980 566.000
25.13974 504.000
25.15969 555.000
25.17964 507.000
25.19958 549.000
25.21953 529.000
25.23948 504.000
25.25943 528.000
25.27937 545.000
25.29932 497.000
25.31927 473.000
25.33921 528.000
25.35916 514.000
25.37911 474.000
25.39905 542.000
25.41900 531.000
25.43895 515.000
25.45890 517.000
25.47884 511.000
25.49879 491.000
25.51874 504.000
25.53868 552.000
25.55863 469.000
25.57858 555.000
25.59852 521.000
25.61847 507.000
25.63842 523.000
25.65837 544.000
25.67831 488.000
25.69826 522.000
25.71821 525.000
25.73815 525.000
25.75810 515.000
25.77805 531.000
25.79799 511.000
25.81794 500.000
25.83789 484.000
25.85783 509.000
25.87778 533.000
25.89773 522.000
25.91768 530.000
25.93762 537.000
25.95757 498.000
25.97752 535.000
25.99746 510.000
26.01741 512.000
26.03736 538.000
26.05730 544.000
26.07725 487.000
26.09720 527.000
26.11715 514.000
26.13709 516.000
26.15704 546.000
26.17699 482.000
26.19693 536.000
26.21688 518.000
26.23683 535.000
26.25677 504.000
26.27672 499.000
26.29667 495.000
26.31661 543.000
26.33656 517.000
26.35651 549.000
26.37646 521.000
26.39640 496.000
26.41635 510.000
26.43630 555.000
26.45624 553.000
26.47619 551.000
26.49614 558.000
26.51608 503.000
26.53603 510.000
26.55598 515.000
26.57593 518.000
26.59587 528.000
26.61582 511.000
26.63577 529.000
26.65571 550.000
26.67566 531.000
26.69561 505.000
26.71555 512.000
26.73550 491.000
26.75545 515.000
26.77539 511.000
26.79534 498.000
26.81529 498.000
26.83524 532.000
26.85518 490.000
26.87513 525.000
26.89508 503.000
26.91502 512.000
26.93497 568.000
26.95492 498.000
26.97486 535.000
26.99481 523.000
27.01476 505.000
27.03471 514.000
27.05465 492.000
27.07460 513.000
27.09455 510.000
27.11449 469.000
27.13444 535.000
27.15439 544.000
27.17433 530.000
27.19428 519.000
27.21423 501.000
27.23417 505.000
27.25412 539.000
27.27407 537.000
27.29402 503.000
27.31396 538.000
27.33391 513.000
27.35386 503.000
27.37380 504.000
27.39375 518.000
27.41370 486.000
27.43364 520.000
27.45359 510.000
27.47354 475.000
27.49349 570.000
27.51343 488.000
27.53338 516.000
27.55333 566.000
27.57327 475.000
27.59322 502.000
27.61317 504.000
27.63311 493.000
27.65306 536.000
27.67301 520.000
27.69296 511.000
27.71290 522.000
27.73285 524.000
27.75280 514.000
27.77274 496.000
27.79269 511.000
27.81264 505.000
27.83258 478.000
27.85253 510.000
27.87248 540.000
27.89242 498.000
27.91237 588.000
27.93232 523.000
27.95227 561.000
27.97221 557.000
27.99216 527.000
28.01211 554.000
28.03205 485.000
28.05200 520.000
28.07195 528.000
28.09189 520.000
28.11184 550.000
28.13179 535.000
28.15174 491.000
28.17168 528.000
28.19163 526.000
28.21158 512.000
28.23152 565.000
28.25147 565.000
28.27142 524.000
28.29136 486.000
28.31131 482.000
28.33126 479.000
28.35120 553.000
28.37115 518.000
28.39110 510.000
28.41105 523.000
28.43099 508.000
28.45094 544.000
28.47089 499.000
28.49083 560.000
28.51078 545.000
28.53073 534.000
28.55067 525.000
28.57062 511.000
28.59057 544.000
28.61052 539.000
28.63046 533.000
28.65041 532.000
28.67036 526.000
28.69030 498.000
28.71025 522.000
28.73020 511.000
28.75014 540.000
28.77009 546.000
28.79004 536.000
28.80998 522.000
28.82993 494.000
28.84988 509.000
28.86983 511.000
28.88977 522.000
28.90972 535.000
28.92967 538.000
28.94961 508.000
28.96956 537.000
28.98951 544.000
29.00945 535.000
29.02940 498.000
29.04935 550.000
29.06930 532.000
29.08924 579.000
29.10919 548.000
29.12914 558.000
29.14908 562.000
29.16903 603.000
29.18898 571.000
29.20892 589.000
29.22887 603.000
29.24882 661.000
29.26877 614.000
29.28871 637.000
29.30866 665.000
29.32861 689.000
29.34855 671.000
29.36850 610.000
29.38845 636.000
29.40839 660.000
29.42834 601.000
29.44829 607.000
29.46823 556.000
29.48818 543.000
29.50813 599.000
29.52808 569.000
29.54802 553.000
29.56797 556.000
29.58792 572.000
29.60786 536.000
29.62781 565.000
29.64776 546.000
29.66770 541.000
29.68765 529.000
29.70760 517.000
29.72755 508.000
29.74749 554.000
29.76744 523.000
29.78739 544.000
29.80733 556.000
29.82728 557.000
29.84723 524.000
29.86717 513.000
29.88712 558.000
29.90707 573.000
29.92701 558.000
29.94696 575.000
29.96691 559.000
29.98686 534.000
30.00680 596.000
30.02675 572.000
30.04670 595.000
30.06664 625.000
30.08659 670.000
30.10654 625.000
30.12648 617.000
30.14643 669.000
30.16638 714.000
30.18633 714.000
30.20627 733.000
30.22622 688.000
30.24617 667.000
30.26611 660.000
30.28606 645.000
30.30601 559.000
30.32595 589.000
30.34590 568.000
30.36585 549.000
30.38579 571.000
30.40574 567.000
30.42569 534.000
30.44564 521.000
30.46558 540.000
30.48553 518.000
30.50548 536.000
30.52542 561.000
30.54537 546.000
30.56532 585.000
30.58526 557.000
30.60521 579.000
30.62516 539.000
30.64511 526.000
30.66505 511.000
30.68500 569.000
30.70495 522.000
30.72489 603.000
30.74484 553.000
30.76479 552.000
30.78473 509.000
30.80468 524.000
30.82463 521.000
30.84458 552.000
30.86452 520.000
30.88447 542.000
30.90442 546.000
30.92436 493.000
30.94431 528.000
30.96426 549.000
30.98420 532.000
31.00415 546.000
31.02410 524.000
31.04404 546.000
31.06399 538.000
31.08394 529.000
31.10389 566.000
31.12383 568.000
31.14378 575.000
31.16373 552.000
31.18367 538.000
31.20362 552.000
31.22357 569.000
31.24351 561.000
31.26346 529.000
31.28341 561.000
31.30336 501.000
31.32330 524.000
31.34325 549.000
31.36320 512.000
31.38314 511.000
31.40309 547.000
31.42304 543.000
31.44298 541.000
31.46293 543.000
31.48288 568.000
31.50282 581.000
31.52277 518.000
31.54272 567.000
31.56267 542.000
31.58261 576.000
31.60256 553.000
31.62251 605.000
31.64245 537.000
31.66240 540.000
31.68235 543.000
31.70229 577.000
31.72224 541.000
31.74219 572.000
31.76214 601.000
31.78208 597.000
31.80203 640.000
31.82198 662.000
31.84192 689.000
31.86187 738.000
31.88182 805.000
31.90176 847.000
31.92171 907.000
31.94166 862.000
31.96160 922.000
31.98155 1010.000
32.00150 965.000
32.02145 942.000
32.04139 850.000
32.06134 788.000
32.08129 790.000
32.10123 710.000
32.12118 642.000
32.14113 629.000
32.16107 628.000
32.18102 620.000
32.20097 594.000
32.22092 600.000
32.24086 667.000
32.26081 626.000
32.28076 729.000
32.30070 743.000
32.32065 793.000
32.34060 837.000
32.36054 818.000
32.38049 950.000
32.40044 1031.000
32.42039 1022.000
32.44033 958.000
32.46028 919.000
32.48023 876.000
32.50017 796.000
32.52012 762.000
32.54007 718.000
32.56001 638.000
32.57996 623.000
32.59991 601.000
32.61985 562.000
32.63980 604.000
32.65975 551.000
32.67970 590.000
32.69964 580.000
32.71959 564.000
32.73954 516.000
32.75948 521.000
32.77943 529.000
32.79938 500.000
32.81932 566.000
32.83927 534.000
32.85922 532.000
32.87917 553.000
32.89911 538.000
32.91906 553.000
32.93901 520.000
32.95895 589.000
32.97890 509.000
32.99885 528.000
33.01879 565.000
33.03874 563.000
33.05869 556.000
33.07863 503.000
33.09858 582.000
33.11853 575.000
33.13848 507.000
33.15842 569.000
33.17837 528.000
33.19832 532.000
33.21826 558.000
33.23821 522.000
33.25816 518.000
33.27810 557.000
33.29805 535.000
33.31800 512.000
33.33795 497.000
33.35789 560.000
33.37784 586.000
33.39779 589.000
33.41773 562.000
33.43768 565.000
33.45763 552.000
33.47757 568.000
33.49752 541.000
33.51747 519.000
33.53741 583.000
33.55736 571.000
33.57731 534.000
33.59726 599.000
33.61720 567.000
33.63715 587.000
33.65710 551.000
33.67704 562.000
33.69699 550.000
33.71694 538.000
33.73688 575.000
33.75683 544.000
33.77678 601.000
33.79673 598.000
33.81667 572.000
33.83662 595.000
33.85657 583.000
33.87651 596.000
33.89646 575.000
33.91641 593.000
33.93635 587.000
33.95630 590.000
33.97625 567.000
33.99620 594.000
34.01614 613.000
34.03609 627.000
34.05604 634.000
34.07598 659.000
34.09593 626.000
34.11588 673.000
34.13582 657.000
34.15577 708.000
34.17572 693.000
34.19566 741.000
34.21561 741.000
34.23556 767.000
34.25551 787.000
34.27545 764.000
34.29540 821.000
34.31535 827.000
34.33529 882.000
34.35524 853.000
34.37519 899.000
34.39513 927.000
34.41508 864.000
34.43503 949.000
34.45498 990.000
34.47492 955.000
34.49487 926.000
34.51482 960.000
34.53476 973.000
34.55471 1000.000
34.57466 1021.000
34.59460 1001.000
34.61455 965.000
34.63450 965.000
34.65444 984.000
34.67439 993.000
34.69434 994.000
34.71429 899.000
34.73423 867.000
34.75418 829.000
34.77413 867.000
34.79407 863.000
34.81402 769.000
34.83397 757.000
34.85391 765.000
34.87386 772.000
34.89381 752.000
34.91376 758.000
34.93370 720.000
34.95365 743.000
34.97360 747.000
34.99354 753.000
35.01349 787.000
35.03344 788.000
35.05338 818.000
35.07333 814.000
35.09328 891.000
35.11322 883.000
35.13317 967.000
35.15312 1063.000
35.17307 1182.000
35.19301 1258.000
35.21296 1320.000
35.23291 1572.000
35.25285 1740.000
35.27280 2080.000
35.29275 2428.000
35.31269 2973.000
35.33264 3361.000
35.35259 3645.000
35.37254 4065.000
35.39248 4305.000
35.41243 4594.000
35.43238 4897.000
35.45232 5231.000
35.47227 5146.000
35.49222 4952.000
35.51216 4482.000
35.53211 4010.000
35.55206 3742.000
35.57201 3350.000
35.59195 2830.000
35.61190 2460.000
35.63185 2068.000
35.65179 1812.000
35.67174 1584.000
35.69169 1452.000
35.71163 1320.000
35.73158 1205.000
35.75153 1154.000
35.77147 1032.000
35.79142 1004.000
35.81137 925.000
35.83132 853.000
35.85126 808.000
35.87121 794.000
35.89116 759.000
35.91110 758.000
35.93105 719.000
35.95100 700.000
35.97094 646.000
35.99089 695.000
36.01084 719.000
36.03079 677.000
36.05073 671.000
36.07068 681.000
36.09063 722.000
36.11057 712.000
36.13052 627.000
36.15047 664.000
36.17041 655.000
36.19036 638.000
36.21031 623.000
36.23025 602.000
36.25020 654.000
36.27015 664.000
36.29010 665.000
36.31004 661.000
36.32999 612.000
36.34994 653.000
36.36988 608.000
36.38983 629.000
36.40978 648.000
36.42972 639.000
36.44967 604.000
36.46962 598.000
36.48957 618.000
36.50951 588.000
36.52946 589.000
36.54941 591.000
36.56935 641.000
36.58930 592.000
36.60925 637.000
36.62919 600.000
36.64914 610.000
36.66909 616.000
36.68903 614.000
36.70898 598.000
36.72893 584.000
36.74888 623.000
36.76882 650.000
36.78877 605.000
36.80872 621.000
36.82866 664.000
36.84861 592.000
36.86856 617.000
36.88850 624.000
36.90845 692.000
36.92840 736.000
36.94835 757.000
36.96829 789.000
36.98824 827.000
37.00819 867.000
37.02813 924.000
37.04808 974.000
37.06803 1036.000
37.08797 1064.000
37.10792 1040.000
37.12787 1020.000
37.14781 998.000
37.16776 962.000
37.18771 900.000
37.20766 871.000
37.22760 839.000
37.24755 773.000
37.26750 710.000
37.28744 729.000
37.30739 685.000
37.32734 673.000
37.34728 642.000
37.36723 595.000
37.38718 624.000
37.40713 655.000
37.42707 586.000
37.44702 632.000
37.46697 631.000
37.48691 611.000
37.50686 553.000
37.52681 624.000
37.54675 568.000
37.56670 644.000
37.58665 613.000
37.60660 596.000
37.62654 585.000
37.64649 590.000
37.66644 606.000
37.68638 602.000
37.70633 641.000
37.72628 604.000
37.74622 635.000
37.76617 644.000
37.78612 631.000
37.80606 642.000
37.82601 621.000
37.84596 641.000
37.86591 661.000
37.88585 620.000
37.90580 698.000
37.92575 662.000
37.94569 702.000
37.96564 673.000
37.98559 696.000
38.00553 695.000
38.02548 728.000
38.04543 708.000
38.06538 688.000
38.08532 760.000
38.10527 759.000
38.12522 807.000
38.14516 774.000
38.16511 820.000
38.18506 878.000
38.20500 870.000
38.22495 926.000
38.24490 1026.000
38.26484 993.000
38.28479 1010.000
38.30474 1125.000
38.32469 1145.000
38.34463 1243.000
38.36458 1311.000
38.38453 1346.000
38.40447 1563.000
38.42442 1770.000
38.44437 1943.000
38.46431 2271.000
38.48426 2625.000
38.50421 2966.000
38.52416 3430.000
38.54410 3771.000
38.56405 4265.000
38.58400 4594.000
38.60394 4473.000
38.62389 4438.000
38.64384 4113.000
38.66378 3877.000
38.68373 3442.000
38.70368 3176.000
38.72362 2814.000
38.74357 2544.000
38.76352 2135.000
38.78347 1934.000
38.80341 1784.000
38.82336 1681.000
38.84331 1646.000
38.86325 1602.000
38.88320 1633.000
38.90315 1620.000
38.92309 1709.000
38.94304 1756.000
38.96299 1743.000
38.98294 1566.000
39.00288 1541.000
39.02283 1472.000
39.04278 1355.000
39.06272 1309.000
39.08267 1251.000
39.10262 1191.000
39.12256 1180.000
39.14251 1141.000
39.16246 1079.000
39.18241 1106.000
39.20235 1157.000
39.22230 1010.000
39.24225 1056.000
39.26219 1096.000
39.28214 1056.000
39.30209 1073.000
39.32203 976.000
39.34198 957.000
39.36193 910.000
39.38187 842.000
39.40182 788.000
39.42177 768.000
39.44172 748.000
39.46166 711.000
39.48161 694.000
39.50156 699.000
39.52150 674.000
39.54145 675.000
39.56140 629.000
39.58134 607.000
39.60129 676.000
39.62124 606.000
39.64119 592.000
39.66113 558.000
39.68108 582.000
39.70103 593.000
39.72097 615.000
39.74092 565.000
39.76087 595.000
39.78081 559.000
39.80076 569.000
39.82071 564.000
39.84065 617.000
39.86060 580.000
39.88055 628.000
39.90050 515.000
39.92044 597.000
39.94039 565.000
39.96034 554.000
39.98028 571.000
40.00023 582.000
40.02018 581.000
40.04012 558.000
40.06007 522.000
40.08002 548.000
40.09997 550.000
40.11991 536.000
40.13986 568.000
40.15981 574.000
40.17975 571.000
40.19970 560.000
40.21965 545.000
40.23959 563.000
40.25954 563.000
40.27949 564.000
40.29943 532.000
40.31938 496.000
40.33933 552.000
40.35928 555.000
40.37922 543.000
40.39917 523.000
40.41912 541.000
40.43906 538.000
40.45901 479.000
40.47896 541.000
40.49890 580.000
40.51885 536.000
40.53880 556.000
40.55875 550.000
40.57869 545.000
40.59864 531.000
40.61859 537.000
40.63853 549.000
40.65848 574.000
40.67843 559.000
40.69837 532.000
40.71832 511.000
40.73827 527.000
40.75822 597.000
40.77816 521.000
40.79811 542.000
40.81806 527.000
40.83800 540.000
40.85795 517.000
40.87790 568.000
40.89784 548.000
40.91779 513.000
40.93774 559.000
40.95768 542.000
40.97763 504.000
40.99758 538.000
41.01753 533.000
41.03747 547.000
41.05742 563.000
41.07737 520.000
41.09731 512.000
41.11726 549.000
41.13721 514.000
41.15715 563.000
41.17710 532.000
41.19705 562.000
41.21700 543.000
41.23694 529.000
41.25689 527.000
41.27684 516.000
41.29678 540.000
41.31673 514.000
41.33668 548.000
41.35662 528.000
41.37657 537.000
41.39652 534.000
41.41646 517.000
41.43641 555.000
41.45636 532.000
41.47631 606.000
41.49625 543.000
41.51620 570.000
41.53615 575.000
41.55609 537.000
41.57604 547.000
41.59599 573.000
41.61593 609.000
41.63588 579.000
41.65583 520.000
41.67578 535.000
41.69572 560.000
41.71567 533.000
41.73562 586.000
41.75556 530.000
41.77551 544.000
41.79546 552.000
41.81540 538.000
41.83535 533.000
41.85530 489.000
41.87524 561.000
41.89519 556.000
41.91514 536.000
41.93509 536.000
41.95503 524.000
41.97498 562.000
41.99493 493.000
42.01487 507.000
42.03482 526.000
42.05477 564.000
42.07471 546.000
42.09466 543.000
42.11461 509.000
42.13456 528.000
42.15450 541.000
42.17445 541.000
42.19440 588.000
42.21434 510.000
42.23429 491.000
42.25424 556.000
42.27418 545.000
42.29413 565.000
42.31408 520.000
42.33403 551.000
42.35397 482.000
42.37392 535.000
42.39387 546.000
42.41381 535.000
42.43376 554.000
42.45371 600.000
42.47365 556.000
42.49360 567.000
42.51355 541.000
42.53349 563.000
42.55344 517.000
42.57339 568.000
42.59334 556.000
42.61328 577.000
42.63323 595.000
42.65318 596.000
42.67312 609.000
42.69307 588.000
42.71302 568.000
42.73296 610.000
42.75291 632.000
42.77286 632.000
42.79281 557.000
42.81275 631.000
42.83270 661.000
42.85265 650.000
42.87259 634.000
42.89254 730.000
42.91249 752.000
42.93243 823.000
42.95238 808.000
42.97233 839.000
42.99227 831.000
43.01222 927.000
43.03217 923.000
43.05212 969.000
43.07206 985.000
43.09201 1070.000
43.11196 1053.000
43.13190 1041.000
43.15185 1100.000
43.17180 1139.000
43.19174 1113.000
43.21169 1037.000
43.23164 1008.000
43.25159 989.000
43.27153 1070.000
43.29148 980.000
43.31143 938.000
43.33137 937.000
43.35132 904.000
43.37127 846.000
43.39121 815.000
43.41116 779.000
43.43111 753.000
43.45105 731.000
43.47100 694.000
43.49095 667.000
43.51090 651.000
43.53084 649.000
43.55079 635.000
43.57074 611.000
43.59068 577.000
43.61063 652.000
43.63058 536.000
43.65052 558.000
43.67047 537.000
43.69042 528.000
43.71037 550.000
43.73031 535.000
43.75026 536.000
43.77021 560.000
43.79015 510.000
43.81010 541.000
43.83005 557.000
43.84999 574.000
43.86994 523.000
43.88989 542.000
43.90984 530.000
43.92978 510.000
43.94973 554.000
43.96968 567.000
43.98962 523.000
44.00957 560.000
44.02952 541.000
44.04946 511.000
44.06941 564.000
44.08936 559.000
44.10930 518.000
44.12925 512.000
44.14920 506.000
44.16915 562.000
44.18909 573.000
44.20904 534.000
44.22899 516.000
44.24893 555.000
44.26888 566.000
44.28883 559.000
44.30877 568.000
44.32872 527.000
44.34867 520.000
44.36862 553.000
44.38856 522.000
44.40851 542.000
44.42846 562.000
44.44840 521.000
44.46835 564.000
44.48830 527.000
44.50824 506.000
44.52819 562.000
44.54814 516.000
44.56808 518.000
44.58803 550.000
44.60798 503.000
44.62793 587.000
44.64787 565.000
44.66782 541.000
44.68777 545.000
44.70771 496.000
44.72766 520.000
44.74761 499.000
44.76755 551.000
44.78750 517.000
44.80745 556.000
44.82740 548.000
44.84734 527.000
44.86729 552.000
44.88724 564.000
44.90718 560.000
44.92713 556.000
44.94708 534.000
44.96702 557.000
44.98697 563.000
45.00692 565.000
45.02686 535.000
45.04681 533.000
45.06676 547.000
45.08671 542.000
45.10665 538.000
45.12660 511.000
45.14655 545.000
45.16649 514.000
45.18644 547.000
45.20639 547.000
45.22633 556.000
45.24628 522.000
45.26623 553.000
45.28618 554.000
45.30612 563.000
45.32607 522.000
45.34602 557.000
45.36596 537.000
45.38591 544.000
45.40586 512.000
45.42580 500.000
45.44575 518.000
45.46570 541.000
45.48565 549.000
45.50559 491.000
45.52554 508.000
45.54549 539.000
45.56543 515.000
45.58538 528.000
45.60533 527.000
45.62527 536.000
45.64522 541.000
45.66517 566.000
45.68511 542.000
45.70506 515.000
45.72501 510.000
45.74496 531.000
45.76490 512.000
45.78485 465.000
45.80480 566.000
45.82474 537.000
45.84469 537.000
45.86464 526.000
45.88458 512.000
45.90453 540.000
45.92448 547.000
45.94443 532.000
45.96437 576.000
45.98432 522.000
46.00427 585.000
46.02421 518.000
46.04416 551.000
46.06411 553.000
46.08405 550.000
46.10400 553.000
46.12395 567.000
46.14389 641.000
46.16384 644.000
46.18379 602.000
46.20374 660.000
46.22368 568.000
46.24363 645.000
46.26358 616.000
46.28352 615.000
46.30347 579.000
46.32342 583.000
46.34336 638.000
46.36331 566.000
46.38326 558.000
46.40321 572.000
46.42315 530.000
46.44310 538.000
46.46305 520.000
46.48299 507.000
46.50294 534.000
46.52289 544.000
46.54283 527.000
46.56278 581.000
46.58273 539.000
46.60267 542.000
46.62262 548.000
46.64257 555.000
46.66252 570.000
46.68246 503.000
46.70241 522.000
46.72236 510.000
46.74230 505.000
46.76225 532.000
46.78220 557.000
46.80214 521.000
46.82209 509.000
46.84204 581.000
46.86199 555.000
46.88193 534.000
46.90188 520.000
46.92183 545.000
46.94177 518.000
46.96172 499.000
46.98167 489.000
47.00161 581.000
47.02156 539.000
47.04151 543.000
47.06146 475.000
47.08140 557.000
47.10135 544.000
47.12130 538.000
47.14124 520.000
47.16119 526.000
47.18114 480.000
47.20108 560.000
47.22103 521.000
47.24098 536.000
47.26092 552.000
47.28087 544.000
47.30082 578.000
47.32077 514.000
47.34071 520.000
47.36066 531.000
47.38061 543.000
47.40055 575.000
47.42050 540.000
47.44045 546.000
47.46039 563.000
47.48034 485.000
47.50029 553.000
47.52024 531.000
47.54018 524.000
47.56013 545.000
47.58008 548.000
47.60002 521.000
47.61997 527.000
47.63992 597.000
47.65986 534.000
47.67981 534.000
47.69976 523.000
47.71970 551.000
47.73965 552.000
47.75960 550.000
47.77955 524.000
47.79949 547.000
47.81944 535.000
47.83939 573.000
47.85933 593.000
47.87928 577.000
47.89923 560.000
47.91917 581.000
47.93912 579.000
47.95907 575.000
47.97902 585.000
47.99896 573.000
48.01891 552.000
48.03886 585.000
48.05880 566.000
48.07875 598.000
48.09870 614.000
48.11864 583.000
48.13859 634.000
48.15854 583.000
48.17848 590.000
48.19843 606.000
48.21838 646.000
48.23833 566.000
48.25827 573.000
48.27822 637.000
48.29817 596.000
48.31811 610.000
48.33806 663.000
48.35801 673.000
48.37795 680.000
48.39790 715.000
48.41785 664.000
48.43780 710.000
48.45774 820.000
48.47769 827.000
48.49764 822.000
48.51758 873.000
48.53753 925.000
48.55748 1047.000
48.57742 1093.000
48.59737 1125.000
48.61732 1156.000
48.63726 1281.000
48.65721 1379.000
48.67716 1415.000
48.69711 1522.000
48.71705 1809.000
48.73700 1918.000
48.75695 1888.000
48.77689 2023.000
48.79684 1956.000
48.81679 1902.000
48.83673 1800.000
48.85668 1757.000
48.87663 1731.000
48.89658 1511.000
48.91652 1410.000
48.93647 1321.000
48.95642 1198.000
48.97636 1133.000
48.99631 1044.000
49.01626 967.000
49.03620 885.000
49.05615 848.000
49.07610 761.000
49.09605 743.000
49.11599 782.000
49.13594 736.000
49.15589 711.000
49.17583 640.000
49.19578 655.000
49.21573 662.000
49.23567 656.000
49.25562 688.000
49.27557 604.000
49.29551 653.000
49.31546 648.000
49.33541 628.000
49.35536 636.000
49.37530 613.000
49.39525 581.000
49.41520 590.000
49.43514 588.000
49.45509 645.000
49.47504 587.000
49.49498 576.000
49.51493 578.000
49.53488 600.000
49.55483 621.000
49.57477 600.000
49.59472 642.000
49.61467 629.000
49.63461 558.000
49.65456 595.000
49.67451 589.000
49.69445 611.000
49.71440 612.000
49.73435 629.000
49.75429 638.000
49.77424 603.000
49.79419 627.000
49.81414 570.000
49.83408 593.000
49.85403 565.000
49.87398 579.000
49.89392 598.000
49.91387 590.000
49.93382 537.000
49.95376 563.000
49.97371 511.000
49.99366 537.000
50.01361 562.000
50.03355 523.000
50.05350 528.000
50.07345 524.000
50.09339 558.000
50.11334 502.000
50.13329 531.000
50.15323 544.000
50.17318 518.000
50.19313 494.000
50.21307 547.000
50.23302 610.000
50.25297 577.000
50.27292 575.000
50.29286 532.000
50.31281 528.000
50.33276 541.000
50.35270 596.000
50.37265 559.000
50.39260 536.000
50.41254 530.000
50.43249 545.000
50.45244 503.000
50.47239 554.000
50.49233 514.000
50.51228 581.000
50.53223 524.000
50.55217 531.000
50.57212 530.000
50.59207 573.000
50.61201 552.000
50.63196 518.000
50.65191 554.000
50.67186 560.000
50.69180 545.000
50.71175 571.000
50.73170 534.000
50.75164 512.000
50.77159 541.000
50.79154 571.000
50.81148 509.000
50.83143 535.000
50.85138 559.000
50.87132 596.000
50.89127 567.000
50.91122 549.000
50.93117 526.000
50.95111 528.000
50.97106 553.000
50.99101 535.000
51.01095 544.000
51.03090 543.000
51.05085 564.000
51.07079 524.000
51.09074 545.000
51.11069 558.000
51.13064 572.000
51.15058 561.000
51.17053 589.000
51.19048 544.000
51.21042 546.000
51.23037 595.000
51.25032 568.000
51.27026 521.000
51.29021 592.000
51.31016 550.000
51.33010 566.000
51.35005 554.000
51.37000 565.000
51.38995 535.000
51.40989 542.000
51.42984 548.000
51.44979 539.000
51.46973 530.000
51.48968 576.000
51.50963 529.000
51.52957 596.000
51.54952 541.000
51.56947 500.000
51.58942 526.000
51.60936 539.000
51.62931 519.000
51.64926 513.000
51.66920 516.000
51.68915 555.000
51.70910 537.000
51.72904 532.000
51.74899 532.000
51.76894 540.000
51.78888 517.000
51.80883 528.000
51.82878 513.000
51.84873 566.000
51.86867 514.000
51.88862 544.000
51.90857 561.000
51.92851 589.000
51.94846 567.000
51.96841 557.000
51.98835 594.000
52.00830 601.000
52.02825 589.000
52.04820 568.000
52.06814 579.000
52.08809 610.000
52.10804 582.000
52.12798 598.000
52.14793 543.000
52.16788 556.000
52.18782 574.000
52.20777 566.000
52.22772 575.000
52.24767 525.000
52.26761 596.000
52.28756 552.000
52.30751 560.000
52.32745 558.000
52.34740 550.000
52.36735 577.000
52.38729 541.000
52.40724 551.000
52.42719 537.000
52.44713 555.000
52.46708 558.000
52.48703 562.000
52.50698 538.000
52.52692 535.000
52.54687 576.000
52.56682 579.000
52.58676 555.000
52.60671 592.000
52.62666 604.000
52.64660 553.000
52.66655 557.000
52.68650 557.000
52.70645 530.000
52.72639 499.000
52.74634 606.000
52.76629 556.000
52.78623 561.000
52.80618 600.000
52.82613 513.000
52.84607 518.000
52.86602 610.000
52.88597 575.000
52.90591 592.000
52.92586 602.000
52.94581 558.000
52.96576 619.000
52.98570 637.000
53.00565 615.000
53.02560 595.000
53.04554 654.000
53.06549 642.000
53.08544 640.000
53.10538 683.000
53.12533 661.000
53.14528 663.000
53.16523 705.000
53.18517 751.000
53.20512 760.000
53.22507 748.000
53.24501 792.000
53.26496 758.000
53.28491 764.000
53.30485 733.000
53.32480 746.000
53.34475 778.000
53.36469 700.000
53.38464 706.000
53.40459 733.000
53.42454 708.000
53.44448 687.000
53.46443 675.000
53.48438 654.000
53.50432 631.000
53.52427 600.000
53.54422 617.000
53.56416 617.000
53.58411 615.000
53.60406 595.000
53.62401 605.000
53.64395 644.000
53.66390 628.000
53.68385 612.000
53.70379 570.000
53.72374 584.000
53.74369 617.000
53.76363 562.000
53.78358 590.000
53.80353 595.000
53.82348 597.000
53.84342 556.000
53.86337 499.000
53.88332 580.000
53.90326 551.000
53.92321 527.000
53.94316 577.000
53.96310 562.000
53.98305 509.000
54.00300 546.000
54.02294 577.000
54.04289 537.000
54.06284 536.000
54.08279 553.000
54.10273 520.000
54.12268 559.000
54.14263 558.000
54.16257 542.000
54.18252 542.000
54.20247 498.000
54.22241 514.000
54.24236 531.000
54.26231 536.000
54.28226 558.000
54.30220 503.000
54.32215 527.000
54.34210 556.000
54.36204 553.000
54.38199 525.000
54.40194 565.000
54.42188 537.000
54.44183 534.000
54.46178 536.000
54.48172 528.000
54.50167 523.000
54.52162 513.000
54.54157 504.000
54.56151 563.000
54.58146 517.000
54.60141 535.000
54.62135 503.000
54.64130 493.000
54.66125 530.000
54.68119 537.000
54.70114 504.000
54.72109 577.000
54.74104 559.000
54.76098 523.000
54.78093 488.000
54.80088 521.000
54.82082 538.000
54.84077 548.000
54.86072 480.000
54.88066 564.000
54.90061 564.000
54.92056 539.000
54.94050 551.000
54.96045 532.000
54.98040 567.000
55.00035 550.000
55.02029 535.000
55.04024 527.000
55.06019 513.000
55.08013 508.000
55.10008 523.000
55.12003 532.000
55.13997 503.000
55.15992 524.000
55.17987 538.000
55.19982 527.000
55.21976 499.000
55.23971 523.000
55.25966 549.000
55.27960 515.000
55.29955 559.000
55.31950 541.000
55.33944 525.000
55.35939 494.000
55.37934 527.000
55.39929 588.000
55.41923 518.000
55.43918 504.000
55.45913 496.000
55.47907 539.000
55.49902 472.000
55.51897 547.000
55.53891 540.000
55.55886 535.000
55.57881 504.000
55.59875 525.000
55.61870 524.000
55.63865 538.000
55.65860 518.000
55.67854 579.000
55.69849 513.000
55.71844 578.000
55.73838 541.000
55.75833 516.000
55.77828 503.000
55.79822 529.000
55.81817 540.000
55.83812 522.000
55.85807 534.000
55.87801 517.000
55.89796 530.000
55.91791 493.000
55.93785 511.000
55.95780 492.000
55.97775 531.000
55.99769 524.000
56.01764 548.000
56.03759 550.000
56.05753 522.000
56.07748 493.000
56.09743 525.000
56.11738 584.000
56.13732 555.000
56.15727 552.000
56.17722 518.000
56.19716 531.000
56.21711 513.000
56.23706 487.000
56.25700 518.000
56.27695 547.000
56.29690 559.000
56.31685 550.000
56.33679 540.000
56.35674 556.000
56.37669 540.000
56.39663 523.000
56.41658 560.000
56.43653 570.000
56.45647 613.000
56.47642 574.000
56.49637 575.000
56.51631 542.000
56.53626 538.000
56.55621 551.000
56.57616 577.000
56.59610 546.000
56.61605 552.000
56.63600 548.000
56.65594 578.000
56.67589 531.000
56.69584 537.000
56.71578 567.000
56.73573 593.000
56.75568 586.000
56.77563 532.000
56.79557 558.000
56.81552 557.000
56.83547 553.000
56.85541 523.000
56.87536 528.000
56.89531 524.000
56.91525 518.000
56.93520 531.000
56.95515 551.000
56.97510 571.000
56.99504 554.000
57.01499 557.000
57.03494 532.000
57.05488 600.000
57.07483 564.000
57.09478 591.000
57.11472 616.000
57.13467 602.000
57.15462 664.000
57.17456 655.000
57.19451 638.000
57.21446 701.000
57.23441 693.000
57.25435 671.000
57.27430 671.000
57.29425 654.000
57.31419 602.000
57.33414 630.000
57.35409 628.000
57.37403 604.000
57.39398 618.000
57.41393 545.000
57.43388 608.000
57.45382 607.000
57.47377 579.000
57.49372 604.000
57.51366 572.000
57.53361 568.000
57.55356 587.000
57.57350 550.000
57.59345 560.000
57.61340 558.000
57.63334 534.000
57.65329 535.000
57.67324 589.000
57.69319 571.000
57.71313 563.000
57.73308 535.000
57.75303 583.000
57.77297 564.000
57.79292 562.000
57.81287 577.000
57.83281 623.000
57.85276 573.000
57.87271 555.000
57.89266 605.000
57.91260 593.000
57.93255 585.000
57.95250 622.000
57.97244 645.000
57.99239 650.000
58.01234 678.000
58.03228 684.000
58.05223 693.000
58.07218 764.000
58.09212 771.000
58.11207 820.000
58.13202 889.000
58.15197 936.000
58.17191 979.000
58.19186 1018.000
58.21181 955.000
58.23175 944.000
58.25170 962.000
58.27165 905.000
58.29159 896.000
58.31154 823.000
58.33149 866.000
58.35144 797.000
58.37138 750.000
58.39133 793.000
58.41128 719.000
58.43122 681.000
58.45117 715.000
58.47112 638.000
58.49106 625.000
58.51101 626.000
58.53096 605.000
58.55090 603.000
58.57085 564.000
58.59080 590.000
58.61075 565.000
58.63069 580.000
58.65064 582.000
58.67059 540.000
58.69053 616.000
58.71048 556.000
58.73043 567.000
58.75037 542.000
58.77032 543.000
58.79027 557.000
58.81022 571.000
58.83016 565.000
58.85011 509.000
58.87006 566.000
58.89000 536.000
58.90995 526.000
58.92990 552.000
58.94984 520.000
58.96979 501.000
58.98974 499.000
59.00969 566.000
59.02963 543.000
59.04958 554.000
59.06953 582.000
59.08947 532.000
59.10942 562.000
59.12937 536.000
59.14931 525.000
59.16926 475.000
59.18921 475.000
59.20915 542.000
59.22910 538.000
59.24905 534.000
59.26900 521.000
59.28894 547.000
59.30889 489.000
59.32884 526.000
59.34878 516.000
59.36873 512.000
59.38868 525.000
59.40862 548.000
59.42857 542.000
59.44852 510.000
59.46847 523.000
59.48841 583.000
59.50836 565.000
59.52831 478.000
59.54825 530.000
59.56820 574.000
59.58815 546.000
59.60809 552.000
59.62804 516.000
59.64799 521.000
59.66793 548.000
59.68788 546.000
59.70783 533.000
59.72778 517.000
59.74772 507.000
59.76767 591.000
59.78762 524.000
59.80756 570.000
59.82751 558.000
59.84746 551.000
59.86740 576.000
59.88735 603.000
59.90730 492.000
59.92725 495.000
59.94719 556.000
59.96714 542.000
59.98709 561.000
60.00703 544.000
60.02698 529.000
60.04693 526.000
60.06687 543.000
60.08682 548.000
60.10677 550.000
60.12671 521.000
60.14666 523.000
60.16661 526.000
60.18656 535.000
60.20650 526.000
60.22645 559.000
60.24640 514.000
60.26634 555.000
60.28629 574.000
60.30624 536.000
60.32618 522.000
60.34613 554.000
60.36608 583.000
60.38603 552.000
60.40597 571.000
60.42592 521.000
60.44587 545.000
60.46581 559.000
60.48576 547.000
60.50571 532.000
60.52565 524.000
60.54560 591.000
60.56555 583.000
60.58550 520.000
60.60544 556.000
60.62539 527.000
60.64534 560.000
60.66528 552.000
60.68523 487.000
60.70518 577.000
60.72512 555.000
60.74507 577.000
60.76502 523.000
60.78496 563.000
60.80491 579.000
60.82486 550.000
60.84481 572.000
60.86475 559.000
60.88470 562.000
60.90465 579.000
60.92459 629.000
60.94454 583.000
60.96449 559.000
60.98443 573.000
61.00438 558.000
61.02433 577.000
61.04428 645.000
61.06422 610.000
61.08417 614.000
61.10412 620.000
61.12406 618.000
61.14401 612.000
61.16396 627.000
61.18390 618.000
61.20385 699.000
61.22380 672.000
61.24374 700.000
61.26369 680.000
61.28364 740.000
61.30359 780.000
61.32353 829.000
61.34348 845.000
61.36343 909.000
61.38337 907.000
61.40332 999.000
61.42327 1116.000
61.44321 1196.000
61.46316 1203.000
61.48311 1189.000
61.50306 1269.000
61.52300 1244.000
61.54295 1158.000
61.56290 1116.000
61.58284 1160.000
61.60279 1050.000
61.62274 1055.000
61.64268 1088.000
61.66263 1034.000
61.68258 998.000
61.70252 988.000
61.72247 923.000
61.74242 883.000
61.76237 854.000
61.78231 828.000
61.80226 815.000
61.82221 797.000
61.84215 853.000
61.86210 840.000
61.88205 885.000
61.90199 827.000
61.92194 844.000
61.94189 751.000
61.96184 825.000
61.98178 830.000
62.00173 834.000
62.02168 788.000
62.04162 764.000
62.06157 826.000
62.08152 760.000
62.10146 747.000
62.12141 753.000
62.14136 762.000
62.16131 700.000
62.18125 706.000
62.20120 689.000
62.22115 682.000
62.24109 678.000
62.26104 675.000
62.28099 608.000
62.30093 620.000
62.32088 688.000
62.34083 652.000
62.36077 680.000
62.38072 694.000
62.40067 681.000
62.42062 643.000
62.44056 708.000
62.46051 688.000
62.48046 709.000
62.50040 686.000
62.52035 741.000
62.54030 740.000
62.56024 802.000
62.58019 778.000
62.60014 745.000
62.62009 761.000
62.64003 750.000
62.65998 808.000
62.67993 724.000
62.69987 802.000
62.71982 763.000
62.73977 781.000
62.75971 777.000
62.77966 808.000
62.79961 846.000
62.81955 843.000
62.83950 928.000
62.85945 822.000
62.87940 791.000
62.89934 722.000
62.91929 747.000
62.93924 728.000
62.95918 701.000
62.97913 735.000
62.99908 712.000
63.01902 724.000
63.03897 729.000
63.05892 639.000
63.07887 649.000
63.09881 591.000
63.11876 634.000
63.13871 625.000
63.15865 618.000
63.17860 604.000
63.19855 568.000
63.21849 573.000
63.23844 574.000
63.25839 592.000
63.27833 568.000
63.29828 591.000
63.31823 580.000
63.33818 566.000
63.35812 580.000
63.37807 563.000
63.39802 557.000
63.41796 552.000
63.43791 563.000
63.45786 535.000
63.47780 585.000
63.49775 537.000
63.51770 578.000
63.53765 577.000
63.55759 554.000
63.57754 587.000
63.59749 545.000
63.61743 539.000
63.63738 555.000
63.65733 588.000
63.67727 540.000
63.69722 552.000
63.71717 635.000
63.73712 609.000
63.75706 572.000
63.77701 585.000
63.79696 620.000
63.81690 566.000
63.83685 587.000
63.85680 581.000
63.87674 613.000
63.89669 600.000
63.91664 643.000
63.93658 627.000
63.95653 641.000
63.97648 589.000
63.99643 649.000
64.01637 627.000
64.03632 609.000
64.05627 663.000
64.07621 633.000
64.09616 666.000
64.11611 657.000
64.13605 651.000
64.15600 612.000
64.17595 677.000
64.19590 691.000
64.21584 679.000
64.23579 606.000
64.25574 656.000
64.27568 671.000
64.29563 648.000
64.31558 621.000
64.33552 626.000
64.35547 671.000
64.37542 631.000
64.39536 571.000
64.41531 590.000
64.43526 613.000
64.45521 589.000
64.47515 608.000
64.49510 598.000
64.51505 564.000
64.53499 562.000
64.55494 566.000
64.57489 581.000
64.59483 575.000
64.61478 571.000
64.63473 594.000
64.65468 567.000
64.67462 547.000
64.69457 553.000
64.71452 569.000
64.73446 575.000
64.75441 582.000
64.77436 566.000
64.79430 577.000
64.81425 602.000
64.83420 588.000
64.85414 585.000
64.87409 626.000
64.89404 563.000
64.91399 636.000
64.93393 628.000
64.95388 607.000
64.97383 626.000
64.99377 591.000
65.01372 577.000
65.03367 571.000
65.05361 577.000
65.07356 572.000
65.09351 640.000
65.11346 624.000
65.13340 639.000
65.15335 616.000
65.17330 599.000
65.19324 570.000
65.21319 618.000
65.23314 610.000
65.25308 635.000
65.27303 671.000
65.29298 666.000
65.31293 668.000
65.33287 668.000
65.35282 747.000
65.37277 723.000
65.39271 732.000
65.41266 787.000
65.43261 761.000
65.45255 807.000
65.47250 827.000
65.49245 799.000
65.51239 848.000
65.53234 878.000
65.55229 939.000
65.57224 899.000
65.59218 943.000
65.61213 814.000
65.63208 886.000
65.65202 980.000
65.67197 851.000
65.69192 865.000
65.71186 870.000
65.73181 853.000
65.75176 769.000
65.77171 811.000
65.79165 868.000
65.81160 791.000
65.83155 762.000
65.85149 821.000
65.87144 800.000
65.89139 791.000
65.91133 743.000
65.93128 754.000
65.95123 701.000
65.97117 688.000
65.99112 746.000
66.01107 737.000
66.03102 743.000
66.05096 748.000
66.07091 741.000
66.09086 762.000
66.11080 795.000
66.13075 826.000
66.15070 853.000
66.17064 834.000
66.19059 970.000
66.21054 963.000
66.23049 1022.000
66.25043 1078.000
66.27038 1084.000
66.29033 1059.000
66.31027 1093.000
66.33022 1075.000
66.35017 1040.000
66.37011 986.000
66.39006 963.000
66.41001 991.000
66.42995 1007.000
66.44990 933.000
66.46985 986.000
66.48980 933.000
66.50974 909.000
66.52969 816.000
66.54964 848.000
66.56958 823.000
66.58953 801.000
66.60948 768.000
66.62942 740.000
66.64937 783.000
66.66932 712.000
66.68927 681.000
66.70921 725.000
66.72916 670.000
66.74911 706.000
66.76905 670.000
66.78900 679.000
66.80895 665.000
66.82889 669.000
66.84884 639.000
66.86879 706.000
66.88874 634.000
66.90868 624.000
66.92863 629.000
66.94858 672.000
66.96852 628.000
66.98847 638.000
67.00842 669.000
67.02836 616.000
67.04831 614.000
67.06826 631.000
67.08820 637.000
67.10815 619.000
67.12810 635.000
67.14805 628.000
67.16799 600.000
67.18794 635.000
67.20789 623.000
67.22783 600.000
67.24778 607.000
67.26773 625.000
67.28767 625.000
67.30762 599.000
67.32757 636.000
67.34752 658.000
67.36746 592.000
67.38741 618.000
67.40736 651.000
67.42730 638.000
67.44725 633.000
67.46720 628.000
67.48714 664.000
67.50709 656.000
67.52704 696.000
67.54698 670.000
67.56693 672.000
67.58688 706.000
67.60683 748.000
67.62677 790.000
67.64672 784.000
67.66667 796.000
67.68661 766.000
67.70656 870.000
67.72651 929.000
67.74645 945.000
67.76640 944.000
67.78635 930.000
67.80630 956.000
67.82624 953.000
67.84619 988.000
67.86614 996.000
67.88608 1101.000
67.90603 1144.000
67.92598 1103.000
67.94592 1120.000
67.96587 1118.000
67.98582 1033.000
68.00576 1068.000
68.02571 999.000
68.04566 944.000
68.06561 971.000
68.08555 901.000
68.10550 906.000
68.12545 920.000
68.14539 894.000
68.16534 834.000
68.18529 780.000
68.20523 774.000
68.22518 755.000
68.24513 705.000
68.26508 722.000
68.28502 656.000
68.30497 673.000
68.32492 614.000
68.34486 628.000
68.36481 577.000
68.38476 563.000
68.40470 549.000
68.42465 563.000
68.44460 616.000
68.46455 561.000
68.48449 569.000
68.50444 580.000
68.52439 620.000
68.54433 547.000
68.56428 576.000
68.58423 543.000
68.60417 551.000
68.62412 566.000
68.64407 555.000
68.66401 539.000
68.68396 576.000
68.70391 569.000
68.72386 580.000
68.74380 555.000
68.76375 568.000
68.78370 609.000
68.80364 560.000
68.82359 525.000
68.84354 549.000
68.86348 524.000
68.88343 544.000
68.90338 551.000
68.92333 523.000
68.94327 554.000
68.96322 546.000
68.98317 537.000
69.00311 549.000
69.02306 536.000
69.04301 523.000
69.06295 556.000
69.08290 529.000
69.10285 512.000
69.12279 525.000
69.14274 544.000
69.16269 542.000
69.18264 545.000
69.20258 533.000
69.22253 514.000
69.24248 520.000
69.26242 553.000
69.28237 501.000
69.30232 518.000
69.32226 544.000
69.34221 531.000
69.36216 513.000
69.38211 524.000
69.40205 538.000
69.42200 528.000
69.44195 528.000
69.46189 570.000
69.48184 511.000
69.50179 543.000
69.52173 546.000
69.54168 503.000
69.56163 551.000
69.58157 557.000
69.60152 541.000
69.62147 506.000
69.64142 520.000
69.66136 518.000
69.68131 523.000
69.70126 543.000
69.72120 542.000
69.74115 527.000
69.76110 546.000
69.78104 541.000
69.80099 543.000
69.82094 572.000
69.84089 541.000
69.86083 522.000
69.88078 554.000
69.90073 528.000
69.92067 524.000
69.94062 501.000
69.96057 514.000
69.98051 543.000
70.00046 546.000
70.02041 533.000
70.04035 538.000
70.06030 540.000
70.08025 578.000
70.10020 523.000
70.12014 568.000
70.14009 541.000
70.16004 557.000
70.17998 573.000
70.19993 554.000
70.21988 514.000
70.23982 534.000
70.25977 540.000
70.27972 559.000
70.29967 503.000
70.31961 491.000
70.33956 521.000
70.35951 536.000
70.37945 556.000
70.39940 533.000
70.41935 523.000
70.43929 551.000
70.45924 532.000
70.47919 504.000
70.49914 533.000
70.51908 545.000
70.53903 510.000
70.55898 538.000
70.57892 547.000
70.59887 516.000
70.61882 539.000
70.63876 528.000
70.65871 543.000
70.67866 537.000
70.69860 516.000
70.71855 521.000
70.73850 511.000
70.75845 548.000
70.77839 543.000
70.79834 538.000
70.81829 551.000
70.83823 533.000
70.85818 542.000
70.87813 528.000
70.89807 529.000
70.91802 599.000
70.93797 546.000
70.95792 565.000
70.97786 515.000
70.99781 575.000
71.01776 560.000
71.03770 514.000
71.05765 493.000
71.07760 570.000
71.09754 524.000
71.11749 549.000
71.13744 527.000
71.15738 493.000
71.17733 530.000
71.19728 518.000
71.21723 539.000
71.23717 532.000
71.25712 551.000
71.27707 521.000
71.29701 538.000
71.31696 469.000
71.33691 553.000
71.35685 514.000
71.37680 543.000
71.39675 562.000
71.41670 557.000
71.43664 541.000
71.45659 540.000
71.47654 539.000
71.49648 569.000
71.51643 557.000
71.53638 497.000
71.55632 545.000
71.57627 546.000
71.59622 514.000
71.61616 494.000
71.63611 540.000
71.65606 519.000
71.67601 548.000
71.69595 485.000
71.71590 512.000
71.73585 505.000
71.75579 523.000
71.77574 512.000
71.79569 551.000
71.81563 587.000
71.83558 552.000
71.85553 522.000
71.87548 593.000
71.89542 535.000
71.91537 522.000
71.93532 507.000
71.95526 530.000
71.97521 556.000
71.99516 581.000
72.01510 571.000
72.03505 556.000
72.05500 534.000
72.07495 574.000
72.09489 565.000
72.11484 586.000
72.13479 592.000
72.15473 583.000
72.17468 599.000
72.19463 580.000
72.21457 648.000
72.23452 659.000
72.25447 678.000
72.27441 666.000
72.29436 768.000
72.31431 702.000
72.33426 762.000
72.35420 790.000
72.37415 738.000
72.39410 709.000
72.41404 703.000
72.43399 709.000
72.45394 718.000
72.47388 672.000
72.49383 646.000
72.51378 641.000
72.53373 655.000
72.55367 629.000
72.57362 649.000
72.59357 661.000
72.61351 616.000
72.63346 652.000
72.65341 596.000
72.67335 610.000
72.69330 615.000
72.71325 604.000
72.73319 562.000
72.75314 526.000
72.77309 560.000
72.79304 551.000
72.81298 533.000
72.83293 577.000
72.85288 556.000
72.87282 516.000
72.89277 590.000
72.91272 534.000
72.93266 535.000
72.95261 581.000
72.97256 566.000
72.99251 571.000
73.01245 500.000
73.03240 518.000
73.05235 567.000
73.07229 608.000
73.09224 560.000
73.11219 561.000
73.13213 554.000
73.15208 595.000
73.17203 569.000
73.19197 580.000
73.21192 549.000
73.23187 533.000
73.25182 550.000
73.27176 580.000
73.29171 554.000
73.31166 589.000
73.33160 583.000
73.35155 563.000
73.37150 603.000
73.39144 552.000
73.41139 601.000
73.43134 572.000
73.45129 578.000
73.47123 539.000
73.49118 591.000
73.51113 530.000
73.53107 572.000
73.55102 544.000
73.57097 560.000
73.59091 565.000
73.61086 552.000
73.63081 541.000
73.65076 555.000
73.67070 559.000
73.69065 591.000
73.71060 554.000
73.73054 551.000
73.75049 548.000
73.77044 563.000
73.79038 552.000
73.81033 555.000
73.83028 560.000
73.85022 505.000
73.87017 552.000
73.89012 555.000
73.91007 503.000
73.93001 548.000
73.94996 524.000
73.96991 560.000
73.98985 524.000
74.00980 528.000
74.02975 554.000
74.04969 548.000
74.06964 535.000
74.08959 542.000
74.10954 555.000
74.12948 549.000
74.14943 553.000
74.16938 561.000
74.18932 566.000
74.20927 545.000
74.22922 516.000
74.24916 534.000
74.26911 580.000
74.28906 608.000
74.30900 543.000
74.32895 611.000
74.34890 538.000
74.36885 593.000
74.38879 574.000
74.40874 601.000
74.42869 563.000
74.44863 555.000
74.46858 559.000
74.48853 593.000
74.50847 568.000
74.52842 587.000
74.54837 543.000
74.56832 601.000
74.58826 595.000
74.60821 614.000
74.62816 639.000
74.64810 612.000
74.66805 626.000
74.68800 625.000
74.70794 621.000
74.72789 614.000
74.74784 678.000
74.76778 682.000
74.78773 733.000
74.80768 741.000
74.82763 760.000
74.84757 770.000
74.86752 838.000
74.88747 797.000
74.90741 800.000
74.92736 775.000
74.94731 813.000
74.96725 741.000
74.98720 736.000
75.00715 724.000
75.02710 808.000
75.04704 794.000
75.06699 849.000
75.08694 808.000
75.10688 876.000
75.12683 857.000
75.14678 839.000
75.16672 825.000
75.18667 806.000
75.20662 760.000
75.22657 826.000
75.24651 756.000
75.26646 745.000
75.28641 697.000
75.30635 750.000
75.32630 711.000
75.34625 732.000
75.36619 684.000
75.38614 697.000
75.40609 667.000
75.42603 644.000
75.44598 697.000
75.46593 619.000
75.48588 608.000
75.50582 624.000
75.52577 641.000
75.54572 603.000
75.56566 577.000
75.58561 575.000
75.60556 564.000
75.62550 562.000
75.64545 620.000
75.66540 542.000
75.68535 551.000
75.70529 555.000
75.72524 562.000
75.74519 574.000
75.76513 538.000
75.78508 573.000
75.80503 540.000
75.82497 570.000
75.84492 591.000
75.86487 541.000
75.88481 545.000
75.90476 524.000
75.92471 536.000
75.94466 559.000
75.96460 533.000
75.98455 530.000
76.00450 533.000
76.02444 570.000
76.04439 532.000
76.06434 535.000
76.08428 521.000
76.10423 545.000
76.12418 543.000
76.14413 537.000
76.16407 523.000
76.18402 549.000
76.20397 543.000
76.22391 545.000
76.24386 521.000
76.26381 529.000
76.28375 498.000
76.30370 537.000
76.32365 567.000
76.34359 548.000
76.36354 554.000
76.38349 542.000
76.40344 504.000
76.42338 572.000
76.44333 523.000
76.46328 514.000
76.48322 523.000
76.50317 508.000
76.52312 552.000
76.54306 581.000
76.56301 500.000
76.58296 541.000
76.60291 544.000
76.62285 531.000
76.64280 550.000
76.66275 524.000
76.68269 565.000
76.70264 515.000
76.72259 530.000
76.74253 546.000
76.76248 554.000
76.78243 520.000
76.80238 511.000
76.82232 519.000
76.84227 565.000
76.86222 514.000
76.88216 555.000
76.90211 584.000
76.92206 530.000
76.94200 530.000
76.96195 493.000
76.98190 571.000
77.00184 512.000
77.02179 562.000
77.04174 518.000
77.06169 517.000
77.08163 527.000
77.10158 501.000
77.12153 596.000
77.14147 542.000
77.16142 509.000
77.18137 488.000
77.20131 535.000
77.22126 545.000
77.24121 529.000
77.26116 549.000
77.28110 531.000
77.30105 541.000
77.32100 529.000
77.34094 554.000
77.36089 534.000
77.38084 529.000
77.40078 513.000
77.42073 504.000
77.44068 527.000
77.46062 549.000
77.48057 582.000
77.50052 541.000
77.52047 523.000
77.54041 525.000
77.56036 513.000
77.58031 559.000
77.60025 531.000
77.62020 556.000
77.64015 516.000
77.66009 571.000
77.68004 536.000
77.69999 512.000
77.71994 560.000
77.73988 562.000
77.75983 517.000
77.77978 578.000
77.79972 554.000
77.81967 568.000
77.83962 537.000
77.85956 576.000
77.87951 562.000
77.89946 601.000
77.91940 556.000
77.93935 500.000
77.95930 563.000
77.97925 524.000
77.99919 548.000
78.01914 570.000
78.03909 579.000
78.05903 581.000
78.07898 535.000
78.09893 577.000
78.11887 560.000
78.13882 584.000
78.15877 592.000
78.17872 526.000
78.19866 592.000
78.21861 542.000
78.23856 566.000
78.25850 624.000
78.27845 569.000
78.29840 597.000
78.31834 582.000
78.33829 554.000
78.35824 540.000
78.37819 543.000
78.39813 608.000
78.41808 593.000
78.43803 535.000
78.45797 544.000
78.47792 563.000
78.49787 561.000
78.51781 550.000
78.53776 523.000
78.55771 568.000
78.57765 564.000
78.59760 571.000
78.61755 526.000
78.63750 527.000
78.65744 496.000
78.67739 561.000
78.69734 510.000
78.71728 570.000
78.73723 533.000
78.75718 522.000
78.77712 515.000
78.79707 536.000
78.81702 555.000
78.83697 513.000
78.85691 553.000
78.87686 562.000
78.89681 524.000
78.91675 576.000
78.93670 539.000
78.95665 520.000
78.97659 536.000
78.99654 562.000
79.01649 518.000
79.03643 606.000
79.05638 579.000
79.07633 593.000
79.09628 585.000
79.11622 583.000
79.13617 543.000
79.15612 575.000
79.17606 647.000
79.19601 614.000
79.21596 517.000
79.23590 587.000
79.25585 584.000
79.27580 548.000
79.29575 547.000
79.31569 567.000
79.33564 583.000
79.35559 578.000
79.37553 582.000
79.39548 546.000
79.41543 551.000
79.43537 585.000
79.45532 535.000
79.47527 587.000
79.49521 518.000
79.51516 543.000
79.53511 531.000
79.55506 544.000
79.57500 584.000
79.59495 514.000
79.61490 607.000
79.63484 546.000
79.65479 498.000
79.67474 525.000
79.69468 531.000
79.71463 514.000
79.73458 542.000
79.75453 501.000
79.77447 540.000
79.79442 547.000
79.81437 528.000
79.83431 516.000
79.85426 514.000
79.87421 547.000
79.89415 532.000
79.91410 533.000
79.93405 567.000
79.95399 561.000
79.97394 543.000
79.99389 553.000
80.01384 494.000
80.03378 558.000
80.05373 525.000
80.07368 544.000
80.09362 541.000
80.11357 544.000
80.13352 573.000
80.15346 562.000
80.17341 595.000
80.19336 577.000
80.21331 591.000
80.23325 601.000
80.25320 602.000
80.27315 587.000
80.29309 604.000
80.31304 587.000
80.33299 557.000
80.35293 598.000
80.37288 554.000
80.39283 554.000
80.41278 586.000
80.43272 613.000
80.45267 579.000
80.47262 576.000
80.49256 608.000
80.51251 584.000
80.53246 552.000
80.55240 566.000
80.57235 567.000
80.59230 576.000
80.61224 557.000
80.63219 533.000
80.65214 573.000
80.67209 523.000
80.69203 566.000
80.71198 549.000
80.73193 539.000
80.75187 540.000
80.77182 521.000
80.79177 559.000
80.81171 494.000
80.83166 595.000
80.85161 523.000
80.87156 552.000
80.89150 524.000
80.91145 524.000
80.93140 556.000
80.95134 545.000
80.97129 551.000
80.99124 507.000
81.01118 551.000
81.03113 538.000
81.05108 518.000
81.07102 548.000
81.09097 575.000
81.11092 472.000
81.13087 535.000
81.15081 485.000
81.17076 530.000
81.19071 503.000
81.21065 539.000
81.23060 546.000
81.25055 502.000
81.27049 523.000
81.29044 509.000
81.31039 525.000
81.33034 515.000
81.35028 529.000
81.37023 542.000
81.39018 545.000
81.41012 552.000
81.43007 512.000
81.45002 508.000
81.46996 515.000
81.48991 526.000
81.50986 532.000
81.52980 520.000
81.54975 496.000
81.56970 538.000
81.58965 516.000
81.60959 544.000
81.62954 531.000
81.64949 538.000
81.66943 543.000
81.68938 527.000
81.70933 481.000
81.72927 483.000
81.74922 478.000
81.76917 507.000
81.78912 530.000
81.80906 507.000
81.82901 529.000
81.84896 530.000
81.86890 553.000
81.88885 531.000
81.90880 495.000
81.92874 530.000
81.94869 536.000
81.96864 552.000
81.98859 542.000
82.00853 514.000
82.02848 570.000
82.04843 529.000
82.06837 525.000
82.08832 515.000
82.10827 552.000
82.12821 552.000
82.14816 537.000
82.16811 548.000
82.18805 568.000
82.20800 581.000
82.22795 593.000
82.24790 555.000
82.26784 557.000
82.28779 582.000
82.30774 632.000
82.32768 567.000
82.34763 658.000
82.36758 585.000
82.38752 643.000
82.40747 684.000
82.42742 651.000
82.44737 681.000
82.46731 708.000
82.48726 689.000
82.50721 738.000
82.52715 663.000
82.54710 645.000
82.56705 676.000
82.58699 681.000
82.60694 701.000
82.62689 649.000
82.64683 699.000
82.66678 634.000
82.68673 628.000
82.70668 642.000
82.72662 650.000
82.74657 692.000
82.76652 718.000
82.78646 658.000
82.80641 709.000
82.82636 663.000
82.84630 721.000
82.86625 625.000
82.88620 640.000
82.90615 608.000
82.92609 659.000
82.94604 620.000
82.96599 618.000
82.98593 631.000
83.00588 597.000
83.02583 587.000
83.04577 654.000
83.06572 595.000
83.08567 622.000
83.10561 601.000
83.12556 609.000
83.14551 592.000
83.16546 569.000
83.18540 623.000
83.20535 622.000
83.22530 604.000
83.24524 573.000
83.26519 570.000
83.28514 552.000
83.30508 577.000
83.32503 594.000
83.34498 583.000
83.36493 573.000
83.38487 572.000
83.40482 624.000
83.42477 591.000
83.44471 610.000
83.46466 577.000
83.48461 602.000
83.50455 612.000
83.52450 610.000
83.54445 559.000
83.56440 598.000
83.58434 625.000
83.60429 595.000
83.62424 613.000
83.64418 626.000
83.66413 640.000
83.68408 646.000
83.70402 618.000
83.72397 626.000
83.74392 627.000
83.76386 653.000
83.78381 647.000
83.80376 625.000
83.82371 564.000
83.84365 612.000
83.86360 630.000
83.88355 586.000
83.90349 603.000
83.92344 578.000
83.94339 614.000
83.96333 602.000
83.98328 611.000
84.00323 622.000
84.02318 569.000
84.04312 572.000
84.06307 554.000
84.08302 620.000
84.10296 574.000
84.12291 572.000
84.14286 547.000
84.16280 559.000
84.18275 605.000
84.20270 548.000
84.22264 559.000
84.24259 527.000
84.26254 552.000
84.28249 570.000
84.30243 526.000
84.32238 553.000
84.34233 550.000
84.36227 550.000
84.38222 581.000
84.40217 558.000
84.42211 555.000
84.44206 543.000
84.46201 565.000
84.48196 591.000
84.50190 524.000
84.52185 545.000
84.54180 609.000
84.56174 543.000
84.58169 533.000
84.60164 584.000
84.62158 518.000
84.64153 587.000
84.66148 537.000
84.68142 521.000
84.70137 522.000
84.72132 548.000
84.74127 513.000
84.76121 528.000
84.78116 529.000
84.80111 506.000
84.82105 558.000
84.84100 543.000
84.86095 510.000
84.88089 530.000
84.90084 564.000
84.92079 561.000
84.94074 533.000
84.96068 500.000
84.98063 534.000
85.00058 567.000
85.02052 557.000
85.04047 524.000
85.06042 582.000
85.08036 517.000
85.10031 514.000
85.12026 563.000
85.14021 527.000
85.16015 527.000
85.18010 551.000
85.20005 536.000
85.21999 522.000
85.23994 548.000
85.25989 508.000
85.27983 509.000
85.29978 520.000
85.31973 530.000
85.33967 524.000
85.35962 522.000
85.37957 490.000
85.39952 570.000
85.41946 537.000
85.43941 513.000
85.45936 537.000
85.47930 546.000
85.49925 544.000
85.51920 529.000
85.53914 530.000
85.55909 539.000
85.57904 510.000
85.59899 500.000
85.61893 508.000
85.63888 497.000
85.65883 517.000
85.67877 541.000
85.69872 545.000
85.71867 512.000
85.73861 501.000
85.75856 515.000
85.77851 509.000
85.79845 522.000
85.81840 501.000
85.83835 538.000
85.85830 485.000
85.87824 535.000
85.89819 543.000
85.91814 513.000
85.93808 550.000
85.95803 502.000
85.97798 557.000
85.99792 528.000
86.01787 540.000
86.03782 517.000
86.05777 513.000
86.07771 482.000
86.09766 523.000
86.11761 499.000
86.13755 505.000
86.15750 497.000
86.17745 531.000
86.19739 551.000
86.21734 548.000
86.23729 529.000
86.25723 541.000
86.27718 481.000
86.29713 524.000
86.31708 579.000
86.33702 548.000
86.35697 486.000
86.37692 491.000
86.39686 504.000
86.41681 492.000
86.43676 513.000
86.45670 520.000
86.47665 518.000
86.49660 585.000
86.51655 542.000
86.53649 575.000
86.55644 546.000
86.57639 569.000
86.59633 608.000
86.61628 565.000
86.63623 540.000
86.65617 552.000
86.67612 574.000
86.69607 553.000
86.71602 583.000
86.73596 560.000
86.75591 569.000
86.77586 587.000
86.79580 532.000
86.81575 590.000
86.83570 538.000
86.85564 574.000
86.87559 569.000
86.89554 596.000
86.91548 530.000
86.93543 548.000
86.95538 571.000
86.97533 550.000
86.99527 539.000
87.01522 581.000
87.03517 542.000
87.05511 573.000
87.07506 545.000
87.09501 571.000
87.11495 568.000
87.13490 572.000
87.15485 554.000
87.17480 558.000
87.19474 604.000
87.21469 576.000
87.23464 604.000
87.25458 585.000
87.27453 533.000
87.29448 579.000
87.31442 534.000
87.33437 535.000
87.35432 556.000
87.37426 543.000
87.39421 558.000
87.41416 556.000
87.43411 536.000
87.45405 558.000
87.47400 540.000
87.49395 569.000
87.51389 557.000
87.53384 542.000
87.55379 535.000
87.57373 536.000
87.59368 555.000
87.61363 556.000
87.63358 566.000
87.65352 487.000
87.67347 548.000
87.69342 547.000
87.71336 554.000
87.73331 555.000
87.75326 559.000
87.77320 548.000
87.79315 543.000
87.81310 567.000
87.83304 571.000
87.85299 530.000
87.87294 495.000
87.89289 518.000
87.91283 500.000
87.93278 544.000
87.95273 540.000
87.97267 522.000
87.99262 506.000
88.01257 553.000
88.03251 509.000
88.05246 491.000
88.07241 543.000
88.09236 549.000
88.11230 545.000
88.13225 547.000
88.15220 563.000
88.17214 514.000
88.19209 513.000
88.21204 525.000
88.23198 547.000
88.25193 571.000
88.27188 527.000
88.29183 570.000
88.31177 510.000
88.33172 552.000
88.35167 522.000
88.37161 545.000
88.39156 516.000
88.41151 519.000
88.43145 564.000
88.45140 544.000
88.47135 505.000
88.49129 540.000
88.51124 548.000
88.53119 543.000
88.55114 541.000
88.57108 563.000
88.59103 490.000
88.61098 555.000
88.63092 536.000
88.65087 498.000
88.67082 536.000
88.69076 540.000
88.71071 498.000
88.73066 510.000
88.75061 513.000
88.77055 555.000
88.79050 573.000
88.81045 513.000
88.83039 528.000
88.85034 535.000
88.87029 549.000
88.89023 509.000
88.91018 535.000
88.93013 539.000
88.95007 499.000
88.97002 560.000
88.98997 543.000
89.00992 558.000
89.02986 564.000
89.04981 578.000
89.06976 592.000
89.08970 561.000
89.10965 579.000
89.12960 528.000
89.14954 595.000
89.16949 556.000
89.18944 569.000
89.20939 570.000
89.22933 538.000
89.24928 532.000
89.26923 585.000
89.28917 592.000
89.30912 607.000
89.32907 608.000
89.34901 626.000
89.36896 615.000
89.38891 611.000
89.40885 615.000
89.42880 586.000
89.44875 616.000
89.46870 600.000
89.48864 631.000
89.50859 619.000
89.52854 595.000
89.54848 575.000
89.56843 641.000
89.58838 614.000
89.60832 656.000
89.62827 582.000
89.64822 623.000
89.66817 581.000
89.68811 619.000
89.70806 604.000
89.72801 609.000
89.74795 580.000
89.76790 584.000
89.78785 575.000
89.80779 616.000
89.82774 608.000
89.84769 578.000
89.86764 538.000
89.88758 539.000
89.90753 564.000
89.92748 576.000
89.94742 588.000
89.96737 601.000
89.98732 560.000
90.00726 553.000
