10.00000 84.000
10.01995 100.000
10.03989 92.000
10.05984 105.000
10.07979 93.000
10.09973 88.000
10.11968 85.000
10.13963 88.000
10.15958 120.000
10.17952 100.000
10.19947 83.000
10.21942 85.000
10.23936 116.000
10.25931 91.000
10.27926 81.000
10.29920 104.000
10.31915 81.000
10.33910 114.000
10.35905 99.000
10.37899 95.000
10.39894 95.000
10.41889 91.000
10.43883 86.000
10.45878 106.000
10.47873 97.000
10.49867 95.000
10.51862 107.000
10.53857 90.000
10.55851 97.000
10.57846 94.000
10.59841 90.000
10.61836 100.000
10.63830 83.000
10.65825 86.000
10.67820 89.000
10.69814 95.000
10.71809 97.000
10.73804 91.000
10.75798 108.000
10.77793 97.000
10.79788 109.000
10.81783 109.000
10.83777 102.000
10.85772 102.000
10.87767 97.000
10.89761 105.000
10.91756 78.000
10.93751 92.000
10.95745 89.000
10.97740 109.000
10.99735 86.000
11.01730 117.000
11.03724 84.000
11.05719 99.000
11.07714 98.000
11.09708 108.000
11.11703 109.000
11.13698 118.000
11.15692 84.000
11.17687 107.000
11.19682 74.000
11.21676 84.000
11.23671 91.000
11.25666 108.000
11.27661 82.000
11.29655 105.000
11.31650 109.000
11.33645 96.000
11.35639 116.000
11.37634 95.000
11.39629 107.000
11.41623 75.000
11.43618 85.000
11.45613 104.000
11.47608 90.000
11.49602 96.000
11.51597 87.000
11.53592 103.000
11.55586 108.000
11.57581 94.000
11.59576 104.000
11.61570 98.000
11.63565 96.000
11.65560 87.000
11.67554 100.000
11.69549 88.000
11.71544 106.000
11.73539 106.000
11.75533 92.000
11.77528 99.000
11.79523 97.000
11.81517 93.000
11.83512 104.000
11.85507 92.000
11.87501 87.000
11.89496 106.000
11.91491 101.000
11.93486 104.000
11.95480 100.000
11.97475 98.000
11.99470 87.000
12.01464 87.000
12.03459 91.000
12.05454 101.000
12.07448 96.000
12.09443 85.000
12.11438 93.000
12.13432 97.000
12.15427 118.000
12.17422 77.000
12.19417 100.000
12.21411 87.000
12.23406 81.000
12.25401 91.000
12.27395 87.000
12.29390 98.000
12.31385 93.000
12.33379 109.000
12.35374 114.000
12.37369 96.000
12.39364 111.000
12.41358 89.000
12.43353 86.000
12.45348 109.000
12.47342 83.000
12.49337 87.000
12.51332 107.000
12.53326 123.000
12.55321 95.000
12.57316 82.000
12.59311 96.000
12.61305 121.000
12.63300 88.000
12.65295 101.000
12.67289 79.000
12.69284 74.000
12.71279 99.000
12.73273 87.000
12.75268 77.000
12.77263 96.000
12.79257 97.000
12.81252 97.000
12.83247 88.000
12.85242 81.000
12.87236 88.000
12.89231 121.000
12.91226 99.000
12.93220 108.000
12.95215 88.000
12.97210 116.000
12.99204 89.000
13.01199 105.000
13.03194 100.000
13.05189 86.000
13.07183 96.000
13.09178 82.000
13.11173 86.000
13.13167 96.000
13.15162 103.000
13.17157 86.000
13.19151 88.000
13.21146 78.000
13.23141 79.000
13.25135 75.000
13.27130 80.000
13.29125 92.000
13.31120 94.000
13.33114 95.000
13.35109 80.000
13.37104 96.000
13.39098 84.000
13.41093 88.000
13.43088 92.000
13.45082 85.000
13.47077 84.000
13.49072 80.000
13.51067 82.000
13.53061 92.000
13.55056 98.000
13.57051 94.000
13.59045 99.000
13.61040 98.000
13.63035 86.000
13.65029 91.000
13.67024 74.000
13.69019 84.000
13.71013 106.000
13.73008 82.000
13.75003 106.000
13.76998 100.000
13.78992 85.000
13.80987 89.000
13.82982 96.000
13.84976 93.000
13.86971 97.000
13.88966 126.000
13.90960 108.000
13.92955 85.000
13.94950 105.000
13.96945 93.000
13.98939 80.000
14.00934 97.000
14.02929 91.000
14.04923 92.000
14.06918 80.000
14.08913 98.000
14.10907 95.000
14.12902 87.000
14.14897 94.000
14.16892 90.000
14.18886 93.000
14.20881 87.000
14.22876 91.000
14.24870 79.000
14.26865 96.000
14.28860 91.000
14.30854 81.000
14.32849 83.000
14.34844 78.000
14.36838 86.000
14.38833 81.000
14.40828 87.000
14.42823 105.000
14.44817 92.000
14.46812 73.000
14.48807 87.000
14.50801 74.000
14.52796 95.000
14.54791 97.000
14.56785 83.000
14.58780 92.000
14.60775 99.000
14.62770 97.000
14.64764 89.000
14.66759 90.000
14.68754 91.000
14.70748 89.000
14.72743 83.000
14.74738 95.000
14.76732 75.000
14.78727 90.000
14.80722 90.000
14.82716 84.000
14.84711 85.000
14.86706 89.000
14.88701 90.000
14.90695 114.000
14.92690 90.000
14.94685 88.000
14.96679 102.000
14.98674 94.000
15.00669 84.000
15.02663 85.000
15.04658 83.000
15.06653 88.000
15.08648 109.000
15.10642 84.000
15.12637 95.000
15.14632 75.000
15.16626 79.000
15.18621 87.000
15.20616 94.000
15.22610 99.000
15.24605 103.000
15.26600 80.000
15.28594 92.000
15.30589 89.000
15.32584 90.000
15.34579 89.000
15.36573 81.000
15.38568 94.000
15.40563 87.000
15.42557 87.000
15.44552 80.000
15.46547 105.000
15.48541 105.000
15.50536 103.000
15.52531 97.000
15.54526 116.000
15.56520 114.000
15.58515 97.000
15.60510 93.000
15.62504 107.000
15.64499 121.000
15.66494 122.000
15.68488 113.000
15.70483 131.000
15.72478 155.000
15.74472 144.000
15.76467 167.000
15.78462 205.000
15.80457 187.000
15.82451 158.000
15.84446 153.000
15.86441 150.000
15.88435 117.000
15.90430 106.000
15.92425 112.000
15.94419 140.000
15.96414 166.000
15.98409 177.000
16.00404 209.000
16.02398 209.000
16.04393 231.000
16.06388 275.000
16.08382 294.000
16.10377 348.000
16.12372 378.000
16.14366 441.000
16.16361 548.000
16.18356 630.000
16.20351 731.000
16.22345 889.000
16.24340 930.000
16.26335 972.000
16.28329 1068.000
16.30324 1100.000
16.32319 1026.000
16.34313 932.000
16.36308 894.000
16.38303 790.000
16.40297 669.000
16.42292 574.000
16.44287 439.000
16.46282 399.000
16.48276 292.000
16.50271 245.000
16.52266 226.000
16.54260 152.000
16.56255 164.000
16.58250 142.000
16.60244 138.000
16.62239 136.000
16.64234 146.000
16.66229 128.000
16.68223 114.000
16.70218 124.000
16.72213 119.000
16.74207 117.000
16.76202 119.000
16.78197 104.000
16.80191 112.000
16.82186 108.000
16.84181 114.000
16.86175 93.000
16.88170 89.000
16.90165 99.000
16.92160 97.000
16.94154 127.000
16.96149 100.000
16.98144 91.000
17.00138 113.000
17.02133 91.000
17.04128 110.000
17.06122 81.000
17.08117 95.000
17.10112 85.000
17.12107 83.000
17.14101 85.000
17.16096 98.000
17.18091 88.000
17.20085 93.000
17.22080 103.000
17.24075 93.000
17.26069 101.000
17.28064 107.000
17.30059 103.000
17.32053 97.000
17.34048 81.000
17.36043 82.000
17.38038 87.000
17.40032 100.000
17.42027 106.000
17.44022 104.000
17.46016 104.000
17.48011 95.000
17.50006 94.000
17.52000 92.000
17.53995 88.000
17.55990 97.000
17.57985 83.000
17.59979 84.000
17.61974 128.000
17.63969 99.000
17.65963 106.000
17.67958 85.000
17.69953 99.000
17.71947 102.000
17.73942 86.000
17.75937 71.000
17.77932 92.000
17.79926 75.000
17.81921 89.000
17.83916 82.000
17.85910 98.000
17.87905 84.000
17.89900 87.000
17.91894 95.000
17.93889 110.000
17.95884 107.000
17.97878 85.000
17.99873 99.000
18.01868 83.000
18.03863 103.000
18.05857 102.000
18.07852 94.000
18.09847 68.000
18.11841 116.000
18.13836 107.000
18.15831 140.000
18.17825 151.000
18.19820 165.000
18.21815 231.000
18.23810 267.000
18.25804 269.000
18.27799 358.000
18.29794 337.000
18.31788 343.000
18.33783 341.000
18.35778 271.000
18.37772 213.000
18.39767 155.000
18.41762 135.000
18.43756 90.000
18.45751 96.000
18.47746 88.000
18.49741 92.000
18.51735 99.000
18.53730 95.000
18.55725 90.000
18.57719 98.000
18.59714 87.000
18.61709 90.000
18.63703 81.000
18.65698 96.000
18.67693 92.000
18.69688 91.000
18.71682 91.000
18.73677 82.000
18.75672 84.000
18.77666 91.000
18.79661 92.000
18.81656 100.000
18.83650 88.000
18.85645 102.000
18.87640 90.000
18.89634 82.000
18.91629 81.000
18.93624 103.000
18.95619 92.000
18.97613 90.000
18.99608 71.000
19.01603 84.000
19.03597 88.000
19.05592 93.000
19.07587 88.000
19.09581 96.000
19.11576 93.000
19.13571 94.000
19.15566 108.000
19.17560 104.000
19.19555 95.000
19.21550 92.000
19.23544 88.000
19.25539 96.000
19.27534 88.000
19.29528 102.000
19.31523 97.000
19.33518 88.000
19.35513 85.000
19.37507 89.000
19.39502 87.000
19.41497 116.000
19.43491 87.000
19.45486 90.000
19.47481 80.000
19.49475 88.000
19.51470 71.000
19.53465 92.000
19.55459 92.000
19.57454 71.000
19.59449 85.000
19.61444 92.000
19.63438 101.000
19.65433 79.000
19.67428 81.000
19.69422 86.000
19.71417 88.000
19.73412 75.000
19.75406 80.000
19.77401 75.000
19.79396 95.000
19.81391 100.000
19.83385 84.000
19.85380 112.000
19.87375 82.000
19.89369 114.000
19.91364 87.000
19.93359 87.000
19.95353 78.000
19.97348 90.000
19.99343 118.000
20.01337 102.000
20.03332 114.000
20.05327 112.000
20.07322 126.000
20.09316 120.000
20.11311 103.000
20.13306 117.000
20.15300 128.000
20.17295 111.000
20.19290 123.000
20.21284 108.000
20.23279 114.000
20.25274 91.000
20.27269 108.000
20.29263 107.000
20.31258 107.000
20.33253 130.000
20.35247 136.000
20.37242 134.000
20.39237 168.000
20.41231 187.000
20.43226 192.000
20.45221 228.000
20.47215 267.000
20.49210 253.000
20.51205 309.000
20.53200 260.000
20.55194 270.000
20.57189 247.000
20.59184 267.000
20.61178 267.000
20.63173 297.000
20.65168 283.000
20.67162 329.000
20.69157 303.000
20.71152 288.000
20.73147 292.000
20.75141 272.000
20.77136 250.000
20.79131 272.000
20.81125 252.000
20.83120 228.000
20.85115 184.000
20.87109 172.000
20.89104 179.000
20.91099 161.000
20.93094 147.000
20.95088 138.000
20.97083 115.000
20.99078 117.000
21.01072 99.000
21.03067 97.000
21.05062 109.000
21.07056 104.000
21.09051 105.000
21.11046 105.000
21.13040 83.000
21.15035 85.000
21.17030 107.000
21.19025 101.000
21.21019 78.000
21.23014 82.000
21.25009 93.000
21.27003 99.000
21.28998 100.000
21.30993 93.000
21.32987 90.000
21.34982 91.000
21.36977 95.000
21.38972 80.000
21.40966 77.000
21.42961 104.000
21.44956 91.000
21.46950 95.000
21.48945 94.000
21.50940 95.000
21.52934 103.000
21.54929 105.000
21.56924 91.000
21.58918 104.000
21.60913 112.000
21.62908 89.000
21.64903 79.000
21.66897 117.000
21.68892 110.000
21.70887 94.000
21.72881 92.000
21.74876 97.000
21.76871 88.000
21.78865 110.000
21.80860 93.000
21.82855 86.000
21.84850 99.000
21.86844 98.000
21.88839 104.000
21.90834 79.000
21.92828 90.000
21.94823 94.000
21.96818 94.000
21.98812 95.000
22.00807 98.000
22.02802 100.000
22.04796 93.000
22.06791 96.000
22.08786 93.000
22.10781 91.000
22.12775 88.000
22.14770 91.000
22.16765 88.000
22.18759 86.000
22.20754 83.000
22.22749 89.000
22.24743 86.000
22.26738 91.000
22.28733 107.000
22.30728 98.000
22.32722 106.000
22.34717 93.000
22.36712 85.000
22.38706 81.000
22.40701 90.000
22.42696 98.000
22.44690 105.000
22.46685 95.000
22.48680 107.000
22.50675 104.000
22.52669 89.000
22.54664 104.000
22.56659 93.000
22.58653 91.000
22.60648 103.000
22.62643 91.000
22.64637 96.000
22.66632 95.000
22.68627 82.000
22.70621 108.000
22.72616 106.000
22.74611 92.000
22.76606 91.000
22.78600 92.000
22.80595 89.000
22.82590 95.000
22.84584 86.000
22.86579 111.000
22.88574 96.000
22.90568 104.000
22.92563 106.000
22.94558 103.000
22.96553 90.000
22.98547 105.000
23.00542 91.000
23.02537 94.000
23.04531 117.000
23.06526 98.000
23.08521 102.000
23.10515 83.000
23.12510 85.000
23.14505 100.000
23.16499 91.000
23.18494 86.000
23.20489 105.000
23.22484 99.000
23.24478 92.000
23.26473 92.000
23.28468 102.000
23.30462 94.000
23.32457 100.000
23.34452 94.000
23.36446 81.000
23.38441 90.000
23.40436 95.000
23.42431 82.000
23.44425 108.000
23.46420 84.000
23.48415 107.000
23.50409 87.000
23.52404 110.000
23.54399 96.000
23.56393 105.000
23.58388 104.000
23.60383 108.000
23.62377 93.000
23.64372 96.000
23.66367 89.000
23.68362 113.000
23.70356 99.000
23.72351 96.000
23.74346 94.000
23.76340 114.000
23.78335 108.000
23.80330 122.000
23.82324 108.000
23.84319 96.000
23.86314 97.000
23.88309 117.000
23.90303 104.000
23.92298 113.000
23.94293 94.000
23.96287 129.000
23.98282 82.000
24.00277 114.000
24.02271 116.000
24.04266 110.000
24.06261 97.000
24.08256 114.000
24.10250 96.000
24.12245 98.000
24.14240 94.000
24.16234 93.000
24.18229 76.000
24.20224 107.000
24.22218 95.000
24.24213 113.000
24.26208 112.000
24.28202 97.000
24.30197 104.000
24.32192 109.000
24.34187 87.000
24.36181 104.000
24.38176 100.000
24.40171 108.000
24.42165 95.000
24.44160 113.000
24.46155 110.000
24.48149 103.000
24.50144 104.000
24.52139 109.000
24.54134 102.000
24.56128 99.000
24.58123 93.000
24.60118 101.000
24.62112 102.000
24.64107 125.000
24.66102 99.000
24.68096 112.000
24.70091 103.000
24.72086 88.000
24.74080 100.000
24.76075 112.000
24.78070 105.000
24.80065 108.000
24.82059 124.000
24.84054 99.000
24.86049 90.000
24.88043 92.000
24.90038 104.000
24.92033 97.000
24.94027 107.000
24.96022 107.000
24.98017 98.000
25.00012 107.000
25.02006 111.000
25.04001 111.000
25.05996 107.000
25.07990 118.000
25.09985 111.000
25.11980 107.000
25.13974 105.000
25.15969 108.000
25.17964 96.000
25.19958 98.000
25.21953 119.000
25.23948 105.000
25.25943 130.000
25.27937 98.000
25.29932 109.000
25.31927 132.000
25.33921 111.000
25.35916 105.000
25.37911 92.000
25.39905 119.000
25.41900 122.000
25.43895 112.000
25.45890 110.000
25.47884 114.000
25.49879 105.000
25.51874 122.000
25.53868 101.000
25.55863 100.000
25.57858 98.000
25.59852 111.000
25.61847 114.000
25.63842 120.000
25.65837 123.000
25.67831 112.000
25.69826 116.000
25.71821 100.000
25.73815 100.000
25.75810 123.000
25.77805 97.000
25.79799 132.000
25.81794 125.000
25.83789 115.000
25.85783 129.000
25.87778 138.000
25.89773 110.000
25.91768 128.000
25.93762 126.000
25.95757 130.000
25.97752 109.000
25.99746 130.000
26.01741 118.000
26.03736 133.000
26.05730 124.000
26.07725 119.000
26.09720 125.000
26.11715 125.000
26.13709 114.000
26.15704 128.000
26.17699 110.000
26.19693 97.000
26.21688 116.000
26.23683 107.000
26.25677 92.000
26.27672 121.000
26.29667 141.000
26.31661 127.000
26.33656 123.000
26.35651 109.000
26.37646 117.000
26.39640 104.000
26.41635 140.000
26.43630 122.000
26.45624 117.000
26.47619 126.000
26.49614 120.000
26.51608 118.000
26.53603 122.000
26.55598 123.000
26.57593 112.000
26.59587 127.000
26.61582 126.000
26.63577 137.000
26.65571 135.000
26.67566 133.000
26.69561 110.000
26.71555 140.000
26.73550 130.000
26.75545 124.000
26.77539 117.000
26.79534 130.000
26.81529 113.000
26.83524 115.000
26.85518 114.000
26.87513 128.000
26.89508 119.000
26.91502 134.000
26.93497 120.000
26.95492 143.000
26.97486 128.000
26.99481 122.000
27.01476 109.000
27.03471 128.000
27.05465 133.000
27.07460 113.000
27.09455 126.000
27.11449 124.000
27.13444 111.000
27.15439 113.000
27.17433 133.000
27.19428 133.000
27.21423 136.000
27.23417 117.000
27.25412 148.000
27.27407 132.000
27.29402 110.000
27.31396 120.000
27.33391 138.000
27.35386 147.000
27.37380 100.000
27.39375 127.000
27.41370 130.000
27.43364 131.000
27.45359 138.000
27.47354 140.000
27.49349 127.000
27.51343 125.000
27.53338 149.000
27.55333 135.000
27.57327 135.000
27.59322 147.000
27.61317 126.000
27.63311 118.000
27.65306 122.000
27.67301 130.000
27.69296 121.000
27.71290 143.000
27.73285 130.000
27.75280 128.000
27.77274 120.000
27.79269 122.000
27.81264 138.000
27.83258 122.000
27.85253 134.000
27.87248 155.000
27.89242 113.000
27.91237 121.000
27.93232 131.000
27.95227 144.000
27.97221 123.000
27.99216 137.000
28.01211 151.000
28.03205 130.000
28.05200 135.000
28.07195 145.000
28.09189 154.000
28.11184 151.000
28.13179 141.000
28.15174 136.000
28.17168 138.000
28.19163 123.000
28.21158 146.000
28.23152 126.000
28.25147 160.000
28.27142 141.000
28.29136 139.000
28.31131 130.000
28.33126 129.000
28.35120 155.000
28.37115 142.000
28.39110 135.000
28.41105 165.000
28.43099 139.000
28.45094 144.000
28.47089 151.000
28.49083 129.000
28.51078 161.000
28.53073 130.000
28.55067 157.000
28.57062 140.000
28.59057 146.000
28.61052 135.000
28.63046 139.000
28.65041 134.000
28.67036 147.000
28.69030 131.000
28.71025 157.000
28.73020 126.000
28.75014 162.000
28.77009 147.000
28.79004 139.000
28.80998 128.000
28.82993 146.000
28.84988 152.000
28.86983 140.000
28.88977 137.000
28.90972 152.000
28.92967 146.000
28.94961 157.000
28.96956 142.000
28.98951 150.000
29.00945 144.000
29.02940 167.000
29.04935 163.000
29.06930 124.000
29.08924 147.000
29.10919 120.000
29.12914 165.000
29.14908 163.000
29.16903 153.000
29.18898 155.000
29.20892 152.000
29.22887 146.000
29.24882 135.000
29.26877 138.000
29.28871 154.000
29.30866 164.000
29.32861 144.000
29.34855 156.000
29.36850 159.000
29.38845 145.000
29.40839 165.000
29.42834 169.000
29.44829 185.000
29.46823 174.000
29.48818 149.000
29.50813 186.000
29.52808 178.000
29.54802 161.000
29.56797 178.000
29.58792 169.000
29.60786 172.000
29.62781 157.000
29.64776 165.000
29.66770 172.000
29.68765 175.000
29.70760 173.000
29.72755 148.000
29.74749 139.000
29.76744 158.000
29.78739 160.000
29.80733 206.000
29.82728 175.000
29.84723 168.000
29.86717 192.000
29.88712 186.000
29.90707 198.000
29.92701 211.000
29.94696 224.000
29.96691 265.000
29.98686 287.000
30.00680 330.000
30.02675 430.000
30.04670 471.000
30.06664 467.000
30.08659 557.000
30.10654 554.000
30.12648 587.000
30.14643 642.000
30.16638 626.000
30.18633 622.000
30.20627 525.000
30.22622 524.000
30.24617 408.000
30.26611 361.000
30.28606 287.000
30.30601 275.000
30.32595 212.000
30.34590 218.000
30.36585 177.000
30.38579 162.000
30.40574 160.000
30.42569 166.000
30.44564 193.000
30.46558 185.000
30.48553 162.000
30.50548 149.000
30.52542 152.000
30.54537 158.000
30.56532 173.000
30.58526 146.000
30.60521 159.000
30.62516 147.000
30.64511 154.000
30.66505 168.000
30.68500 149.000
30.70495 136.000
30.72489 174.000
30.74484 155.000
30.76479 131.000
30.78473 166.000
30.80468 150.000
30.82463 152.000
30.84458 164.000
30.86452 151.000
30.88447 177.000
30.90442 138.000
30.92436 169.000
30.94431 162.000
30.96426 153.000
30.98420 157.000
31.00415 151.000
31.02410 154.000
31.04404 163.000
31.06399 142.000
31.08394 160.000
31.10389 177.000
31.12383 151.000
31.14378 153.000
31.16373 159.000
31.18367 150.000
31.20362 153.000
31.22357 153.000
31.24351 144.000
31.26346 153.000
31.28341 147.000
31.30336 141.000
31.32330 152.000
31.34325 162.000
31.36320 149.000
31.38314 167.000
31.40309 164.000
31.42304 148.000
31.44298 148.000
31.46293 156.000
31.48288 148.000
31.50282 169.000
31.52277 129.000
31.54272 154.000
31.56267 160.000
31.58261 173.000
31.60256 168.000
31.62251 166.000
31.64245 160.000
31.66240 160.000
31.68235 148.000
31.70229 148.000
31.72224 163.000
31.74219 148.000
31.76214 140.000
31.78208 138.000
31.80203 137.000
31.82198 148.000
31.84192 158.000
31.86187 151.000
31.88182 175.000
31.90176 169.000
31.92171 136.000
31.94166 154.000
31.96160 140.000
31.98155 170.000
32.00150 185.000
32.02145 173.000
32.04139 184.000
32.06134 197.000
32.08129 155.000
32.10123 136.000
32.12118 176.000
32.14113 178.000
32.16107 149.000
32.18102 161.000
32.20097 160.000
32.22092 161.000
32.24086 168.000
32.26081 145.000
32.28076 147.000
32.30070 155.000
32.32065 155.000
32.34060 176.000
32.36054 170.000
32.38049 149.000
32.40044 157.000
32.42039 175.000
32.44033 176.000
32.46028 155.000
32.48023 157.000
32.50017 175.000
32.52012 157.000
32.54007 174.000
32.56001 198.000
32.57996 181.000
32.59991 153.000
32.61985 148.000
32.63980 159.000
32.65975 163.000
32.67970 167.000
32.69964 165.000
32.71959 192.000
32.73954 184.000
32.75948 198.000
32.77943 183.000
32.79938 229.000
32.81932 218.000
32.83927 218.000
32.85922 219.000
32.87917 231.000
32.89911 241.000
32.91906 212.000
32.93901 245.000
32.95895 235.000
32.97890 245.000
32.99885 258.000
33.01879 251.000
33.03874 247.000
33.05869 210.000
33.07863 214.000
33.09858 209.000
33.11853 205.000
33.13848 215.000
33.15842 201.000
33.17837 226.000
33.19832 217.000
33.21826 245.000
33.23821 235.000
33.25816 229.000
33.27810 247.000
33.29805 231.000
33.31800 229.000
33.33795 226.000
33.35789 224.000
33.37784 226.000
33.39779 209.000
33.41773 211.000
33.43768 205.000
33.45763 198.000
33.47757 191.000
33.49752 191.000
33.51747 204.000
33.53741 216.000
33.55736 175.000
33.57731 186.000
33.59726 194.000
33.61720 232.000
33.63715 204.000
33.65710 210.000
33.67704 229.000
33.69699 229.000
33.71694 251.000
33.73688 248.000
33.75683 270.000
33.77678 291.000
33.79673 324.000
33.81667 300.000
33.83662 327.000
33.85657 299.000
33.87651 291.000
33.89646 296.000
33.91641 306.000
33.93635 313.000
33.95630 336.000
33.97625 336.000
33.99620 362.000
34.01614 340.000
34.03609 340.000
34.05604 289.000
34.07598 294.000
34.09593 293.000
34.11588 323.000
34.13582 315.000
34.15577 277.000
34.17572 299.000
34.19566 311.000
34.21561 281.000
34.23556 274.000
34.25551 320.000
34.27545 315.000
34.29540 324.000
34.31535 306.000
34.33529 271.000
34.35524 291.000
34.37519 282.000
34.39513 263.000
34.41508 267.000
34.43503 246.000
34.45498 226.000
34.47492 215.000
34.49487 227.000
34.51482 219.000
34.53476 211.000
34.55471 187.000
34.57466 175.000
34.59460 153.000
34.61455 188.000
34.63450 181.000
34.65444 162.000
34.67439 160.000
34.69434 167.000
34.71429 175.000
34.73423 186.000
34.75418 159.000
34.77413 198.000
34.79407 197.000
34.81402 209.000
34.83397 173.000
34.85391 223.000
34.87386 259.000
34.89381 252.000
34.91376 258.000
34.93370 270.000
34.95365 265.000
34.97360 249.000
34.99354 264.000
35.01349 285.000
35.03344 296.000
35.05338 284.000
35.07333 287.000
35.09328 314.000
35.11322 325.000
35.13317 319.000
35.15312 344.000
35.17307 329.000
35.19301 331.000
35.21296 337.000
35.23291 387.000
35.25285 398.000
35.27280 434.000
35.29275 500.000
35.31269 613.000
35.33264 678.000
35.35259 853.000
35.37254 907.000
35.39248 1074.000
35.41243 1161.000
35.43238 1358.000
35.45232 1468.000
35.47227 1497.000
35.49222 1798.000
35.51216 1874.000
35.53211 1855.000
35.55206 1860.000
35.57201 1752.000
35.59195 1541.000
35.61190 1227.000
35.63185 1070.000
35.65179 937.000
35.67174 778.000
35.69169 642.000
35.71163 449.000
35.73158 340.000
35.75153 272.000
35.77147 259.000
35.79142 230.000
35.81137 213.000
35.83132 204.000
35.85126 215.000
35.87121 197.000
35.89116 208.000
35.91110 168.000
35.93105 200.000
35.95100 193.000
35.97094 169.000
35.99089 187.000
36.01084 177.000
36.03079 170.000
36.05073 170.000
36.07068 192.000
36.09063 188.000
36.11057 217.000
36.13052 226.000
36.15047 211.000
36.17041 238.000
36.19036 220.000
36.21031 274.000
36.23025 287.000
36.25020 318.000
36.27015 328.000
36.29010 339.000
36.31004 331.000
36.32999 305.000
36.34994 323.000
36.36988 298.000
36.38983 364.000
36.40978 306.000
36.42972 330.000
36.44967 315.000
36.46962 296.000
36.48957 271.000
36.50951 249.000
36.52946 241.000
36.54941 208.000
36.56935 211.000
36.58930 203.000
36.60925 189.000
36.62919 211.000
36.64914 201.000
36.66909 173.000
36.68903 164.000
36.70898 178.000
36.72893 152.000
36.74888 180.000
36.76882 163.000
36.78877 145.000
36.80872 154.000
36.82866 158.000
36.84861 140.000
36.86856 151.000
36.88850 166.000
36.90845 156.000
36.92840 153.000
36.94835 157.000
36.96829 178.000
36.98824 192.000
37.00819 195.000
37.02813 188.000
37.04808 204.000
37.06803 178.000
37.08797 220.000
37.10792 221.000
37.12787 264.000
37.14781 236.000
37.16776 254.000
37.18771 268.000
37.20766 234.000
37.22760 245.000
37.24755 215.000
37.26750 188.000
37.28744 171.000
37.30739 175.000
37.32734 175.000
37.34728 127.000
37.36723 142.000
37.38718 146.000
37.40713 123.000
37.42707 133.000
37.44702 118.000
37.46697 131.000
37.48691 127.000
37.50686 115.000
37.52681 120.000
37.54675 141.000
37.56670 125.000
37.58665 141.000
37.60660 125.000
37.62654 147.000
37.64649 106.000
37.66644 152.000
37.68638 135.000
37.70633 134.000
37.72628 129.000
37.74622 152.000
37.76617 136.000
37.78612 128.000
37.80606 105.000
37.82601 114.000
37.84596 139.000
37.86591 117.000
37.88585 124.000
37.90580 129.000
37.92575 146.000
37.94569 129.000
37.96564 131.000
37.98559 129.000
38.00553 116.000
38.02548 129.000
38.04543 121.000
38.06538 150.000
38.08532 148.000
38.10527 120.000
38.12522 148.000
38.14516 131.000
38.16511 123.000
38.18506 134.000
38.20500 139.000
38.22495 136.000
38.24490 138.000
38.26484 134.000
38.28479 139.000
38.30474 121.000
38.32469 146.000
38.34463 148.000
38.36458 123.000
38.38453 158.000
38.40447 127.000
38.42442 150.000
38.44437 147.000
38.46431 149.000
38.48426 143.000
38.50421 141.000
38.52416 150.000
38.54410 143.000
38.56405 156.000
38.58400 188.000
38.60394 193.000
38.62389 202.000
38.64384 232.000
38.66378 195.000
38.68373 189.000
38.70368 194.000
38.72362 216.000
38.74357 198.000
38.76352 198.000
38.78347 184.000
38.80341 193.000
38.82336 198.000
38.84331 183.000
38.86325 172.000
38.88320 157.000
38.90315 183.000
38.92309 153.000
38.94304 171.000
38.96299 162.000
38.98294 158.000
39.00288 160.000
39.02283 138.000
39.04278 153.000
39.06272 150.000
39.08267 138.000
39.10262 168.000
39.12256 149.000
39.14251 136.000
39.16246 141.000
39.18241 146.000
39.20235 136.000
39.22230 144.000
39.24225 105.000
39.26219 118.000
39.28214 130.000
39.30209 119.000
39.32203 126.000
39.34198 122.000
39.36193 126.000
39.38187 123.000
39.40182 113.000
39.42177 110.000
39.44172 131.000
39.46166 146.000
39.48161 138.000
39.50156 125.000
39.52150 124.000
39.54145 123.000
39.56140 119.000
39.58134 133.000
39.60129 134.000
39.62124 122.000
39.64119 138.000
39.66113 124.000
39.68108 131.000
39.70103 149.000
39.72097 141.000
39.74092 125.000
39.76087 122.000
39.78081 123.000
39.80076 129.000
39.82071 123.000
39.84065 136.000
39.86060 141.000
39.88055 121.000
39.90050 118.000
39.92044 140.000
39.94039 123.000
39.96034 147.000
39.98028 138.000
40.00023 132.000
40.02018 126.000
40.04012 129.000
40.06007 140.000
40.08002 161.000
40.09997 139.000
40.11991 120.000
40.13986 140.000
40.15981 123.000
40.17975 151.000
40.19970 121.000
40.21965 129.000
40.23959 122.000
40.25954 121.000
40.27949 136.000
40.29943 136.000
40.31938 147.000
40.33933 134.000
40.35928 114.000
40.37922 142.000
40.39917 122.000
40.41912 128.000
40.43906 123.000
40.45901 126.000
40.47896 133.000
40.49890 149.000
40.51885 126.000
40.53880 145.000
40.55875 142.000
40.57869 143.000
40.59864 148.000
40.61859 136.000
40.63853 123.000
40.65848 149.000
40.67843 141.000
40.69837 149.000
40.71832 139.000
40.73827 162.000
40.75822 150.000
40.77816 149.000
40.79811 150.000
40.81806 138.000
40.83800 175.000
40.85795 163.000
40.87790 144.000
40.89784 160.000
40.91779 160.000
40.93774 204.000
40.95768 191.000
40.97763 201.000
40.99758 185.000
41.01753 201.000
41.03747 208.000
41.05742 210.000
41.07737 238.000
41.09731 298.000
41.11726 310.000
41.13721 352.000
41.15715 438.000
41.17710 563.000
41.19705 695.000
41.21700 764.000
41.23694 903.000
41.25689 1038.000
41.27684 1130.000
41.29678 1126.000
41.31673 1104.000
41.33668 1075.000
41.35662 946.000
41.37657 906.000
41.39652 811.000
41.41646 756.000
41.43641 714.000
41.45636 597.000
41.47631 453.000
41.49625 385.000
41.51620 347.000
41.53615 316.000
41.55609 299.000
41.57604 272.000
41.59599 210.000
41.61593 204.000
41.63588 184.000
41.65583 183.000
41.67578 185.000
41.69572 153.000
41.71567 148.000
41.73562 154.000
41.75556 150.000
41.77551 157.000
41.79546 132.000
41.81540 155.000
41.83535 151.000
41.85530 130.000
41.87524 134.000
41.89519 158.000
41.91514 161.000
41.93509 154.000
41.95503 131.000
41.97498 148.000
41.99493 144.000
42.01487 128.000
42.03482 133.000
42.05477 131.000
42.07471 148.000
42.09466 145.000
42.11461 122.000
42.13456 161.000
42.15450 137.000
42.17445 113.000
42.19440 128.000
42.21434 139.000
42.23429 135.000
42.25424 120.000
42.27418 141.000
42.29413 136.000
42.31408 129.000
42.33403 136.000
42.35397 136.000
42.37392 116.000
42.39387 145.000
42.41381 153.000
42.43376 136.000
42.45371 133.000
42.47365 141.000
42.49360 131.000
42.51355 137.000
42.53349 147.000
42.55344 118.000
42.57339 119.000
42.59334 126.000
42.61328 150.000
42.63323 144.000
42.65318 143.000
42.67312 145.000
42.69307 124.000
42.71302 134.000
42.73296 145.000
42.75291 115.000
42.77286 129.000
42.79281 167.000
42.81275 130.000
42.83270 162.000
42.85265 170.000
42.87259 178.000
42.89254 166.000
42.91249 189.000
42.93243 212.000
42.95238 229.000
42.97233 225.000
42.99227 278.000
43.01222 271.000
43.03217 322.000
43.05212 299.000
43.07206 312.000
43.09201 336.000
43.11196 345.000
43.13190 386.000
43.15185 399.000
43.17180 409.000
43.19174 417.000
43.21169 419.000
43.23164 394.000
43.25159 346.000
43.27153 333.000
43.29148 291.000
43.31143 299.000
43.33137 263.000
43.35132 233.000
43.37127 228.000
43.39121 191.000
43.41116 189.000
43.43111 149.000
43.45105 151.000
43.47100 130.000
43.49095 137.000
43.51090 145.000
43.53084 117.000
43.55079 124.000
43.57074 144.000
43.59068 123.000
43.61063 120.000
43.63058 101.000
43.65052 124.000
43.67047 129.000
43.69042 110.000
43.71037 110.000
43.73031 130.000
43.75026 112.000
43.77021 114.000
43.79015 133.000
43.81010 134.000
43.83005 101.000
43.84999 109.000
43.86994 114.000
43.88989 102.000
43.90984 99.000
43.92978 130.000
43.94973 114.000
43.96968 114.000
43.98962 104.000
44.00957 91.000
44.02952 122.000
44.04946 108.000
44.06941 116.000
44.08936 98.000
44.10930 117.000
44.12925 103.000
44.14920 116.000
44.16915 98.000
44.18909 117.000
44.20904 108.000
44.22899 122.000
44.24893 120.000
44.26888 133.000
44.28883 111.000
44.30877 101.000
44.32872 109.000
44.34867 110.000
44.36862 125.000
44.38856 100.000
44.40851 111.000
44.42846 132.000
44.44840 111.000
44.46835 125.000
44.48830 114.000
44.50824 124.000
44.52819 124.000
44.54814 111.000
44.56808 112.000
44.58803 118.000
44.60798 118.000
44.62793 116.000
44.64787 115.000
44.66782 144.000
44.68777 139.000
44.70771 166.000
44.72766 137.000
44.74761 139.000
44.76755 130.000
44.78750 146.000
44.80745 119.000
44.82740 122.000
44.84734 117.000
44.86729 142.000
44.88724 134.000
44.90718 110.000
44.92713 105.000
44.94708 138.000
44.96702 104.000
44.98697 101.000
45.00692 108.000
45.02686 114.000
45.04681 124.000
45.06676 98.000
45.08671 107.000
45.10665 122.000
45.12660 132.000
45.14655 135.000
45.16649 102.000
45.18644 101.000
45.20639 117.000
45.22633 105.000
45.24628 93.000
45.26623 117.000
45.28618 108.000
45.30612 93.000
45.32607 115.000
45.34602 112.000
45.36596 92.000
45.38591 122.000
45.40586 100.000
45.42580 90.000
45.44575 85.000
45.46570 106.000
45.48565 100.000
45.50559 109.000
45.52554 101.000
45.54549 96.000
45.56543 123.000
45.58538 109.000
45.60533 101.000
45.62527 113.000
45.64522 108.000
45.66517 115.000
45.68511 110.000
45.70506 108.000
45.72501 118.000
45.74496 90.000
45.76490 125.000
45.78485 108.000
45.80480 93.000
45.82474 101.000
45.84469 107.000
45.86464 110.000
45.88458 99.000
45.90453 109.000
45.92448 97.000
45.94443 97.000
45.96437 110.000
45.98432 102.000
46.00427 106.000
46.02421 82.000
46.04416 111.000
46.06411 97.000
46.08405 103.000
46.10400 112.000
46.12395 109.000
46.14389 93.000
46.16384 97.000
46.18379 109.000
46.20374 93.000
46.22368 101.000
46.24363 91.000
46.26358 87.000
46.28352 110.000
46.30347 111.000
46.32342 98.000
46.34336 129.000
46.36331 104.000
46.38326 106.000
46.40321 117.000
46.42315 97.000
46.44310 108.000
46.46305 86.000
46.48299 107.000
46.50294 97.000
46.52289 118.000
46.54283 109.000
46.56278 112.000
46.58273 97.000
46.60267 119.000
46.62262 101.000
46.64257 117.000
46.66252 113.000
46.68246 121.000
46.70241 91.000
46.72236 103.000
46.74230 102.000
46.76225 106.000
46.78220 110.000
46.80214 90.000
46.82209 117.000
46.84204 100.000
46.86199 78.000
46.88193 95.000
46.90188 113.000
46.92183 114.000
46.94177 105.000
46.96172 106.000
46.98167 113.000
47.00161 108.000
47.02156 100.000
47.04151 110.000
47.06146 106.000
47.08140 106.000
47.10135 121.000
47.12130 115.000
47.14124 111.000
47.16119 112.000
47.18114 123.000
47.20108 113.000
47.22103 106.000
47.24098 116.000
47.26092 114.000
47.28087 124.000
47.30082 110.000
47.32077 131.000
47.34071 91.000
47.36066 91.000
47.38061 114.000
47.40055 110.000
47.42050 115.000
47.44045 104.000
47.46039 105.000
47.48034 113.000
47.50029 116.000
47.52024 94.000
47.54018 110.000
47.56013 93.000
47.58008 103.000
47.60002 108.000
47.61997 85.000
47.63992 98.000
47.65986 93.000
47.67981 99.000
47.69976 107.000
47.71970 103.000
47.73965 111.000
47.75960 96.000
47.77955 96.000
47.79949 107.000
47.81944 107.000
47.83939 103.000
47.85933 98.000
47.87928 99.000
47.89923 100.000
47.91917 98.000
47.93912 77.000
47.95907 101.000
47.97902 107.000
47.99896 118.000
48.01891 86.000
48.03886 117.000
48.05880 98.000
48.07875 84.000
48.09870 82.000
48.11864 100.000
48.13859 87.000
48.15854 100.000
48.17848 94.000
48.19843 94.000
48.21838 89.000
48.23833 120.000
48.25827 117.000
48.27822 105.000
48.29817 106.000
48.31811 77.000
48.33806 107.000
48.35801 102.000
48.37795 119.000
48.39790 125.000
48.41785 98.000
48.43780 133.000
48.45774 114.000
48.47769 115.000
48.49764 134.000
48.51758 104.000
48.53753 133.000
48.55748 126.000
48.57742 141.000
48.59737 121.000
48.61732 119.000
48.63726 141.000
48.65721 138.000
48.67716 119.000
48.69711 169.000
48.71705 141.000
48.73700 146.000
48.75695 175.000
48.77689 139.000
48.79684 165.000
48.81679 159.000
48.83673 125.000
48.85668 161.000
48.87663 135.000
48.89658 124.000
48.91652 122.000
48.93647 111.000
48.95642 109.000
48.97636 140.000
48.99631 109.000
49.01626 98.000
49.03620 110.000
49.05615 111.000
49.07610 104.000
49.09605 117.000
49.11599 112.000
49.13594 118.000
49.15589 110.000
49.17583 100.000
49.19578 94.000
49.21573 106.000
49.23567 114.000
49.25562 88.000
49.27557 119.000
49.29551 108.000
49.31546 111.000
49.33541 97.000
49.35536 112.000
49.37530 119.000
49.39525 105.000
49.41520 99.000
49.43514 109.000
49.45509 103.000
49.47504 112.000
49.49498 101.000
49.51493 127.000
49.53488 104.000
49.55483 100.000
49.57477 97.000
49.59472 92.000
49.61467 94.000
49.63461 124.000
49.65456 122.000
49.67451 92.000
49.69445 91.000
49.71440 106.000
49.73435 93.000
49.75429 99.000
49.77424 98.000
49.79419 107.000
49.81414 94.000
49.83408 110.000
49.85403 108.000
49.87398 125.000
49.89392 86.000
49.91387 108.000
49.93382 105.000
49.95376 88.000
49.97371 86.000
49.99366 101.000
50.01361 95.000
50.03355 108.000
50.05350 121.000
50.07345 96.000
50.09339 101.000
50.11334 115.000
50.13329 106.000
50.15323 103.000
50.17318 111.000
50.19313 91.000
50.21307 104.000
50.23302 96.000
50.25297 94.000
50.27292 96.000
50.29286 85.000
50.31281 99.000
50.33276 100.000
50.35270 111.000
50.37265 101.000
50.39260 92.000
50.41254 91.000
50.43249 104.000
50.45244 94.000
50.47239 92.000
50.49233 106.000
50.51228 104.000
50.53223 92.000
50.55217 92.000
50.57212 80.000
50.59207 86.000
50.61201 85.000
50.63196 77.000
50.65191 102.000
50.67186 107.000
50.69180 118.000
50.71175 93.000
50.73170 93.000
50.75164 92.000
50.77159 95.000
50.79154 97.000
50.81148 90.000
50.83143 76.000
50.85138 104.000
50.87132 102.000
50.89127 118.000
50.91122 85.000
50.93117 106.000
50.95111 110.000
50.97106 106.000
50.99101 104.000
51.01095 84.000
51.03090 86.000
51.05085 100.000
51.07079 103.000
51.09074 131.000
51.11069 86.000
51.13064 109.000
51.15058 97.000
51.17053 97.000
51.19048 114.000
51.21042 85.000
51.23037 108.000
51.25032 77.000
51.27026 92.000
51.29021 98.000
51.31016 96.000
51.33010 127.000
51.35005 110.000
51.37000 108.000
51.38995 89.000
51.40989 109.000
51.42984 100.000
51.44979 86.000
51.46973 71.000
51.48968 95.000
51.50963 101.000
51.52957 107.000
51.54952 89.000
51.56947 81.000
51.58942 93.000
51.60936 94.000
51.62931 99.000
51.64926 92.000
51.66920 95.000
51.68915 101.000
51.70910 99.000
51.72904 110.000
51.74899 102.000
51.76894 92.000
51.78888 90.000
51.80883 96.000
51.82878 98.000
51.84873 103.000
51.86867 105.000
51.88862 91.000
51.90857 89.000
51.92851 105.000
51.94846 96.000
51.96841 98.000
51.98835 101.000
52.00830 88.000
52.02825 110.000
52.04820 103.000
52.06814 81.000
52.08809 106.000
52.10804 94.000
52.12798 99.000
52.14793 96.000
52.16788 109.000
52.18782 104.000
52.20777 87.000
52.22772 122.000
52.24767 105.000
52.26761 79.000
52.28756 111.000
52.30751 89.000
52.32745 104.000
52.34740 110.000
52.36735 85.000
52.38729 102.000
52.40724 101.000
52.42719 104.000
52.44713 114.000
52.46708 85.000
52.48703 95.000
52.50698 92.000
52.52692 121.000
52.54687 110.000
52.56682 100.000
52.58676 104.000
52.60671 119.000
52.62666 111.000
52.64660 118.000
52.66655 144.000
52.68650 121.000
52.70645 142.000
52.72639 135.000
52.74634 139.000
52.76629 173.000
52.78623 150.000
52.80618 162.000
52.82613 187.000
52.84607 195.000
52.86602 219.000
52.88597 183.000
52.90591 251.000
52.92586 228.000
52.94581 199.000
52.96576 201.000
52.98570 195.000
53.00565 203.000
53.02560 181.000
53.04554 188.000
53.06549 185.000
53.08544 157.000
53.10538 150.000
53.12533 160.000
53.14528 160.000
53.16523 146.000
53.18517 124.000
53.20512 130.000
53.22507 128.000
53.24501 134.000
53.26496 140.000
53.28491 128.000
53.30485 137.000
53.32480 145.000
53.34475 132.000
53.36469 138.000
53.38464 157.000
53.40459 156.000
53.42454 151.000
53.44448 173.000
53.46443 171.000
53.48438 182.000
53.50432 167.000
53.52427 194.000
53.54422 198.000
53.56416 193.000
53.58411 202.000
53.60406 197.000
53.62401 204.000
53.64395 196.000
53.66390 205.000
53.68385 193.000
53.70379 182.000
53.72374 149.000
53.74369 166.000
53.76363 151.000
53.78358 161.000
53.80353 136.000
53.82348 117.000
53.84342 124.000
53.86337 133.000
53.88332 121.000
53.90326 108.000
53.92321 120.000
53.94316 131.000
53.96310 112.000
53.98305 116.000
54.00300 89.000
54.02294 107.000
54.04289 96.000
54.06284 117.000
54.08279 97.000
54.10273 119.000
54.12268 117.000
54.14263 111.000
54.16257 108.000
54.18252 93.000
54.20247 100.000
54.22241 107.000
54.24236 85.000
54.26231 101.000
54.28226 95.000
54.30220 81.000
54.32215 78.000
54.34210 118.000
54.36204 124.000
54.38199 112.000
54.40194 95.000
54.42188 109.000
54.44183 105.000
54.46178 109.000
54.48172 96.000
54.50167 98.000
54.52162 87.000
54.54157 108.000
54.56151 95.000
54.58146 87.000
54.60141 94.000
54.62135 101.000
54.64130 100.000
54.66125 88.000
54.68119 101.000
54.70114 95.000
54.72109 103.000
54.74104 96.000
54.76098 99.000
54.78093 108.000
54.80088 86.000
54.82082 71.000
54.84077 92.000
54.86072 106.000
54.88066 104.000
54.90061 89.000
54.92056 86.000
54.94050 110.000
54.96045 109.000
54.98040 94.000
55.00035 112.000
55.02029 80.000
55.04024 98.000
55.06019 108.000
55.08013 97.000
55.10008 80.000
55.12003 99.000
55.13997 95.000
55.15992 87.000
55.17987 101.000
55.19982 86.000
55.21976 94.000
55.23971 93.000
55.25966 102.000
55.27960 72.000
55.29955 91.000
55.31950 89.000
55.33944 87.000
55.35939 88.000
55.37934 111.000
55.39929 104.000
55.41923 96.000
55.43918 112.000
55.45913 91.000
55.47907 83.000
55.49902 86.000
55.51897 82.000
55.53891 87.000
55.55886 106.000
55.57881 91.000
55.59875 110.000
55.61870 96.000
55.63865 99.000
55.65860 126.000
55.67854 108.000
55.69849 88.000
55.71844 85.000
55.73838 90.000
55.75833 94.000
55.77828 90.000
55.79822 88.000
55.81817 111.000
55.83812 86.000
55.85807 100.000
55.87801 101.000
55.89796 80.000
55.91791 89.000
55.93785 102.000
55.95780 117.000
55.97775 89.000
55.99769 79.000
56.01764 102.000
56.03759 102.000
56.05753 88.000
56.07748 111.000
56.09743 116.000
56.11738 106.000
56.13732 96.000
56.15727 105.000
56.17722 107.000
56.19716 91.000
56.21711 107.000
56.23706 81.000
56.25700 121.000
56.27695 96.000
56.29690 106.000
56.31685 106.000
56.33679 93.000
56.35674 101.000
56.37669 110.000
56.39663 90.000
56.41658 115.000
56.43653 116.000
56.45647 98.000
56.47642 98.000
56.49637 115.000
56.51631 100.000
56.53626 100.000
56.55621 115.000
56.57616 113.000
56.59610 114.000
56.61605 111.000
56.63600 117.000
56.65594 116.000
56.67589 131.000
56.69584 125.000
56.71578 133.000
56.73573 139.000
56.75568 153.000
56.77563 186.000
56.79557 176.000
56.81552 198.000
56.83547 201.000
56.85541 231.000
56.87536 245.000
56.89531 219.000
56.91525 245.000
56.93520 285.000
56.95515 307.000
56.97510 293.000
56.99504 325.000
57.01499 339.000
57.03494 312.000
57.05488 319.000
57.07483 367.000
57.09478 388.000
57.11472 393.000
57.13467 446.000
57.15462 433.000
57.17456 427.000
57.19451 409.000
57.21446 407.000
57.23441 348.000
57.25435 364.000
57.27430 330.000
57.29425 299.000
57.31419 309.000
57.33414 281.000
57.35409 267.000
57.37403 247.000
57.39398 246.000
57.41393 210.000
57.43388 233.000
57.45382 234.000
57.47377 228.000
57.49372 246.000
57.51366 247.000
57.53361 230.000
57.55356 239.000
57.57350 264.000
57.59345 243.000
57.61340 260.000
57.63334 252.000
57.65329 265.000
57.67324 280.000
57.69319 250.000
57.71313 266.000
57.73308 229.000
57.75303 228.000
57.77297 245.000
57.79292 228.000
57.81287 200.000
57.83281 178.000
57.85276 163.000
57.87271 166.000
57.89266 156.000
57.91260 149.000
57.93255 150.000
57.95250 134.000
57.97244 127.000
57.99239 117.000
58.01234 133.000
58.03228 109.000
58.05223 121.000
58.07218 112.000
58.09212 110.000
58.11207 107.000
58.13202 125.000
58.15197 102.000
58.17191 117.000
58.19186 131.000
58.21181 113.000
58.23175 114.000
58.25170 103.000
58.27165 122.000
58.29159 111.000
58.31154 98.000
58.33149 121.000
58.35144 92.000
58.37138 93.000
58.39133 108.000
58.41128 123.000
58.43122 98.000
58.45117 99.000
58.47112 116.000
58.49106 109.000
58.51101 89.000
58.53096 94.000
58.55090 97.000
58.57085 94.000
58.59080 101.000
58.61075 110.000
58.63069 92.000
58.65064 81.000
58.67059 100.000
58.69053 87.000
58.71048 100.000
58.73043 97.000
58.75037 109.000
58.77032 76.000
58.79027 89.000
58.81022 107.000
58.83016 113.000
58.85011 81.000
58.87006 92.000
58.89000 100.000
58.90995 109.000
58.92990 108.000
58.94984 105.000
58.96979 98.000
58.98974 109.000
59.00969 99.000
59.02963 95.000
59.04958 99.000
59.06953 106.000
59.08947 74.000
59.10942 104.000
59.12937 91.000
59.14931 92.000
59.16926 96.000
59.18921 101.000
59.20915 83.000
59.22910 97.000
59.24905 104.000
59.26900 99.000
59.28894 95.000
59.30889 80.000
59.32884 96.000
59.34878 87.000
59.36873 105.000
59.38868 97.000
59.40862 88.000
59.42857 92.000
59.44852 103.000
59.46847 93.000
59.48841 91.000
59.50836 85.000
59.52831 107.000
59.54825 88.000
59.56820 86.000
59.58815 110.000
59.60809 104.000
59.62804 85.000
59.64799 114.000
59.66793 103.000
59.68788 90.000
59.70783 90.000
59.72778 97.000
59.74772 101.000
59.76767 95.000
59.78762 94.000
59.80756 107.000
59.82751 101.000
59.84746 97.000
59.86740 106.000
59.88735 105.000
59.90730 87.000
59.92725 106.000
59.94719 93.000
59.96714 100.000
59.98709 92.000
60.00703 113.000
60.02698 106.000
60.04693 93.000
60.06687 113.000
60.08682 99.000
60.10677 108.000
60.12671 92.000
60.14666 104.000
60.16661 109.000
60.18656 95.000
60.20650 102.000
60.22645 121.000
60.24640 101.000
60.26634 102.000
60.28629 114.000
60.30624 118.000
60.32618 121.000
60.34613 105.000
60.36608 109.000
60.38603 123.000
60.40597 100.000
60.42592 140.000
60.44587 112.000
60.46581 119.000
60.48576 128.000
60.50571 115.000
60.52565 111.000
60.54560 136.000
60.56555 114.000
60.58550 106.000
60.60544 118.000
60.62539 132.000
60.64534 113.000
60.66528 115.000
60.68523 120.000
60.70518 101.000
60.72512 130.000
60.74507 166.000
60.76502 103.000
60.78496 123.000
60.80491 106.000
60.82486 93.000
60.84481 119.000
60.86475 109.000
60.88470 106.000
60.90465 105.000
60.92459 111.000
60.94454 118.000
60.96449 99.000
60.98443 142.000
61.00438 119.000
61.02433 109.000
61.04428 135.000
61.06422 120.000
61.08417 128.000
61.10412 122.000
61.12406 111.000
61.14401 118.000
61.16396 143.000
61.18390 131.000
61.20385 142.000
61.22380 107.000
61.24374 128.000
61.26369 142.000
61.28364 156.000
61.30359 135.000
61.32353 128.000
61.34348 127.000
61.36343 127.000
61.38337 140.000
61.40332 125.000
61.42327 129.000
61.44321 142.000
61.46316 134.000
61.48311 157.000
61.50306 148.000
61.52300 135.000
61.54295 136.000
61.56290 173.000
61.58284 153.000
61.60279 188.000
61.62274 182.000
61.64268 172.000
61.66263 188.000
61.68258 206.000
61.70252 171.000
61.72247 198.000
61.74242 194.000
61.76237 209.000
61.78231 211.000
61.80226 200.000
61.82221 202.000
61.84215 230.000
61.86210 193.000
61.88205 205.000
61.90199 224.000
61.92194 184.000
61.94189 216.000
61.96184 195.000
61.98178 196.000
62.00173 206.000
62.02168 178.000
62.04162 211.000
62.06157 208.000
62.08152 234.000
62.10146 201.000
62.12141 210.000
62.14136 198.000
62.16131 179.000
62.18125 219.000
62.20120 213.000
62.22115 199.000
62.24109 198.000
62.26104 213.000
62.28099 188.000
62.30093 227.000
62.32088 231.000
62.34083 243.000
62.36077 249.000
62.38072 259.000
62.40067 294.000
62.42062 252.000
62.44056 309.000
62.46051 338.000
62.48046 306.000
62.50040 316.000
62.52035 366.000
62.54030 339.000
62.56024 368.000
62.58019 364.000
62.60014 400.000
62.62009 361.000
62.64003 424.000
62.65998 404.000
62.67993 418.000
62.69987 407.000
62.71982 444.000
62.73977 466.000
62.75971 449.000
62.77966 483.000
62.79961 473.000
62.81955 490.000
62.83950 401.000
62.85945 424.000
62.87940 408.000
62.89934 374.000
62.91929 370.000
62.93924 323.000
62.95918 296.000
62.97913 268.000
62.99908 272.000
63.01902 230.000
63.03897 213.000
63.05892 185.000
63.07887 166.000
63.09881 158.000
63.11876 133.000
63.13871 161.000
63.15865 111.000
63.17860 108.000
63.19855 112.000
63.21849 128.000
63.23844 112.000
63.25839 124.000
63.27833 116.000
63.29828 104.000
63.31823 98.000
63.33818 98.000
63.35812 84.000
63.37807 101.000
63.39802 113.000
63.41796 102.000
63.43791 106.000
63.45786 93.000
63.47780 101.000
63.49775 93.000
63.51770 103.000
63.53765 101.000
63.55759 101.000
63.57754 106.000
63.59749 101.000
63.61743 92.000
63.63738 95.000
63.65733 101.000
63.67727 102.000
63.69722 100.000
63.71717 87.000
63.73712 88.000
63.75706 104.000
63.77701 87.000
63.79696 102.000
63.81690 118.000
63.83685 97.000
63.85680 83.000
63.87674 89.000
63.89669 95.000
63.91664 96.000
63.93658 96.000
63.95653 101.000
63.97648 89.000
63.99643 99.000
64.01637 91.000
64.03632 78.000
64.05627 90.000
64.07621 103.000
64.09616 94.000
64.11611 90.000
64.13605 104.000
64.15600 107.000
64.17595 112.000
64.19590 108.000
64.21584 90.000
64.23579 103.000
64.25574 111.000
64.27568 115.000
64.29563 112.000
64.31558 123.000
64.33552 118.000
64.35547 124.000
64.37542 114.000
64.39536 124.000
64.41531 132.000
64.43526 129.000
64.45521 126.000
64.47515 162.000
64.49510 132.000
64.51505 123.000
64.53499 132.000
64.55494 129.000
64.57489 127.000
64.59483 135.000
64.61478 122.000
64.63473 109.000
64.65468 131.000
64.67462 125.000
64.69457 107.000
64.71452 151.000
64.73446 108.000
64.75441 127.000
64.77436 117.000
64.79430 113.000
64.81425 130.000
64.83420 118.000
64.85414 111.000
64.87409 109.000
64.89404 118.000
64.91399 127.000
64.93393 120.000
64.95388 125.000
64.97383 117.000
64.99377 118.000
65.01372 131.000
65.03367 117.000
65.05361 96.000
65.07356 92.000
65.09351 98.000
65.11346 95.000
65.13340 99.000
65.15335 113.000
65.17330 108.000
65.19324 103.000
65.21319 107.000
65.23314 101.000
65.25308 102.000
65.27303 101.000
65.29298 101.000
65.31293 122.000
65.33287 107.000
65.35282 87.000
65.37277 85.000
65.39271 84.000
65.41266 99.000
65.43261 78.000
65.45255 93.000
65.47250 111.000
65.49245 86.000
65.51239 106.000
65.53234 107.000
65.55229 101.000
65.57224 104.000
65.59218 78.000
65.61213 87.000
65.63208 107.000
65.65202 92.000
65.67197 113.000
65.69192 121.000
65.71186 107.000
65.73181 123.000
65.75176 103.000
65.77171 111.000
65.79165 88.000
65.81160 120.000
65.83155 112.000
65.85149 109.000
65.87144 124.000
65.89139 107.000
65.91133 100.000
65.93128 113.000
65.95123 103.000
65.97117 108.000
65.99112 99.000
66.01107 100.000
66.03102 111.000
66.05096 128.000
66.07091 115.000
66.09086 117.000
66.11080 95.000
66.13075 113.000
66.15070 105.000
66.17064 102.000
66.19059 106.000
66.21054 119.000
66.23049 102.000
66.25043 107.000
66.27038 114.000
66.29033 98.000
66.31027 110.000
66.33022 109.000
66.35017 88.000
66.37011 103.000
66.39006 98.000
66.41001 119.000
66.42995 100.000
66.44990 110.000
66.46985 102.000
66.48980 106.000
66.50974 78.000
66.52969 90.000
66.54964 94.000
66.56958 88.000
66.58953 90.000
66.60948 96.000
66.62942 98.000
66.64937 92.000
66.66932 100.000
66.68927 75.000
66.70921 97.000
66.72916 88.000
66.74911 78.000
66.76905 94.000
66.78900 89.000
66.80895 111.000
66.82889 82.000
66.84884 80.000
66.86879 89.000
66.88874 92.000
66.90868 94.000
66.92863 113.000
66.94858 91.000
66.96852 85.000
66.98847 83.000
67.00842 78.000
67.02836 94.000
67.04831 81.000
67.06826 98.000
67.08820 79.000
67.10815 94.000
67.12810 88.000
67.14805 96.000
67.16799 79.000
67.18794 99.000
67.20789 99.000
67.22783 98.000
67.24778 97.000
67.26773 118.000
67.28767 103.000
67.30762 104.000
67.32757 107.000
67.34752 98.000
67.36746 108.000
67.38741 107.000
67.40736 103.000
67.42730 102.000
67.44725 92.000
67.46720 82.000
67.48714 84.000
67.50709 102.000
67.52704 93.000
67.54698 84.000
67.56693 92.000
67.58688 118.000
67.60683 112.000
67.62677 91.000
67.64672 88.000
67.66667 108.000
67.68661 96.000
67.70656 114.000
67.72651 105.000
67.74645 127.000
67.76640 89.000
67.78635 95.000
67.80630 116.000
67.82624 124.000
67.84619 115.000
67.86614 122.000
67.88608 115.000
67.90603 133.000
67.92598 126.000
67.94592 112.000
67.96587 147.000
67.98582 136.000
68.00576 121.000
68.02571 117.000
68.04566 132.000
68.06561 136.000
68.08555 134.000
68.10550 116.000
68.12545 111.000
68.14539 128.000
68.16534 104.000
68.18529 141.000
68.20523 113.000
68.22518 126.000
68.24513 123.000
68.26508 116.000
68.28502 105.000
68.30497 98.000
68.32492 115.000
68.34486 109.000
68.36481 106.000
68.38476 91.000
68.40470 100.000
68.42465 115.000
68.44460 117.000
68.46455 106.000
68.48449 112.000
68.50444 104.000
68.52439 116.000
68.54433 98.000
68.56428 118.000
68.58423 80.000
68.60417 96.000
68.62412 93.000
68.64407 93.000
68.66401 115.000
68.68396 79.000
68.70391 89.000
68.72386 83.000
68.74380 109.000
68.76375 90.000
68.78370 85.000
68.80364 93.000
68.82359 79.000
68.84354 100.000
68.86348 85.000
68.88343 111.000
68.90338 101.000
68.92333 100.000
68.94327 82.000
68.96322 97.000
68.98317 103.000
69.00311 94.000
69.02306 97.000
69.04301 94.000
69.06295 92.000
69.08290 107.000
69.10285 78.000
69.12279 82.000
69.14274 125.000
69.16269 104.000
69.18264 97.000
69.20258 84.000
69.22253 77.000
69.24248 99.000
69.26242 120.000
69.28237 82.000
69.30232 86.000
69.32226 88.000
69.34221 87.000
69.36216 106.000
69.38211 78.000
69.40205 89.000
69.42200 97.000
69.44195 97.000
69.46189 87.000
69.48184 95.000
69.50179 73.000
69.52173 87.000
69.54168 100.000
69.56163 91.000
69.58157 101.000
69.60152 101.000
69.62147 105.000
69.64142 97.000
69.66136 97.000
69.68131 92.000
69.70126 103.000
69.72120 88.000
69.74115 114.000
69.76110 88.000
69.78104 85.000
69.80099 97.000
69.82094 87.000
69.84089 95.000
69.86083 86.000
69.88078 82.000
69.90073 99.000
69.92067 89.000
69.94062 86.000
69.96057 93.000
69.98051 85.000
70.00046 97.000
70.02041 105.000
70.04035 77.000
70.06030 76.000
70.08025 97.000
70.10020 86.000
70.12014 93.000
70.14009 77.000
70.16004 84.000
70.17998 86.000
70.19993 81.000
70.21988 78.000
70.23982 89.000
70.25977 90.000
70.27972 102.000
70.29967 90.000
70.31961 79.000
70.33956 73.000
70.35951 91.000
70.37945 84.000
70.39940 79.000
70.41935 77.000
70.43929 73.000
70.45924 89.000
70.47919 86.000
70.49914 82.000
70.51908 93.000
70.53903 99.000
70.55898 77.000
70.57892 91.000
70.59887 87.000
70.61882 85.000
70.63876 82.000
70.65871 87.000
70.67866 95.000
70.69860 83.000
70.71855 93.000
70.73850 95.000
70.75845 107.000
70.77839 82.000
70.79834 88.000
70.81829 93.000
70.83823 89.000
70.85818 90.000
70.87813 100.000
70.89807 86.000
70.91802 97.000
70.93797 99.000
70.95792 118.000
70.97786 105.000
70.99781 113.000
71.01776 104.000
71.03770 98.000
71.05765 118.000
71.07760 108.000
71.09754 105.000
71.11749 118.000
71.13744 105.000
71.15738 111.000
71.17733 117.000
71.19728 126.000
71.21723 107.000
71.23717 114.000
71.25712 117.000
71.27707 110.000
71.29701 94.000
71.31696 115.000
71.33691 111.000
71.35685 121.000
71.37680 117.000
71.39675 110.000
71.41670 105.000
71.43664 99.000
71.45659 107.000
71.47654 110.000
71.49648 99.000
71.51643 93.000
71.53638 93.000
71.55632 94.000
71.57627 106.000
71.59622 82.000
71.61616 112.000
71.63611 102.000
71.65606 97.000
71.67601 115.000
71.69595 102.000
71.71590 102.000
71.73585 79.000
71.75579 86.000
71.77574 109.000
71.79569 76.000
71.81563 115.000
71.83558 118.000
71.85553 114.000
71.87548 119.000
71.89542 104.000
71.91537 123.000
71.93532 110.000
71.95526 121.000
71.97521 130.000
71.99516 132.000
72.01510 115.000
72.03505 139.000
72.05500 112.000
72.07495 127.000
72.09489 105.000
72.11484 145.000
72.13479 141.000
72.15473 132.000
72.17468 136.000
72.19463 125.000
72.21457 148.000
72.23452 123.000
72.25447 126.000
72.27441 139.000
72.29436 114.000
72.31431 120.000
72.33426 112.000
72.35420 115.000
72.37415 123.000
72.39410 112.000
72.41404 115.000
72.43399 120.000
72.45394 108.000
72.47388 101.000
72.49383 81.000
72.51378 96.000
72.53373 96.000
72.55367 100.000
72.57362 109.000
72.59357 87.000
72.61351 91.000
72.63346 89.000
72.65341 85.000
72.67335 102.000
72.69330 88.000
72.71325 92.000
72.73319 93.000
72.75314 73.000
72.77309 85.000
72.79304 90.000
72.81298 85.000
72.83293 93.000
72.85288 100.000
72.87282 89.000
72.89277 92.000
72.91272 94.000
72.93266 97.000
72.95261 103.000
72.97256 110.000
72.99251 86.000
73.01245 113.000
73.03240 106.000
73.05235 82.000
73.07229 106.000
73.09224 92.000
73.11219 91.000
73.13213 90.000
73.15208 108.000
73.17203 92.000
73.19197 98.000
73.21192 113.000
73.23187 109.000
73.25182 103.000
73.27176 107.000
73.29171 99.000
73.31166 89.000
73.33160 90.000
73.35155 100.000
73.37150 107.000
73.39144 97.000
73.41139 104.000
73.43134 111.000
73.45129 100.000
73.47123 90.000
73.49118 87.000
73.51113 122.000
73.53107 121.000
73.55102 97.000
73.57097 107.000
73.59091 101.000
73.61086 121.000
73.63081 126.000
73.65076 109.000
73.67070 120.000
73.69065 103.000
73.71060 123.000
73.73054 111.000
73.75049 140.000
73.77044 110.000
73.79038 103.000
73.81033 94.000
73.83028 120.000
73.85022 146.000
73.87017 150.000
73.89012 136.000
73.91007 152.000
73.93001 152.000
73.94996 130.000
73.96991 137.000
73.98985 171.000
74.00980 172.000
74.02975 157.000
74.04969 140.000
74.06964 141.000
74.08959 178.000
74.10954 135.000
74.12948 157.000
74.14943 147.000
74.16938 152.000
74.18932 146.000
74.20927 164.000
74.22922 154.000
74.24916 185.000
74.26911 161.000
74.28906 158.000
74.30900 166.000
74.32895 133.000
74.34890 152.000
74.36885 126.000
74.38879 169.000
74.40874 131.000
74.42869 145.000
74.44863 131.000
74.46858 134.000
74.48853 120.000
74.50847 117.000
74.52842 118.000
74.54837 136.000
74.56832 108.000
74.58826 113.000
74.60821 109.000
74.62816 112.000
74.64810 106.000
74.66805 100.000
74.68800 99.000
74.70794 119.000
74.72789 130.000
74.74784 88.000
74.76778 107.000
74.78773 94.000
74.80768 89.000
74.82763 107.000
74.84757 105.000
74.86752 103.000
74.88747 103.000
74.90741 102.000
74.92736 111.000
74.94731 136.000
74.96725 118.000
74.98720 109.000
75.00715 103.000
75.02710 118.000
75.04704 116.000
75.06699 106.000
75.08694 116.000
75.10688 120.000
75.12683 105.000
75.14678 107.000
75.16672 122.000
75.18667 127.000
75.20662 106.000
75.22657 121.000
75.24651 132.000
75.26646 117.000
75.28641 139.000
75.30635 128.000
75.32630 150.000
75.34625 111.000
75.36619 109.000
75.38614 100.000
75.40609 121.000
75.42603 111.000
75.44598 109.000
75.46593 124.000
75.48588 117.000
75.50582 105.000
75.52577 108.000
75.54572 108.000
75.56566 107.000
75.58561 86.000
75.60556 102.000
75.62550 91.000
75.64545 102.000
75.66540 85.000
75.68535 84.000
75.70529 81.000
75.72524 69.000
75.74519 88.000
75.76513 86.000
75.78508 90.000
75.80503 97.000
75.82497 89.000
75.84492 87.000
75.86487 94.000
75.88481 83.000
75.90476 80.000
75.92471 84.000
75.94466 74.000
75.96460 79.000
75.98455 76.000
76.00450 77.000
76.02444 89.000
76.04439 78.000
76.06434 83.000
76.08428 75.000
76.10423 71.000
76.12418 80.000
76.14413 93.000
76.16407 80.000
76.18402 91.000
76.20397 71.000
76.22391 83.000
76.24386 97.000
76.26381 91.000
76.28375 84.000
76.30370 73.000
76.32365 81.000
76.34359 87.000
76.36354 78.000
76.38349 101.000
76.40344 77.000
76.42338 80.000
76.44333 71.000
76.46328 78.000
76.48322 75.000
76.50317 95.000
76.52312 90.000
76.54306 92.000
76.56301 88.000
76.58296 89.000
76.60291 84.000
76.62285 93.000
76.64280 91.000
76.66275 71.000
76.68269 90.000
76.70264 72.000
76.72259 94.000
76.74253 95.000
76.76248 91.000
76.78243 104.000
76.80238 106.000
76.82232 86.000
76.84227 81.000
76.86222 105.000
76.88216 90.000
76.90211 116.000
76.92206 100.000
76.94200 107.000
76.96195 111.000
76.98190 113.000
77.00184 100.000
77.02179 104.000
77.04174 150.000
77.06169 119.000
77.08163 120.000
77.10158 122.000
77.12153 111.000
77.14147 110.000
77.16142 109.000
77.18137 108.000
77.20131 100.000
77.22126 117.000
77.24121 116.000
77.26116 130.000
77.28110 117.000
77.30105 113.000
77.32100 120.000
77.34094 105.000
77.36089 132.000
77.38084 112.000
77.40078 112.000
77.42073 119.000
77.44068 117.000
77.46062 116.000
77.48057 112.000
77.50052 107.000
77.52047 123.000
77.54041 99.000
77.56036 117.000
77.58031 110.000
77.60025 110.000
77.62020 112.000
77.64015 122.000
77.66009 122.000
77.68004 103.000
77.69999 91.000
77.71994 107.000
77.73988 93.000
77.75983 108.000
77.77978 88.000
77.79972 101.000
77.81967 97.000
77.83962 77.000
77.85956 83.000
77.87951 103.000
77.89946 76.000
77.91940 105.000
77.93935 89.000
77.95930 92.000
77.97925 83.000
77.99919 104.000
78.01914 86.000
78.03909 87.000
78.05903 89.000
78.07898 77.000
78.09893 89.000
78.11887 79.000
78.13882 83.000
78.15877 95.000
78.17872 76.000
78.19866 86.000
78.21861 91.000
78.23856 92.000
78.25850 87.000
78.27845 84.000
78.29840 95.000
78.31834 95.000
78.33829 86.000
78.35824 102.000
78.37819 84.000
78.39813 79.000
78.41808 76.000
78.43803 77.000
78.45797 80.000
78.47792 84.000
78.49787 85.000
78.51781 93.000
78.53776 77.000
78.55771 92.000
78.57765 58.000
78.59760 74.000
78.61755 59.000
78.63750 80.000
78.65744 98.000
78.67739 93.000
78.69734 97.000
78.71728 70.000
78.73723 80.000
78.75718 96.000
78.77712 84.000
78.79707 88.000
78.81702 98.000
78.83697 102.000
78.85691 87.000
78.87686 78.000
78.89681 88.000
78.91675 94.000
78.93670 93.000
78.95665 88.000
78.97659 98.000
78.99654 82.000
79.01649 86.000
79.03643 86.000
79.05638 108.000
79.07633 89.000
79.09628 93.000
79.11622 95.000
79.13617 107.000
79.15612 111.000
79.17606 100.000
79.19601 78.000
79.21596 102.000
79.23590 93.000
79.25585 113.000
79.27580 94.000
79.29575 114.000
79.31569 100.000
79.33564 95.000
79.35559 79.000
79.37553 102.000
79.39548 95.000
79.41543 93.000
79.43537 102.000
79.45532 88.000
79.47527 87.000
79.49521 86.000
79.51516 90.000
79.53511 103.000
79.55506 93.000
79.57500 91.000
79.59495 82.000
79.61490 90.000
79.63484 77.000
79.65479 105.000
79.67474 82.000
79.69468 95.000
79.71463 67.000
79.73458 78.000
79.75453 83.000
79.77447 90.000
79.79442 87.000
79.81437 81.000
79.83431 72.000
79.85426 91.000
79.87421 80.000
79.89415 78.000
79.91410 79.000
79.93405 99.000
79.95399 100.000
79.97394 84.000
79.99389 66.000
80.01384 96.000
80.03378 84.000
80.05373 84.000
80.07368 82.000
80.09362 78.000
80.11357 86.000
80.13352 75.000
80.15346 112.000
80.17341 84.000
80.19336 80.000
80.21331 93.000
80.23325 71.000
80.25320 88.000
80.27315 87.000
80.29309 72.000
80.31304 80.000
80.33299 97.000
80.35293 72.000
80.37288 67.000
80.39283 97.000
80.41278 71.000
80.43272 86.000
80.45267 76.000
80.47262 95.000
80.49256 76.000
80.51251 72.000
80.53246 81.000
80.55240 84.000
80.57235 67.000
80.59230 66.000
80.61224 83.000
80.63219 71.000
80.65214 96.000
80.67209 64.000
80.69203 79.000
80.71198 74.000
80.73193 78.000
80.75187 88.000
80.77182 79.000
80.79177 88.000
80.81171 89.000
80.83166 87.000
80.85161 74.000
80.87156 84.000
80.89150 74.000
80.91145 81.000
80.93140 93.000
80.95134 94.000
80.97129 85.000
80.99124 77.000
81.01118 95.000
81.03113 100.000
81.05108 86.000
81.07102 85.000
81.09097 73.000
81.11092 99.000
81.13087 70.000
81.15081 78.000
81.17076 84.000
81.19071 98.000
81.21065 94.000
81.23060 86.000
81.25055 86.000
81.27049 85.000
81.29044 88.000
81.31039 88.000
81.33034 91.000
81.35028 68.000
81.37023 81.000
81.39018 85.000
81.41012 96.000
81.43007 82.000
81.45002 92.000
81.46996 105.000
81.48991 73.000
81.50986 97.000
81.52980 78.000
81.54975 79.000
81.56970 89.000
81.58965 91.000
81.60959 82.000
81.62954 83.000
81.64949 74.000
81.66943 70.000
81.68938 96.000
81.70933 87.000
81.72927 92.000
81.74922 106.000
81.76917 97.000
81.78912 88.000
81.80906 96.000
81.82901 85.000
81.84896 81.000
81.86890 85.000
81.88885 79.000
81.90880 79.000
81.92874 90.000
81.94869 84.000
81.96864 84.000
81.98859 103.000
82.00853 80.000
82.02848 87.000
82.04843 85.000
82.06837 74.000
82.08832 95.000
82.10827 89.000
82.12821 95.000
82.14816 87.000
82.16811 85.000
82.18805 92.000
82.20800 94.000
82.22795 101.000
82.24790 81.000
82.26784 92.000
82.28779 86.000
82.30774 82.000
82.32768 92.000
82.34763 91.000
82.36758 90.000
82.38752 91.000
82.40747 82.000
82.42742 103.000
82.44737 91.000
82.46731 96.000
82.48726 90.000
82.50721 91.000
82.52715 96.000
82.54710 72.000
82.56705 75.000
82.58699 85.000
82.60694 75.000
82.62689 89.000
82.64683 82.000
82.66678 95.000
82.68673 69.000
82.70668 82.000
82.72662 82.000
82.74657 81.000
82.76652 72.000
82.78646 84.000
82.80641 80.000
82.82636 92.000
82.84630 91.000
82.86625 94.000
82.88620 99.000
82.90615 103.000
82.92609 88.000
82.94604 90.000
82.96599 83.000
82.98593 78.000
83.00588 95.000
83.02583 79.000
83.04577 78.000
83.06572 94.000
83.08567 72.000
83.10561 81.000
83.12556 91.000
83.14551 91.000
83.16546 74.000
83.18540 97.000
83.20535 87.000
83.22530 74.000
83.24524 86.000
83.26519 90.000
83.28514 76.000
83.30508 92.000
83.32503 84.000
83.34498 86.000
83.36493 90.000
83.38487 80.000
83.40482 75.000
83.42477 90.000
83.44471 84.000
83.46466 94.000
83.48461 74.000
83.50455 93.000
83.52450 91.000
83.54445 90.000
83.56440 84.000
83.58434 81.000
83.60429 80.000
83.62424 76.000
83.64418 80.000
83.66413 68.000
83.68408 91.000
83.70402 88.000
83.72397 93.000
83.74392 81.000
83.76386 90.000
83.78381 93.000
83.80376 78.000
83.82371 74.000
83.84365 86.000
83.86360 89.000
83.88355 90.000
83.90349 94.000
83.92344 97.000
83.94339 83.000
83.96333 80.000
83.98328 97.000
84.00323 115.000
84.02318 75.000
84.04312 92.000
84.06307 104.000
84.08302 96.000
84.10296 75.000
84.12291 97.000
84.14286 77.000
84.16280 87.000
84.18275 75.000
84.20270 85.000
84.22264 71.000
84.24259 78.000
84.26254 67.000
84.28249 93.000
84.30243 100.000
84.32238 101.000
84.34233 71.000
84.36227 82.000
84.38222 80.000
84.40217 79.000
84.42211 76.000
84.44206 92.000
84.46201 76.000
84.48196 70.000
84.50190 78.000
84.52185 65.000
84.54180 84.000
84.56174 93.000
84.58169 86.000
84.60164 77.000
84.62158 72.000
84.64153 74.000
84.66148 89.000
84.68142 78.000
84.70137 76.000
84.72132 72.000
84.74127 83.000
84.76121 66.000
84.78116 75.000
84.80111 88.000
84.82105 72.000
84.84100 67.000
84.86095 82.000
84.88089 85.000
84.90084 82.000
84.92079 67.000
84.94074 85.000
84.96068 75.000
84.98063 95.000
85.00058 90.000
85.02052 74.000
85.04047 79.000
85.06042 73.000
85.08036 86.000
85.10031 67.000
85.12026 95.000
85.14021 80.000
85.16015 87.000
85.18010 80.000
85.20005 85.000
85.21999 84.000
85.23994 63.000
85.25989 95.000
85.27983 70.000
85.29978 74.000
85.31973 89.000
85.33967 76.000
85.35962 90.000
85.37957 82.000
85.39952 86.000
85.41946 78.000
85.43941 83.000
85.45936 70.000
85.47930 64.000
85.49925 96.000
85.51920 92.000
85.53914 73.000
85.55909 94.000
85.57904 86.000
85.59899 86.000
85.61893 85.000
85.63888 85.000
85.65883 76.000
85.67877 77.000
85.69872 89.000
85.71867 81.000
85.73861 78.000
85.75856 78.000
85.77851 96.000
85.79845 96.000
85.81840 96.000
85.83835 91.000
85.85830 95.000
85.87824 88.000
85.89819 82.000
85.91814 96.000
85.93808 77.000
85.95803 100.000
85.97798 104.000
85.99792 91.000
86.01787 86.000
86.03782 94.000
86.05777 99.000
86.07771 84.000
86.09766 110.000
86.11761 100.000
86.13755 95.000
86.15750 87.000
86.17745 98.000
86.19739 73.000
86.21734 84.000
86.23729 86.000
86.25723 84.000
86.27718 83.000
86.29713 91.000
86.31708 101.000
86.33702 93.000
86.35697 82.000
86.37692 85.000
86.39686 95.000
86.41681 89.000
86.43676 104.000
86.45670 86.000
86.47665 97.000
86.49660 71.000
86.51655 81.000
86.53649 83.000
86.55644 83.000
86.57639 100.000
86.59633 96.000
86.61628 82.000
86.63623 105.000
86.65617 105.000
86.67612 80.000
86.69607 108.000
86.71602 80.000
86.73596 102.000
86.75591 92.000
86.77586 111.000
86.79580 80.000
86.81575 76.000
86.83570 91.000
86.85564 108.000
86.87559 95.000
86.89554 95.000
86.91548 115.000
86.93543 82.000
86.95538 90.000
86.97533 111.000
86.99527 107.000
87.01522 96.000
87.03517 99.000
87.05511 111.000
87.07506 102.000
87.09501 104.000
87.11495 110.000
87.13490 116.000
87.15485 94.000
87.17480 105.000
87.19474 107.000
87.21469 105.000
87.23464 104.000
87.25458 95.000
87.27453 97.000
87.29448 83.000
87.31442 89.000
87.33437 91.000
87.35432 102.000
87.37426 93.000
87.39421 88.000
87.41416 88.000
87.43411 88.000
87.45405 85.000
87.47400 99.000
87.49395 110.000
87.51389 83.000
87.53384 88.000
87.55379 84.000
87.57373 94.000
87.59368 82.000
87.61363 89.000
87.63358 90.000
87.65352 76.000
87.67347 78.000
87.69342 73.000
87.71336 74.000
87.73331 75.000
87.75326 75.000
87.77320 85.000
87.79315 65.000
87.81310 85.000
87.83304 77.000
87.85299 68.000
87.87294 80.000
87.89289 79.000
87.91283 78.000
87.93278 78.000
87.95273 84.000
87.97267 70.000
87.99262 75.000
88.01257 84.000
88.03251 76.000
88.05246 80.000
88.07241 78.000
88.09236 76.000
88.11230 80.000
88.13225 80.000
88.15220 94.000
88.17214 68.000
88.19209 75.000
88.21204 79.000
88.23198 83.000
88.25193 81.000
88.27188 77.000
88.29183 81.000
88.31177 74.000
88.33172 80.000
88.35167 87.000
88.37161 79.000
88.39156 81.000
88.41151 77.000
88.43145 80.000
88.45140 82.000
88.47135 78.000
88.49129 72.000
88.51124 90.000
88.53119 90.000
88.55114 80.000
88.57108 86.000
88.59103 91.000
88.61098 90.000
88.63092 99.000
88.65087 96.000
88.67082 74.000
88.69076 79.000
88.71071 74.000
88.73066 91.000
88.75061 91.000
88.77055 77.000
88.79050 93.000
88.81045 83.000
88.83039 86.000
88.85034 93.000
88.87029 81.000
88.89023 86.000
88.91018 86.000
88.93013 72.000
88.95007 82.000
88.97002 91.000
88.98997 83.000
89.00992 86.000
89.02986 85.000
89.04981 82.000
89.06976 95.000
89.08970 87.000
89.10965 89.000
89.12960 98.000
89.14954 93.000
89.16949 70.000
89.18944 101.000
89.20939 93.000
89.22933 74.000
89.24928 92.000
89.26923 85.000
89.28917 109.000
89.30912 88.000
89.32907 109.000
89.34901 103.000
89.36896 112.000
89.38891 114.000
89.40885 109.000
89.42880 118.000
89.44875 107.000
89.46870 121.000
89.48864 124.000
89.50859 113.000
89.52854 114.000
89.54848 157.000
89.56843 133.000
89.58838 128.000
89.60832 144.000
89.62827 158.000
89.64822 142.000
89.66817 179.000
89.68811 148.000
89.70806 148.000
89.72801 141.000
89.74795 147.000
89.76790 176.000
89.78785 159.000
89.80779 162.000
89.82774 176.000
89.84769 164.000
89.86764 178.000
89.88758 175.000
89.90753 188.000
89.92748 180.000
89.94742 181.000
89.96737 180.000
89.98732 173.000
90.00726 166.000
