10.00000 544.000
10.01995 542.000
10.03989 489.000
10.05984 506.000
10.07979 544.000
10.09973 535.000
10.11968 559.000
10.13963 539.000
10.15958 510.000
10.17952 523.000
10.19947 509.000
10.21942 532.000
10.23936 523.000
10.25931 547.000
10.27926 582.000
10.29920 541.000
10.31915 518.000
10.33910 519.000
10.35905 530.000
10.37899 573.000
10.39894 556.000
10.41889 534.000
10.43883 517.000
10.45878 532.000
10.47873 534.000
10.49867 551.000
10.51862 518.000
10.53857 521.000
10.55851 556.000
10.57846 513.000
10.59841 531.000
10.61836 558.000
10.63830 530.000
10.65825 537.000
10.67820 520.000
10.69814 525.000
10.71809 555.000
10.73804 542.000
10.75798 552.000
10.77793 556.000
10.79788 529.000
10.81783 549.000
10.83777 550.000
10.85772 514.000
10.87767 582.000
10.89761 550.000
10.91756 548.000
10.93751 576.000
10.95745 518.000
10.97740 539.000
10.99735 532.000
11.01730 529.000
11.03724 551.000
11.05719 569.000
11.07714 530.000
11.09708 602.000
11.11703 527.000
11.13698 536.000
11.15692 512.000
11.17687 521.000
11.19682 504.000
11.21676 530.000
11.23671 523.000
11.25666 562.000
11.27661 514.000
11.29655 545.000
11.31650 491.000
11.33645 543.000
11.35639 533.000
11.37634 584.000
11.39629 556.000
11.41623 522.000
11.43618 494.000
11.45613 537.000
11.47608 534.000
11.49602 593.000
11.51597 554.000
11.53592 534.000
11.55586 534.000
11.57581 538.000
11.59576 525.000
11.61570 552.000
11.63565 556.000
11.65560 550.000
11.67554 545.000
11.69549 487.000
11.71544 492.000
11.73539 559.000
11.75533 545.000
11.77528 523.000
11.79523 547.000
11.81517 532.000
11.83512 548.000
11.85507 545.000
11.87501 525.000
11.89496 522.000
11.91491 551.000
11.93486 551.000
11.95480 584.000
11.97475 526.000
11.99470 541.000
12.01464 523.000
12.03459 553.000
12.05454 522.000
12.07448 507.000
12.09443 537.000
12.11438 544.000
12.13432 530.000
12.15427 562.000
12.17422 560.000
12.19417 565.000
12.21411 517.000
12.23406 569.000
12.25401 561.000
12.27395 561.000
12.29390 510.000
12.31385 583.000
12.33379 544.000
12.35374 534.000
12.37369 572.000
12.39364 554.000
12.41358 539.000
12.43353 528.000
12.45348 513.000
12.47342 528.000
12.49337 559.000
12.51332 499.000
12.53326 518.000
12.55321 513.000
12.57316 527.000
12.59311 512.000
12.61305 547.000
12.63300 512.000
12.65295 558.000
12.67289 536.000
12.69284 537.000
12.71279 554.000
12.73273 507.000
12.75268 533.000
12.77263 544.000
12.79257 521.000
12.81252 523.000
12.83247 547.000
12.85242 573.000
12.87236 529.000
12.89231 576.000
12.91226 526.000
12.93220 555.000
12.95215 568.000
12.97210 557.000
12.99204 528.000
13.01199 516.000
13.03194 534.000
13.05189 532.000
13.07183 555.000
13.09178 522.000
13.11173 545.000
13.13167 568.000
13.15162 595.000
13.17157 558.000
13.19151 578.000
13.21146 567.000
13.23141 556.000
13.25135 547.000
13.27130 546.000
13.29125 561.000
13.31120 528.000
13.33114 554.000
13.35109 531.000
13.37104 574.000
13.39098 564.000
13.41093 545.000
13.43088 504.000
13.45082 505.000
13.47077 530.000
13.49072 519.000
13.51067 549.000
13.53061 546.000
13.55056 561.000
13.57051 512.000
13.59045 538.000
13.61040 552.000
13.63035 537.000
13.65029 491.000
13.67024 503.000
13.69019 568.000
13.71013 544.000
13.73008 553.000
13.75003 540.000
13.76998 537.000
13.78992 522.000
13.80987 556.000
13.82982 566.000
13.84976 521.000
13.86971 560.000
13.88966 560.000
13.90960 542.000
13.92955 510.000
13.94950 538.000
13.96945 503.000
13.98939 576.000
14.00934 551.000
14.02929 579.000
14.04923 556.000
14.06918 545.000
14.08913 486.000
14.10907 540.000
14.12902 532.000
14.14897 544.000
14.16892 511.000
14.18886 532.000
14.20881 558.000
14.22876 546.000
14.24870 577.000
14.26865 588.000
14.28860 519.000
14.30854 554.000
14.32849 513.000
14.34844 577.000
14.36838 526.000
14.38833 535.000
14.40828 572.000
14.42823 555.000
14.44817 542.000
14.46812 567.000
14.48807 577.000
14.50801 543.000
14.52796 492.000
14.54791 572.000
14.56785 558.000
14.58780 547.000
14.60775 551.000
14.62770 544.000
14.64764 558.000
14.66759 512.000
14.68754 543.000
14.70748 585.000
14.72743 562.000
14.74738 544.000
14.76732 548.000
14.78727 537.000
14.80722 509.000
14.82716 575.000
14.84711 537.000
14.86706 555.000
14.88701 533.000
14.90695 540.000
14.92690 563.000
14.94685 535.000
14.96679 538.000
14.98674 578.000
15.00669 569.000
15.02663 572.000
15.04658 576.000
15.06653 559.000
15.08648 565.000
15.10642 568.000
15.12637 581.000
15.14632 582.000
15.16626 606.000
15.18621 562.000
15.20616 586.000
15.22610 572.000
15.24605 618.000
15.26600 612.000
15.28594 600.000
15.30589 608.000
15.32584 545.000
15.34579 567.000
15.36573 588.000
15.38568 583.000
15.40563 592.000
15.42557 575.000
15.44552 607.000
15.46547 652.000
15.48541 690.000
15.50536 648.000
15.52531 685.000
15.54526 708.000
15.56520 745.000
15.58515 803.000
15.60510 907.000
15.62504 1096.000
15.64499 1397.000
15.66494 1791.000
15.68488 2430.000
15.70483 3390.000
15.72478 4393.000
15.74472 5338.000
15.76467 5473.000
15.78462 4845.000
15.80457 3609.000
15.82451 2376.000
15.84446 1545.000
15.86441 1048.000
15.88435 823.000
15.90430 750.000
15.92425 702.000
15.94419 684.000
15.96414 631.000
15.98409 636.000
16.00404 612.000
16.02398 589.000
16.04393 636.000
16.06388 575.000
16.08382 599.000
16.10377 557.000
16.12372 575.000
16.14366 558.000
16.16361 606.000
16.18356 581.000
16.20351 576.000
16.22345 564.000
16.24340 558.000
16.26335 551.000
16.28329 562.000
16.30324 553.000
16.32319 553.000
16.34313 587.000
16.36308 623.000
16.38303 557.000
16.40297 555.000
16.42292 555.000
16.44287 577.000
16.46282 571.000
16.48276 639.000
16.50271 547.000
16.52266 547.000
16.54260 554.000
16.56255 564.000
16.58250 540.000
16.60244 555.000
16.62239 592.000
16.64234 525.000
16.66229 545.000
16.68223 495.000
16.70218 574.000
16.72213 594.000
16.74207 554.000
16.76202 527.000
16.78197 541.000
16.80191 458.000
16.82186 536.000
16.84181 580.000
16.86175 540.000
16.88170 549.000
16.90165 564.000
16.92160 578.000
16.94154 557.000
16.96149 523.000
16.98144 511.000
17.00138 534.000
17.02133 545.000
17.04128 540.000
17.06122 544.000
17.08117 576.000
17.10112 512.000
17.12107 547.000
17.14101 587.000
17.16096 547.000
17.18091 586.000
17.20085 570.000
17.22080 543.000
17.24075 570.000
17.26069 560.000
17.28064 561.000
17.30059 497.000
17.32053 555.000
17.34048 543.000
17.36043 559.000
17.38038 536.000
17.40032 525.000
17.42027 562.000
17.44022 530.000
17.46016 553.000
17.48011 506.000
17.50006 573.000
17.52000 526.000
17.53995 595.000
17.55990 570.000
17.57985 574.000
17.59979 559.000
17.61974 543.000
17.63969 528.000
17.65963 512.000
17.67958 567.000
17.69953 534.000
17.71947 584.000
17.73942 565.000
17.75937 581.000
17.77932 519.000
17.79926 579.000
17.81921 553.000
17.83916 553.000
17.85910 566.000
17.87905 558.000
17.89900 511.000
17.91894 550.000
17.93889 551.000
17.95884 519.000
17.97878 500.000
17.99873 543.000
18.01868 542.000
18.03863 578.000
18.05857 574.000
18.07852 549.000
18.09847 496.000
18.11841 575.000
18.13836 601.000
18.15831 490.000
18.17825 547.000
18.19820 531.000
18.21815 565.000
18.23810 544.000
18.25804 567.000
18.27799 588.000
18.29794 562.000
18.31788 602.000
18.33783 545.000
18.35778 638.000
18.37772 519.000
18.39767 572.000
18.41762 601.000
18.43756 630.000
18.45751 662.000
18.47746 641.000
18.49741 712.000
18.51735 701.000
18.53730 683.000
18.55725 655.000
18.57719 580.000
18.59714 571.000
18.61709 557.000
18.63703 574.000
18.65698 600.000
18.67693 559.000
18.69688 567.000
18.71682 570.000
18.73677 567.000
18.75672 554.000
18.77666 584.000
18.79661 560.000
18.81656 530.000
18.83650 579.000
18.85645 530.000
18.87640 527.000
18.89634 533.000
18.91629 557.000
18.93624 568.000
18.95619 510.000
18.97613 527.000
18.99608 541.000
19.01603 585.000
19.03597 562.000
19.05592 521.000
19.07587 576.000
19.09581 553.000
19.11576 532.000
19.13571 576.000
19.15566 545.000
19.17560 551.000
19.19555 575.000
19.21550 507.000
19.23544 521.000
19.25539 565.000
19.27534 543.000
19.29528 541.000
19.31523 542.000
19.33518 569.000
19.35513 593.000
19.37507 546.000
19.39502 544.000
19.41497 508.000
19.43491 574.000
19.45486 556.000
19.47481 544.000
19.49475 537.000
19.51470 538.000
19.53465 561.000
19.55459 535.000
19.57454 558.000
19.59449 587.000
19.61444 530.000
19.63438 558.000
19.65433 562.000
19.67428 534.000
19.69422 568.000
19.71417 506.000
19.73412 550.000
19.75406 524.000
19.77401 561.000
19.79396 581.000
19.81391 554.000
19.83385 529.000
19.85380 560.000
19.87375 561.000
19.89369 522.000
19.91364 591.000
19.93359 558.000
19.95353 537.000
19.97348 558.000
19.99343 544.000
20.01337 556.000
20.03332 539.000
20.05327 514.000
20.07322 567.000
20.09316 553.000
20.11311 553.000
20.13306 548.000
20.15300 558.000
20.17295 551.000
20.19290 570.000
20.21284 553.000
20.23279 513.000
20.25274 539.000
20.27269 512.000
20.29263 523.000
20.31258 517.000
20.33253 544.000
20.35247 559.000
20.37242 561.000
20.39237 559.000
20.41231 599.000
20.43226 552.000
20.45221 536.000
20.47215 586.000
20.49210 564.000
20.51205 592.000
20.53200 538.000
20.55194 553.000
20.57189 545.000
20.59184 587.000
20.61178 553.000
20.63173 554.000
20.65168 538.000
20.67162 585.000
20.69157 508.000
20.71152 533.000
20.73147 563.000
20.75141 586.000
20.77136 500.000
20.79131 554.000
20.81125 578.000
20.83120 506.000
20.85115 569.000
20.87109 522.000
20.89104 598.000
20.91099 522.000
20.93094 550.000
20.95088 557.000
20.97083 571.000
20.99078 575.000
21.01072 566.000
21.03067 584.000
21.05062 614.000
21.07056 688.000
21.09051 694.000
21.11046 653.000
21.13040 605.000
21.15035 622.000
21.17030 554.000
21.19025 598.000
21.21019 560.000
21.23014 603.000
21.25009 612.000
21.27003 571.000
21.28998 592.000
21.30993 574.000
21.32987 585.000
21.34982 524.000
21.36977 562.000
21.38972 553.000
21.40966 576.000
21.42961 562.000
21.44956 538.000
21.46950 504.000
21.48945 524.000
21.50940 560.000
21.52934 573.000
21.54929 552.000
21.56924 539.000
21.58918 557.000
21.60913 542.000
21.62908 602.000
21.64903 539.000
21.66897 556.000
21.68892 557.000
21.70887 549.000
21.72881 533.000
21.74876 533.000
21.76871 546.000
21.78865 555.000
21.80860 591.000
21.82855 601.000
21.84850 547.000
21.86844 500.000
21.88839 568.000
21.90834 590.000
21.92828 543.000
21.94823 553.000
21.96818 544.000
21.98812 581.000
22.00807 548.000
22.02802 571.000
22.04796 579.000
22.06791 575.000
22.08786 531.000
22.10781 536.000
22.12775 531.000
22.14770 600.000
22.16765 546.000
22.18759 530.000
22.20754 582.000
22.22749 558.000
22.24743 554.000
22.26738 563.000
22.28733 545.000
22.30728 538.000
22.32722 572.000
22.34717 544.000
22.36712 571.000
22.38706 523.000
22.40701 584.000
22.42696 578.000
22.44690 548.000
22.46685 535.000
22.48680 605.000
22.50675 553.000
22.52669 611.000
22.54664 563.000
22.56659 520.000
22.58653 535.000
22.60648 537.000
22.62643 590.000
22.64637 544.000
22.66632 544.000
22.68627 537.000
22.70621 530.000
22.72616 604.000
22.74611 551.000
22.76606 525.000
22.78600 562.000
22.80595 591.000
22.82590 489.000
22.84584 592.000
22.86579 565.000
22.88574 617.000
22.90568 554.000
22.92563 596.000
22.94558 544.000
22.96553 534.000
22.98547 537.000
23.00542 586.000
23.02537 577.000
23.04531 548.000
23.06526 555.000
23.08521 546.000
23.10515 537.000
23.12510 576.000
23.14505 518.000
23.16499 576.000
23.18494 473.000
23.20489 618.000
23.22484 575.000
23.24478 553.000
23.26473 526.000
23.28468 483.000
23.30462 542.000
23.32457 530.000
23.34452 555.000
23.36446 539.000
23.38441 567.000
23.40436 555.000
23.42431 536.000
23.44425 566.000
23.46420 558.000
23.48415 542.000
23.50409 547.000
23.52404 534.000
23.54399 560.000
23.56393 559.000
23.58388 556.000
23.60383 519.000
23.62377 607.000
23.64372 511.000
23.66367 553.000
23.68362 578.000
23.70356 523.000
23.72351 594.000
23.74346 550.000
23.76340 596.000
23.78335 533.000
23.80330 550.000
23.82324 548.000
23.84319 576.000
23.86314 520.000
23.88309 553.000
23.90303 562.000
23.92298 553.000
23.94293 580.000
23.96287 546.000
23.98282 566.000
24.00277 522.000
24.02271 555.000
24.04266 591.000
24.06261 560.000
24.08256 583.000
24.10250 564.000
24.12245 567.000
24.14240 604.000
24.16234 562.000
24.18229 564.000
24.20224 560.000
24.22218 573.000
24.24213 565.000
24.26208 609.000
24.28202 599.000
24.30197 546.000
24.32192 549.000
24.34187 550.000
24.36181 560.000
24.38176 537.000
24.40171 567.000
24.42165 556.000
24.44160 524.000
24.46155 549.000
24.48149 540.000
24.50144 567.000
24.52139 546.000
24.54134 519.000
24.56128 581.000
24.58123 541.000
24.60118 535.000
24.62112 563.000
24.64107 571.000
24.66102 537.000
24.68096 524.000
24.70091 543.000
24.72086 528.000
24.74080 593.000
24.76075 524.000
24.78070 578.000
24.80065 502.000
24.82059 560.000
24.84054 542.000
24.86049 626.000
24.88043 631.000
24.90038 573.000
24.92033 549.000
24.94027 595.000
24.96022 604.000
24.98017 587.000
25.00012 578.000
25.02006 583.000
25.04001 558.000
25.05996 575.000
25.07990 604.000
25.09985 594.000
25.11980 565.000
25.13974 579.000
25.15969 545.000
25.17964 540.000
25.19958 543.000
25.21953 533.000
25.23948 566.000
25.25943 594.000
25.27937 568.000
25.29932 531.000
25.31927 616.000
25.33921 572.000
25.35916 542.000
25.37911 635.000
25.39905 575.000
25.41900 562.000
25.43895 579.000
25.45890 583.000
25.47884 535.000
25.49879 561.000
25.51874 576.000
25.53868 536.000
25.55863 557.000
25.57858 546.000
25.59852 567.000
25.61847 625.000
25.63842 553.000
25.65837 522.000
25.67831 548.000
25.69826 584.000
25.71821 568.000
25.73815 574.000
25.75810 534.000
25.77805 580.000
25.79799 550.000
25.81794 571.000
25.83789 581.000
25.85783 588.000
25.87778 575.000
25.89773 573.000
25.91768 551.000
25.93762 569.000
25.95757 561.000
25.97752 547.000
25.99746 556.000
26.01741 550.000
26.03736 558.000
26.05730 569.000
26.07725 580.000
26.09720 559.000
26.11715 582.000
26.13709 563.000
26.15704 545.000
26.17699 555.000
26.19693 560.000
26.21688 558.000
26.23683 624.000
26.25677 559.000
26.27672 563.000
26.29667 562.000
26.31661 552.000
26.33656 613.000
26.35651 570.000
26.37646 527.000
26.39640 576.000
26.41635 593.000
26.43630 566.000
26.45624 568.000
26.47619 567.000
26.49614 605.000
26.51608 557.000
26.53603 566.000
26.55598 578.000
26.57593 552.000
26.59587 577.000
26.61582 536.000
26.63577 571.000
26.65571 577.000
26.67566 573.000
26.69561 594.000
26.71555 559.000
26.73550 626.000
26.75545 561.000
26.77539 567.000
26.79534 581.000
26.81529 573.000
26.83524 617.000
26.85518 616.000
26.87513 595.000
26.89508 591.000
26.91502 593.000
26.93497 593.000
26.95492 559.000
26.97486 568.000
26.99481 606.000
27.01476 590.000
27.03471 558.000
27.05465 588.000
27.07460 582.000
27.09455 614.000
27.11449 574.000
27.13444 507.000
27.15439 519.000
27.17433 573.000
27.19428 579.000
27.21423 623.000
27.23417 579.000
27.25412 609.000
27.27407 581.000
27.29402 588.000
27.31396 581.000
27.33391 586.000
27.35386 548.000
27.37380 621.000
27.39375 566.000
27.41370 567.000
27.43364 595.000
27.45359 552.000
27.47354 582.000
27.49349 579.000
27.51343 579.000
27.53338 586.000
27.55333 572.000
27.57327 598.000
27.59322 643.000
27.61317 561.000
27.63311 525.000
27.65306 585.000
27.67301 604.000
27.69296 572.000
27.71290 588.000
27.73285 598.000
27.75280 569.000
27.77274 570.000
27.79269 545.000
27.81264 554.000
27.83258 577.000
27.85253 593.000
27.87248 538.000
27.89242 594.000
27.91237 573.000
27.93232 590.000
27.95227 545.000
27.97221 594.000
27.99216 575.000
28.01211 578.000
28.03205 609.000
28.05200 568.000
28.07195 580.000
28.09189 570.000
28.11184 545.000
28.13179 582.000
28.15174 547.000
28.17168 580.000
28.19163 579.000
28.21158 554.000
28.23152 571.000
28.25147 618.000
28.27142 534.000
28.29136 598.000
28.31131 594.000
28.33126 594.000
28.35120 533.000
28.37115 577.000
28.39110 580.000
28.41105 581.000
28.43099 601.000
28.45094 558.000
28.47089 593.000
28.49083 583.000
28.51078 603.000
28.53073 626.000
28.55067 555.000
28.57062 602.000
28.59057 601.000
28.61052 578.000
28.63046 555.000
28.65041 599.000
28.67036 599.000
28.69030 601.000
28.71025 599.000
28.73020 612.000
28.75014 577.000
28.77009 601.000
28.79004 564.000
28.80998 581.000
28.82993 566.000
28.84988 570.000
28.86983 581.000
28.88977 555.000
28.90972 566.000
28.92967 577.000
28.94961 599.000
28.96956 567.000
28.98951 600.000
29.00945 608.000
29.02940 558.000
29.04935 550.000
29.06930 554.000
29.08924 586.000
29.10919 552.000
29.12914 558.000
29.14908 584.000
29.16903 569.000
29.18898 620.000
29.20892 550.000
29.22887 560.000
29.24882 588.000
29.26877 540.000
29.28871 580.000
29.30866 590.000
29.32861 614.000
29.34855 576.000
29.36850 595.000
29.38845 554.000
29.40839 540.000
29.42834 647.000
29.44829 594.000
29.46823 580.000
29.48818 591.000
29.50813 573.000
29.52808 579.000
29.54802 599.000
29.56797 613.000
29.58792 618.000
29.60786 594.000
29.62781 595.000
29.64776 614.000
29.66770 590.000
29.68765 592.000
29.70760 604.000
29.72755 563.000
29.74749 557.000
29.76744 550.000
29.78739 570.000
29.80733 651.000
29.82728 617.000
29.84723 571.000
29.86717 605.000
29.88712 584.000
29.90707 578.000
29.92701 615.000
29.94696 579.000
29.96691 563.000
29.98686 579.000
30.00680 562.000
30.02675 560.000
30.04670 581.000
30.06664 603.000
30.08659 570.000
30.10654 579.000
30.12648 566.000
30.14643 623.000
30.16638 629.000
30.18633 589.000
30.20627 632.000
30.22622 624.000
30.24617 578.000
30.26611 607.000
30.28606 645.000
30.30601 606.000
30.32595 635.000
30.34590 641.000
30.36585 650.000
30.38579 693.000
30.40574 728.000
30.42569 771.000
30.44564 834.000
30.46558 818.000
30.48553 849.000
30.50548 784.000
30.52542 762.000
30.54537 748.000
30.56532 756.000
30.58526 722.000
30.60521 651.000
30.62516 659.000
30.64511 631.000
30.66505 613.000
30.68500 616.000
30.70495 586.000
30.72489 565.000
30.74484 596.000
30.76479 574.000
30.78473 587.000
30.80468 565.000
30.82463 614.000
30.84458 589.000
30.86452 617.000
30.88447 579.000
30.90442 599.000
30.92436 621.000
30.94431 572.000
30.96426 567.000
30.98420 638.000
31.00415 599.000
31.02410 557.000
31.04404 580.000
31.06399 587.000
31.08394 590.000
31.10389 558.000
31.12383 612.000
31.14378 653.000
31.16373 600.000
31.18367 643.000
31.20362 586.000
31.22357 599.000
31.24351 596.000
31.26346 563.000
31.28341 636.000
31.30336 611.000
31.32330 610.000
31.34325 660.000
31.36320 747.000
31.38314 748.000
31.40309 691.000
31.42304 617.000
31.44298 673.000
31.46293 630.000
31.48288 639.000
31.50282 604.000
31.52277 630.000
31.54272 633.000
31.56267 596.000
31.58261 583.000
31.60256 624.000
31.62251 598.000
31.64245 619.000
31.66240 589.000
31.68235 601.000
31.70229 649.000
31.72224 681.000
31.74219 675.000
31.76214 724.000
31.78208 771.000
31.80203 840.000
31.82198 768.000
31.84192 856.000
31.86187 880.000
31.88182 940.000
31.90176 888.000
31.92171 901.000
31.94166 810.000
31.96160 783.000
31.98155 775.000
32.00150 723.000
32.02145 776.000
32.04139 703.000
32.06134 670.000
32.08129 670.000
32.10123 631.000
32.12118 615.000
32.14113 612.000
32.16107 618.000
32.18102 640.000
32.20097 640.000
32.22092 647.000
32.24086 681.000
32.26081 681.000
32.28076 664.000
32.30070 717.000
32.32065 730.000
32.34060 773.000
32.36054 784.000
32.38049 865.000
32.40044 980.000
32.42039 1080.000
32.44033 1093.000
32.46028 1016.000
32.48023 1045.000
32.50017 1018.000
32.52012 925.000
32.54007 871.000
32.56001 807.000
32.57996 792.000
32.59991 679.000
32.61985 644.000
32.63980 649.000
32.65975 588.000
32.67970 624.000
32.69964 600.000
32.71959 625.000
32.73954 588.000
32.75948 625.000
32.77943 606.000
32.79938 612.000
32.81932 645.000
32.83927 601.000
32.85922 626.000
32.87917 619.000
32.89911 588.000
32.91906 570.000
32.93901 595.000
32.95895 590.000
32.97890 572.000
32.99885 602.000
33.01879 606.000
33.03874 580.000
33.05869 611.000
33.07863 541.000
33.09858 591.000
33.11853 620.000
33.13848 595.000
33.15842 623.000
33.17837 588.000
33.19832 635.000
33.21826 589.000
33.23821 550.000
33.25816 599.000
33.27810 639.000
33.29805 566.000
33.31800 567.000
33.33795 600.000
33.35789 594.000
33.37784 569.000
33.39779 606.000
33.41773 607.000
33.43768 627.000
33.45763 553.000
33.47757 621.000
33.49752 606.000
33.51747 595.000
33.53741 572.000
33.55736 574.000
33.57731 582.000
33.59726 594.000
33.61720 592.000
33.63715 597.000
33.65710 592.000
33.67704 589.000
33.69699 624.000
33.71694 569.000
33.73688 614.000
33.75683 655.000
33.77678 630.000
33.79673 603.000
33.81667 632.000
33.83662 583.000
33.85657 607.000
33.87651 652.000
33.89646 628.000
33.91641 601.000
33.93635 607.000
33.95630 604.000
33.97625 604.000
33.99620 587.000
34.01614 640.000
34.03609 631.000
34.05604 608.000
34.07598 618.000
34.09593 652.000
34.11588 608.000
34.13582 594.000
34.15577 630.000
34.17572 613.000
34.19566 629.000
34.21561 596.000
34.23556 599.000
34.25551 566.000
34.27545 606.000
34.29540 641.000
34.31535 625.000
34.33529 577.000
34.35524 580.000
34.37519 621.000
34.39513 595.000
34.41508 667.000
34.43503 619.000
34.45498 583.000
34.47492 604.000
34.49487 665.000
34.51482 635.000
34.53476 666.000
34.55471 645.000
34.57466 652.000
34.59460 589.000
34.61455 651.000
34.63450 677.000
34.65444 681.000
34.67439 688.000
34.69434 726.000
34.71429 693.000
34.73423 739.000
34.75418 720.000
34.77413 794.000
34.79407 779.000
34.81402 816.000
34.83397 698.000
34.85391 707.000
34.87386 794.000
34.89381 750.000
34.91376 731.000
34.93370 686.000
34.95365 758.000
34.97360 711.000
34.99354 729.000
35.01349 730.000
35.03344 706.000
35.05338 733.000
35.07333 827.000
35.09328 829.000
35.11322 878.000
35.13317 852.000
35.15312 843.000
35.17307 914.000
35.19301 960.000
35.21296 1090.000
35.23291 1141.000
35.25285 1212.000
35.27280 1413.000
35.29275 1623.000
35.31269 1923.000
35.33264 2387.000
35.35259 3036.000
35.37254 3577.000
35.39248 3802.000
35.41243 3806.000
35.43238 4077.000
35.45232 5011.000
35.47227 5713.000
35.49222 5841.000
35.51216 5663.000
35.53211 5006.000
35.55206 4466.000
35.57201 4163.000
35.59195 3716.000
35.61190 3075.000
35.63185 2546.000
35.65179 2071.000
35.67174 1710.000
35.69169 1439.000
35.71163 1333.000
35.73158 1177.000
35.75153 1150.000
35.77147 1177.000
35.79142 1132.000
35.81137 1194.000
35.83132 1319.000
35.85126 1415.000
35.87121 1497.000
35.89116 1653.000
35.91110 1685.000
35.93105 1773.000
35.95100 1593.000
35.97094 1512.000
35.99089 1351.000
36.01084 1328.000
36.03079 1233.000
36.05073 1097.000
36.07068 991.000
36.09063 900.000
36.11057 845.000
36.13052 808.000
36.15047 798.000
36.17041 792.000
36.19036 748.000
36.21031 795.000
36.23025 765.000
36.25020 755.000
36.27015 770.000
36.29010 766.000
36.31004 783.000
36.32999 789.000
36.34994 762.000
36.36988 810.000
36.38983 779.000
36.40978 781.000
36.42972 720.000
36.44967 711.000
36.46962 711.000
36.48957 684.000
36.50951 688.000
36.52946 655.000
36.54941 698.000
36.56935 638.000
36.58930 715.000
36.60925 655.000
36.62919 633.000
36.64914 644.000
36.66909 678.000
36.68903 649.000
36.70898 645.000
36.72893 676.000
36.74888 636.000
36.76882 617.000
36.78877 658.000
36.80872 721.000
36.82866 656.000
36.84861 674.000
36.86856 688.000
36.88850 722.000
36.90845 742.000
36.92840 731.000
36.94835 725.000
36.96829 785.000
36.98824 762.000
37.00819 835.000
37.02813 979.000
37.04808 1155.000
37.06803 1292.000
37.08797 1540.000
37.10792 1588.000
37.12787 1687.000
37.14781 1483.000
37.16776 1442.000
37.18771 1318.000
37.20766 1210.000
37.22760 1188.000
37.24755 1004.000
37.26750 906.000
37.28744 830.000
37.30739 801.000
37.32734 741.000
37.34728 719.000
37.36723 663.000
37.38718 775.000
37.40713 726.000
37.42707 713.000
37.44702 701.000
37.46697 744.000
37.48691 773.000
37.50686 727.000
37.52681 805.000
37.54675 776.000
37.56670 810.000
37.58665 718.000
37.60660 742.000
37.62654 819.000
37.64649 735.000
37.66644 736.000
37.68638 750.000
37.70633 706.000
37.72628 684.000
37.74622 686.000
37.76617 677.000
37.78612 714.000
37.80606 702.000
37.82601 652.000
37.84596 662.000
37.86591 657.000
37.88585 736.000
37.90580 707.000
37.92575 707.000
37.94569 709.000
37.96564 700.000
37.98559 647.000
38.00553 697.000
38.02548 696.000
38.04543 789.000
38.06538 724.000
38.08532 742.000
38.10527 767.000
38.12522 786.000
38.14516 766.000
38.16511 779.000
38.18506 835.000
38.20500 768.000
38.22495 869.000
38.24490 840.000
38.26484 880.000
38.28479 902.000
38.30474 1021.000
38.32469 1019.000
38.34463 1064.000
38.36458 1132.000
38.38453 1168.000
38.40447 1236.000
38.42442 1350.000
38.44437 1489.000
38.46431 1626.000
38.48426 1812.000
38.50421 2202.000
38.52416 2608.000
38.54410 3310.000
38.56405 3931.000
38.58400 4608.000
38.60394 5027.000
38.62389 5091.000
38.64384 4949.000
38.66378 4834.000
38.68373 4715.000
38.70368 4134.000
38.72362 3761.000
38.74357 3349.000
38.76352 2886.000
38.78347 2503.000
38.80341 2104.000
38.82336 2025.000
38.84331 1843.000
38.86325 1768.000
38.88320 1806.000
38.90315 1806.000
38.92309 1818.000
38.94304 1889.000
38.96299 1788.000
38.98294 1738.000
39.00288 1608.000
39.02283 1528.000
39.04278 1375.000
39.06272 1269.000
39.08267 1261.000
39.10262 1129.000
39.12256 936.000
39.14251 910.000
39.16246 877.000
39.18241 906.000
39.20235 817.000
39.22230 780.000
39.24225 833.000
39.26219 787.000
39.28214 790.000
39.30209 799.000
39.32203 846.000
39.34198 814.000
39.36193 875.000
39.38187 961.000
39.40182 1061.000
39.42177 1179.000
39.44172 1371.000
39.46166 1398.000
39.48161 1367.000
39.50156 1171.000
39.52150 1177.000
39.54145 1111.000
39.56140 1060.000
39.58134 951.000
39.60129 862.000
39.62124 826.000
39.64119 714.000
39.66113 697.000
39.68108 685.000
39.70103 689.000
39.72097 685.000
39.74092 683.000
39.76087 653.000
39.78081 617.000
39.80076 648.000
39.82071 630.000
39.84065 622.000
39.86060 636.000
39.88055 647.000
39.90050 640.000
39.92044 618.000
39.94039 615.000
39.96034 644.000
39.98028 645.000
40.00023 635.000
40.02018 651.000
40.04012 605.000
40.06007 616.000
40.08002 603.000
40.09997 621.000
40.11991 593.000
40.13986 637.000
40.15981 589.000
40.17975 634.000
40.19970 571.000
40.21965 581.000
40.23959 611.000
40.25954 580.000
40.27949 542.000
40.29943 587.000
40.31938 596.000
40.33933 589.000
40.35928 598.000
40.37922 609.000
40.39917 570.000
40.41912 614.000
40.43906 612.000
40.45901 563.000
40.47896 575.000
40.49890 617.000
40.51885 563.000
40.53880 614.000
40.55875 576.000
40.57869 627.000
40.59864 617.000
40.61859 584.000
40.63853 632.000
40.65848 589.000
40.67843 649.000
40.69837 667.000
40.71832 665.000
40.73827 617.000
40.75822 652.000
40.77816 662.000
40.79811 637.000
40.81806 599.000
40.83800 640.000
40.85795 607.000
40.87790 625.000
40.89784 614.000
40.91779 608.000
40.93774 609.000
40.95768 587.000
40.97763 541.000
40.99758 648.000
41.01753 598.000
41.03747 629.000
41.05742 604.000
41.07737 590.000
41.09731 589.000
41.11726 607.000
41.13721 585.000
41.15715 583.000
41.17710 591.000
41.19705 586.000
41.21700 609.000
41.23694 565.000
41.25689 605.000
41.27684 563.000
41.29678 564.000
41.31673 623.000
41.33668 578.000
41.35662 588.000
41.37657 564.000
41.39652 550.000
41.41646 582.000
41.43641 563.000
41.45636 625.000
41.47631 610.000
41.49625 581.000
41.51620 544.000
41.53615 577.000
41.55609 606.000
41.57604 594.000
41.59599 560.000
41.61593 570.000
41.63588 572.000
41.65583 574.000
41.67578 593.000
41.69572 580.000
41.71567 562.000
41.73562 578.000
41.75556 601.000
41.77551 581.000
41.79546 561.000
41.81540 596.000
41.83535 610.000
41.85530 584.000
41.87524 572.000
41.89519 568.000
41.91514 574.000
41.93509 568.000
41.95503 617.000
41.97498 576.000
41.99493 626.000
42.01487 604.000
42.03482 578.000
42.05477 573.000
42.07471 582.000
42.09466 594.000
42.11461 603.000
42.13456 611.000
42.15450 583.000
42.17445 575.000
42.19440 569.000
42.21434 576.000
42.23429 559.000
42.25424 579.000
42.27418 583.000
42.29413 570.000
42.31408 571.000
42.33403 550.000
42.35397 586.000
42.37392 592.000
42.39387 589.000
42.41381 565.000
42.43376 562.000
42.45371 567.000
42.47365 566.000
42.49360 551.000
42.51355 561.000
42.53349 618.000
42.55344 622.000
42.57339 572.000
42.59334 596.000
42.61328 579.000
42.63323 639.000
42.65318 621.000
42.67312 644.000
42.69307 580.000
42.71302 609.000
42.73296 625.000
42.75291 655.000
42.77286 616.000
42.79281 644.000
42.81275 704.000
42.83270 692.000
42.85265 659.000
42.87259 684.000
42.89254 727.000
42.91249 729.000
42.93243 781.000
42.95238 822.000
42.97233 839.000
42.99227 930.000
43.01222 966.000
43.03217 1044.000
43.05212 1281.000
43.07206 1325.000
43.09201 1490.000
43.11196 1478.000
43.13190 1632.000
43.15185 1713.000
43.17180 1675.000
43.19174 1582.000
43.21169 1532.000
43.23164 1430.000
43.25159 1341.000
43.27153 1302.000
43.29148 1162.000
43.31143 1045.000
43.33137 1004.000
43.35132 896.000
43.37127 851.000
43.39121 821.000
43.41116 828.000
43.43111 808.000
43.45105 830.000
43.47100 822.000
43.49095 838.000
43.51090 941.000
43.53084 949.000
43.55079 933.000
43.57074 884.000
43.59068 885.000
43.61063 839.000
43.63058 850.000
43.65052 894.000
43.67047 885.000
43.69042 834.000
43.71037 819.000
43.73031 734.000
43.75026 731.000
43.77021 705.000
43.79015 721.000
43.81010 671.000
43.83005 664.000
43.84999 705.000
43.86994 683.000
43.88989 598.000
43.90984 635.000
43.92978 621.000
43.94973 597.000
43.96968 632.000
43.98962 611.000
44.00957 597.000
44.02952 631.000
44.04946 612.000
44.06941 598.000
44.08936 582.000
44.10930 590.000
44.12925 573.000
44.14920 591.000
44.16915 584.000
44.18909 536.000
44.20904 549.000
44.22899 615.000
44.24893 585.000
44.26888 565.000
44.28883 577.000
44.30877 588.000
44.32872 641.000
44.34867 602.000
44.36862 562.000
44.38856 572.000
44.40851 559.000
44.42846 617.000
44.44840 627.000
44.46835 611.000
44.48830 578.000
44.50824 622.000
44.52819 574.000
44.54814 609.000
44.56808 596.000
44.58803 559.000
44.60798 591.000
44.62793 590.000
44.64787 602.000
44.66782 601.000
44.68777 575.000
44.70771 579.000
44.72766 609.000
44.74761 602.000
44.76755 596.000
44.78750 609.000
44.80745 610.000
44.82740 597.000
44.84734 604.000
44.86729 598.000
44.88724 574.000
44.90718 612.000
44.92713 611.000
44.94708 618.000
44.96702 644.000
44.98697 601.000
45.00692 630.000
45.02686 605.000
45.04681 624.000
45.06676 614.000
45.08671 640.000
45.10665 610.000
45.12660 636.000
45.14655 619.000
45.16649 675.000
45.18644 695.000
45.20639 685.000
45.22633 631.000
45.24628 701.000
45.26623 625.000
45.28618 678.000
45.30612 636.000
45.32607 655.000
45.34602 622.000
45.36596 616.000
45.38591 586.000
45.40586 648.000
45.42580 619.000
45.44575 658.000
45.46570 606.000
45.48565 543.000
45.50559 643.000
45.52554 615.000
45.54549 586.000
45.56543 613.000
45.58538 577.000
45.60533 628.000
45.62527 594.000
45.64522 557.000
45.66517 591.000
45.68511 623.000
45.70506 573.000
45.72501 612.000
45.74496 588.000
45.76490 641.000
45.78485 597.000
45.80480 573.000
45.82474 573.000
45.84469 587.000
45.86464 585.000
45.88458 555.000
45.90453 651.000
45.92448 563.000
45.94443 598.000
45.96437 578.000
45.98432 567.000
46.00427 545.000
46.02421 550.000
46.04416 603.000
46.06411 583.000
46.08405 599.000
46.10400 597.000
46.12395 640.000
46.14389 640.000
46.16384 671.000
46.18379 665.000
46.20374 631.000
46.22368 617.000
46.24363 714.000
46.26358 685.000
46.28352 652.000
46.30347 655.000
46.32342 624.000
46.34336 668.000
46.36331 671.000
46.38326 621.000
46.40321 598.000
46.42315 586.000
46.44310 571.000
46.46305 595.000
46.48299 587.000
46.50294 570.000
46.52289 591.000
46.54283 563.000
46.56278 588.000
46.58273 569.000
46.60267 598.000
46.62262 588.000
46.64257 564.000
46.66252 562.000
46.68246 608.000
46.70241 613.000
46.72236 541.000
46.74230 577.000
46.76225 614.000
46.78220 551.000
46.80214 581.000
46.82209 583.000
46.84204 560.000
46.86199 583.000
46.88193 584.000
46.90188 588.000
46.92183 570.000
46.94177 567.000
46.96172 586.000
46.98167 574.000
47.00161 572.000
47.02156 574.000
47.04151 538.000
47.06146 570.000
47.08140 571.000
47.10135 618.000
47.12130 546.000
47.14124 565.000
47.16119 582.000
47.18114 521.000
47.20108 573.000
47.22103 544.000
47.24098 603.000
47.26092 592.000
47.28087 581.000
47.30082 573.000
47.32077 541.000
47.34071 560.000
47.36066 555.000
47.38061 571.000
47.40055 538.000
47.42050 597.000
47.44045 562.000
47.46039 606.000
47.48034 583.000
47.50029 582.000
47.52024 536.000
47.54018 565.000
47.56013 616.000
47.58008 581.000
47.60002 585.000
47.61997 546.000
47.63992 594.000
47.65986 572.000
47.67981 645.000
47.69976 565.000
47.71970 574.000
47.73965 573.000
47.75960 576.000
47.77955 582.000
47.79949 635.000
47.81944 582.000
47.83939 586.000
47.85933 551.000
47.87928 592.000
47.89923 585.000
47.91917 587.000
47.93912 603.000
47.95907 564.000
47.97902 600.000
47.99896 573.000
48.01891 582.000
48.03886 595.000
48.05880 622.000
48.07875 623.000
48.09870 619.000
48.11864 598.000
48.13859 625.000
48.15854 634.000
48.17848 571.000
48.19843 582.000
48.21838 595.000
48.23833 573.000
48.25827 623.000
48.27822 637.000
48.29817 660.000
48.31811 663.000
48.33806 638.000
48.35801 621.000
48.37795 659.000
48.39790 650.000
48.41785 669.000
48.43780 662.000
48.45774 669.000
48.47769 662.000
48.49764 709.000
48.51758 724.000
48.53753 746.000
48.55748 766.000
48.57742 822.000
48.59737 819.000
48.61732 894.000
48.63726 923.000
48.65721 1073.000
48.67716 1114.000
48.69711 1308.000
48.71705 1531.000
48.73700 1665.000
48.75695 1895.000
48.77689 2089.000
48.79684 2243.000
48.81679 2273.000
48.83673 2147.000
48.85668 2121.000
48.87663 2109.000
48.89658 1958.000
48.91652 1801.000
48.93647 1759.000
48.95642 1581.000
48.97636 1491.000
48.99631 1352.000
49.01626 1254.000
49.03620 1062.000
49.05615 972.000
49.07610 924.000
49.09605 886.000
49.11599 808.000
49.13594 763.000
49.15589 724.000
49.17583 703.000
49.19578 714.000
49.21573 697.000
49.23567 745.000
49.25562 692.000
49.27557 648.000
49.29551 632.000
49.31546 646.000
49.33541 608.000
49.35536 657.000
49.37530 693.000
49.39525 640.000
49.41520 554.000
49.43514 602.000
49.45509 610.000
49.47504 591.000
49.49498 642.000
49.51493 617.000
49.53488 598.000
49.55483 569.000
49.57477 625.000
49.59472 631.000
49.61467 604.000
49.63461 582.000
49.65456 562.000
49.67451 575.000
49.69445 595.000
49.71440 592.000
49.73435 623.000
49.75429 568.000
49.77424 577.000
49.79419 547.000
49.81414 578.000
49.83408 594.000
49.85403 622.000
49.87398 589.000
49.89392 565.000
49.91387 585.000
49.93382 611.000
49.95376 586.000
49.97371 596.000
49.99366 600.000
50.01361 601.000
50.03355 573.000
50.05350 578.000
50.07345 551.000
50.09339 558.000
50.11334 608.000
50.13329 590.000
50.15323 523.000
50.17318 645.000
50.19313 621.000
50.21307 595.000
50.23302 559.000
50.25297 594.000
50.27292 602.000
50.29286 542.000
50.31281 551.000
50.33276 573.000
50.35270 577.000
50.37265 628.000
50.39260 611.000
50.41254 549.000
50.43249 555.000
50.45244 567.000
50.47239 570.000
50.49233 567.000
50.51228 561.000
50.53223 572.000
50.55217 608.000
50.57212 569.000
50.59207 561.000
50.61201 578.000
50.63196 551.000
50.65191 590.000
50.67186 527.000
50.69180 552.000
50.71175 610.000
50.73170 552.000
50.75164 547.000
50.77159 591.000
50.79154 536.000
50.81148 566.000
50.83143 581.000
50.85138 525.000
50.87132 605.000
50.89127 592.000
50.91122 563.000
50.93117 567.000
50.95111 590.000
50.97106 555.000
50.99101 595.000
51.01095 517.000
51.03090 604.000
51.05085 577.000
51.07079 549.000
51.09074 582.000
51.11069 586.000
51.13064 625.000
51.15058 595.000
51.17053 618.000
51.19048 628.000
51.21042 632.000
51.23037 669.000
51.25032 611.000
51.27026 641.000
51.29021 625.000
51.31016 623.000
51.33010 581.000
51.35005 629.000
51.37000 605.000
51.38995 616.000
51.40989 600.000
51.42984 577.000
51.44979 596.000
51.46973 585.000
51.48968 608.000
51.50963 580.000
51.52957 600.000
51.54952 576.000
51.56947 619.000
51.58942 586.000
51.60936 633.000
51.62931 578.000
51.64926 549.000
51.66920 580.000
51.68915 582.000
51.70910 568.000
51.72904 548.000
51.74899 573.000
51.76894 576.000
51.78888 579.000
51.80883 576.000
51.82878 571.000
51.84873 593.000
51.86867 502.000
51.88862 587.000
51.90857 551.000
51.92851 555.000
51.94846 594.000
51.96841 619.000
51.98835 563.000
52.00830 591.000
52.02825 576.000
52.04820 608.000
52.06814 579.000
52.08809 524.000
52.10804 603.000
52.12798 578.000
52.14793 598.000
52.16788 611.000
52.18782 581.000
52.20777 590.000
52.22772 594.000
52.24767 572.000
52.26761 535.000
52.28756 609.000
52.30751 526.000
52.32745 601.000
52.34740 598.000
52.36735 567.000
52.38729 596.000
52.40724 577.000
52.42719 597.000
52.44713 616.000
52.46708 600.000
52.48703 578.000
52.50698 616.000
52.52692 556.000
52.54687 571.000
52.56682 578.000
52.58676 526.000
52.60671 618.000
52.62666 602.000
52.64660 575.000
52.66655 613.000
52.68650 614.000
52.70645 616.000
52.72639 607.000
52.74634 644.000
52.76629 628.000
52.78623 678.000
52.80618 592.000
52.82613 602.000
52.84607 608.000
52.86602 646.000
52.88597 635.000
52.90591 587.000
52.92586 616.000
52.94581 590.000
52.96576 628.000
52.98570 630.000
53.00565 655.000
53.02560 629.000
53.04554 652.000
53.06549 715.000
53.08544 659.000
53.10538 696.000
53.12533 696.000
53.14528 710.000
53.16523 761.000
53.18517 723.000
53.20512 774.000
53.22507 781.000
53.24501 828.000
53.26496 771.000
53.28491 855.000
53.30485 756.000
53.32480 876.000
53.34475 813.000
53.36469 816.000
53.38464 855.000
53.40459 778.000
53.42454 794.000
53.44448 786.000
53.46443 736.000
53.48438 768.000
53.50432 789.000
53.52427 743.000
53.54422 739.000
53.56416 748.000
53.58411 705.000
53.60406 680.000
53.62401 674.000
53.64395 656.000
53.66390 632.000
53.68385 619.000
53.70379 594.000
53.72374 600.000
53.74369 624.000
53.76363 624.000
53.78358 636.000
53.80353 618.000
53.82348 620.000
53.84342 563.000
53.86337 598.000
53.88332 602.000
53.90326 574.000
53.92321 602.000
53.94316 567.000
53.96310 598.000
53.98305 548.000
54.00300 567.000
54.02294 562.000
54.04289 678.000
54.06284 567.000
54.08279 661.000
54.10273 572.000
54.12268 599.000
54.14263 586.000
54.16257 603.000
54.18252 623.000
54.20247 624.000
54.22241 628.000
54.24236 642.000
54.26231 586.000
54.28226 607.000
54.30220 622.000
54.32215 576.000
54.34210 595.000
54.36204 622.000
54.38199 628.000
54.40194 568.000
54.42188 588.000
54.44183 606.000
54.46178 619.000
54.48172 574.000
54.50167 578.000
54.52162 542.000
54.54157 561.000
54.56151 592.000
54.58146 570.000
54.60141 565.000
54.62135 570.000
54.64130 550.000
54.66125 631.000
54.68119 554.000
54.70114 601.000
54.72109 574.000
54.74104 609.000
54.76098 540.000
54.78093 582.000
54.80088 589.000
54.82082 563.000
54.84077 586.000
54.86072 576.000
54.88066 545.000
54.90061 558.000
54.92056 569.000
54.94050 570.000
54.96045 555.000
54.98040 627.000
55.00035 596.000
55.02029 542.000
55.04024 569.000
55.06019 584.000
55.08013 598.000
55.10008 596.000
55.12003 572.000
55.13997 565.000
55.15992 567.000
55.17987 547.000
55.19982 563.000
55.21976 571.000
55.23971 594.000
55.25966 598.000
55.27960 610.000
55.29955 551.000
55.31950 584.000
55.33944 571.000
55.35939 563.000
55.37934 582.000
55.39929 604.000
55.41923 584.000
55.43918 596.000
55.45913 576.000
55.47907 587.000
55.49902 602.000
55.51897 550.000
55.53891 556.000
55.55886 528.000
55.57881 588.000
55.59875 606.000
55.61870 603.000
55.63865 569.000
55.65860 557.000
55.67854 577.000
55.69849 607.000
55.71844 579.000
55.73838 557.000
55.75833 584.000
55.77828 565.000
55.79822 571.000
55.81817 579.000
55.83812 585.000
55.85807 622.000
55.87801 556.000
55.89796 573.000
55.91791 602.000
55.93785 609.000
55.95780 560.000
55.97775 590.000
55.99769 576.000
56.01764 608.000
56.03759 557.000
56.05753 562.000
56.07748 596.000
56.09743 623.000
56.11738 577.000
56.13732 551.000
56.15727 559.000
56.17722 600.000
56.19716 598.000
56.21711 575.000
56.23706 606.000
56.25700 555.000
56.27695 581.000
56.29690 563.000
56.31685 586.000
56.33679 594.000
56.35674 558.000
56.37669 550.000
56.39663 565.000
56.41658 584.000
56.43653 612.000
56.45647 632.000
56.47642 592.000
56.49637 572.000
56.51631 579.000
56.53626 613.000
56.55621 601.000
56.57616 557.000
56.59610 590.000
56.61605 552.000
56.63600 606.000
56.65594 571.000
56.67589 573.000
56.69584 584.000
56.71578 605.000
56.73573 615.000
56.75568 616.000
56.77563 549.000
56.79557 554.000
56.81552 568.000
56.83547 600.000
56.85541 618.000
56.87536 588.000
56.89531 620.000
56.91525 593.000
56.93520 608.000
56.95515 571.000
56.97510 603.000
56.99504 600.000
57.01499 578.000
57.03494 620.000
57.05488 601.000
57.07483 598.000
57.09478 577.000
57.11472 575.000
57.13467 571.000
57.15462 627.000
57.17456 580.000
57.19451 627.000
57.21446 590.000
57.23441 629.000
57.25435 631.000
57.27430 639.000
57.29425 638.000
57.31419 585.000
57.33414 603.000
57.35409 601.000
57.37403 574.000
57.39398 553.000
57.41393 622.000
57.43388 629.000
57.45382 606.000
57.47377 554.000
57.49372 669.000
57.51366 601.000
57.53361 615.000
57.55356 619.000
57.57350 619.000
57.59345 698.000
57.61340 613.000
57.63334 723.000
57.65329 707.000
57.67324 713.000
57.69319 697.000
57.71313 663.000
57.73308 702.000
57.75303 741.000
57.77297 730.000
57.79292 719.000
57.81287 718.000
57.83281 741.000
57.85276 768.000
57.87271 731.000
57.89266 766.000
57.91260 746.000
57.93255 752.000
57.95250 745.000
57.97244 759.000
57.99239 746.000
58.01234 773.000
58.03228 809.000
58.05223 854.000
58.07218 843.000
58.09212 937.000
58.11207 913.000
58.13202 987.000
58.15197 1111.000
58.17191 1175.000
58.19186 1074.000
58.21181 1110.000
58.23175 1084.000
58.25170 1003.000
58.27165 1026.000
58.29159 1025.000
58.31154 977.000
58.33149 961.000
58.35144 925.000
58.37138 837.000
58.39133 862.000
58.41128 773.000
58.43122 776.000
58.45117 678.000
58.47112 683.000
58.49106 681.000
58.51101 690.000
58.53096 623.000
58.55090 640.000
58.57085 673.000
58.59080 623.000
58.61075 594.000
58.63069 639.000
58.65064 626.000
58.67059 589.000
58.69053 606.000
58.71048 595.000
58.73043 558.000
58.75037 594.000
58.77032 609.000
58.79027 620.000
58.81022 603.000
58.83016 620.000
58.85011 604.000
58.87006 601.000
58.89000 596.000
58.90995 560.000
58.92990 628.000
58.94984 522.000
58.96979 572.000
58.98974 603.000
59.00969 560.000
59.02963 566.000
59.04958 580.000
59.06953 592.000
59.08947 620.000
59.10942 577.000
59.12937 559.000
59.14931 577.000
59.16926 590.000
59.18921 574.000
59.20915 589.000
59.22910 572.000
59.24905 563.000
59.26900 548.000
59.28894 569.000
59.30889 576.000
59.32884 551.000
59.34878 556.000
59.36873 581.000
59.38868 601.000
59.40862 584.000
59.42857 576.000
59.44852 583.000
59.46847 566.000
59.48841 541.000
59.50836 549.000
59.52831 565.000
59.54825 575.000
59.56820 573.000
59.58815 535.000
59.60809 586.000
59.62804 590.000
59.64799 614.000
59.66793 581.000
59.68788 558.000
59.70783 594.000
59.72778 592.000
59.74772 567.000
59.76767 627.000
59.78762 576.000
59.80756 586.000
59.82751 550.000
59.84746 576.000
59.86740 594.000
59.88735 583.000
59.90730 578.000
59.92725 575.000
59.94719 591.000
59.96714 537.000
59.98709 607.000
60.00703 588.000
60.02698 552.000
60.04693 586.000
60.06687 584.000
60.08682 605.000
60.10677 562.000
60.12671 570.000
60.14666 591.000
60.16661 631.000
60.18656 597.000
60.20650 603.000
60.22645 565.000
60.24640 634.000
60.26634 620.000
60.28629 585.000
60.30624 576.000
60.32618 607.000
60.34613 586.000
60.36608 559.000
60.38603 588.000
60.40597 566.000
60.42592 584.000
60.44587 581.000
60.46581 604.000
60.48576 597.000
60.50571 625.000
60.52565 550.000
60.54560 623.000
60.56555 580.000
60.58550 592.000
60.60544 621.000
60.62539 564.000
60.64534 619.000
60.66528 607.000
60.68523 522.000
60.70518 566.000
60.72512 610.000
60.74507 591.000
60.76502 548.000
60.78496 598.000
60.80491 605.000
60.82486 587.000
60.84481 609.000
60.86475 637.000
60.88470 591.000
60.90465 607.000
60.92459 591.000
60.94454 604.000
60.96449 639.000
60.98443 611.000
61.00438 570.000
61.02433 598.000
61.04428 645.000
61.06422 615.000
61.08417 587.000
61.10412 618.000
61.12406 618.000
61.14401 622.000
61.16396 610.000
61.18390 668.000
61.20385 654.000
61.22380 647.000
61.24374 684.000
61.26369 688.000
61.28364 663.000
61.30359 733.000
61.32353 742.000
61.34348 780.000
61.36343 804.000
61.38337 908.000
61.40332 865.000
61.42327 1015.000
61.44321 1143.000
61.46316 1255.000
61.48311 1297.000
61.50306 1406.000
61.52300 1282.000
61.54295 1411.000
61.56290 1323.000
61.58284 1213.000
61.60279 1157.000
61.62274 1128.000
61.64268 1115.000
61.66263 1145.000
61.68258 1178.000
61.70252 1129.000
61.72247 989.000
61.74242 994.000
61.76237 911.000
61.78231 864.000
61.80226 764.000
61.82221 880.000
61.84215 793.000
61.86210 706.000
61.88205 774.000
61.90199 862.000
61.92194 801.000
61.94189 840.000
61.96184 816.000
61.98178 768.000
62.00173 823.000
62.02168 826.000
62.04162 846.000
62.06157 778.000
62.08152 709.000
62.10146 739.000
62.12141 745.000
62.14136 764.000
62.16131 694.000
62.18125 769.000
62.20120 688.000
62.22115 691.000
62.24109 710.000
62.26104 677.000
62.28099 652.000
62.30093 610.000
62.32088 666.000
62.34083 669.000
62.36077 690.000
62.38072 707.000
62.40067 759.000
62.42062 684.000
62.44056 670.000
62.46051 714.000
62.48046 714.000
62.50040 711.000
62.52035 793.000
62.54030 815.000
62.56024 895.000
62.58019 891.000
62.60014 958.000
62.62009 934.000
62.64003 1081.000
62.65998 1063.000
62.67993 1108.000
62.69987 1047.000
62.71982 986.000
62.73977 972.000
62.75971 964.000
62.77966 910.000
62.79961 929.000
62.81955 919.000
62.83950 880.000
62.85945 855.000
62.87940 850.000
62.89934 877.000
62.91929 750.000
62.93924 758.000
62.95918 728.000
62.97913 708.000
62.99908 677.000
63.01902 661.000
63.03897 664.000
63.05892 610.000
63.07887 665.000
63.09881 630.000
63.11876 651.000
63.13871 663.000
63.15865 655.000
63.17860 628.000
63.19855 616.000
63.21849 650.000
63.23844 600.000
63.25839 636.000
63.27833 695.000
63.29828 640.000
63.31823 689.000
63.33818 705.000
63.35812 731.000
63.37807 711.000
63.39802 704.000
63.41796 717.000
63.43791 699.000
63.45786 705.000
63.47780 697.000
63.49775 707.000
63.51770 748.000
63.53765 733.000
63.55759 712.000
63.57754 719.000
63.59749 695.000
63.61743 760.000
63.63738 726.000
63.65733 677.000
63.67727 697.000
63.69722 635.000
63.71717 699.000
63.73712 597.000
63.75706 655.000
63.77701 642.000
63.79696 628.000
63.81690 597.000
63.83685 627.000
63.85680 616.000
63.87674 638.000
63.89669 590.000
63.91664 576.000
63.93658 615.000
63.95653 639.000
63.97648 589.000
63.99643 592.000
64.01637 602.000
64.03632 607.000
64.05627 598.000
64.07621 640.000
64.09616 645.000
64.11611 588.000
64.13605 624.000
64.15600 582.000
64.17595 579.000
64.19590 605.000
64.21584 622.000
64.23579 629.000
64.25574 618.000
64.27568 607.000
64.29563 666.000
64.31558 655.000
64.33552 620.000
64.35547 624.000
64.37542 667.000
64.39536 666.000
64.41531 648.000
64.43526 691.000
64.45521 625.000
64.47515 661.000
64.49510 726.000
64.51505 690.000
64.53499 735.000
64.55494 790.000
64.57489 828.000
64.59483 789.000
64.61478 843.000
64.63473 765.000
64.65468 784.000
64.67462 761.000
64.69457 792.000
64.71452 712.000
64.73446 707.000
64.75441 718.000
64.77436 744.000
64.79430 743.000
64.81425 704.000
64.83420 661.000
64.85414 677.000
64.87409 646.000
64.89404 623.000
64.91399 657.000
64.93393 635.000
64.95388 650.000
64.97383 658.000
64.99377 647.000
65.01372 598.000
65.03367 614.000
65.05361 586.000
65.07356 662.000
65.09351 637.000
65.11346 662.000
65.13340 649.000
65.15335 616.000
65.17330 625.000
65.19324 620.000
65.21319 639.000
65.23314 676.000
65.25308 677.000
65.27303 673.000
65.29298 690.000
65.31293 686.000
65.33287 723.000
65.35282 696.000
65.37277 694.000
65.39271 736.000
65.41266 756.000
65.43261 756.000
65.45255 773.000
65.47250 813.000
65.49245 811.000
65.51239 951.000
65.53234 930.000
65.55229 949.000
65.57224 926.000
65.59218 941.000
65.61213 968.000
65.63208 1003.000
65.65202 919.000
65.67197 960.000
65.69192 970.000
65.71186 966.000
65.73181 946.000
65.75176 1022.000
65.77171 890.000
65.79165 932.000
65.81160 871.000
65.83155 919.000
65.85149 923.000
65.87144 860.000
65.89139 829.000
65.91133 845.000
65.93128 771.000
65.95123 785.000
65.97117 796.000
65.99112 730.000
66.01107 765.000
66.03102 748.000
66.05096 693.000
66.07091 772.000
66.09086 811.000
66.11080 800.000
66.13075 803.000
66.15070 792.000
66.17064 882.000
66.19059 908.000
66.21054 954.000
66.23049 1019.000
66.25043 1059.000
66.27038 1111.000
66.29033 1076.000
66.31027 1146.000
66.33022 1190.000
66.35017 1085.000
66.37011 1141.000
66.39006 1066.000
66.41001 1035.000
66.42995 959.000
66.44990 1067.000
66.46985 1037.000
66.48980 941.000
66.50974 984.000
66.52969 945.000
66.54964 881.000
66.56958 830.000
66.58953 811.000
66.60948 792.000
66.62942 759.000
66.64937 788.000
66.66932 765.000
66.68927 739.000
66.70921 727.000
66.72916 689.000
66.74911 708.000
66.76905 701.000
66.78900 711.000
66.80895 690.000
66.82889 658.000
66.84884 715.000
66.86879 729.000
66.88874 718.000
66.90868 772.000
66.92863 795.000
66.94858 812.000
66.96852 776.000
66.98847 733.000
67.00842 810.000
67.02836 713.000
67.04831 743.000
67.06826 733.000
67.08820 719.000
67.10815 758.000
67.12810 695.000
67.14805 737.000
67.16799 721.000
67.18794 663.000
67.20789 682.000
67.22783 695.000
67.24778 684.000
67.26773 683.000
67.28767 655.000
67.30762 616.000
67.32757 650.000
67.34752 663.000
67.36746 659.000
67.38741 701.000
67.40736 697.000
67.42730 688.000
67.44725 627.000
67.46720 688.000
67.48714 656.000
67.50709 633.000
67.52704 683.000
67.54698 752.000
67.56693 728.000
67.58688 723.000
67.60683 813.000
67.62677 755.000
67.64672 830.000
67.66667 843.000
67.68661 877.000
67.70656 909.000
67.72651 937.000
67.74645 978.000
67.76640 970.000
67.78635 923.000
67.80630 980.000
67.82624 979.000
67.84619 995.000
67.86614 1082.000
67.88608 1051.000
67.90603 1139.000
67.92598 1162.000
67.94592 1136.000
67.96587 1174.000
67.98582 1177.000
68.00576 1089.000
68.02571 1074.000
68.04566 1074.000
68.06561 1026.000
68.08555 996.000
68.10550 988.000
68.12545 918.000
68.14539 926.000
68.16534 929.000
68.18529 898.000
68.20523 849.000
68.22518 853.000
68.24513 794.000
68.26508 787.000
68.28502 803.000
68.30497 698.000
68.32492 696.000
68.34486 695.000
68.36481 676.000
68.38476 667.000
68.40470 619.000
68.42465 676.000
68.44460 599.000
68.46455 605.000
68.48449 590.000
68.50444 582.000
68.52439 668.000
68.54433 608.000
68.56428 633.000
68.58423 600.000
68.60417 580.000
68.62412 582.000
68.64407 592.000
68.66401 616.000
68.68396 590.000
68.70391 635.000
68.72386 613.000
68.74380 635.000
68.76375 579.000
68.78370 601.000
68.80364 601.000
68.82359 543.000
68.84354 581.000
68.86348 583.000
68.88343 588.000
68.90338 588.000
68.92333 575.000
68.94327 551.000
68.96322 575.000
68.98317 613.000
69.00311 616.000
69.02306 594.000
69.04301 585.000
69.06295 569.000
69.08290 575.000
69.10285 612.000
69.12279 582.000
69.14274 595.000
69.16269 567.000
69.18264 567.000
69.20258 560.000
69.22253 562.000
69.24248 562.000
69.26242 587.000
69.28237 559.000
69.30232 510.000
69.32226 574.000
69.34221 545.000
69.36216 554.000
69.38211 616.000
69.40205 547.000
69.42200 555.000
69.44195 556.000
69.46189 645.000
69.48184 560.000
69.50179 565.000
69.52173 559.000
69.54168 546.000
69.56163 582.000
69.58157 549.000
69.60152 626.000
69.62147 603.000
69.64142 562.000
69.66136 566.000
69.68131 541.000
69.70126 577.000
69.72120 588.000
69.74115 611.000
69.76110 612.000
69.78104 510.000
69.80099 556.000
69.82094 546.000
69.84089 560.000
69.86083 556.000
69.88078 577.000
69.90073 588.000
69.92067 567.000
69.94062 608.000
69.96057 580.000
69.98051 595.000
70.00046 588.000
70.02041 574.000
70.04035 573.000
70.06030 553.000
70.08025 554.000
70.10020 615.000
70.12014 601.000
70.14009 559.000
70.16004 536.000
70.17998 604.000
70.19993 578.000
70.21988 598.000
70.23982 603.000
70.25977 555.000
70.27972 551.000
70.29967 586.000
70.31961 574.000
70.33956 603.000
70.35951 543.000
70.37945 532.000
70.39940 558.000
70.41935 593.000
70.43929 580.000
70.45924 544.000
70.47919 586.000
70.49914 571.000
70.51908 573.000
70.53903 551.000
70.55898 570.000
70.57892 571.000
70.59887 596.000
70.61882 564.000
70.63876 544.000
70.65871 570.000
70.67866 596.000
70.69860 573.000
70.71855 586.000
70.73850 570.000
70.75845 565.000
70.77839 581.000
70.79834 575.000
70.81829 582.000
70.83823 567.000
70.85818 578.000
70.87813 522.000
70.89807 598.000
70.91802 564.000
70.93797 566.000
70.95792 579.000
70.97786 601.000
70.99781 572.000
71.01776 554.000
71.03770 602.000
71.05765 561.000
71.07760 568.000
71.09754 573.000
71.11749 599.000
71.13744 577.000
71.15738 543.000
71.17733 588.000
71.19728 585.000
71.21723 576.000
71.23717 539.000
71.25712 570.000
71.27707 576.000
71.29701 590.000
71.31696 564.000
71.33691 601.000
71.35685 535.000
71.37680 574.000
71.39675 562.000
71.41670 547.000
71.43664 589.000
71.45659 626.000
71.47654 570.000
71.49648 631.000
71.51643 584.000
71.53638 565.000
71.55632 605.000
71.57627 613.000
71.59622 595.000
71.61616 607.000
71.63611 596.000
71.65606 630.000
71.67601 588.000
71.69595 598.000
71.71590 600.000
71.73585 592.000
71.75579 594.000
71.77574 580.000
71.79569 613.000
71.81563 573.000
71.83558 619.000
71.85553 577.000
71.87548 593.000
71.89542 618.000
71.91537 616.000
71.93532 601.000
71.95526 623.000
71.97521 594.000
71.99516 639.000
72.01510 617.000
72.03505 607.000
72.05500 634.000
72.07495 588.000
72.09489 603.000
72.11484 622.000
72.13479 686.000
72.15473 711.000
72.17468 644.000
72.19463 696.000
72.21457 722.000
72.23452 721.000
72.25447 697.000
72.27441 734.000
72.29436 759.000
72.31431 830.000
72.33426 863.000
72.35420 848.000
72.37415 812.000
72.39410 763.000
72.41404 788.000
72.43399 800.000
72.45394 806.000
72.47388 780.000
72.49383 756.000
72.51378 683.000
72.53373 691.000
72.55367 702.000
72.57362 681.000
72.59357 688.000
72.61351 678.000
72.63346 700.000
72.65341 638.000
72.67335 637.000
72.69330 625.000
72.71325 661.000
72.73319 585.000
72.75314 604.000
72.77309 607.000
72.79304 670.000
72.81298 618.000
72.83293 591.000
72.85288 590.000
72.87282 599.000
72.89277 642.000
72.91272 599.000
72.93266 587.000
72.95261 592.000
72.97256 624.000
72.99251 570.000
73.01245 541.000
73.03240 542.000
73.05235 574.000
73.07229 559.000
73.09224 570.000
73.11219 612.000
73.13213 600.000
73.15208 603.000
73.17203 566.000
73.19197 559.000
73.21192 577.000
73.23187 595.000
73.25182 566.000
73.27176 589.000
73.29171 598.000
73.31166 560.000
73.33160 597.000
73.35155 603.000
73.37150 589.000
73.39144 555.000
73.41139 538.000
73.43134 588.000
73.45129 608.000
73.47123 601.000
73.49118 592.000
73.51113 627.000
73.53107 609.000
73.55102 612.000
73.57097 537.000
73.59091 591.000
73.61086 571.000
73.63081 606.000
73.65076 577.000
73.67070 608.000
73.69065 582.000
73.71060 598.000
73.73054 609.000
73.75049 603.000
73.77044 611.000
73.79038 641.000
73.81033 592.000
73.83028 667.000
73.85022 612.000
73.87017 624.000
73.89012 606.000
73.91007 625.000
73.93001 602.000
73.94996 644.000
73.96991 627.000
73.98985 606.000
74.00980 639.000
74.02975 621.000
74.04969 611.000
74.06964 601.000
74.08959 625.000
74.10954 615.000
74.12948 618.000
74.14943 631.000
74.16938 585.000
74.18932 625.000
74.20927 569.000
74.22922 611.000
74.24916 583.000
74.26911 594.000
74.28906 646.000
74.30900 548.000
74.32895 583.000
74.34890 585.000
74.36885 595.000
74.38879 582.000
74.40874 586.000
74.42869 581.000
74.44863 577.000
74.46858 580.000
74.48853 592.000
74.50847 613.000
74.52842 649.000
74.54837 667.000
74.56832 591.000
74.58826 586.000
74.60821 617.000
74.62816 623.000
74.64810 620.000
74.66805 640.000
74.68800 580.000
74.70794 690.000
74.72789 654.000
74.74784 634.000
74.76778 706.000
74.78773 679.000
74.80768 718.000
74.82763 808.000
74.84757 755.000
74.86752 824.000
74.88747 899.000
74.90741 874.000
74.92736 925.000
74.94731 899.000
74.96725 872.000
74.98720 862.000
75.00715 849.000
75.02710 867.000
75.04704 855.000
75.06699 874.000
75.08694 885.000
75.10688 991.000
75.12683 1000.000
75.14678 1042.000
75.16672 1027.000
75.18667 968.000
75.20662 964.000
75.22657 971.000
75.24651 921.000
75.26646 959.000
75.28641 855.000
75.30635 841.000
75.32630 846.000
75.34625 815.000
75.36619 774.000
75.38614 814.000
75.40609 803.000
75.42603 799.000
75.44598 740.000
75.46593 764.000
75.48588 724.000
75.50582 623.000
75.52577 679.000
75.54572 711.000
75.56566 679.000
75.58561 651.000
75.60556 607.000
75.62550 633.000
75.64545 645.000
75.66540 640.000
75.68535 640.000
75.70529 614.000
75.72524 600.000
75.74519 583.000
75.76513 575.000
75.78508 564.000
75.80503 572.000
75.82497 588.000
75.84492 583.000
75.86487 630.000
75.88481 601.000
75.90476 589.000
75.92471 596.000
75.94466 562.000
75.96460 581.000
75.98455 622.000
76.00450 595.000
76.02444 616.000
76.04439 604.000
76.06434 576.000
76.08428 636.000
76.10423 624.000
76.12418 550.000
76.14413 604.000
76.16407 610.000
76.18402 585.000
76.20397 597.000
76.22391 613.000
76.24386 590.000
76.26381 621.000
76.28375 608.000
76.30370 603.000
76.32365 608.000
76.34359 679.000
76.36354 599.000
76.38349 581.000
76.40344 630.000
76.42338 598.000
76.44333 584.000
76.46328 576.000
76.48322 546.000
76.50317 621.000
76.52312 583.000
76.54306 564.000
76.56301 559.000
76.58296 588.000
76.60291 562.000
76.62285 592.000
76.64280 593.000
76.66275 584.000
76.68269 547.000
76.70264 560.000
76.72259 532.000
76.74253 573.000
76.76248 546.000
76.78243 599.000
76.80238 574.000
76.82232 574.000
76.84227 554.000
76.86222 585.000
76.88216 564.000
76.90211 563.000
76.92206 597.000
76.94200 568.000
76.96195 601.000
76.98190 619.000
77.00184 524.000
77.02179 583.000
77.04174 577.000
77.06169 553.000
77.08163 572.000
77.10158 590.000
77.12153 501.000
77.14147 581.000
77.16142 529.000
77.18137 514.000
77.20131 539.000
77.22126 598.000
77.24121 571.000
77.26116 576.000
77.28110 574.000
77.30105 591.000
77.32100 551.000
77.34094 592.000
77.36089 557.000
77.38084 620.000
77.40078 565.000
77.42073 564.000
77.44068 578.000
77.46062 586.000
77.48057 571.000
77.50052 560.000
77.52047 552.000
77.54041 550.000
77.56036 613.000
77.58031 547.000
77.60025 565.000
77.62020 548.000
77.64015 594.000
77.66009 612.000
77.68004 615.000
77.69999 590.000
77.71994 601.000
77.73988 564.000
77.75983 575.000
77.77978 536.000
77.79972 537.000
77.81967 638.000
77.83962 563.000
77.85956 540.000
77.87951 609.000
77.89946 587.000
77.91940 562.000
77.93935 555.000
77.95930 606.000
77.97925 573.000
77.99919 584.000
78.01914 618.000
78.03909 570.000
78.05903 612.000
78.07898 600.000
78.09893 615.000
78.11887 631.000
78.13882 631.000
78.15877 640.000
78.17872 569.000
78.19866 656.000
78.21861 613.000
78.23856 643.000
78.25850 617.000
78.27845 645.000
78.29840 604.000
78.31834 614.000
78.33829 646.000
78.35824 627.000
78.37819 648.000
78.39813 636.000
78.41808 660.000
78.43803 602.000
78.45797 657.000
78.47792 658.000
78.49787 589.000
78.51781 623.000
78.53776 585.000
78.55771 557.000
78.57765 614.000
78.59760 600.000
78.61755 620.000
78.63750 598.000
78.65744 594.000
78.67739 656.000
78.69734 561.000
78.71728 556.000
78.73723 597.000
78.75718 581.000
78.77712 607.000
78.79707 564.000
78.81702 556.000
78.83697 602.000
78.85691 579.000
78.87686 624.000
78.89681 630.000
78.91675 651.000
78.93670 579.000
78.95665 659.000
78.97659 591.000
78.99654 607.000
79.01649 612.000
79.03643 669.000
79.05638 633.000
79.07633 731.000
79.09628 676.000
79.11622 656.000
79.13617 631.000
79.15612 664.000
79.17606 659.000
79.19601 666.000
79.21596 623.000
79.23590 666.000
79.25585 607.000
79.27580 608.000
79.29575 624.000
79.31569 665.000
79.33564 658.000
79.35559 594.000
79.37553 613.000
79.39548 653.000
79.41543 645.000
79.43537 638.000
79.45532 600.000
79.47527 615.000
79.49521 606.000
79.51516 618.000
79.53511 570.000
79.55506 598.000
79.57500 586.000
79.59495 577.000
79.61490 561.000
79.63484 587.000
79.65479 574.000
79.67474 531.000
79.69468 583.000
79.71463 626.000
79.73458 610.000
79.75453 574.000
79.77447 546.000
79.79442 562.000
79.81437 557.000
79.83431 570.000
79.85426 587.000
79.87421 606.000
79.89415 576.000
79.91410 581.000
79.93405 608.000
79.95399 601.000
79.97394 560.000
79.99389 550.000
80.01384 580.000
80.03378 574.000
80.05373 584.000
80.07368 639.000
80.09362 630.000
80.11357 603.000
80.13352 601.000
80.15346 615.000
80.17341 684.000
80.19336 600.000
80.21331 615.000
80.23325 624.000
80.25320 649.000
80.27315 677.000
80.29309 690.000
80.31304 656.000
80.33299 667.000
80.35293 605.000
80.37288 626.000
80.39283 607.000
80.41278 637.000
80.43272 614.000
80.45267 561.000
80.47262 661.000
80.49256 619.000
80.51251 617.000
80.53246 605.000
80.55240 608.000
80.57235 545.000
80.59230 599.000
80.61224 586.000
80.63219 573.000
80.65214 576.000
80.67209 624.000
80.69203 543.000
80.71198 568.000
80.73193 579.000
80.75187 584.000
80.77182 548.000
80.79177 571.000
80.81171 572.000
80.83166 523.000
80.85161 587.000
80.87156 562.000
80.89150 556.000
80.91145 550.000
80.93140 564.000
80.95134 569.000
80.97129 586.000
80.99124 583.000
81.01118 505.000
81.03113 558.000
81.05108 558.000
81.07102 581.000
81.09097 563.000
81.11092 558.000
81.13087 562.000
81.15081 526.000
81.17076 579.000
81.19071 566.000
81.21065 598.000
81.23060 583.000
81.25055 592.000
81.27049 603.000
81.29044 551.000
81.31039 613.000
81.33034 573.000
81.35028 593.000
81.37023 582.000
81.39018 569.000
81.41012 500.000
81.43007 562.000
81.45002 565.000
81.46996 583.000
81.48991 574.000
81.50986 547.000
81.52980 549.000
81.54975 575.000
81.56970 568.000
81.58965 626.000
81.60959 584.000
81.62954 607.000
81.64949 572.000
81.66943 577.000
81.68938 589.000
81.70933 579.000
81.72927 562.000
81.74922 572.000
81.76917 614.000
81.78912 585.000
81.80906 549.000
81.82901 576.000
81.84896 534.000
81.86890 548.000
81.88885 557.000
81.90880 544.000
81.92874 549.000
81.94869 585.000
81.96864 557.000
81.98859 546.000
82.00853 597.000
82.02848 592.000
82.04843 604.000
82.06837 562.000
82.08832 569.000
82.10827 590.000
82.12821 573.000
82.14816 564.000
82.16811 573.000
82.18805 600.000
82.20800 578.000
82.22795 602.000
82.24790 610.000
82.26784 603.000
82.28779 636.000
82.30774 639.000
82.32768 599.000
82.34763 661.000
82.36758 630.000
82.38752 656.000
82.40747 684.000
82.42742 671.000
82.44737 693.000
82.46731 682.000
82.48726 709.000
82.50721 717.000
82.52715 768.000
82.54710 682.000
82.56705 691.000
82.58699 732.000
82.60694 733.000
82.62689 723.000
82.64683 658.000
82.66678 698.000
82.68673 682.000
82.70668 738.000
82.72662 692.000
82.74657 774.000
82.76652 762.000
82.78646 715.000
82.80641 695.000
82.82636 693.000
82.84630 759.000
82.86625 746.000
82.88620 713.000
82.90615 684.000
82.92609 721.000
82.94604 676.000
82.96599 665.000
82.98593 674.000
83.00588 709.000
83.02583 689.000
83.04577 656.000
83.06572 646.000
83.08567 698.000
83.10561 689.000
83.12556 670.000
83.14551 647.000
83.16546 638.000
83.18540 595.000
83.20535 670.000
83.22530 667.000
83.24524 622.000
83.26519 605.000
83.28514 595.000
83.30508 675.000
83.32503 646.000
83.34498 611.000
83.36493 630.000
83.38487 636.000
83.40482 646.000
83.42477 628.000
83.44471 623.000
83.46466 635.000
83.48461 623.000
83.50455 649.000
83.52450 641.000
83.54445 611.000
83.56440 586.000
83.58434 650.000
83.60429 621.000
83.62424 631.000
83.64418 655.000
83.66413 681.000
83.68408 644.000
83.70402 675.000
83.72397 658.000
83.74392 662.000
83.76386 661.000
83.78381 648.000
83.80376 656.000
83.82371 648.000
83.84365 647.000
83.86360 663.000
83.88355 696.000
83.90349 633.000
83.92344 648.000
83.94339 642.000
83.96333 601.000
83.98328 632.000
84.00323 626.000
84.02318 621.000
84.04312 626.000
84.06307 646.000
84.08302 586.000
84.10296 593.000
84.12291 618.000
84.14286 591.000
84.16280 566.000
84.18275 586.000
84.20270 614.000
84.22264 594.000
84.24259 608.000
84.26254 631.000
84.28249 603.000
84.30243 636.000
84.32238 566.000
84.34233 580.000
84.36227 572.000
84.38222 569.000
84.40217 560.000
84.42211 598.000
84.44206 610.000
84.46201 568.000
84.48196 585.000
84.50190 556.000
84.52185 584.000
84.54180 582.000
84.56174 598.000
84.58169 599.000
84.60164 563.000
84.62158 590.000
84.64153 588.000
84.66148 548.000
84.68142 569.000
84.70137 555.000
84.72132 595.000
84.74127 622.000
84.76121 583.000
84.78116 613.000
84.80111 625.000
84.82105 574.000
84.84100 613.000
84.86095 609.000
84.88089 626.000
84.90084 642.000
84.92079 597.000
84.94074 571.000
84.96068 606.000
84.98063 609.000
85.00058 620.000
85.02052 594.000
85.04047 612.000
85.06042 606.000
85.08036 583.000
85.10031 631.000
85.12026 568.000
85.14021 580.000
85.16015 602.000
85.18010 572.000
85.20005 569.000
85.21999 611.000
85.23994 595.000
85.25989 565.000
85.27983 601.000
85.29978 625.000
85.31973 600.000
85.33967 580.000
85.35962 584.000
85.37957 608.000
85.39952 576.000
85.41946 563.000
85.43941 579.000
85.45936 593.000
85.47930 602.000
85.49925 575.000
85.51920 620.000
85.53914 614.000
85.55909 544.000
85.57904 575.000
85.59899 568.000
85.61893 506.000
85.63888 562.000
85.65883 523.000
85.67877 599.000
85.69872 569.000
85.71867 591.000
85.73861 589.000
85.75856 551.000
85.77851 532.000
85.79845 565.000
85.81840 548.000
85.83835 544.000
85.85830 526.000
85.87824 569.000
85.89819 550.000
85.91814 618.000
85.93808 590.000
85.95803 569.000
85.97798 580.000
85.99792 551.000
86.01787 573.000
86.03782 544.000
86.05777 593.000
86.07771 572.000
86.09766 557.000
86.11761 588.000
86.13755 548.000
86.15750 549.000
86.17745 594.000
86.19739 573.000
86.21734 588.000
86.23729 571.000
86.25723 573.000
86.27718 575.000
86.29713 574.000
86.31708 599.000
86.33702 546.000
86.35697 574.000
86.37692 575.000
86.39686 611.000
86.41681 574.000
86.43676 585.000
86.45670 504.000
86.47665 612.000
86.49660 568.000
86.51655 532.000
86.53649 607.000
86.55644 643.000
86.57639 584.000
86.59633 533.000
86.61628 647.000
86.63623 595.000
86.65617 577.000
86.67612 561.000
86.69607 637.000
86.71602 577.000
86.73596 623.000
86.75591 640.000
86.77586 595.000
86.79580 587.000
86.81575 592.000
86.83570 614.000
86.85564 647.000
86.87559 620.000
86.89554 574.000
86.91548 661.000
86.93543 619.000
86.95538 617.000
86.97533 581.000
86.99527 634.000
87.01522 600.000
87.03517 603.000
87.05511 596.000
87.07506 609.000
87.09501 594.000
87.11495 588.000
87.13490 555.000
87.15485 591.000
87.17480 591.000
87.19474 566.000
87.21469 606.000
87.23464 599.000
87.25458 587.000
87.27453 594.000
87.29448 566.000
87.31442 567.000
87.33437 544.000
87.35432 634.000
87.37426 566.000
87.39421 580.000
87.41416 542.000
87.43411 597.000
87.45405 591.000
87.47400 570.000
87.49395 579.000
87.51389 578.000
87.53384 538.000
87.55379 574.000
87.57373 561.000
87.59368 576.000
87.61363 543.000
87.63358 561.000
87.65352 569.000
87.67347 569.000
87.69342 581.000
87.71336 559.000
87.73331 617.000
87.75326 595.000
87.77320 598.000
87.79315 602.000
87.81310 586.000
87.83304 603.000
87.85299 553.000
87.87294 570.000
87.89289 597.000
87.91283 574.000
87.93278 548.000
87.95273 550.000
87.97267 601.000
87.99262 596.000
88.01257 576.000
88.03251 612.000
88.05246 614.000
88.07241 550.000
88.09236 589.000
88.11230 602.000
88.13225 535.000
88.15220 588.000
88.17214 620.000
88.19209 587.000
88.21204 564.000
88.23198 574.000
88.25193 573.000
88.27188 591.000
88.29183 563.000
88.31177 577.000
88.33172 574.000
88.35167 574.000
88.37161 579.000
88.39156 565.000
88.41151 581.000
88.43145 568.000
88.45140 569.000
88.47135 563.000
88.49129 586.000
88.51124 590.000
88.53119 597.000
88.55114 573.000
88.57108 594.000
88.59103 591.000
88.61098 606.000
88.63092 559.000
88.65087 547.000
88.67082 580.000
88.69076 621.000
88.71071 552.000
88.73066 617.000
88.75061 591.000
88.77055 567.000
88.79050 570.000
88.81045 614.000
88.83039 569.000
88.85034 579.000
88.87029 594.000
88.89023 569.000
88.91018 584.000
88.93013 585.000
88.95007 590.000
88.97002 589.000
88.98997 607.000
89.00992 613.000
89.02986 527.000
89.04981 594.000
89.06976 635.000
89.08970 639.000
89.10965 607.000
89.12960 583.000
89.14954 607.000
89.16949 594.000
89.18944 630.000
89.20939 630.000
89.22933 642.000
89.24928 581.000
89.26923 655.000
89.28917 591.000
89.30912 594.000
89.32907 616.000
89.34901 666.000
89.36896 606.000
89.38891 626.000
89.40885 585.000
89.42880 664.000
89.44875 623.000
89.46870 625.000
89.48864 675.000
89.50859 644.000
89.52854 665.000
89.54848 632.000
89.56843 672.000
89.58838 673.000
89.60832 649.000
89.62827 615.000
89.64822 626.000
89.66817 652.000
89.68811 618.000
89.70806 667.000
89.72801 688.000
89.74795 647.000
89.76790 680.000
89.78785 641.000
89.80779 630.000
89.82774 639.000
89.84769 654.000
89.86764 598.000
89.88758 623.000
89.90753 667.000
89.92748 640.000
89.94742 583.000
89.96737 644.000
89.98732 591.000
90.00726 612.000
