10.00000 74.000
10.01995 73.000
10.03989 67.000
10.05984 74.000
10.07979 63.000
10.09973 77.000
10.11968 93.000
10.13963 69.000
10.15958 71.000
10.17952 88.000
10.19947 86.000
10.21942 57.000
10.23936 60.000
10.25931 69.000
10.27926 64.000
10.29920 60.000
10.31915 69.000
10.33910 59.000
10.35905 64.000
10.37899 59.000
10.39894 63.000
10.41889 67.000
10.43883 63.000
10.45878 63.000
10.47873 75.000
10.49867 57.000
10.51862 73.000
10.53857 64.000
10.55851 69.000
10.57846 63.000
10.59841 61.000
10.61836 46.000
10.63830 72.000
10.65825 76.000
10.67820 73.000
10.69814 63.000
10.71809 64.000
10.73804 66.000
10.75798 76.000
10.77793 67.000
10.79788 74.000
10.81783 65.000
10.83777 69.000
10.85772 68.000
10.87767 58.000
10.89761 69.000
10.91756 66.000
10.93751 69.000
10.95745 80.000
10.97740 73.000
10.99735 61.000
11.01730 76.000
11.03724 75.000
11.05719 67.000
11.07714 64.000
11.09708 66.000
11.11703 65.000
11.13698 78.000
11.15692 70.000
11.17687 66.000
11.19682 73.000
11.21676 53.000
11.23671 61.000
11.25666 53.000
11.27661 73.000
11.29655 53.000
11.31650 63.000
11.33645 61.000
11.35639 61.000
11.37634 84.000
11.39629 70.000
11.41623 75.000
11.43618 60.000
11.45613 62.000
11.47608 57.000
11.49602 61.000
11.51597 67.000
11.53592 71.000
11.55586 61.000
11.57581 70.000
11.59576 83.000
11.61570 77.000
11.63565 74.000
11.65560 60.000
11.67554 76.000
11.69549 68.000
11.71544 79.000
11.73539 73.000
11.75533 70.000
11.77528 81.000
11.79523 63.000
11.81517 73.000
11.83512 76.000
11.85507 68.000
11.87501 89.000
11.89496 79.000
11.91491 89.000
11.93486 72.000
11.95480 86.000
11.97475 71.000
11.99470 89.000
12.01464 77.000
12.03459 72.000
12.05454 85.000
12.07448 80.000
12.09443 92.000
12.11438 92.000
12.13432 86.000
12.15427 91.000
12.17422 104.000
12.19417 97.000
12.21411 122.000
12.23406 112.000
12.25401 125.000
12.27395 138.000
12.29390 124.000
12.31385 159.000
12.33379 138.000
12.35374 135.000
12.37369 160.000
12.39364 158.000
12.41358 187.000
12.43353 152.000
12.45348 157.000
12.47342 138.000
12.49337 158.000
12.51332 132.000
12.53326 131.000
12.55321 112.000
12.57316 110.000
12.59311 97.000
12.61305 84.000
12.63300 91.000
12.65295 85.000
12.67289 98.000
12.69284 70.000
12.71279 62.000
12.73273 93.000
12.75268 73.000
12.77263 62.000
12.79257 91.000
12.81252 83.000
12.83247 76.000
12.85242 64.000
12.87236 73.000
12.89231 77.000
12.91226 72.000
12.93220 77.000
12.95215 70.000
12.97210 85.000
12.99204 77.000
13.01199 83.000
13.03194 81.000
13.05189 80.000
13.07183 67.000
13.09178 85.000
13.11173 90.000
13.13167 88.000
13.15162 79.000
13.17157 83.000
13.19151 76.000
13.21146 82.000
13.23141 102.000
13.25135 93.000
13.27130 98.000
13.29125 96.000
13.31120 71.000
13.33114 75.000
13.35109 66.000
13.37104 67.000
13.39098 65.000
13.41093 77.000
13.43088 72.000
13.45082 83.000
13.47077 69.000
13.49072 81.000
13.51067 71.000
13.53061 72.000
13.55056 56.000
13.57051 85.000
13.59045 71.000
13.61040 71.000
13.63035 94.000
13.65029 93.000
13.67024 101.000
13.69019 107.000
13.71013 112.000
13.73008 108.000
13.75003 95.000
13.76998 113.000
13.78992 92.000
13.80987 123.000
13.82982 145.000
13.84976 160.000
13.86971 133.000
13.88966 122.000
13.90960 118.000
13.92955 94.000
13.94950 97.000
13.96945 81.000
13.98939 87.000
14.00934 69.000
14.02929 80.000
14.04923 80.000
14.06918 75.000
14.08913 77.000
14.10907 86.000
14.12902 85.000
14.14897 64.000
14.16892 81.000
14.18886 71.000
14.20881 68.000
14.22876 77.000
14.24870 78.000
14.26865 75.000
14.28860 69.000
14.30854 65.000
14.32849 76.000
14.34844 81.000
14.36838 74.000
14.38833 66.000
14.40828 65.000
14.42823 75.000
14.44817 85.000
14.46812 62.000
14.48807 82.000
14.50801 63.000
14.52796 78.000
14.54791 81.000
14.56785 85.000
14.58780 74.000
14.60775 65.000
14.62770 55.000
14.64764 67.000
14.66759 92.000
14.68754 83.000
14.70748 71.000
14.72743 79.000
14.74738 74.000
14.76732 78.000
14.78727 102.000
14.80722 91.000
14.82716 76.000
14.84711 93.000
14.86706 93.000
14.88701 103.000
14.90695 99.000
14.92690 107.000
14.94685 104.000
14.96679 98.000
14.98674 108.000
15.00669 112.000
15.02663 107.000
15.04658 107.000
15.06653 116.000
15.08648 121.000
15.10642 140.000
15.12637 175.000
15.14632 184.000
15.16626 211.000
15.18621 246.000
15.20616 297.000
15.22610 304.000
15.24605 365.000
15.26600 421.000
15.28594 417.000
15.30589 498.000
15.32584 594.000
15.34579 570.000
15.36573 612.000
15.38568 641.000
15.40563 678.000
15.42557 755.000
15.44552 851.000
15.46547 875.000
15.48541 925.000
15.50536 1006.000
15.52531 907.000
15.54526 877.000
15.56520 814.000
15.58515 691.000
15.60510 633.000
15.62504 590.000
15.64499 549.000
15.66494 486.000
15.68488 485.000
15.70483 471.000
15.72478 492.000
15.74472 446.000
15.76467 468.000
15.78462 405.000
15.80457 404.000
15.82451 359.000
15.84446 314.000
15.86441 262.000
15.88435 246.000
15.90430 168.000
15.92425 165.000
15.94419 125.000
15.96414 119.000
15.98409 108.000
16.00404 110.000
16.02398 109.000
16.04393 96.000
16.06388 88.000
16.08382 107.000
16.10377 86.000
16.12372 96.000
16.14366 128.000
16.16361 118.000
16.18356 138.000
16.20351 133.000
16.22345 127.000
16.24340 119.000
16.26335 155.000
16.28329 172.000
16.30324 149.000
16.32319 155.000
16.34313 165.000
16.36308 191.000
16.38303 224.000
16.40297 211.000
16.42292 194.000
16.44287 184.000
16.46282 169.000
16.48276 153.000
16.50271 120.000
16.52266 97.000
16.54260 98.000
16.56255 80.000
16.58250 74.000
16.60244 70.000
16.62239 68.000
16.64234 64.000
16.66229 58.000
16.68223 63.000
16.70218 73.000
16.72213 53.000
16.74207 64.000
16.76202 52.000
16.78197 83.000
16.80191 63.000
16.82186 62.000
16.84181 74.000
16.86175 65.000
16.88170 72.000
16.90165 60.000
16.92160 62.000
16.94154 64.000
16.96149 59.000
16.98144 59.000
17.00138 58.000
17.02133 64.000
17.04128 67.000
17.06122 61.000
17.08117 61.000
17.10112 64.000
17.12107 77.000
17.14101 56.000
17.16096 67.000
17.18091 78.000
17.20085 58.000
17.22080 65.000
17.24075 51.000
17.26069 67.000
17.28064 61.000
17.30059 66.000
17.32053 53.000
17.34048 51.000
17.36043 73.000
17.38038 62.000
17.40032 62.000
17.42027 59.000
17.44022 69.000
17.46016 65.000
17.48011 52.000
17.50006 63.000
17.52000 66.000
17.53995 62.000
17.55990 73.000
17.57985 59.000
17.59979 70.000
17.61974 69.000
17.63969 62.000
17.65963 70.000
17.67958 81.000
17.69953 63.000
17.71947 59.000
17.73942 74.000
17.75937 85.000
17.77932 85.000
17.79926 77.000
17.81921 96.000
17.83916 77.000
17.85910 80.000
17.87905 65.000
17.89900 83.000
17.91894 72.000
17.93889 72.000
17.95884 87.000
17.97878 62.000
17.99873 71.000
18.01868 65.000
18.03863 63.000
18.05857 53.000
18.07852 68.000
18.09847 60.000
18.11841 56.000
18.13836 60.000
18.15831 53.000
18.17825 62.000
18.19820 60.000
18.21815 62.000
18.23810 68.000
18.25804 51.000
18.27799 68.000
18.29794 83.000
18.31788 44.000
18.33783 57.000
18.35778 59.000
18.37772 70.000
18.39767 62.000
18.41762 64.000
18.43756 56.000
18.45751 58.000
18.47746 66.000
18.49741 63.000
18.51735 67.000
18.53730 56.000
18.55725 62.000
18.57719 63.000
18.59714 68.000
18.61709 63.000
18.63703 66.000
18.65698 64.000
18.67693 72.000
18.69688 53.000
18.71682 75.000
18.73677 55.000
18.75672 58.000
18.77666 73.000
18.79661 70.000
18.81656 82.000
18.83650 65.000
18.85645 69.000
18.87640 85.000
18.89634 72.000
18.91629 77.000
18.93624 107.000
18.95619 101.000
18.97613 99.000
18.99608 111.000
19.01603 87.000
19.03597 106.000
19.05592 141.000
19.07587 129.000
19.09581 134.000
19.11576 165.000
19.13571 167.000
19.15566 161.000
19.17560 176.000
19.19555 182.000
19.21550 192.000
19.23544 184.000
19.25539 197.000
19.27534 180.000
19.29528 164.000
19.31523 171.000
19.33518 157.000
19.35513 182.000
19.37507 177.000
19.39502 140.000
19.41497 149.000
19.43491 127.000
19.45486 131.000
19.47481 125.000
19.49475 106.000
19.51470 107.000
19.53465 107.000
19.55459 107.000
19.57454 94.000
19.59449 111.000
19.61444 88.000
19.63438 116.000
19.65433 95.000
19.67428 91.000
19.69422 91.000
19.71417 86.000
19.73412 90.000
19.75406 75.000
19.77401 60.000
19.79396 68.000
19.81391 67.000
19.83385 74.000
19.85380 57.000
19.87375 68.000
19.89369 61.000
19.91364 83.000
19.93359 72.000
19.95353 62.000
19.97348 69.000
19.99343 80.000
20.01337 77.000
20.03332 70.000
20.05327 63.000
20.07322 58.000
20.09316 68.000
20.11311 68.000
20.13306 59.000
20.15300 74.000
20.17295 66.000
20.19290 72.000
20.21284 77.000
20.23279 81.000
20.25274 73.000
20.27269 75.000
20.29263 71.000
20.31258 81.000
20.33253 72.000
20.35247 83.000
20.37242 78.000
20.39237 66.000
20.41231 68.000
20.43226 65.000
20.45221 65.000
20.47215 77.000
20.49210 84.000
20.51205 77.000
20.53200 66.000
20.55194 74.000
20.57189 65.000
20.59184 74.000
20.61178 68.000
20.63173 71.000
20.65168 73.000
20.67162 77.000
20.69157 62.000
20.71152 61.000
20.73147 82.000
20.75141 61.000
20.77136 76.000
20.79131 62.000
20.81125 82.000
20.83120 72.000
20.85115 64.000
20.87109 67.000
20.89104 56.000
20.91099 71.000
20.93094 65.000
20.95088 63.000
20.97083 80.000
20.99078 70.000
21.01072 57.000
21.03067 56.000
21.05062 62.000
21.07056 68.000
21.09051 74.000
21.11046 69.000
21.13040 75.000
21.15035 56.000
21.17030 59.000
21.19025 68.000
21.21019 77.000
21.23014 71.000
21.25009 77.000
21.27003 55.000
21.28998 65.000
21.30993 68.000
21.32987 67.000
21.34982 82.000
21.36977 71.000
21.38972 66.000
21.40966 74.000
21.42961 70.000
21.44956 61.000
21.46950 74.000
21.48945 69.000
21.50940 81.000
21.52934 79.000
21.54929 65.000
21.56924 82.000
21.58918 77.000
21.60913 82.000
21.62908 79.000
21.64903 84.000
21.66897 77.000
21.68892 80.000
21.70887 67.000
21.72881 97.000
21.74876 74.000
21.76871 97.000
21.78865 94.000
21.80860 88.000
21.82855 95.000
21.84850 97.000
21.86844 87.000
21.88839 98.000
21.90834 92.000
21.92828 79.000
21.94823 80.000
21.96818 89.000
21.98812 92.000
22.00807 96.000
22.02802 104.000
22.04796 131.000
22.06791 100.000
22.08786 125.000
22.10781 129.000
22.12775 122.000
22.14770 118.000
22.16765 116.000
22.18759 115.000
22.20754 121.000
22.22749 120.000
22.24743 115.000
22.26738 123.000
22.28733 104.000
22.30728 101.000
22.32722 108.000
22.34717 101.000
22.36712 88.000
22.38706 79.000
22.40701 80.000
22.42696 80.000
22.44690 84.000
22.46685 73.000
22.48680 64.000
22.50675 67.000
22.52669 75.000
22.54664 70.000
22.56659 82.000
22.58653 95.000
22.60648 75.000
22.62643 77.000
22.64637 80.000
22.66632 76.000
22.68627 60.000
22.70621 76.000
22.72616 83.000
22.74611 83.000
22.76606 76.000
22.78600 62.000
22.80595 72.000
22.82590 64.000
22.84584 74.000
22.86579 91.000
22.88574 81.000
22.90568 67.000
22.92563 76.000
22.94558 80.000
22.96553 78.000
22.98547 77.000
23.00542 72.000
23.02537 88.000
23.04531 75.000
23.06526 82.000
23.08521 82.000
23.10515 72.000
23.12510 83.000
23.14505 81.000
23.16499 76.000
23.18494 80.000
23.20489 71.000
23.22484 72.000
23.24478 92.000
23.26473 74.000
23.28468 91.000
23.30462 64.000
23.32457 87.000
23.34452 74.000
23.36446 93.000
23.38441 98.000
23.40436 70.000
23.42431 73.000
23.44425 84.000
23.46420 64.000
23.48415 100.000
23.50409 93.000
23.52404 85.000
23.54399 82.000
23.56393 61.000
23.58388 77.000
23.60383 87.000
23.62377 80.000
23.64372 92.000
23.66367 88.000
23.68362 86.000
23.70356 83.000
23.72351 86.000
23.74346 78.000
23.76340 82.000
23.78335 104.000
23.80330 100.000
23.82324 74.000
23.84319 81.000
23.86314 98.000
23.88309 78.000
23.90303 82.000
23.92298 99.000
23.94293 101.000
23.96287 84.000
23.98282 99.000
24.00277 93.000
24.02271 78.000
24.04266 77.000
24.06261 68.000
24.08256 85.000
24.10250 89.000
24.12245 102.000
24.14240 88.000
24.16234 87.000
24.18229 82.000
24.20224 77.000
24.22218 112.000
24.24213 92.000
24.26208 96.000
24.28202 97.000
24.30197 94.000
24.32192 83.000
24.34187 101.000
24.36181 92.000
24.38176 86.000
24.40171 103.000
24.42165 95.000
24.44160 89.000
24.46155 92.000
24.48149 110.000
24.50144 78.000
24.52139 91.000
24.54134 95.000
24.56128 90.000
24.58123 95.000
24.60118 88.000
24.62112 108.000
24.64107 111.000
24.66102 96.000
24.68096 107.000
24.70091 94.000
24.72086 92.000
24.74080 92.000
24.76075 116.000
24.78070 111.000
24.80065 112.000
24.82059 102.000
24.84054 119.000
24.86049 127.000
24.88043 143.000
24.90038 112.000
24.92033 127.000
24.94027 136.000
24.96022 149.000
24.98017 158.000
25.00012 147.000
25.02006 153.000
25.04001 150.000
25.05996 142.000
25.07990 142.000
25.09985 153.000
25.11980 169.000
25.13974 129.000
25.15969 150.000
25.17964 123.000
25.19958 141.000
25.21953 150.000
25.23948 125.000
25.25943 137.000
25.27937 134.000
25.29932 133.000
25.31927 116.000
25.33921 118.000
25.35916 137.000
25.37911 125.000
25.39905 108.000
25.41900 99.000
25.43895 123.000
25.45890 108.000
25.47884 112.000
25.49879 108.000
25.51874 99.000
25.53868 100.000
25.55863 84.000
25.57858 85.000
25.59852 95.000
25.61847 104.000
25.63842 95.000
25.65837 113.000
25.67831 94.000
25.69826 91.000
25.71821 83.000
25.73815 120.000
25.75810 102.000
25.77805 77.000
25.79799 100.000
25.81794 108.000
25.83789 109.000
25.85783 91.000
25.87778 97.000
25.89773 101.000
25.91768 113.000
25.93762 108.000
25.95757 113.000
25.97752 102.000
25.99746 94.000
26.01741 101.000
26.03736 106.000
26.05730 112.000
26.07725 110.000
26.09720 104.000
26.11715 110.000
26.13709 98.000
26.15704 122.000
26.17699 110.000
26.19693 120.000
26.21688 104.000
26.23683 106.000
26.25677 111.000
26.27672 117.000
26.29667 104.000
26.31661 113.000
26.33656 113.000
26.35651 112.000
26.37646 128.000
26.39640 101.000
26.41635 101.000
26.43630 131.000
26.45624 106.000
26.47619 113.000
26.49614 101.000
26.51608 111.000
26.53603 113.000
26.55598 140.000
26.57593 130.000
26.59587 140.000
26.61582 126.000
26.63577 120.000
26.65571 144.000
26.67566 137.000
26.69561 129.000
26.71555 147.000
26.73550 128.000
26.75545 119.000
26.77539 135.000
26.79534 132.000
26.81529 125.000
26.83524 138.000
26.85518 119.000
26.87513 114.000
26.89508 113.000
26.91502 122.000
26.93497 107.000
26.95492 110.000
26.97486 116.000
26.99481 106.000
27.01476 108.000
27.03471 116.000
27.05465 110.000
27.07460 104.000
27.09455 108.000
27.11449 111.000
27.13444 112.000
27.15439 111.000
27.17433 104.000
27.19428 112.000
27.21423 101.000
27.23417 103.000
27.25412 96.000
27.27407 118.000
27.29402 83.000
27.31396 111.000
27.33391 124.000
27.35386 104.000
27.37380 96.000
27.39375 126.000
27.41370 89.000
27.43364 123.000
27.45359 111.000
27.47354 95.000
27.49349 102.000
27.51343 108.000
27.53338 119.000
27.55333 99.000
27.57327 105.000
27.59322 103.000
27.61317 119.000
27.63311 129.000
27.65306 101.000
27.67301 93.000
27.69296 121.000
27.71290 106.000
27.73285 105.000
27.75280 117.000
27.77274 110.000
27.79269 112.000
27.81264 129.000
27.83258 109.000
27.85253 136.000
27.87248 100.000
27.89242 112.000
27.91237 144.000
27.93232 100.000
27.95227 114.000
27.97221 114.000
27.99216 122.000
28.01211 126.000
28.03205 124.000
28.05200 133.000
28.07195 110.000
28.09189 129.000
28.11184 115.000
28.13179 114.000
28.15174 107.000
28.17168 135.000
28.19163 119.000
28.21158 127.000
28.23152 127.000
28.25147 113.000
28.27142 116.000
28.29136 140.000
28.31131 112.000
28.33126 137.000
28.35120 125.000
28.37115 118.000
28.39110 154.000
28.41105 151.000
28.43099 131.000
28.45094 155.000
28.47089 150.000
28.49083 156.000
28.51078 153.000
28.53073 169.000
28.55067 166.000
28.57062 148.000
28.59057 171.000
28.61052 157.000
28.63046 165.000
28.65041 185.000
28.67036 165.000
28.69030 163.000
28.71025 160.000
28.73020 150.000
28.75014 158.000
28.77009 175.000
28.79004 154.000
28.80998 132.000
28.82993 154.000
28.84988 167.000
28.86983 155.000
28.88977 133.000
28.90972 138.000
28.92967 124.000
28.94961 142.000
28.96956 126.000
28.98951 125.000
29.00945 136.000
29.02940 117.000
29.04935 120.000
29.06930 129.000
29.08924 141.000
29.10919 133.000
29.12914 143.000
29.14908 133.000
29.16903 129.000
29.18898 140.000
29.20892 126.000
29.22887 143.000
29.24882 146.000
29.26877 120.000
29.28871 133.000
29.30866 128.000
29.32861 123.000
29.34855 132.000
29.36850 135.000
29.38845 138.000
29.40839 103.000
29.42834 115.000
29.44829 128.000
29.46823 135.000
29.48818 96.000
29.50813 136.000
29.52808 134.000
29.54802 125.000
29.56797 130.000
29.58792 129.000
29.60786 117.000
29.62781 125.000
29.64776 109.000
29.66770 128.000
29.68765 99.000
29.70760 113.000
29.72755 122.000
29.74749 105.000
29.76744 140.000
29.78739 130.000
29.80733 106.000
29.82728 133.000
29.84723 113.000
29.86717 109.000
29.88712 139.000
29.90707 127.000
29.92701 119.000
29.94696 149.000
29.96691 126.000
29.98686 117.000
30.00680 120.000
30.02675 125.000
30.04670 121.000
30.06664 139.000
30.08659 121.000
30.10654 120.000
30.12648 114.000
30.14643 115.000
30.16638 126.000
30.18633 123.000
30.20627 110.000
30.22622 108.000
30.24617 103.000
30.26611 119.000
30.28606 122.000
30.30601 115.000
30.32595 113.000
30.34590 115.000
30.36585 114.000
30.38579 113.000
30.40574 123.000
30.42569 125.000
30.44564 131.000
30.46558 133.000
30.48553 137.000
30.50548 113.000
30.52542 134.000
30.54537 127.000
30.56532 130.000
30.58526 120.000
30.60521 124.000
30.62516 128.000
30.64511 135.000
30.66505 131.000
30.68500 149.000
30.70495 130.000
30.72489 161.000
30.74484 131.000
30.76479 106.000
30.78473 129.000
30.80468 135.000
30.82463 162.000
30.84458 141.000
30.86452 144.000
30.88447 135.000
30.90442 155.000
30.92436 133.000
30.94431 115.000
30.96426 151.000
30.98420 150.000
31.00415 138.000
31.02410 139.000
31.04404 155.000
31.06399 153.000
31.08394 139.000
31.10389 148.000
31.12383 148.000
31.14378 149.000
31.16373 174.000
31.18367 155.000
31.20362 176.000
31.22357 198.000
31.24351 182.000
31.26346 205.000
31.28341 209.000
31.30336 198.000
31.32330 197.000
31.34325 232.000
31.36320 210.000
31.38314 244.000
31.40309 206.000
31.42304 223.000
31.44298 213.000
31.46293 227.000
31.48288 204.000
31.50282 172.000
31.52277 187.000
31.54272 157.000
31.56267 181.000
31.58261 163.000
31.60256 149.000
31.62251 145.000
31.64245 125.000
31.66240 168.000
31.68235 172.000
31.70229 150.000
31.72224 165.000
31.74219 161.000
31.76214 138.000
31.78208 134.000
31.80203 175.000
31.82198 157.000
31.84192 140.000
31.86187 150.000
31.88182 154.000
31.90176 153.000
31.92171 151.000
31.94166 191.000
31.96160 154.000
31.98155 189.000
32.00150 220.000
32.02145 225.000
32.04139 211.000
32.06134 218.000
32.08129 215.000
32.10123 197.000
32.12118 197.000
32.14113 212.000
32.16107 234.000
32.18102 208.000
32.20097 224.000
32.22092 191.000
32.24086 206.000
32.26081 198.000
32.28076 206.000
32.30070 167.000
32.32065 199.000
32.34060 161.000
32.36054 159.000
32.38049 149.000
32.40044 132.000
32.42039 140.000
32.44033 138.000
32.46028 126.000
32.48023 127.000
32.50017 115.000
32.52012 112.000
32.54007 113.000
32.56001 98.000
32.57996 112.000
32.59991 146.000
32.61985 135.000
32.63980 114.000
32.65975 112.000
32.67970 119.000
32.69964 109.000
32.71959 98.000
32.73954 123.000
32.75948 114.000
32.77943 114.000
32.79938 108.000
32.81932 123.000
32.83927 123.000
32.85922 103.000
32.87917 130.000
32.89911 122.000
32.91906 133.000
32.93901 109.000
32.95895 113.000
32.97890 110.000
32.99885 105.000
33.01879 108.000
33.03874 115.000
33.05869 116.000
33.07863 123.000
33.09858 127.000
33.11853 103.000
33.13848 120.000
33.15842 99.000
33.17837 117.000
33.19832 130.000
33.21826 109.000
33.23821 98.000
33.25816 101.000
33.27810 99.000
33.29805 105.000
33.31800 114.000
33.33795 116.000
33.35789 105.000
33.37784 133.000
33.39779 149.000
33.41773 148.000
33.43768 151.000
33.45763 166.000
33.47757 183.000
33.49752 177.000
33.51747 195.000
33.53741 224.000
33.55736 220.000
33.57731 282.000
33.59726 341.000
33.61720 339.000
33.63715 337.000
33.65710 317.000
33.67704 329.000
33.69699 407.000
33.71694 423.000
33.73688 374.000
33.75683 328.000
33.77678 312.000
33.79673 302.000
33.81667 313.000
33.83662 325.000
33.85657 293.000
33.87651 290.000
33.89646 246.000
33.91641 245.000
33.93635 214.000
33.95630 161.000
33.97625 218.000
33.99620 167.000
34.01614 153.000
34.03609 128.000
34.05604 153.000
34.07598 136.000
34.09593 129.000
34.11588 141.000
34.13582 126.000
34.15577 111.000
34.17572 127.000
34.19566 118.000
34.21561 110.000
34.23556 106.000
34.25551 94.000
34.27545 112.000
34.29540 115.000
34.31535 98.000
34.33529 110.000
34.35524 116.000
34.37519 96.000
34.39513 111.000
34.41508 117.000
34.43503 95.000
34.45498 108.000
34.47492 122.000
34.49487 124.000
34.51482 131.000
34.53476 121.000
34.55471 116.000
34.57466 116.000
34.59460 111.000
34.61455 111.000
34.63450 105.000
34.65444 115.000
34.67439 108.000
34.69434 110.000
34.71429 129.000
34.73423 107.000
34.75418 116.000
34.77413 129.000
34.79407 125.000
34.81402 116.000
34.83397 107.000
34.85391 131.000
34.87386 147.000
34.89381 125.000
34.91376 112.000
34.93370 128.000
34.95365 150.000
34.97360 150.000
34.99354 130.000
35.01349 148.000
35.03344 124.000
35.05338 113.000
35.07333 137.000
35.09328 139.000
35.11322 135.000
35.13317 147.000
35.15312 157.000
35.17307 123.000
35.19301 142.000
35.21296 124.000
35.23291 130.000
35.25285 158.000
35.27280 140.000
35.29275 137.000
35.31269 140.000
35.33264 113.000
35.35259 135.000
35.37254 124.000
35.39248 129.000
35.41243 152.000
35.43238 135.000
35.45232 127.000
35.47227 155.000
35.49222 149.000
35.51216 161.000
35.53211 170.000
35.55206 152.000
35.57201 181.000
35.59195 203.000
35.61190 209.000
35.63185 227.000
35.65179 205.000
35.67174 205.000
35.69169 245.000
35.71163 252.000
35.73158 255.000
35.75153 258.000
35.77147 260.000
35.79142 230.000
35.81137 264.000
35.83132 259.000
35.85126 291.000
35.87121 293.000
35.89116 270.000
35.91110 248.000
35.93105 244.000
35.95100 258.000
35.97094 243.000
35.99089 251.000
36.01084 228.000
36.03079 237.000
36.05073 187.000
36.07068 183.000
36.09063 210.000
36.11057 218.000
36.13052 202.000
36.15047 229.000
36.17041 217.000
36.19036 228.000
36.21031 213.000
36.23025 214.000
36.25020 203.000
36.27015 183.000
36.29010 199.000
36.31004 174.000
36.32999 201.000
36.34994 161.000
36.36988 153.000
36.38983 151.000
36.40978 164.000
36.42972 148.000
36.44967 154.000
36.46962 134.000
36.48957 114.000
36.50951 135.000
36.52946 124.000
36.54941 126.000
36.56935 128.000
36.58930 109.000
36.60925 121.000
36.62919 105.000
36.64914 149.000
36.66909 109.000
36.68903 106.000
36.70898 132.000
36.72893 130.000
36.74888 107.000
36.76882 129.000
36.78877 119.000
36.80872 122.000
36.82866 137.000
36.84861 123.000
36.86856 127.000
36.88850 128.000
36.90845 110.000
36.92840 158.000
36.94835 180.000
36.96829 150.000
36.98824 166.000
37.00819 173.000
37.02813 197.000
37.04808 176.000
37.06803 185.000
37.08797 212.000
37.10792 192.000
37.12787 232.000
37.14781 213.000
37.16776 255.000
37.18771 232.000
37.20766 251.000
37.22760 249.000
37.24755 237.000
37.26750 231.000
37.28744 211.000
37.30739 211.000
37.32734 205.000
37.34728 180.000
37.36723 144.000
37.38718 159.000
37.40713 175.000
37.42707 159.000
37.44702 145.000
37.46697 143.000
37.48691 153.000
37.50686 123.000
37.52681 126.000
37.54675 128.000
37.56670 126.000
37.58665 134.000
37.60660 105.000
37.62654 155.000
37.64649 150.000
37.66644 137.000
37.68638 135.000
37.70633 135.000
37.72628 133.000
37.74622 148.000
37.76617 132.000
37.78612 135.000
37.80606 162.000
37.82601 131.000
37.84596 156.000
37.86591 156.000
37.88585 153.000
37.90580 162.000
37.92575 164.000
37.94569 178.000
37.96564 162.000
37.98559 139.000
38.00553 158.000
38.02548 159.000
38.04543 140.000
38.06538 144.000
38.08532 147.000
38.10527 139.000
38.12522 155.000
38.14516 158.000
38.16511 134.000
38.18506 144.000
38.20500 137.000
38.22495 135.000
38.24490 135.000
38.26484 142.000
38.28479 132.000
38.30474 168.000
38.32469 164.000
38.34463 168.000
38.36458 169.000
38.38453 158.000
38.40447 193.000
38.42442 200.000
38.44437 185.000
38.46431 203.000
38.48426 215.000
38.50421 195.000
38.52416 209.000
38.54410 192.000
38.56405 180.000
38.58400 212.000
38.60394 209.000
38.62389 187.000
38.64384 180.000
38.66378 193.000
38.68373 193.000
38.70368 167.000
38.72362 159.000
38.74357 191.000
38.76352 207.000
38.78347 167.000
38.80341 166.000
38.82336 169.000
38.84331 146.000
38.86325 150.000
38.88320 173.000
38.90315 154.000
38.92309 153.000
38.94304 167.000
38.96299 187.000
38.98294 175.000
39.00288 173.000
39.02283 198.000
39.04278 191.000
39.06272 197.000
39.08267 199.000
39.10262 235.000
39.12256 223.000
39.14251 197.000
39.16246 233.000
39.18241 224.000
39.20235 205.000
39.22230 219.000
39.24225 254.000
39.26219 236.000
39.28214 218.000
39.30209 223.000
39.32203 244.000
39.34198 235.000
39.36193 214.000
39.38187 231.000
39.40182 251.000
39.42177 249.000
39.44172 222.000
39.46166 233.000
39.48161 235.000
39.50156 238.000
39.52150 205.000
39.54145 211.000
39.56140 190.000
39.58134 218.000
39.60129 220.000
39.62124 189.000
39.64119 208.000
39.66113 211.000
39.68108 182.000
39.70103 212.000
39.72097 214.000
39.74092 193.000
39.76087 202.000
39.78081 194.000
39.80076 190.000
39.82071 188.000
39.84065 184.000
39.86060 182.000
39.88055 158.000
39.90050 168.000
39.92044 160.000
39.94039 142.000
39.96034 165.000
39.98028 135.000
40.00023 141.000
40.02018 131.000
40.04012 156.000
40.06007 139.000
40.08002 137.000
40.09997 128.000
40.11991 122.000
40.13986 122.000
40.15981 116.000
40.17975 112.000
40.19970 106.000
40.21965 94.000
40.23959 112.000
40.25954 109.000
40.27949 100.000
40.29943 105.000
40.31938 128.000
40.33933 109.000
40.35928 93.000
40.37922 90.000
40.39917 99.000
40.41912 87.000
40.43906 93.000
40.45901 86.000
40.47896 118.000
40.49890 100.000
40.51885 80.000
40.53880 90.000
40.55875 84.000
40.57869 95.000
40.59864 103.000
40.61859 107.000
40.63853 93.000
40.65848 110.000
40.67843 106.000
40.69837 126.000
40.71832 117.000
40.73827 107.000
40.75822 111.000
40.77816 117.000
40.79811 104.000
40.81806 128.000
40.83800 98.000
40.85795 103.000
40.87790 99.000
40.89784 112.000
40.91779 93.000
40.93774 102.000
40.95768 122.000
40.97763 92.000
40.99758 88.000
41.01753 82.000
41.03747 95.000
41.05742 93.000
41.07737 97.000
41.09731 99.000
41.11726 80.000
41.13721 77.000
41.15715 87.000
41.17710 92.000
41.19705 82.000
41.21700 104.000
41.23694 76.000
41.25689 63.000
41.27684 82.000
41.29678 76.000
41.31673 82.000
41.33668 79.000
41.35662 87.000
41.37657 89.000
41.39652 78.000
41.41646 78.000
41.43641 88.000
41.45636 97.000
41.47631 90.000
41.49625 79.000
41.51620 79.000
41.53615 110.000
41.55609 90.000
41.57604 91.000
41.59599 97.000
41.61593 79.000
41.63588 96.000
41.65583 106.000
41.67578 101.000
41.69572 94.000
41.71567 96.000
41.73562 106.000
41.75556 115.000
41.77551 103.000
41.79546 112.000
41.81540 100.000
41.83535 127.000
41.85530 122.000
41.87524 108.000
41.89519 111.000
41.91514 102.000
41.93509 121.000
41.95503 108.000
41.97498 102.000
41.99493 121.000
42.01487 90.000
42.03482 106.000
42.05477 105.000
42.07471 105.000
42.09466 94.000
42.11461 99.000
42.13456 105.000
42.15450 99.000
42.17445 90.000
42.19440 92.000
42.21434 118.000
42.23429 96.000
42.25424 103.000
42.27418 102.000
42.29413 95.000
42.31408 99.000
42.33403 117.000
42.35397 75.000
42.37392 83.000
42.39387 101.000
42.41381 122.000
42.43376 104.000
42.45371 95.000
42.47365 111.000
42.49360 113.000
42.51355 107.000
42.53349 112.000
42.55344 110.000
42.57339 94.000
42.59334 111.000
42.61328 130.000
42.63323 117.000
42.65318 108.000
42.67312 121.000
42.69307 133.000
42.71302 101.000
42.73296 103.000
42.75291 82.000
42.77286 117.000
42.79281 126.000
42.81275 132.000
42.83270 137.000
42.85265 116.000
42.87259 121.000
42.89254 127.000
42.91249 111.000
42.93243 136.000
42.95238 118.000
42.97233 146.000
42.99227 149.000
43.01222 121.000
43.03217 136.000
43.05212 141.000
43.07206 128.000
43.09201 137.000
43.11196 141.000
43.13190 138.000
43.15185 158.000
43.17180 175.000
43.19174 161.000
43.21169 135.000
43.23164 159.000
43.25159 165.000
43.27153 165.000
43.29148 151.000
43.31143 140.000
43.33137 144.000
43.35132 154.000
43.37127 138.000
43.39121 150.000
43.41116 160.000
43.43111 149.000
43.45105 143.000
43.47100 151.000
43.49095 168.000
43.51090 131.000
43.53084 162.000
43.55079 139.000
43.57074 146.000
43.59068 183.000
43.61063 164.000
43.63058 187.000
43.65052 163.000
43.67047 148.000
43.69042 156.000
43.71037 184.000
43.73031 160.000
43.75026 157.000
43.77021 154.000
43.79015 133.000
43.81010 151.000
43.83005 160.000
43.84999 152.000
43.86994 140.000
43.88989 141.000
43.90984 112.000
43.92978 163.000
43.94973 146.000
43.96968 127.000
43.98962 139.000
44.00957 133.000
44.02952 107.000
44.04946 120.000
44.06941 117.000
44.08936 141.000
44.10930 120.000
44.12925 130.000
44.14920 127.000
44.16915 117.000
44.18909 140.000
44.20904 120.000
44.22899 122.000
44.24893 141.000
44.26888 141.000
44.28883 115.000
44.30877 108.000
44.32872 117.000
44.34867 120.000
44.36862 105.000
44.38856 101.000
44.40851 106.000
44.42846 109.000
44.44840 101.000
44.46835 112.000
44.48830 97.000
44.50824 92.000
44.52819 89.000
44.54814 77.000
44.56808 96.000
44.58803 95.000
44.60798 98.000
44.62793 88.000
44.64787 106.000
44.66782 101.000
44.68777 86.000
44.70771 83.000
44.72766 90.000
44.74761 100.000
44.76755 103.000
44.78750 78.000
44.80745 69.000
44.82740 108.000
44.84734 108.000
44.86729 90.000
44.88724 81.000
44.90718 100.000
44.92713 72.000
44.94708 83.000
44.96702 91.000
44.98697 94.000
45.00692 79.000
45.02686 88.000
45.04681 82.000
45.06676 75.000
45.08671 102.000
45.10665 96.000
45.12660 83.000
45.14655 83.000
45.16649 98.000
45.18644 109.000
45.20639 96.000
45.22633 75.000
45.24628 85.000
45.26623 95.000
45.28618 93.000
45.30612 89.000
45.32607 110.000
45.34602 114.000
45.36596 115.000
45.38591 105.000
45.40586 106.000
45.42580 108.000
45.44575 91.000
45.46570 91.000
45.48565 96.000
45.50559 90.000
45.52554 90.000
45.54549 91.000
45.56543 106.000
45.58538 70.000
45.60533 97.000
45.62527 79.000
45.64522 71.000
45.66517 74.000
45.68511 81.000
45.70506 88.000
45.72501 69.000
45.74496 74.000
45.76490 72.000
45.78485 78.000
45.80480 72.000
45.82474 66.000
45.84469 59.000
45.86464 60.000
45.88458 66.000
45.90453 75.000
45.92448 85.000
45.94443 76.000
45.96437 71.000
45.98432 70.000
46.00427 78.000
46.02421 72.000
46.04416 68.000
46.06411 84.000
46.08405 63.000
46.10400 62.000
46.12395 80.000
46.14389 72.000
46.16384 66.000
46.18379 68.000
46.20374 64.000
46.22368 67.000
46.24363 67.000
46.26358 60.000
46.28352 62.000
46.30347 74.000
46.32342 67.000
46.34336 86.000
46.36331 67.000
46.38326 74.000
46.40321 77.000
46.42315 77.000
46.44310 73.000
46.46305 65.000
46.48299 55.000
46.50294 64.000
46.52289 84.000
46.54283 67.000
46.56278 77.000
46.58273 63.000
46.60267 62.000
46.62262 53.000
46.64257 82.000
46.66252 68.000
46.68246 68.000
46.70241 60.000
46.72236 70.000
46.74230 65.000
46.76225 61.000
46.78220 84.000
46.80214 81.000
46.82209 73.000
46.84204 67.000
46.86199 79.000
46.88193 81.000
46.90188 57.000
46.92183 75.000
46.94177 91.000
46.96172 68.000
46.98167 78.000
47.00161 81.000
47.02156 65.000
47.04151 69.000
47.06146 78.000
47.08140 85.000
47.10135 88.000
47.12130 82.000
47.14124 92.000
47.16119 77.000
47.18114 86.000
47.20108 92.000
47.22103 85.000
47.24098 84.000
47.26092 102.000
47.28087 101.000
47.30082 68.000
47.32077 90.000
47.34071 100.000
47.36066 81.000
47.38061 85.000
47.40055 102.000
47.42050 85.000
47.44045 93.000
47.46039 86.000
47.48034 93.000
47.50029 93.000
47.52024 99.000
47.54018 100.000
47.56013 88.000
47.58008 93.000
47.60002 86.000
47.61997 89.000
47.63992 99.000
47.65986 101.000
47.67981 108.000
47.69976 110.000
47.71970 91.000
47.73965 106.000
47.75960 111.000
47.77955 116.000
47.79949 107.000
47.81944 129.000
47.83939 116.000
47.85933 105.000
47.87928 102.000
47.89923 112.000
47.91917 125.000
47.93912 124.000
47.95907 113.000
47.97902 130.000
47.99896 121.000
48.01891 124.000
48.03886 114.000
48.05880 139.000
48.07875 154.000
48.09870 137.000
48.11864 120.000
48.13859 144.000
48.15854 138.000
48.17848 140.000
48.19843 139.000
48.21838 145.000
48.23833 174.000
48.25827 177.000
48.27822 173.000
48.29817 189.000
48.31811 179.000
48.33806 201.000
48.35801 223.000
48.37795 198.000
48.39790 216.000
48.41785 197.000
48.43780 188.000
48.45774 219.000
48.47769 237.000
48.49764 219.000
48.51758 216.000
48.53753 192.000
48.55748 194.000
48.57742 201.000
48.59737 179.000
48.61732 202.000
48.63726 193.000
48.65721 210.000
48.67716 194.000
48.69711 198.000
48.71705 189.000
48.73700 194.000
48.75695 186.000
48.77689 193.000
48.79684 213.000
48.81679 165.000
48.83673 211.000
48.85668 178.000
48.87663 173.000
48.89658 192.000
48.91652 176.000
48.93647 165.000
48.95642 171.000
48.97636 161.000
48.99631 163.000
49.01626 161.000
49.03620 180.000
49.05615 193.000
49.07610 160.000
49.09605 158.000
49.11599 145.000
49.13594 165.000
49.15589 179.000
49.17583 150.000
49.19578 154.000
49.21573 159.000
49.23567 126.000
49.25562 143.000
49.27557 147.000
49.29551 138.000
49.31546 127.000
49.33541 123.000
49.35536 125.000
49.37530 112.000
49.39525 103.000
49.41520 130.000
49.43514 120.000
49.45509 114.000
49.47504 107.000
49.49498 101.000
49.51493 88.000
49.53488 108.000
49.55483 100.000
49.57477 80.000
49.59472 82.000
49.61467 93.000
49.63461 71.000
49.65456 88.000
49.67451 84.000
49.69445 80.000
49.71440 77.000
49.73435 78.000
49.75429 76.000
49.77424 84.000
49.79419 67.000
49.81414 84.000
49.83408 59.000
49.85403 86.000
49.87398 86.000
49.89392 59.000
49.91387 75.000
49.93382 66.000
49.95376 70.000
49.97371 73.000
49.99366 67.000
50.01361 57.000
50.03355 76.000
50.05350 60.000
50.07345 57.000
50.09339 51.000
50.11334 74.000
50.13329 52.000
50.15323 80.000
50.17318 56.000
50.19313 49.000
50.21307 50.000
50.23302 71.000
50.25297 55.000
50.27292 60.000
50.29286 65.000
50.31281 68.000
50.33276 56.000
50.35270 50.000
50.37265 67.000
50.39260 63.000
50.41254 63.000
50.43249 92.000
50.45244 69.000
50.47239 86.000
50.49233 74.000
50.51228 98.000
50.53223 85.000
50.55217 71.000
50.57212 57.000
50.59207 79.000
50.61201 104.000
50.63196 110.000
50.65191 77.000
50.67186 61.000
50.69180 83.000
50.71175 79.000
50.73170 72.000
50.75164 70.000
50.77159 78.000
50.79154 61.000
50.81148 63.000
50.83143 65.000
50.85138 69.000
50.87132 67.000
50.89127 62.000
50.91122 65.000
50.93117 68.000
50.95111 73.000
50.97106 74.000
50.99101 72.000
51.01095 70.000
51.03090 80.000
51.05085 98.000
51.07079 79.000
51.09074 91.000
51.11069 108.000
51.13064 102.000
51.15058 110.000
51.17053 104.000
51.19048 106.000
51.21042 94.000
51.23037 130.000
51.25032 135.000
51.27026 121.000
51.29021 106.000
51.31016 135.000
51.33010 110.000
51.35005 123.000
51.37000 114.000
51.38995 113.000
51.40989 101.000
51.42984 99.000
51.44979 87.000
51.46973 78.000
51.48968 99.000
51.50963 66.000
51.52957 77.000
51.54952 81.000
51.56947 70.000
51.58942 77.000
51.60936 80.000
51.62931 77.000
51.64926 72.000
51.66920 75.000
51.68915 68.000
51.70910 70.000
51.72904 52.000
51.74899 68.000
51.76894 70.000
51.78888 64.000
51.80883 68.000
51.82878 69.000
51.84873 62.000
51.86867 85.000
51.88862 69.000
51.90857 58.000
51.92851 69.000
51.94846 76.000
51.96841 73.000
51.98835 74.000
52.00830 56.000
52.02825 66.000
52.04820 72.000
52.06814 74.000
52.08809 70.000
52.10804 73.000
52.12798 62.000
52.14793 57.000
52.16788 58.000
52.18782 57.000
52.20777 51.000
52.22772 65.000
52.24767 68.000
52.26761 54.000
52.28756 60.000
52.30751 65.000
52.32745 54.000
52.34740 51.000
52.36735 60.000
52.38729 61.000
52.40724 58.000
52.42719 63.000
52.44713 63.000
52.46708 73.000
52.48703 58.000
52.50698 69.000
52.52692 57.000
52.54687 63.000
52.56682 66.000
52.58676 54.000
52.60671 59.000
52.62666 58.000
52.64660 56.000
52.66655 70.000
52.68650 68.000
52.70645 59.000
52.72639 56.000
52.74634 66.000
52.76629 75.000
52.78623 73.000
52.80618 65.000
52.82613 65.000
52.84607 83.000
52.86602 76.000
52.88597 66.000
52.90591 67.000
52.92586 70.000
52.94581 70.000
52.96576 78.000
52.98570 78.000
53.00565 83.000
53.02560 56.000
53.04554 78.000
53.06549 78.000
53.08544 62.000
53.10538 73.000
53.12533 82.000
53.14528 68.000
53.16523 65.000
53.18517 82.000
53.20512 81.000
53.22507 70.000
53.24501 73.000
53.26496 61.000
53.28491 79.000
53.30485 88.000
53.32480 64.000
53.34475 65.000
53.36469 63.000
53.38464 68.000
53.40459 61.000
53.42454 82.000
53.44448 74.000
53.46443 74.000
53.48438 67.000
53.50432 66.000
53.52427 64.000
53.54422 75.000
53.56416 58.000
53.58411 63.000
53.60406 76.000
53.62401 68.000
53.64395 66.000
53.66390 71.000
53.68385 71.000
53.70379 77.000
53.72374 76.000
53.74369 74.000
53.76363 68.000
53.78358 83.000
53.80353 75.000
53.82348 70.000
53.84342 56.000
53.86337 73.000
53.88332 65.000
53.90326 71.000
53.92321 62.000
53.94316 71.000
53.96310 70.000
53.98305 53.000
54.00300 63.000
54.02294 58.000
54.04289 63.000
54.06284 55.000
54.08279 57.000
54.10273 71.000
54.12268 58.000
54.14263 64.000
54.16257 52.000
54.18252 77.000
54.20247 58.000
54.22241 64.000
54.24236 53.000
54.26231 51.000
54.28226 52.000
54.30220 65.000
54.32215 51.000
54.34210 57.000
54.36204 54.000
54.38199 55.000
54.40194 55.000
54.42188 45.000
54.44183 64.000
54.46178 43.000
54.48172 49.000
54.50167 53.000
54.52162 46.000
54.54157 61.000
54.56151 55.000
54.58146 45.000
54.60141 42.000
54.62135 48.000
54.64130 51.000
54.66125 56.000
54.68119 62.000
54.70114 42.000
54.72109 39.000
54.74104 41.000
54.76098 46.000
54.78093 40.000
54.80088 46.000
54.82082 37.000
54.84077 44.000
54.86072 49.000
54.88066 64.000
54.90061 47.000
54.92056 50.000
54.94050 39.000
54.96045 48.000
54.98040 54.000
55.00035 48.000
55.02029 56.000
55.04024 49.000
55.06019 63.000
55.08013 36.000
55.10008 52.000
55.12003 58.000
55.13997 45.000
55.15992 41.000
55.17987 54.000
55.19982 39.000
55.21976 53.000
55.23971 41.000
55.25966 67.000
55.27960 52.000
55.29955 52.000
55.31950 58.000
55.33944 58.000
55.35939 46.000
55.37934 53.000
55.39929 55.000
55.41923 49.000
55.43918 42.000
55.45913 56.000
55.47907 65.000
55.49902 51.000
55.51897 50.000
55.53891 55.000
55.55886 36.000
55.57881 44.000
55.59875 37.000
55.61870 41.000
55.63865 57.000
55.65860 50.000
55.67854 58.000
55.69849 40.000
55.71844 46.000
55.73838 70.000
55.75833 49.000
55.77828 62.000
55.79822 38.000
55.81817 53.000
55.83812 64.000
55.85807 43.000
55.87801 49.000
55.89796 49.000
55.91791 56.000
55.93785 63.000
55.95780 38.000
55.97775 63.000
55.99769 49.000
56.01764 68.000
56.03759 54.000
56.05753 53.000
56.07748 46.000
56.09743 58.000
56.11738 49.000
56.13732 47.000
56.15727 42.000
56.17722 35.000
56.19716 40.000
56.21711 44.000
56.23706 32.000
56.25700 43.000
56.27695 50.000
56.29690 53.000
56.31685 56.000
56.33679 45.000
56.35674 53.000
56.37669 55.000
56.39663 46.000
56.41658 51.000
56.43653 44.000
56.45647 53.000
56.47642 44.000
56.49637 56.000
56.51631 46.000
56.53626 57.000
56.55621 48.000
56.57616 50.000
56.59610 49.000
56.61605 51.000
56.63600 55.000
56.65594 37.000
56.67589 47.000
56.69584 53.000
56.71578 58.000
56.73573 61.000
56.75568 52.000
56.77563 56.000
56.79557 41.000
56.81552 50.000
56.83547 49.000
56.85541 46.000
56.87536 54.000
56.89531 44.000
56.91525 56.000
56.93520 53.000
56.95515 52.000
56.97510 56.000
56.99504 46.000
57.01499 54.000
57.03494 58.000
57.05488 46.000
57.07483 62.000
57.09478 75.000
57.11472 58.000
57.13467 62.000
57.15462 62.000
57.17456 71.000
57.19451 69.000
57.21446 54.000
57.23441 65.000
57.25435 63.000
57.27430 60.000
57.29425 59.000
57.31419 60.000
57.33414 55.000
57.35409 78.000
57.37403 70.000
57.39398 53.000
57.41393 51.000
57.43388 59.000
57.45382 49.000
57.47377 53.000
57.49372 53.000
57.51366 43.000
57.53361 41.000
57.55356 50.000
57.57350 53.000
57.59345 47.000
57.61340 61.000
57.63334 41.000
57.65329 43.000
57.67324 49.000
57.69319 61.000
57.71313 46.000
57.73308 50.000
57.75303 55.000
57.77297 47.000
57.79292 55.000
57.81287 48.000
57.83281 45.000
57.85276 39.000
57.87271 55.000
57.89266 41.000
57.91260 51.000
57.93255 54.000
57.95250 39.000
57.97244 47.000
57.99239 52.000
58.01234 47.000
58.03228 50.000
58.05223 68.000
58.07218 64.000
58.09212 50.000
58.11207 52.000
58.13202 69.000
58.15197 59.000
58.17191 61.000
58.19186 75.000
58.21181 68.000
58.23175 68.000
58.25170 70.000
58.27165 52.000
58.29159 62.000
58.31154 76.000
58.33149 68.000
58.35144 80.000
58.37138 88.000
58.39133 71.000
58.41128 85.000
58.43122 62.000
58.45117 68.000
58.47112 79.000
58.49106 65.000
58.51101 75.000
58.53096 65.000
58.55090 61.000
58.57085 40.000
58.59080 80.000
58.61075 66.000
58.63069 51.000
58.65064 65.000
58.67059 47.000
58.69053 55.000
58.71048 45.000
58.73043 53.000
58.75037 57.000
58.77032 52.000
58.79027 40.000
58.81022 64.000
58.83016 53.000
58.85011 51.000
58.87006 63.000
58.89000 44.000
58.90995 48.000
58.92990 63.000
58.94984 51.000
58.96979 41.000
58.98974 47.000
59.00969 50.000
59.02963 45.000
59.04958 59.000
59.06953 55.000
59.08947 47.000
59.10942 52.000
59.12937 69.000
59.14931 62.000
59.16926 54.000
59.18921 46.000
59.20915 50.000
59.22910 55.000
59.24905 64.000
59.26900 46.000
59.28894 70.000
59.30889 52.000
59.32884 52.000
59.34878 68.000
59.36873 63.000
59.38868 49.000
59.40862 54.000
59.42857 58.000
59.44852 68.000
59.46847 62.000
59.48841 77.000
59.50836 73.000
59.52831 70.000
59.54825 50.000
59.56820 76.000
59.58815 75.000
59.60809 89.000
59.62804 90.000
59.64799 73.000
59.66793 92.000
59.68788 89.000
59.70783 108.000
59.72778 104.000
59.74772 99.000
59.76767 106.000
59.78762 122.000
59.80756 75.000
59.82751 84.000
59.84746 82.000
59.86740 92.000
59.88735 78.000
59.90730 88.000
59.92725 70.000
59.94719 71.000
59.96714 80.000
59.98709 65.000
60.00703 78.000
60.02698 66.000
60.04693 77.000
60.06687 60.000
60.08682 70.000
60.10677 55.000
60.12671 60.000
60.14666 58.000
60.16661 62.000
60.18656 65.000
60.20650 62.000
60.22645 55.000
60.24640 65.000
60.26634 57.000
60.28629 57.000
60.30624 82.000
60.32618 73.000
60.34613 77.000
60.36608 67.000
60.38603 65.000
60.40597 68.000
60.42592 79.000
60.44587 85.000
60.46581 78.000
60.48576 86.000
60.50571 84.000
60.52565 75.000
60.54560 93.000
60.56555 103.000
60.58550 84.000
60.60544 102.000
60.62539 73.000
60.64534 90.000
60.66528 85.000
60.68523 76.000
60.70518 83.000
60.72512 87.000
60.74507 93.000
60.76502 73.000
60.78496 84.000
60.80491 101.000
60.82486 88.000
60.84481 76.000
60.86475 89.000
60.88470 103.000
60.90465 83.000
60.92459 102.000
60.94454 88.000
60.96449 100.000
60.98443 98.000
61.00438 107.000
61.02433 105.000
61.04428 97.000
61.06422 106.000
61.08417 111.000
61.10412 100.000
61.12406 119.000
61.14401 87.000
61.16396 117.000
61.18390 89.000
61.20385 102.000
61.22380 99.000
61.24374 105.000
61.26369 111.000
61.28364 95.000
61.30359 117.000
61.32353 92.000
61.34348 101.000
61.36343 106.000
61.38337 99.000
61.40332 112.000
61.42327 128.000
61.44321 93.000
61.46316 117.000
61.48311 110.000
61.50306 87.000
61.52300 96.000
61.54295 101.000
61.56290 104.000
61.58284 102.000
61.60279 90.000
61.62274 101.000
61.64268 106.000
61.66263 98.000
61.68258 95.000
61.70252 75.000
61.72247 79.000
61.74242 87.000
61.76237 81.000
61.78231 86.000
61.80226 84.000
61.82221 80.000
61.84215 84.000
61.86210 77.000
61.88205 88.000
61.90199 101.000
61.92194 78.000
61.94189 108.000
61.96184 87.000
61.98178 84.000
62.00173 119.000
62.02168 98.000
62.04162 130.000
62.06157 93.000
62.08152 122.000
62.10146 130.000
62.12141 95.000
62.14136 108.000
62.16131 84.000
62.18125 95.000
62.20120 93.000
62.22115 103.000
62.24109 109.000
62.26104 86.000
62.28099 121.000
62.30093 105.000
62.32088 103.000
62.34083 99.000
62.36077 114.000
62.38072 98.000
62.40067 103.000
62.42062 112.000
62.44056 123.000
62.46051 121.000
62.48046 125.000
62.50040 131.000
62.52035 98.000
62.54030 117.000
62.56024 113.000
62.58019 109.000
62.60014 125.000
62.62009 102.000
62.64003 118.000
62.65998 126.000
62.67993 142.000
62.69987 110.000
62.71982 132.000
62.73977 125.000
62.75971 128.000
62.77966 136.000
62.79961 133.000
62.81955 122.000
62.83950 140.000
62.85945 146.000
62.87940 140.000
62.89934 136.000
62.91929 152.000
62.93924 146.000
62.95918 117.000
62.97913 128.000
62.99908 109.000
63.01902 126.000
63.03897 92.000
63.05892 97.000
63.07887 89.000
63.09881 105.000
63.11876 92.000
63.13871 104.000
63.15865 96.000
63.17860 89.000
63.19855 59.000
63.21849 80.000
63.23844 62.000
63.25839 59.000
63.27833 58.000
63.29828 83.000
63.31823 61.000
63.33818 54.000
63.35812 73.000
63.37807 55.000
63.39802 55.000
63.41796 58.000
63.43791 69.000
63.45786 53.000
63.47780 63.000
63.49775 72.000
63.51770 73.000
63.53765 74.000
63.55759 77.000
63.57754 61.000
63.59749 68.000
63.61743 87.000
63.63738 70.000
63.65733 65.000
63.67727 61.000
63.69722 78.000
63.71717 69.000
63.73712 63.000
63.75706 70.000
63.77701 68.000
63.79696 83.000
63.81690 77.000
63.83685 73.000
63.85680 101.000
63.87674 93.000
63.89669 87.000
63.91664 89.000
63.93658 110.000
63.95653 83.000
63.97648 126.000
63.99643 98.000
64.01637 112.000
64.03632 90.000
64.05627 94.000
64.07621 104.000
64.09616 113.000
64.11611 92.000
64.13605 127.000
64.15600 118.000
64.17595 115.000
64.19590 128.000
64.21584 112.000
64.23579 100.000
64.25574 108.000
64.27568 103.000
64.29563 121.000
64.31558 110.000
64.33552 110.000
64.35547 111.000
64.37542 123.000
64.39536 139.000
64.41531 111.000
64.43526 100.000
64.45521 108.000
64.47515 119.000
64.49510 113.000
64.51505 107.000
64.53499 113.000
64.55494 79.000
64.57489 113.000
64.59483 110.000
64.61478 90.000
64.63473 92.000
64.65468 89.000
64.67462 95.000
64.69457 89.000
64.71452 86.000
64.73446 60.000
64.75441 70.000
64.77436 93.000
64.79430 82.000
64.81425 93.000
64.83420 94.000
64.85414 98.000
64.87409 88.000
64.89404 84.000
64.91399 87.000
64.93393 92.000
64.95388 88.000
64.97383 88.000
64.99377 92.000
65.01372 100.000
65.03367 96.000
65.05361 98.000
65.07356 113.000
65.09351 110.000
65.11346 81.000
65.13340 87.000
65.15335 92.000
65.17330 101.000
65.19324 111.000
65.21319 115.000
65.23314 104.000
65.25308 111.000
65.27303 134.000
65.29298 114.000
65.31293 123.000
65.33287 108.000
65.35282 137.000
65.37277 141.000
65.39271 127.000
65.41266 133.000
65.43261 133.000
65.45255 151.000
65.47250 138.000
65.49245 124.000
65.51239 141.000
65.53234 116.000
65.55229 123.000
65.57224 105.000
65.59218 133.000
65.61213 136.000
65.63208 115.000
65.65202 88.000
65.67197 105.000
65.69192 83.000
65.71186 107.000
65.73181 109.000
65.75176 116.000
65.77171 92.000
65.79165 117.000
65.81160 105.000
65.83155 109.000
65.85149 97.000
65.87144 110.000
65.89139 120.000
65.91133 106.000
65.93128 78.000
65.95123 91.000
65.97117 97.000
65.99112 85.000
66.01107 104.000
66.03102 106.000
66.05096 85.000
66.07091 85.000
66.09086 84.000
66.11080 64.000
66.13075 80.000
66.15070 71.000
66.17064 56.000
66.19059 70.000
66.21054 56.000
66.23049 62.000
66.25043 64.000
66.27038 62.000
66.29033 62.000
66.31027 64.000
66.33022 45.000
66.35017 77.000
66.37011 71.000
66.39006 74.000
66.41001 59.000
66.42995 64.000
66.44990 81.000
66.46985 64.000
66.48980 76.000
66.50974 67.000
66.52969 85.000
66.54964 74.000
66.56958 88.000
66.58953 79.000
66.60948 62.000
66.62942 80.000
66.64937 64.000
66.66932 68.000
66.68927 75.000
66.70921 77.000
66.72916 78.000
66.74911 81.000
66.76905 59.000
66.78900 78.000
66.80895 85.000
66.82889 78.000
66.84884 68.000
66.86879 85.000
66.88874 66.000
66.90868 69.000
66.92863 78.000
66.94858 78.000
66.96852 82.000
66.98847 59.000
67.00842 77.000
67.02836 73.000
67.04831 62.000
67.06826 66.000
67.08820 61.000
67.10815 67.000
67.12810 61.000
67.14805 67.000
67.16799 65.000
67.18794 52.000
67.20789 56.000
67.22783 66.000
67.24778 60.000
67.26773 57.000
67.28767 78.000
67.30762 56.000
67.32757 63.000
67.34752 55.000
67.36746 54.000
67.38741 54.000
67.40736 55.000
67.42730 64.000
67.44725 60.000
67.46720 66.000
67.48714 58.000
67.50709 60.000
67.52704 63.000
67.54698 64.000
67.56693 68.000
67.58688 67.000
67.60683 67.000
67.62677 60.000
67.64672 53.000
67.66667 78.000
67.68661 62.000
67.70656 57.000
67.72651 68.000
67.74645 69.000
67.76640 69.000
67.78635 79.000
67.80630 59.000
67.82624 81.000
67.84619 73.000
67.86614 89.000
67.88608 76.000
67.90603 68.000
67.92598 57.000
67.94592 68.000
67.96587 68.000
67.98582 68.000
68.00576 57.000
68.02571 72.000
68.04566 54.000
68.06561 53.000
68.08555 57.000
68.10550 52.000
68.12545 60.000
68.14539 65.000
68.16534 54.000
68.18529 53.000
68.20523 47.000
68.22518 38.000
68.24513 54.000
68.26508 43.000
68.28502 42.000
68.30497 61.000
68.32492 49.000
68.34486 43.000
68.36481 52.000
68.38476 39.000
68.40470 50.000
68.42465 57.000
68.44460 43.000
68.46455 62.000
68.48449 46.000
68.50444 58.000
68.52439 35.000
68.54433 46.000
68.56428 45.000
68.58423 57.000
68.60417 55.000
68.62412 53.000
68.64407 52.000
68.66401 65.000
68.68396 56.000
68.70391 62.000
68.72386 51.000
68.74380 55.000
68.76375 48.000
68.78370 46.000
68.80364 43.000
68.82359 45.000
68.84354 43.000
68.86348 49.000
68.88343 49.000
68.90338 35.000
68.92333 41.000
68.94327 37.000
68.96322 43.000
68.98317 41.000
69.00311 50.000
69.02306 56.000
69.04301 40.000
69.06295 46.000
69.08290 36.000
69.10285 44.000
69.12279 49.000
69.14274 26.000
69.16269 42.000
69.18264 31.000
69.20258 56.000
69.22253 49.000
69.24248 39.000
69.26242 47.000
69.28237 56.000
69.30232 53.000
69.32226 49.000
69.34221 48.000
69.36216 55.000
69.38211 42.000
69.40205 55.000
69.42200 58.000
69.44195 49.000
69.46189 45.000
69.48184 50.000
69.50179 63.000
69.52173 51.000
69.54168 73.000
69.56163 60.000
69.58157 64.000
69.60152 65.000
69.62147 60.000
69.64142 51.000
69.66136 59.000
69.68131 58.000
69.70126 59.000
69.72120 56.000
69.74115 54.000
69.76110 53.000
69.78104 56.000
69.80099 50.000
69.82094 55.000
69.84089 60.000
69.86083 42.000
69.88078 52.000
69.90073 48.000
69.92067 46.000
69.94062 47.000
69.96057 57.000
69.98051 38.000
70.00046 34.000
70.02041 41.000
70.04035 44.000
70.06030 52.000
70.08025 32.000
70.10020 51.000
70.12014 40.000
70.14009 43.000
70.16004 46.000
70.17998 36.000
70.19993 41.000
70.21988 33.000
70.23982 48.000
70.25977 40.000
70.27972 41.000
70.29967 45.000
70.31961 43.000
70.33956 39.000
70.35951 45.000
70.37945 29.000
70.39940 52.000
70.41935 39.000
70.43929 35.000
70.45924 29.000
70.47919 37.000
70.49914 49.000
70.51908 34.000
70.53903 47.000
70.55898 37.000
70.57892 54.000
70.59887 43.000
70.61882 44.000
70.63876 53.000
70.65871 46.000
70.67866 44.000
70.69860 42.000
70.71855 39.000
70.73850 42.000
70.75845 40.000
70.77839 42.000
70.79834 37.000
70.81829 40.000
70.83823 56.000
70.85818 53.000
70.87813 44.000
70.89807 35.000
70.91802 38.000
70.93797 42.000
70.95792 42.000
70.97786 30.000
70.99781 31.000
71.01776 39.000
71.03770 39.000
71.05765 40.000
71.07760 56.000
71.09754 40.000
71.11749 40.000
71.13744 42.000
71.15738 45.000
71.17733 47.000
71.19728 47.000
71.21723 46.000
71.23717 44.000
71.25712 57.000
71.27707 40.000
71.29701 36.000
71.31696 36.000
71.33691 41.000
71.35685 36.000
71.37680 46.000
71.39675 48.000
71.41670 45.000
71.43664 43.000
71.45659 53.000
71.47654 52.000
71.49648 50.000
71.51643 41.000
71.53638 47.000
71.55632 39.000
71.57627 34.000
71.59622 40.000
71.61616 45.000
71.63611 49.000
71.65606 55.000
71.67601 50.000
71.69595 55.000
71.71590 63.000
71.73585 42.000
71.75579 58.000
71.77574 38.000
71.79569 36.000
71.81563 41.000
71.83558 41.000
71.85553 39.000
71.87548 47.000
71.89542 44.000
71.91537 46.000
71.93532 41.000
71.95526 53.000
71.97521 44.000
71.99516 45.000
72.01510 55.000
72.03505 47.000
72.05500 49.000
72.07495 45.000
72.09489 50.000
72.11484 65.000
72.13479 50.000
72.15473 52.000
72.17468 31.000
72.19463 34.000
72.21457 60.000
72.23452 45.000
72.25447 41.000
72.27441 40.000
72.29436 42.000
72.31431 45.000
72.33426 53.000
72.35420 43.000
72.37415 39.000
72.39410 42.000
72.41404 36.000
72.43399 39.000
72.45394 55.000
72.47388 37.000
72.49383 40.000
72.51378 42.000
72.53373 52.000
72.55367 41.000
72.57362 45.000
72.59357 29.000
72.61351 44.000
72.63346 51.000
72.65341 46.000
72.67335 38.000
72.69330 41.000
72.71325 37.000
72.73319 46.000
72.75314 40.000
72.77309 41.000
72.79304 34.000
72.81298 21.000
72.83293 54.000
72.85288 44.000
72.87282 38.000
72.89277 44.000
72.91272 41.000
72.93266 44.000
72.95261 31.000
72.97256 45.000
72.99251 46.000
73.01245 35.000
73.03240 27.000
73.05235 49.000
73.07229 49.000
73.09224 40.000
73.11219 49.000
73.13213 33.000
73.15208 42.000
73.17203 41.000
73.19197 46.000
73.21192 44.000
73.23187 50.000
73.25182 56.000
73.27176 42.000
73.29171 48.000
73.31166 48.000
73.33160 47.000
73.35155 48.000
73.37150 46.000
73.39144 42.000
73.41139 45.000
73.43134 44.000
73.45129 39.000
73.47123 47.000
73.49118 65.000
73.51113 34.000
73.53107 47.000
73.55102 59.000
73.57097 52.000
73.59091 47.000
73.61086 46.000
73.63081 37.000
73.65076 41.000
73.67070 44.000
73.69065 63.000
73.71060 37.000
73.73054 45.000
73.75049 53.000
73.77044 59.000
73.79038 46.000
73.81033 60.000
73.83028 51.000
73.85022 52.000
73.87017 40.000
73.89012 62.000
73.91007 52.000
73.93001 58.000
73.94996 50.000
73.96991 49.000
73.98985 52.000
74.00980 55.000
74.02975 62.000
74.04969 60.000
74.06964 41.000
74.08959 68.000
74.10954 43.000
74.12948 42.000
74.14943 38.000
74.16938 45.000
74.18932 38.000
74.20927 70.000
74.22922 55.000
74.24916 46.000
74.26911 51.000
74.28906 41.000
74.30900 52.000
74.32895 48.000
74.34890 47.000
74.36885 45.000
74.38879 55.000
74.40874 45.000
74.42869 42.000
74.44863 48.000
74.46858 47.000
74.48853 46.000
74.50847 43.000
74.52842 48.000
74.54837 41.000
74.56832 45.000
74.58826 43.000
74.60821 55.000
74.62816 53.000
74.64810 59.000
74.66805 58.000
74.68800 50.000
74.70794 54.000
74.72789 43.000
74.74784 48.000
74.76778 42.000
74.78773 45.000
74.80768 49.000
74.82763 43.000
74.84757 41.000
74.86752 35.000
74.88747 33.000
74.90741 40.000
74.92736 63.000
74.94731 44.000
74.96725 39.000
74.98720 60.000
75.00715 43.000
75.02710 44.000
75.04704 39.000
75.06699 35.000
75.08694 39.000
75.10688 41.000
75.12683 48.000
75.14678 38.000
75.16672 52.000
75.18667 27.000
75.20662 36.000
75.22657 47.000
75.24651 39.000
75.26646 57.000
75.28641 46.000
75.30635 39.000
75.32630 40.000
75.34625 47.000
75.36619 37.000
75.38614 37.000
75.40609 40.000
75.42603 32.000
75.44598 38.000
75.46593 35.000
75.48588 20.000
75.50582 40.000
75.52577 38.000
75.54572 42.000
75.56566 35.000
75.58561 35.000
75.60556 37.000
75.62550 44.000
75.64545 30.000
75.66540 25.000
75.68535 51.000
75.70529 51.000
75.72524 30.000
75.74519 39.000
75.76513 37.000
75.78508 42.000
75.80503 44.000
75.82497 49.000
75.84492 40.000
75.86487 37.000
75.88481 34.000
75.90476 49.000
75.92471 45.000
75.94466 45.000
75.96460 35.000
75.98455 47.000
76.00450 44.000
76.02444 57.000
76.04439 51.000
76.06434 56.000
76.08428 64.000
76.10423 49.000
76.12418 64.000
76.14413 66.000
76.16407 61.000
76.18402 85.000
76.20397 56.000
76.22391 59.000
76.24386 69.000
76.26381 66.000
76.28375 69.000
76.30370 75.000
76.32365 58.000
76.34359 67.000
76.36354 74.000
76.38349 69.000
76.40344 57.000
76.42338 78.000
76.44333 66.000
76.46328 48.000
76.48322 53.000
76.50317 71.000
76.52312 56.000
76.54306 64.000
76.56301 77.000
76.58296 59.000
76.60291 63.000
76.62285 45.000
76.64280 56.000
76.66275 58.000
76.68269 64.000
76.70264 49.000
76.72259 51.000
76.74253 60.000
76.76248 49.000
76.78243 54.000
76.80238 59.000
76.82232 53.000
76.84227 56.000
76.86222 59.000
76.88216 48.000
76.90211 66.000
76.92206 42.000
76.94200 52.000
76.96195 58.000
76.98190 56.000
77.00184 70.000
77.02179 67.000
77.04174 64.000
77.06169 66.000
77.08163 48.000
77.10158 67.000
77.12153 56.000
77.14147 62.000
77.16142 61.000
77.18137 71.000
77.20131 56.000
77.22126 69.000
77.24121 79.000
77.26116 72.000
77.28110 75.000
77.30105 67.000
77.32100 73.000
77.34094 81.000
77.36089 58.000
77.38084 62.000
77.40078 77.000
77.42073 70.000
77.44068 62.000
77.46062 59.000
77.48057 61.000
77.50052 51.000
77.52047 53.000
77.54041 53.000
77.56036 69.000
77.58031 54.000
77.60025 56.000
77.62020 61.000
77.64015 55.000
77.66009 56.000
77.68004 51.000
77.69999 49.000
77.71994 57.000
77.73988 57.000
77.75983 50.000
77.77978 61.000
77.79972 62.000
77.81967 57.000
77.83962 55.000
77.85956 77.000
77.87951 63.000
77.89946 69.000
77.91940 44.000
77.93935 62.000
77.95930 59.000
77.97925 63.000
77.99919 48.000
78.01914 42.000
78.03909 44.000
78.05903 46.000
78.07898 38.000
78.09893 45.000
78.11887 53.000
78.13882 57.000
78.15877 48.000
78.17872 54.000
78.19866 56.000
78.21861 38.000
78.23856 44.000
78.25850 53.000
78.27845 51.000
78.29840 56.000
78.31834 46.000
78.33829 44.000
78.35824 68.000
78.37819 47.000
78.39813 51.000
78.41808 62.000
78.43803 51.000
78.45797 45.000
78.47792 50.000
78.49787 44.000
78.51781 53.000
78.53776 53.000
78.55771 63.000
78.57765 62.000
78.59760 53.000
78.61755 52.000
78.63750 49.000
78.65744 47.000
78.67739 55.000
78.69734 76.000
78.71728 60.000
78.73723 54.000
78.75718 60.000
78.77712 53.000
78.79707 49.000
78.81702 53.000
78.83697 50.000
78.85691 57.000
78.87686 42.000
78.89681 68.000
78.91675 48.000
78.93670 50.000
78.95665 30.000
78.97659 61.000
78.99654 47.000
79.01649 62.000
79.03643 39.000
79.05638 50.000
79.07633 49.000
79.09628 47.000
79.11622 49.000
79.13617 47.000
79.15612 46.000
79.17606 50.000
79.19601 39.000
79.21596 58.000
79.23590 50.000
79.25585 45.000
79.27580 47.000
79.29575 47.000
79.31569 45.000
79.33564 43.000
79.35559 48.000
79.37553 60.000
79.39548 62.000
79.41543 43.000
79.43537 47.000
79.45532 43.000
79.47527 48.000
79.49521 40.000
79.51516 39.000
79.53511 54.000
79.55506 48.000
79.57500 40.000
79.59495 49.000
79.61490 39.000
79.63484 51.000
79.65479 54.000
79.67474 44.000
79.69468 36.000
79.71463 47.000
79.73458 40.000
79.75453 40.000
79.77447 47.000
79.79442 43.000
79.81437 38.000
79.83431 48.000
79.85426 36.000
79.87421 47.000
79.89415 42.000
79.91410 44.000
79.93405 48.000
79.95399 46.000
79.97394 37.000
79.99389 49.000
80.01384 41.000
80.03378 34.000
80.05373 38.000
80.07368 43.000
80.09362 40.000
80.11357 48.000
80.13352 53.000
80.15346 45.000
80.17341 34.000
80.19336 49.000
80.21331 53.000
80.23325 34.000
80.25320 38.000
80.27315 51.000
80.29309 35.000
80.31304 43.000
80.33299 34.000
80.35293 39.000
80.37288 45.000
80.39283 54.000
80.41278 36.000
80.43272 38.000
80.45267 33.000
80.47262 38.000
80.49256 35.000
80.51251 45.000
80.53246 39.000
80.55240 49.000
80.57235 49.000
80.59230 43.000
80.61224 36.000
80.63219 30.000
80.65214 38.000
80.67209 57.000
80.69203 32.000
80.71198 34.000
80.73193 43.000
80.75187 45.000
80.77182 45.000
80.79177 39.000
80.81171 37.000
80.83166 34.000
80.85161 35.000
80.87156 37.000
80.89150 34.000
80.91145 55.000
80.93140 34.000
80.95134 35.000
80.97129 38.000
80.99124 39.000
81.01118 38.000
81.03113 45.000
81.05108 36.000
81.07102 29.000
81.09097 35.000
81.11092 34.000
81.13087 38.000
81.15081 42.000
81.17076 39.000
81.19071 29.000
81.21065 39.000
81.23060 28.000
81.25055 34.000
81.27049 45.000
81.29044 45.000
81.31039 41.000
81.33034 32.000
81.35028 38.000
81.37023 33.000
81.39018 38.000
81.41012 42.000
81.43007 41.000
81.45002 51.000
81.46996 32.000
81.48991 46.000
81.50986 42.000
81.52980 38.000
81.54975 45.000
81.56970 47.000
81.58965 47.000
81.60959 37.000
81.62954 37.000
81.64949 49.000
81.66943 40.000
81.68938 38.000
81.70933 50.000
81.72927 44.000
81.74922 39.000
81.76917 46.000
81.78912 38.000
81.80906 42.000
81.82901 29.000
81.84896 36.000
81.86890 29.000
81.88885 40.000
81.90880 40.000
81.92874 43.000
81.94869 43.000
81.96864 39.000
81.98859 34.000
82.00853 30.000
82.02848 36.000
82.04843 43.000
82.06837 33.000
82.08832 35.000
82.10827 39.000
82.12821 26.000
82.14816 45.000
82.16811 36.000
82.18805 26.000
82.20800 41.000
82.22795 33.000
82.24790 39.000
82.26784 25.000
82.28779 37.000
82.30774 48.000
82.32768 43.000
82.34763 38.000
82.36758 41.000
82.38752 38.000
82.40747 46.000
82.42742 35.000
82.44737 40.000
82.46731 40.000
82.48726 38.000
82.50721 36.000
82.52715 56.000
82.54710 37.000
82.56705 39.000
82.58699 47.000
82.60694 28.000
82.62689 51.000
82.64683 40.000
82.66678 44.000
82.68673 44.000
82.70668 47.000
82.72662 42.000
82.74657 48.000
82.76652 39.000
82.78646 50.000
82.80641 40.000
82.82636 41.000
82.84630 37.000
82.86625 50.000
82.88620 39.000
82.90615 47.000
82.92609 50.000
82.94604 41.000
82.96599 48.000
82.98593 40.000
83.00588 42.000
83.02583 27.000
83.04577 55.000
83.06572 48.000
83.08567 40.000
83.10561 48.000
83.12556 25.000
83.14551 37.000
83.16546 41.000
83.18540 39.000
83.20535 36.000
83.22530 43.000
83.24524 42.000
83.26519 32.000
83.28514 35.000
83.30508 33.000
83.32503 42.000
83.34498 36.000
83.36493 31.000
83.38487 38.000
83.40482 32.000
83.42477 39.000
83.44471 27.000
83.46466 35.000
83.48461 42.000
83.50455 32.000
83.52450 39.000
83.54445 31.000
83.56440 43.000
83.58434 40.000
83.60429 48.000
83.62424 48.000
83.64418 39.000
83.66413 42.000
83.68408 40.000
83.70402 46.000
83.72397 34.000
83.74392 52.000
83.76386 34.000
83.78381 38.000
83.80376 36.000
83.82371 51.000
83.84365 51.000
83.86360 38.000
83.88355 47.000
83.90349 27.000
83.92344 34.000
83.94339 34.000
83.96333 49.000
83.98328 48.000
84.00323 41.000
84.02318 48.000
84.04312 37.000
84.06307 49.000
84.08302 31.000
84.10296 28.000
84.12291 35.000
84.14286 32.000
84.16280 32.000
84.18275 42.000
84.20270 30.000
84.22264 43.000
84.24259 32.000
84.26254 32.000
84.28249 28.000
84.30243 26.000
84.32238 45.000
84.34233 43.000
84.36227 32.000
84.38222 35.000
84.40217 27.000
84.42211 37.000
84.44206 34.000
84.46201 49.000
84.48196 38.000
84.50190 45.000
84.52185 37.000
84.54180 36.000
84.56174 32.000
84.58169 36.000
84.60164 38.000
84.62158 38.000
84.64153 41.000
84.66148 45.000
84.68142 33.000
84.70137 57.000
84.72132 60.000
84.74127 55.000
84.76121 51.000
84.78116 49.000
84.80111 51.000
84.82105 45.000
84.84100 63.000
84.86095 46.000
84.88089 40.000
84.90084 46.000
84.92079 48.000
84.94074 44.000
84.96068 52.000
84.98063 41.000
85.00058 45.000
85.02052 35.000
85.04047 44.000
85.06042 46.000
85.08036 52.000
85.10031 35.000
85.12026 48.000
85.14021 42.000
85.16015 50.000
85.18010 31.000
85.20005 51.000
85.21999 36.000
85.23994 40.000
85.25989 39.000
85.27983 47.000
85.29978 52.000
85.31973 50.000
85.33967 23.000
85.35962 44.000
85.37957 38.000
85.39952 38.000
85.41946 55.000
85.43941 46.000
85.45936 49.000
85.47930 48.000
85.49925 46.000
85.51920 48.000
85.53914 43.000
85.55909 44.000
85.57904 44.000
85.59899 51.000
85.61893 39.000
85.63888 50.000
85.65883 55.000
85.67877 38.000
85.69872 46.000
85.71867 37.000
85.73861 47.000
85.75856 56.000
85.77851 47.000
85.79845 50.000
85.81840 56.000
85.83835 48.000
85.85830 40.000
85.87824 50.000
85.89819 51.000
85.91814 50.000
85.93808 44.000
85.95803 36.000
85.97798 47.000
85.99792 43.000
86.01787 51.000
86.03782 34.000
86.05777 41.000
86.07771 39.000
86.09766 47.000
86.11761 36.000
86.13755 41.000
86.15750 30.000
86.17745 46.000
86.19739 61.000
86.21734 50.000
86.23729 46.000
86.25723 54.000
86.27718 39.000
86.29713 49.000
86.31708 48.000
86.33702 42.000
86.35697 47.000
86.37692 56.000
86.39686 44.000
86.41681 63.000
86.43676 55.000
86.45670 43.000
86.47665 39.000
86.49660 48.000
86.51655 47.000
86.53649 40.000
86.55644 47.000
86.57639 36.000
86.59633 36.000
86.61628 39.000
86.63623 40.000
86.65617 32.000
86.67612 42.000
86.69607 45.000
86.71602 42.000
86.73596 43.000
86.75591 34.000
86.77586 32.000
86.79580 29.000
86.81575 41.000
86.83570 40.000
86.85564 41.000
86.87559 28.000
86.89554 34.000
86.91548 43.000
86.93543 28.000
86.95538 32.000
86.97533 35.000
86.99527 36.000
87.01522 33.000
87.03517 38.000
87.05511 40.000
87.07506 26.000
87.09501 39.000
87.11495 36.000
87.13490 34.000
87.15485 34.000
87.17480 35.000
87.19474 37.000
87.21469 36.000
87.23464 34.000
87.25458 33.000
87.27453 42.000
87.29448 33.000
87.31442 27.000
87.33437 43.000
87.35432 33.000
87.37426 31.000
87.39421 38.000
87.41416 38.000
87.43411 34.000
87.45405 39.000
87.47400 39.000
87.49395 36.000
87.51389 23.000
87.53384 32.000
87.55379 31.000
87.57373 40.000
87.59368 41.000
87.61363 32.000
87.63358 46.000
87.65352 46.000
87.67347 40.000
87.69342 33.000
87.71336 43.000
87.73331 37.000
87.75326 48.000
87.77320 33.000
87.79315 33.000
87.81310 42.000
87.83304 16.000
87.85299 41.000
87.87294 34.000
87.89289 30.000
87.91283 24.000
87.93278 24.000
87.95273 41.000
87.97267 29.000
87.99262 30.000
88.01257 32.000
88.03251 35.000
88.05246 33.000
88.07241 27.000
88.09236 36.000
88.11230 28.000
88.13225 39.000
88.15220 38.000
88.17214 34.000
88.19209 45.000
88.21204 22.000
88.23198 32.000
88.25193 25.000
88.27188 30.000
88.29183 34.000
88.31177 36.000
88.33172 27.000
88.35167 28.000
88.37161 33.000
88.39156 46.000
88.41151 30.000
88.43145 29.000
88.45140 43.000
88.47135 33.000
88.49129 39.000
88.51124 35.000
88.53119 27.000
88.55114 35.000
88.57108 45.000
88.59103 22.000
88.61098 29.000
88.63092 27.000
88.65087 32.000
88.67082 32.000
88.69076 27.000
88.71071 39.000
88.73066 38.000
88.75061 31.000
88.77055 33.000
88.79050 40.000
88.81045 31.000
88.83039 25.000
88.85034 33.000
88.87029 27.000
88.89023 27.000
88.91018 36.000
88.93013 27.000
88.95007 31.000
88.97002 34.000
88.98997 33.000
89.00992 36.000
89.02986 30.000
89.04981 31.000
89.06976 30.000
89.08970 28.000
89.10965 40.000
89.12960 46.000
89.14954 35.000
89.16949 25.000
89.18944 28.000
89.20939 38.000
89.22933 39.000
89.24928 45.000
89.26923 32.000
89.28917 35.000
89.30912 42.000
89.32907 28.000
89.34901 43.000
89.36896 41.000
89.38891 45.000
89.40885 33.000
89.42880 36.000
89.44875 33.000
89.46870 30.000
89.48864 34.000
89.50859 32.000
89.52854 39.000
89.54848 38.000
89.56843 44.000
89.58838 39.000
89.60832 27.000
89.62827 23.000
89.64822 37.000
89.66817 31.000
89.68811 30.000
89.70806 40.000
89.72801 35.000
89.74795 32.000
89.76790 47.000
89.78785 28.000
89.80779 30.000
89.82774 25.000
89.84769 25.000
89.86764 33.000
89.88758 26.000
89.90753 26.000
89.92748 36.000
89.94742 27.000
89.96737 31.000
89.98732 29.000
90.00726 39.000
