10.00000 92.000
10.01995 80.000
10.03989 85.000
10.05984 96.000
10.07979 81.000
10.09973 89.000
10.11968 86.000
10.13963 82.000
10.15958 81.000
10.17952 85.000
10.19947 99.000
10.21942 96.000
10.23936 99.000
10.25931 91.000
10.27926 81.000
10.29920 89.000
10.31915 98.000
10.33910 80.000
10.35905 85.000
10.37899 91.000
10.39894 88.000
10.41889 87.000
10.43883 81.000
10.45878 87.000
10.47873 86.000
10.49867 96.000
10.51862 94.000
10.53857 102.000
10.55851 77.000
10.57846 109.000
10.59841 77.000
10.61836 91.000
10.63830 92.000
10.65825 102.000
10.67820 97.000
10.69814 74.000
10.71809 105.000
10.73804 105.000
10.75798 95.000
10.77793 92.000
10.79788 84.000
10.81783 78.000
10.83777 93.000
10.85772 94.000
10.87767 74.000
10.89761 79.000
10.91756 80.000
10.93751 83.000
10.95745 80.000
10.97740 111.000
10.99735 80.000
11.01730 76.000
11.03724 84.000
11.05719 90.000
11.07714 100.000
11.09708 85.000
11.11703 87.000
11.13698 104.000
11.15692 81.000
11.17687 90.000
11.19682 100.000
11.21676 73.000
11.23671 77.000
11.25666 77.000
11.27661 86.000
11.29655 91.000
11.31650 99.000
11.33645 101.000
11.35639 95.000
11.37634 79.000
11.39629 96.000
11.41623 79.000
11.43618 80.000
11.45613 98.000
11.47608 78.000
11.49602 83.000
11.51597 90.000
11.53592 80.000
11.55586 86.000
11.57581 55.000
11.59576 104.000
11.61570 87.000
11.63565 83.000
11.65560 93.000
11.67554 98.000
11.69549 94.000
11.71544 95.000
11.73539 84.000
11.75533 81.000
11.77528 86.000
11.79523 87.000
11.81517 85.000
11.83512 86.000
11.85507 80.000
11.87501 94.000
11.89496 68.000
11.91491 78.000
11.93486 80.000
11.95480 79.000
11.97475 98.000
11.99470 80.000
12.01464 91.000
12.03459 86.000
12.05454 96.000
12.07448 90.000
12.09443 106.000
12.11438 98.000
12.13432 79.000
12.15427 96.000
12.17422 66.000
12.19417 75.000
12.21411 93.000
12.23406 73.000
12.25401 82.000
12.27395 79.000
12.29390 76.000
12.31385 86.000
12.33379 81.000
12.35374 91.000
12.37369 78.000
12.39364 81.000
12.41358 84.000
12.43353 75.000
12.45348 95.000
12.47342 97.000
12.49337 101.000
12.51332 94.000
12.53326 86.000
12.55321 81.000
12.57316 94.000
12.59311 90.000
12.61305 88.000
12.63300 91.000
12.65295 77.000
12.67289 90.000
12.69284 85.000
12.71279 74.000
12.73273 95.000
12.75268 89.000
12.77263 83.000
12.79257 100.000
12.81252 100.000
12.83247 102.000
12.85242 82.000
12.87236 91.000
12.89231 98.000
12.91226 80.000
12.93220 78.000
12.95215 76.000
12.97210 88.000
12.99204 87.000
13.01199 83.000
13.03194 71.000
13.05189 74.000
13.07183 88.000
13.09178 72.000
13.11173 87.000
13.13167 79.000
13.15162 92.000
13.17157 98.000
13.19151 77.000
13.21146 92.000
13.23141 84.000
13.25135 87.000
13.27130 82.000
13.29125 94.000
13.31120 77.000
13.33114 87.000
13.35109 84.000
13.37104 73.000
13.39098 80.000
13.41093 104.000
13.43088 88.000
13.45082 73.000
13.47077 91.000
13.49072 84.000
13.51067 68.000
13.53061 87.000
13.55056 79.000
13.57051 96.000
13.59045 82.000
13.61040 78.000
13.63035 90.000
13.65029 94.000
13.67024 79.000
13.69019 84.000
13.71013 75.000
13.73008 86.000
13.75003 93.000
13.76998 87.000
13.78992 89.000
13.80987 108.000
13.82982 74.000
13.84976 88.000
13.86971 80.000
13.88966 77.000
13.90960 94.000
13.92955 92.000
13.94950 101.000
13.96945 94.000
13.98939 77.000
14.00934 81.000
14.02929 89.000
14.04923 97.000
14.06918 90.000
14.08913 73.000
14.10907 88.000
14.12902 93.000
14.14897 90.000
14.16892 85.000
14.18886 94.000
14.20881 97.000
14.22876 93.000
14.24870 93.000
14.26865 79.000
14.28860 98.000
14.30854 99.000
14.32849 98.000
14.34844 78.000
14.36838 85.000
14.38833 78.000
14.40828 79.000
14.42823 98.000
14.44817 81.000
14.46812 93.000
14.48807 86.000
14.50801 76.000
14.52796 85.000
14.54791 84.000
14.56785 96.000
14.58780 99.000
14.60775 96.000
14.62770 89.000
14.64764 87.000
14.66759 88.000
14.68754 77.000
14.70748 74.000
14.72743 88.000
14.74738 91.000
14.76732 87.000
14.78727 105.000
14.80722 91.000
14.82716 97.000
14.84711 76.000
14.86706 80.000
14.88701 105.000
14.90695 91.000
14.92690 100.000
14.94685 83.000
14.96679 90.000
14.98674 105.000
15.00669 94.000
15.02663 84.000
15.04658 88.000
15.06653 111.000
15.08648 97.000
15.10642 101.000
15.12637 110.000
15.14632 110.000
15.16626 135.000
15.18621 146.000
15.20616 123.000
15.22610 125.000
15.24605 130.000
15.26600 119.000
15.28594 125.000
15.30589 106.000
15.32584 111.000
15.34579 103.000
15.36573 126.000
15.38568 144.000
15.40563 139.000
15.42557 146.000
15.44552 137.000
15.46547 126.000
15.48541 141.000
15.50536 145.000
15.52531 168.000
15.54526 145.000
15.56520 201.000
15.58515 199.000
15.60510 233.000
15.62504 302.000
15.64499 359.000
15.66494 469.000
15.68488 679.000
15.70483 956.000
15.72478 1468.000
15.74472 2194.000
15.76467 3102.000
15.78462 3832.000
15.80457 4903.000
15.82451 6145.000
15.84446 7084.000
15.86441 6259.000
15.88435 4579.000
15.90430 2833.000
15.92425 1509.000
15.94419 725.000
15.96414 435.000
15.98409 332.000
16.00404 326.000
16.02398 309.000
16.04393 306.000
16.06388 355.000
16.08382 481.000
16.10377 561.000
16.12372 670.000
16.14366 718.000
16.16361 749.000
16.18356 719.000
16.20351 634.000
16.22345 448.000
16.24340 356.000
16.26335 309.000
16.28329 228.000
16.30324 211.000
16.32319 144.000
16.34313 164.000
16.36308 112.000
16.38303 124.000
16.40297 108.000
16.42292 135.000
16.44287 115.000
16.46282 106.000
16.48276 96.000
16.50271 114.000
16.52266 97.000
16.54260 106.000
16.56255 105.000
16.58250 90.000
16.60244 110.000
16.62239 96.000
16.64234 116.000
16.66229 89.000
16.68223 100.000
16.70218 113.000
16.72213 96.000
16.74207 90.000
16.76202 94.000
16.78197 80.000
16.80191 90.000
16.82186 81.000
16.84181 101.000
16.86175 80.000
16.88170 81.000
16.90165 92.000
16.92160 103.000
16.94154 72.000
16.96149 86.000
16.98144 90.000
17.00138 93.000
17.02133 90.000
17.04128 69.000
17.06122 77.000
17.08117 89.000
17.10112 81.000
17.12107 88.000
17.14101 91.000
17.16096 93.000
17.18091 79.000
17.20085 89.000
17.22080 93.000
17.24075 91.000
17.26069 96.000
17.28064 81.000
17.30059 88.000
17.32053 92.000
17.34048 75.000
17.36043 79.000
17.38038 74.000
17.40032 97.000
17.42027 87.000
17.44022 84.000
17.46016 82.000
17.48011 76.000
17.50006 63.000
17.52000 76.000
17.53995 73.000
17.55990 73.000
17.57985 71.000
17.59979 77.000
17.61974 74.000
17.63969 83.000
17.65963 88.000
17.67958 93.000
17.69953 88.000
17.71947 80.000
17.73942 84.000
17.75937 85.000
17.77932 62.000
17.79926 89.000
17.81921 85.000
17.83916 74.000
17.85910 78.000
17.87905 81.000
17.89900 87.000
17.91894 78.000
17.93889 90.000
17.95884 86.000
17.97878 96.000
17.99873 84.000
18.01868 80.000
18.03863 96.000
18.05857 98.000
18.07852 83.000
18.09847 78.000
18.11841 75.000
18.13836 96.000
18.15831 105.000
18.17825 75.000
18.19820 92.000
18.21815 92.000
18.23810 94.000
18.25804 117.000
18.27799 139.000
18.29794 178.000
18.31788 172.000
18.33783 206.000
18.35778 196.000
18.37772 192.000
18.39767 143.000
18.41762 128.000
18.43756 112.000
18.45751 97.000
18.47746 102.000
18.49741 69.000
18.51735 101.000
18.53730 70.000
18.55725 84.000
18.57719 83.000
18.59714 73.000
18.61709 96.000
18.63703 64.000
18.65698 89.000
18.67693 90.000
18.69688 75.000
18.71682 87.000
18.73677 70.000
18.75672 93.000
18.77666 79.000
18.79661 100.000
18.81656 88.000
18.83650 81.000
18.85645 61.000
18.87640 88.000
18.89634 82.000
18.91629 76.000
18.93624 73.000
18.95619 67.000
18.97613 86.000
18.99608 84.000
19.01603 84.000
19.03597 79.000
19.05592 78.000
19.07587 85.000
19.09581 69.000
19.11576 83.000
19.13571 89.000
19.15566 78.000
19.17560 82.000
19.19555 71.000
19.21550 78.000
19.23544 84.000
19.25539 83.000
19.27534 75.000
19.29528 75.000
19.31523 82.000
19.33518 78.000
19.35513 81.000
19.37507 72.000
19.39502 81.000
19.41497 79.000
19.43491 86.000
19.45486 88.000
19.47481 70.000
19.49475 68.000
19.51470 74.000
19.53465 85.000
19.55459 87.000
19.57454 79.000
19.59449 74.000
19.61444 76.000
19.63438 66.000
19.65433 88.000
19.67428 68.000
19.69422 78.000
19.71417 86.000
19.73412 97.000
19.75406 77.000
19.77401 77.000
19.79396 69.000
19.81391 84.000
19.83385 81.000
19.85380 79.000
19.87375 77.000
19.89369 71.000
19.91364 84.000
19.93359 71.000
19.95353 83.000
19.97348 84.000
19.99343 74.000
20.01337 100.000
20.03332 77.000
20.05327 69.000
20.07322 80.000
20.09316 83.000
20.11311 71.000
20.13306 91.000
20.15300 80.000
20.17295 66.000
20.19290 98.000
20.21284 83.000
20.23279 93.000
20.25274 84.000
20.27269 82.000
20.29263 74.000
20.31258 102.000
20.33253 81.000
20.35247 67.000
20.37242 80.000
20.39237 77.000
20.41231 72.000
20.43226 91.000
20.45221 82.000
20.47215 96.000
20.49210 72.000
20.51205 80.000
20.53200 76.000
20.55194 82.000
20.57189 85.000
20.59184 92.000
20.61178 82.000
20.63173 89.000
20.65168 89.000
20.67162 70.000
20.69157 71.000
20.71152 78.000
20.73147 89.000
20.75141 69.000
20.77136 91.000
20.79131 89.000
20.81125 125.000
20.83120 117.000
20.85115 99.000
20.87109 95.000
20.89104 100.000
20.91099 126.000
20.93094 101.000
20.95088 101.000
20.97083 105.000
20.99078 112.000
21.01072 89.000
21.03067 110.000
21.05062 127.000
21.07056 103.000
21.09051 90.000
21.11046 84.000
21.13040 83.000
21.15035 96.000
21.17030 89.000
21.19025 79.000
21.21019 82.000
21.23014 93.000
21.25009 85.000
21.27003 74.000
21.28998 85.000
21.30993 74.000
21.32987 81.000
21.34982 66.000
21.36977 78.000
21.38972 82.000
21.40966 81.000
21.42961 83.000
21.44956 90.000
21.46950 81.000
21.48945 68.000
21.50940 81.000
21.52934 100.000
21.54929 86.000
21.56924 81.000
21.58918 80.000
21.60913 92.000
21.62908 73.000
21.64903 90.000
21.66897 85.000
21.68892 92.000
21.70887 71.000
21.72881 64.000
21.74876 79.000
21.76871 68.000
21.78865 89.000
21.80860 71.000
21.82855 82.000
21.84850 88.000
21.86844 65.000
21.88839 67.000
21.90834 84.000
21.92828 75.000
21.94823 73.000
21.96818 97.000
21.98812 82.000
22.00807 74.000
22.02802 87.000
22.04796 76.000
22.06791 83.000
22.08786 82.000
22.10781 77.000
22.12775 74.000
22.14770 81.000
22.16765 86.000
22.18759 79.000
22.20754 70.000
22.22749 69.000
22.24743 72.000
22.26738 91.000
22.28733 71.000
22.30728 73.000
22.32722 67.000
22.34717 80.000
22.36712 101.000
22.38706 81.000
22.40701 92.000
22.42696 77.000
22.44690 97.000
22.46685 85.000
22.48680 85.000
22.50675 70.000
22.52669 67.000
22.54664 91.000
22.56659 74.000
22.58653 81.000
22.60648 87.000
22.62643 67.000
22.64637 72.000
22.66632 90.000
22.68627 92.000
22.70621 68.000
22.72616 86.000
22.74611 74.000
22.76606 85.000
22.78600 90.000
22.80595 70.000
22.82590 79.000
22.84584 76.000
22.86579 76.000
22.88574 79.000
22.90568 73.000
22.92563 97.000
22.94558 72.000
22.96553 69.000
22.98547 76.000
23.00542 76.000
23.02537 70.000
23.04531 83.000
23.06526 93.000
23.08521 95.000
23.10515 86.000
23.12510 75.000
23.14505 72.000
23.16499 72.000
23.18494 90.000
23.20489 87.000
23.22484 77.000
23.24478 104.000
23.26473 87.000
23.28468 76.000
23.30462 85.000
23.32457 70.000
23.34452 82.000
23.36446 75.000
23.38441 70.000
23.40436 82.000
23.42431 72.000
23.44425 84.000
23.46420 72.000
23.48415 81.000
23.50409 88.000
23.52404 78.000
23.54399 89.000
23.56393 84.000
23.58388 74.000
23.60383 64.000
23.62377 77.000
23.64372 80.000
23.66367 90.000
23.68362 82.000
23.70356 80.000
23.72351 80.000
23.74346 92.000
23.76340 86.000
23.78335 95.000
23.80330 68.000
23.82324 69.000
23.84319 74.000
23.86314 83.000
23.88309 63.000
23.90303 81.000
23.92298 89.000
23.94293 92.000
23.96287 72.000
23.98282 66.000
24.00277 83.000
24.02271 74.000
24.04266 75.000
24.06261 81.000
24.08256 100.000
24.10250 76.000
24.12245 78.000
24.14240 83.000
24.16234 82.000
24.18229 82.000
24.20224 90.000
24.22218 79.000
24.24213 85.000
24.26208 87.000
24.28202 80.000
24.30197 85.000
24.32192 86.000
24.34187 80.000
24.36181 66.000
24.38176 87.000
24.40171 87.000
24.42165 66.000
24.44160 86.000
24.46155 70.000
24.48149 76.000
24.50144 81.000
24.52139 98.000
24.54134 93.000
24.56128 92.000
24.58123 86.000
24.60118 81.000
24.62112 83.000
24.64107 89.000
24.66102 88.000
24.68096 65.000
24.70091 83.000
24.72086 71.000
24.74080 86.000
24.76075 72.000
24.78070 92.000
24.80065 88.000
24.82059 68.000
24.84054 64.000
24.86049 70.000
24.88043 80.000
24.90038 99.000
24.92033 91.000
24.94027 101.000
24.96022 85.000
24.98017 68.000
25.00012 70.000
25.02006 76.000
25.04001 81.000
25.05996 75.000
25.07990 86.000
25.09985 88.000
25.11980 74.000
25.13974 70.000
25.15969 77.000
25.17964 80.000
25.19958 79.000
25.21953 72.000
25.23948 72.000
25.25943 72.000
25.27937 68.000
25.29932 86.000
25.31927 91.000
25.33921 85.000
25.35916 84.000
25.37911 85.000
25.39905 73.000
25.41900 72.000
25.43895 92.000
25.45890 104.000
25.47884 75.000
25.49879 90.000
25.51874 72.000
25.53868 64.000
25.55863 64.000
25.57858 88.000
25.59852 77.000
25.61847 78.000
25.63842 76.000
25.65837 96.000
25.67831 81.000
25.69826 66.000
25.71821 97.000
25.73815 82.000
25.75810 75.000
25.77805 86.000
25.79799 82.000
25.81794 72.000
25.83789 72.000
25.85783 74.000
25.87778 89.000
25.89773 83.000
25.91768 90.000
25.93762 63.000
25.95757 87.000
25.97752 79.000
25.99746 73.000
26.01741 88.000
26.03736 84.000
26.05730 74.000
26.07725 94.000
26.09720 96.000
26.11715 81.000
26.13709 87.000
26.15704 86.000
26.17699 80.000
26.19693 73.000
26.21688 99.000
26.23683 78.000
26.25677 78.000
26.27672 92.000
26.29667 84.000
26.31661 79.000
26.33656 79.000
26.35651 90.000
26.37646 72.000
26.39640 85.000
26.41635 79.000
26.43630 76.000
26.45624 85.000
26.47619 79.000
26.49614 89.000
26.51608 75.000
26.53603 88.000
26.55598 83.000
26.57593 83.000
26.59587 83.000
26.61582 91.000
26.63577 92.000
26.65571 98.000
26.67566 92.000
26.69561 75.000
26.71555 95.000
26.73550 88.000
26.75545 93.000
26.77539 86.000
26.79534 69.000
26.81529 73.000
26.83524 71.000
26.85518 101.000
26.87513 71.000
26.89508 80.000
26.91502 80.000
26.93497 67.000
26.95492 85.000
26.97486 65.000
26.99481 86.000
27.01476 74.000
27.03471 95.000
27.05465 74.000
27.07460 82.000
27.09455 89.000
27.11449 81.000
27.13444 95.000
27.15439 67.000
27.17433 80.000
27.19428 88.000
27.21423 90.000
27.23417 85.000
27.25412 106.000
27.27407 81.000
27.29402 99.000
27.31396 68.000
27.33391 76.000
27.35386 81.000
27.37380 80.000
27.39375 92.000
27.41370 99.000
27.43364 91.000
27.45359 80.000
27.47354 85.000
27.49349 79.000
27.51343 84.000
27.53338 96.000
27.55333 72.000
27.57327 88.000
27.59322 96.000
27.61317 99.000
27.63311 69.000
27.65306 97.000
27.67301 84.000
27.69296 92.000
27.71290 84.000
27.73285 86.000
27.75280 65.000
27.77274 84.000
27.79269 74.000
27.81264 93.000
27.83258 83.000
27.85253 73.000
27.87248 82.000
27.89242 89.000
27.91237 85.000
27.93232 96.000
27.95227 73.000
27.97221 89.000
27.99216 95.000
28.01211 93.000
28.03205 102.000
28.05200 83.000
28.07195 75.000
28.09189 91.000
28.11184 82.000
28.13179 64.000
28.15174 91.000
28.17168 78.000
28.19163 113.000
28.21158 89.000
28.23152 103.000
28.25147 80.000
28.27142 94.000
28.29136 96.000
28.31131 98.000
28.33126 93.000
28.35120 92.000
28.37115 90.000
28.39110 83.000
28.41105 96.000
28.43099 106.000
28.45094 90.000
28.47089 91.000
28.49083 91.000
28.51078 86.000
28.53073 73.000
28.55067 92.000
28.57062 81.000
28.59057 91.000
28.61052 83.000
28.63046 86.000
28.65041 94.000
28.67036 79.000
28.69030 95.000
28.71025 90.000
28.73020 75.000
28.75014 106.000
28.77009 96.000
28.79004 85.000
28.80998 96.000
28.82993 86.000
28.84988 83.000
28.86983 80.000
28.88977 94.000
28.90972 72.000
28.92967 78.000
28.94961 81.000
28.96956 79.000
28.98951 86.000
29.00945 90.000
29.02940 115.000
29.04935 80.000
29.06930 97.000
29.08924 80.000
29.10919 95.000
29.12914 88.000
29.14908 91.000
29.16903 92.000
29.18898 84.000
29.20892 82.000
29.22887 85.000
29.24882 99.000
29.26877 80.000
29.28871 91.000
29.30866 77.000
29.32861 81.000
29.34855 88.000
29.36850 85.000
29.38845 96.000
29.40839 98.000
29.42834 99.000
29.44829 91.000
29.46823 84.000
29.48818 99.000
29.50813 93.000
29.52808 98.000
29.54802 92.000
29.56797 83.000
29.58792 101.000
29.60786 84.000
29.62781 115.000
29.64776 116.000
29.66770 81.000
29.68765 93.000
29.70760 80.000
29.72755 82.000
29.74749 77.000
29.76744 83.000
29.78739 104.000
29.80733 101.000
29.82728 75.000
29.84723 96.000
29.86717 97.000
29.88712 114.000
29.90707 95.000
29.92701 94.000
29.94696 101.000
29.96691 89.000
29.98686 111.000
30.00680 104.000
30.02675 118.000
30.04670 139.000
30.06664 150.000
30.08659 172.000
30.10654 197.000
30.12648 205.000
30.14643 231.000
30.16638 248.000
30.18633 288.000
30.20627 285.000
30.22622 272.000
30.24617 251.000
30.26611 217.000
30.28606 205.000
30.30601 167.000
30.32595 155.000
30.34590 123.000
30.36585 109.000
30.38579 115.000
30.40574 101.000
30.42569 97.000
30.44564 84.000
30.46558 80.000
30.48553 104.000
30.50548 101.000
30.52542 91.000
30.54537 91.000
30.56532 89.000
30.58526 101.000
30.60521 94.000
30.62516 77.000
30.64511 94.000
30.66505 111.000
30.68500 60.000
30.70495 75.000
30.72489 87.000
30.74484 85.000
30.76479 89.000
30.78473 83.000
30.80468 66.000
30.82463 96.000
30.84458 104.000
30.86452 89.000
30.88447 95.000
30.90442 95.000
30.92436 86.000
30.94431 100.000
30.96426 95.000
30.98420 71.000
31.00415 97.000
31.02410 96.000
31.04404 91.000
31.06399 84.000
31.08394 93.000
31.10389 94.000
31.12383 90.000
31.14378 94.000
31.16373 104.000
31.18367 91.000
31.20362 91.000
31.22357 85.000
31.24351 95.000
31.26346 106.000
31.28341 85.000
31.30336 85.000
31.32330 85.000
31.34325 80.000
31.36320 80.000
31.38314 78.000
31.40309 99.000
31.42304 91.000
31.44298 85.000
31.46293 84.000
31.48288 83.000
31.50282 102.000
31.52277 76.000
31.54272 103.000
31.56267 92.000
31.58261 89.000
31.60256 79.000
31.62251 86.000
31.64245 98.000
31.66240 119.000
31.68235 111.000
31.70229 107.000
31.72224 111.000
31.74219 112.000
31.76214 119.000
31.78208 156.000
31.80203 164.000
31.82198 172.000
31.84192 215.000
31.86187 215.000
31.88182 232.000
31.90176 283.000
31.92171 301.000
31.94166 392.000
31.96160 462.000
31.98155 539.000
32.00150 600.000
32.02145 635.000
32.04139 617.000
32.06134 545.000
32.08129 513.000
32.10123 412.000
32.12118 330.000
32.14113 273.000
32.16107 226.000
32.18102 159.000
32.20097 142.000
32.22092 107.000
32.24086 112.000
32.26081 130.000
32.28076 90.000
32.30070 121.000
32.32065 103.000
32.34060 103.000
32.36054 97.000
32.38049 99.000
32.40044 137.000
32.42039 92.000
32.44033 111.000
32.46028 111.000
32.48023 107.000
32.50017 112.000
32.52012 122.000
32.54007 130.000
32.56001 126.000
32.57996 135.000
32.59991 130.000
32.61985 158.000
32.63980 131.000
32.65975 147.000
32.67970 162.000
32.69964 151.000
32.71959 131.000
32.73954 130.000
32.75948 129.000
32.77943 143.000
32.79938 138.000
32.81932 108.000
32.83927 101.000
32.85922 108.000
32.87917 101.000
32.89911 111.000
32.91906 109.000
32.93901 96.000
32.95895 83.000
32.97890 91.000
32.99885 93.000
33.01879 102.000
33.03874 110.000
33.05869 90.000
33.07863 86.000
33.09858 115.000
33.11853 86.000
33.13848 91.000
33.15842 90.000
33.17837 78.000
33.19832 78.000
33.21826 115.000
33.23821 98.000
33.25816 99.000
33.27810 86.000
33.29805 80.000
33.31800 84.000
33.33795 88.000
33.35789 92.000
33.37784 83.000
33.39779 92.000
33.41773 89.000
33.43768 95.000
33.45763 93.000
33.47757 93.000
33.49752 83.000
33.51747 73.000
33.53741 91.000
33.55736 96.000
33.57731 102.000
33.59726 98.000
33.61720 85.000
33.63715 95.000
33.65710 92.000
33.67704 91.000
33.69699 83.000
33.71694 93.000
33.73688 98.000
33.75683 85.000
33.77678 80.000
33.79673 73.000
33.81667 83.000
33.83662 106.000
33.85657 90.000
33.87651 106.000
33.89646 92.000
33.91641 105.000
33.93635 99.000
33.95630 98.000
33.97625 102.000
33.99620 117.000
34.01614 82.000
34.03609 81.000
34.05604 95.000
34.07598 90.000
34.09593 91.000
34.11588 105.000
34.13582 86.000
34.15577 100.000
34.17572 113.000
34.19566 95.000
34.21561 99.000
34.23556 98.000
34.25551 104.000
34.27545 110.000
34.29540 109.000
34.31535 125.000
34.33529 121.000
34.35524 115.000
34.37519 109.000
34.39513 137.000
34.41508 118.000
34.43503 129.000
34.45498 138.000
34.47492 121.000
34.49487 135.000
34.51482 130.000
34.53476 117.000
34.55471 119.000
34.57466 129.000
34.59460 124.000
34.61455 114.000
34.63450 134.000
34.65444 94.000
34.67439 134.000
34.69434 107.000
34.71429 133.000
34.73423 130.000
34.75418 112.000
34.77413 117.000
34.79407 112.000
34.81402 108.000
34.83397 117.000
34.85391 100.000
34.87386 108.000
34.89381 115.000
34.91376 113.000
34.93370 104.000
34.95365 100.000
34.97360 101.000
34.99354 97.000
35.01349 111.000
35.03344 105.000
35.05338 119.000
35.07333 108.000
35.09328 111.000
35.11322 116.000
35.13317 142.000
35.15312 127.000
35.17307 149.000
35.19301 127.000
35.21296 148.000
35.23291 156.000
35.25285 154.000
35.27280 180.000
35.29275 190.000
35.31269 242.000
35.33264 290.000
35.35259 350.000
35.37254 490.000
35.39248 623.000
35.41243 846.000
35.43238 894.000
35.45232 980.000
35.47227 1028.000
35.49222 1039.000
35.51216 1152.000
35.53211 1088.000
35.55206 1092.000
35.57201 1142.000
35.59195 1182.000
35.61190 1044.000
35.63185 900.000
35.65179 792.000
35.67174 686.000
35.69169 664.000
35.71163 505.000
35.73158 394.000
35.75153 308.000
35.77147 261.000
35.79142 236.000
35.81137 181.000
35.83132 158.000
35.85126 160.000
35.87121 127.000
35.89116 134.000
35.91110 111.000
35.93105 135.000
35.95100 115.000
35.97094 96.000
35.99089 101.000
36.01084 140.000
36.03079 98.000
36.05073 94.000
36.07068 104.000
36.09063 97.000
36.11057 108.000
36.13052 98.000
36.15047 103.000
36.17041 93.000
36.19036 118.000
36.21031 91.000
36.23025 99.000
36.25020 87.000
36.27015 109.000
36.29010 93.000
36.31004 124.000
36.32999 113.000
36.34994 127.000
36.36988 102.000
36.38983 126.000
36.40978 143.000
36.42972 125.000
36.44967 139.000
36.46962 116.000
36.48957 129.000
36.50951 127.000
36.52946 151.000
36.54941 98.000
36.56935 118.000
36.58930 130.000
36.60925 113.000
36.62919 123.000
36.64914 110.000
36.66909 135.000
36.68903 130.000
36.70898 175.000
36.72893 172.000
36.74888 182.000
36.76882 193.000
36.78877 189.000
36.80872 181.000
36.82866 165.000
36.84861 155.000
36.86856 154.000
36.88850 134.000
36.90845 133.000
36.92840 114.000
36.94835 112.000
36.96829 91.000
36.98824 119.000
37.00819 111.000
37.02813 107.000
37.04808 109.000
37.06803 118.000
37.08797 118.000
37.10792 141.000
37.12787 154.000
37.14781 140.000
37.16776 175.000
37.18771 161.000
37.20766 148.000
37.22760 149.000
37.24755 152.000
37.26750 152.000
37.28744 128.000
37.30739 126.000
37.32734 116.000
37.34728 121.000
37.36723 118.000
37.38718 106.000
37.40713 107.000
37.42707 105.000
37.44702 99.000
37.46697 120.000
37.48691 76.000
37.50686 95.000
37.52681 96.000
37.54675 84.000
37.56670 94.000
37.58665 90.000
37.60660 91.000
37.62654 94.000
37.64649 97.000
37.66644 101.000
37.68638 100.000
37.70633 85.000
37.72628 95.000
37.74622 100.000
37.76617 101.000
37.78612 113.000
37.80606 95.000
37.82601 92.000
37.84596 94.000
37.86591 99.000
37.88585 90.000
37.90580 92.000
37.92575 85.000
37.94569 100.000
37.96564 83.000
37.98559 90.000
38.00553 102.000
38.02548 82.000
38.04543 87.000
38.06538 82.000
38.08532 100.000
38.10527 93.000
38.12522 86.000
38.14516 108.000
38.16511 92.000
38.18506 82.000
38.20500 99.000
38.22495 103.000
38.24490 93.000
38.26484 99.000
38.28479 95.000
38.30474 98.000
38.32469 93.000
38.34463 97.000
38.36458 100.000
38.38453 95.000
38.40447 110.000
38.42442 111.000
38.44437 94.000
38.46431 100.000
38.48426 149.000
38.50421 121.000
38.52416 127.000
38.54410 154.000
38.56405 148.000
38.58400 165.000
38.60394 186.000
38.62389 201.000
38.64384 180.000
38.66378 224.000
38.68373 223.000
38.70368 259.000
38.72362 251.000
38.74357 260.000
38.76352 274.000
38.78347 280.000
38.80341 262.000
38.82336 293.000
38.84331 289.000
38.86325 286.000
38.88320 293.000
38.90315 302.000
38.92309 359.000
38.94304 427.000
38.96299 534.000
38.98294 711.000
39.00288 973.000
39.02283 1207.000
39.04278 1250.000
39.06272 1223.000
39.08267 1102.000
39.10262 1082.000
39.12256 1103.000
39.14251 1081.000
39.16246 1054.000
39.18241 831.000
39.20235 777.000
39.22230 632.000
39.24225 551.000
39.26219 493.000
39.28214 434.000
39.30209 350.000
39.32203 293.000
39.34198 276.000
39.36193 220.000
39.38187 189.000
39.40182 176.000
39.42177 148.000
39.44172 139.000
39.46166 134.000
39.48161 142.000
39.50156 95.000
39.52150 110.000
39.54145 83.000
39.56140 109.000
39.58134 97.000
39.60129 88.000
39.62124 126.000
39.64119 112.000
39.66113 101.000
39.68108 113.000
39.70103 96.000
39.72097 91.000
39.74092 104.000
39.76087 118.000
39.78081 126.000
39.80076 95.000
39.82071 84.000
39.84065 86.000
39.86060 87.000
39.88055 96.000
39.90050 103.000
39.92044 81.000
39.94039 93.000
39.96034 85.000
39.98028 93.000
40.00023 97.000
40.02018 94.000
40.04012 92.000
40.06007 98.000
40.08002 89.000
40.09997 98.000
40.11991 103.000
40.13986 92.000
40.15981 85.000
40.17975 85.000
40.19970 87.000
40.21965 85.000
40.23959 96.000
40.25954 89.000
40.27949 94.000
40.29943 81.000
40.31938 110.000
40.33933 86.000
40.35928 90.000
40.37922 104.000
40.39917 101.000
40.41912 93.000
40.43906 88.000
40.45901 84.000
40.47896 86.000
40.49890 85.000
40.51885 89.000
40.53880 87.000
40.55875 89.000
40.57869 80.000
40.59864 104.000
40.61859 76.000
40.63853 86.000
40.65848 104.000
40.67843 89.000
40.69837 85.000
40.71832 93.000
40.73827 91.000
40.75822 83.000
40.77816 85.000
40.79811 84.000
40.81806 82.000
40.83800 75.000
40.85795 100.000
40.87790 82.000
40.89784 100.000
40.91779 82.000
40.93774 73.000
40.95768 100.000
40.97763 81.000
40.99758 86.000
41.01753 96.000
41.03747 116.000
41.05742 102.000
41.07737 84.000
41.09731 94.000
41.11726 103.000
41.13721 89.000
41.15715 100.000
41.17710 107.000
41.19705 92.000
41.21700 84.000
41.23694 108.000
41.25689 112.000
41.27684 106.000
41.29678 98.000
41.31673 125.000
41.33668 124.000
41.35662 122.000
41.37657 132.000
41.39652 135.000
41.41646 123.000
41.43641 155.000
41.45636 160.000
41.47631 217.000
41.49625 304.000
41.51620 354.000
41.53615 530.000
41.55609 590.000
41.57604 550.000
41.59599 434.000
41.61593 367.000
41.63588 391.000
41.65583 415.000
41.67578 380.000
41.69572 284.000
41.71567 228.000
41.73562 178.000
41.75556 159.000
41.77551 129.000
41.79546 132.000
41.81540 130.000
41.83535 113.000
41.85530 100.000
41.87524 96.000
41.89519 93.000
41.91514 99.000
41.93509 86.000
41.95503 122.000
41.97498 105.000
41.99493 89.000
42.01487 76.000
42.03482 113.000
42.05477 94.000
42.07471 105.000
42.09466 94.000
42.11461 84.000
42.13456 82.000
42.15450 75.000
42.17445 94.000
42.19440 94.000
42.21434 99.000
42.23429 104.000
42.25424 93.000
42.27418 98.000
42.29413 90.000
42.31408 88.000
42.33403 84.000
42.35397 101.000
42.37392 111.000
42.39387 96.000
42.41381 95.000
42.43376 90.000
42.45371 84.000
42.47365 99.000
42.49360 97.000
42.51355 100.000
42.53349 88.000
42.55344 89.000
42.57339 93.000
42.59334 84.000
42.61328 118.000
42.63323 94.000
42.65318 84.000
42.67312 82.000
42.69307 93.000
42.71302 107.000
42.73296 90.000
42.75291 90.000
42.77286 93.000
42.79281 102.000
42.81275 97.000
42.83270 110.000
42.85265 107.000
42.87259 105.000
42.89254 124.000
42.91249 123.000
42.93243 137.000
42.95238 161.000
42.97233 165.000
42.99227 159.000
43.01222 185.000
43.03217 181.000
43.05212 198.000
43.07206 234.000
43.09201 274.000
43.11196 364.000
43.13190 443.000
43.15185 527.000
43.17180 659.000
43.19174 659.000
43.21169 657.000
43.23164 664.000
43.25159 621.000
43.27153 638.000
43.29148 640.000
43.31143 539.000
43.33137 475.000
43.35132 442.000
43.37127 363.000
43.39121 333.000
43.41116 291.000
43.43111 224.000
43.45105 203.000
43.47100 195.000
43.49095 162.000
43.51090 129.000
43.53084 126.000
43.55079 111.000
43.57074 114.000
43.59068 106.000
43.61063 110.000
43.63058 78.000
43.65052 98.000
43.67047 88.000
43.69042 100.000
43.71037 109.000
43.73031 98.000
43.75026 101.000
43.77021 83.000
43.79015 95.000
43.81010 77.000
43.83005 82.000
43.84999 94.000
43.86994 114.000
43.88989 56.000
43.90984 87.000
43.92978 80.000
43.94973 94.000
43.96968 106.000
43.98962 91.000
44.00957 89.000
44.02952 79.000
44.04946 83.000
44.06941 90.000
44.08936 99.000
44.10930 101.000
44.12925 113.000
44.14920 91.000
44.16915 96.000
44.18909 88.000
44.20904 65.000
44.22899 97.000
44.24893 85.000
44.26888 83.000
44.28883 84.000
44.30877 83.000
44.32872 103.000
44.34867 88.000
44.36862 103.000
44.38856 83.000
44.40851 104.000
44.42846 76.000
44.44840 76.000
44.46835 90.000
44.48830 85.000
44.50824 82.000
44.52819 82.000
44.54814 76.000
44.56808 88.000
44.58803 91.000
44.60798 90.000
44.62793 107.000
44.64787 83.000
44.66782 78.000
44.68777 82.000
44.70771 80.000
44.72766 89.000
44.74761 85.000
44.76755 92.000
44.78750 91.000
44.80745 96.000
44.82740 90.000
44.84734 91.000
44.86729 109.000
44.88724 107.000
44.90718 92.000
44.92713 86.000
44.94708 109.000
44.96702 91.000
44.98697 86.000
45.00692 97.000
45.02686 80.000
45.04681 101.000
45.06676 88.000
45.08671 84.000
45.10665 97.000
45.12660 87.000
45.14655 87.000
45.16649 71.000
45.18644 107.000
45.20639 74.000
45.22633 74.000
45.24628 104.000
45.26623 70.000
45.28618 84.000
45.30612 63.000
45.32607 89.000
45.34602 82.000
45.36596 88.000
45.38591 63.000
45.40586 71.000
45.42580 78.000
45.44575 70.000
45.46570 85.000
45.48565 91.000
45.50559 84.000
45.52554 89.000
45.54549 89.000
45.56543 88.000
45.58538 85.000
45.60533 74.000
45.62527 73.000
45.64522 83.000
45.66517 67.000
45.68511 90.000
45.70506 80.000
45.72501 68.000
45.74496 96.000
45.76490 93.000
45.78485 81.000
45.80480 93.000
45.82474 92.000
45.84469 79.000
45.86464 72.000
45.88458 84.000
45.90453 92.000
45.92448 87.000
45.94443 82.000
45.96437 89.000
45.98432 74.000
46.00427 75.000
46.02421 71.000
46.04416 79.000
46.06411 79.000
46.08405 83.000
46.10400 87.000
46.12395 75.000
46.14389 83.000
46.16384 90.000
46.18379 89.000
46.20374 93.000
46.22368 104.000
46.24363 89.000
46.26358 101.000
46.28352 98.000
46.30347 98.000
46.32342 88.000
46.34336 93.000
46.36331 92.000
46.38326 91.000
46.40321 89.000
46.42315 97.000
46.44310 91.000
46.46305 92.000
46.48299 95.000
46.50294 91.000
46.52289 85.000
46.54283 81.000
46.56278 87.000
46.58273 104.000
46.60267 73.000
46.62262 97.000
46.64257 76.000
46.66252 86.000
46.68246 84.000
46.70241 77.000
46.72236 79.000
46.74230 90.000
46.76225 71.000
46.78220 91.000
46.80214 87.000
46.82209 89.000
46.84204 78.000
46.86199 83.000
46.88193 84.000
46.90188 68.000
46.92183 88.000
46.94177 91.000
46.96172 88.000
46.98167 87.000
47.00161 81.000
47.02156 85.000
47.04151 84.000
47.06146 101.000
47.08140 86.000
47.10135 74.000
47.12130 77.000
47.14124 84.000
47.16119 64.000
47.18114 104.000
47.20108 80.000
47.22103 67.000
47.24098 91.000
47.26092 89.000
47.28087 91.000
47.30082 90.000
47.32077 89.000
47.34071 93.000
47.36066 88.000
47.38061 100.000
47.40055 77.000
47.42050 92.000
47.44045 80.000
47.46039 83.000
47.48034 98.000
47.50029 90.000
47.52024 82.000
47.54018 90.000
47.56013 92.000
47.58008 75.000
47.60002 102.000
47.61997 80.000
47.63992 79.000
47.65986 87.000
47.67981 96.000
47.69976 75.000
47.71970 89.000
47.73965 93.000
47.75960 84.000
47.77955 103.000
47.79949 81.000
47.81944 91.000
47.83939 93.000
47.85933 87.000
47.87928 115.000
47.89923 86.000
47.91917 94.000
47.93912 91.000
47.95907 99.000
47.97902 109.000
47.99896 97.000
48.01891 104.000
48.03886 98.000
48.05880 124.000
48.07875 92.000
48.09870 117.000
48.11864 111.000
48.13859 101.000
48.15854 128.000
48.17848 131.000
48.19843 123.000
48.21838 142.000
48.23833 132.000
48.25827 157.000
48.27822 170.000
48.29817 204.000
48.31811 198.000
48.33806 217.000
48.35801 256.000
48.37795 303.000
48.39790 350.000
48.41785 472.000
48.43780 570.000
48.45774 789.000
48.47769 978.000
48.49764 1159.000
48.51758 1165.000
48.53753 1126.000
48.55748 1032.000
48.57742 913.000
48.59737 895.000
48.61732 907.000
48.63726 871.000
48.65721 757.000
48.67716 647.000
48.69711 510.000
48.71705 502.000
48.73700 409.000
48.75695 297.000
48.77689 270.000
48.79684 230.000
48.81679 210.000
48.83673 219.000
48.85668 190.000
48.87663 171.000
48.89658 176.000
48.91652 139.000
48.93647 134.000
48.95642 125.000
48.97636 132.000
48.99631 112.000
49.01626 133.000
49.03620 103.000
49.05615 126.000
49.07610 99.000
49.09605 108.000
49.11599 95.000
49.13594 106.000
49.15589 116.000
49.17583 99.000
49.19578 114.000
49.21573 104.000
49.23567 100.000
49.25562 90.000
49.27557 87.000
49.29551 112.000
49.31546 81.000
49.33541 86.000
49.35536 87.000
49.37530 95.000
49.39525 86.000
49.41520 94.000
49.43514 88.000
49.45509 81.000
49.47504 81.000
49.49498 93.000
49.51493 80.000
49.53488 91.000
49.55483 98.000
49.57477 88.000
49.59472 77.000
49.61467 97.000
49.63461 88.000
49.65456 88.000
49.67451 106.000
49.69445 83.000
49.71440 73.000
49.73435 97.000
49.75429 97.000
49.77424 84.000
49.79419 85.000
49.81414 83.000
49.83408 103.000
49.85403 99.000
49.87398 92.000
49.89392 99.000
49.91387 68.000
49.93382 92.000
49.95376 87.000
49.97371 77.000
49.99366 86.000
50.01361 80.000
50.03355 89.000
50.05350 82.000
50.07345 101.000
50.09339 87.000
50.11334 75.000
50.13329 77.000
50.15323 93.000
50.17318 89.000
50.19313 87.000
50.21307 75.000
50.23302 97.000
50.25297 88.000
50.27292 88.000
50.29286 86.000
50.31281 88.000
50.33276 78.000
50.35270 75.000
50.37265 90.000
50.39260 69.000
50.41254 74.000
50.43249 76.000
50.45244 86.000
50.47239 83.000
50.49233 71.000
50.51228 76.000
50.53223 64.000
50.55217 73.000
50.57212 100.000
50.59207 81.000
50.61201 77.000
50.63196 83.000
50.65191 79.000
50.67186 91.000
50.69180 85.000
50.71175 85.000
50.73170 80.000
50.75164 69.000
50.77159 90.000
50.79154 88.000
50.81148 68.000
50.83143 87.000
50.85138 93.000
50.87132 66.000
50.89127 85.000
50.91122 67.000
50.93117 89.000
50.95111 88.000
50.97106 92.000
50.99101 80.000
51.01095 98.000
51.03090 72.000
51.05085 78.000
51.07079 80.000
51.09074 82.000
51.11069 79.000
51.13064 77.000
51.15058 89.000
51.17053 69.000
51.19048 75.000
51.21042 86.000
51.23037 92.000
51.25032 103.000
51.27026 77.000
51.29021 92.000
51.31016 84.000
51.33010 84.000
51.35005 78.000
51.37000 82.000
51.38995 77.000
51.40989 83.000
51.42984 82.000
51.44979 97.000
51.46973 74.000
51.48968 75.000
51.50963 95.000
51.52957 86.000
51.54952 91.000
51.56947 88.000
51.58942 98.000
51.60936 68.000
51.62931 79.000
51.64926 88.000
51.66920 83.000
51.68915 83.000
51.70910 71.000
51.72904 102.000
51.74899 79.000
51.76894 82.000
51.78888 76.000
51.80883 89.000
51.82878 76.000
51.84873 94.000
51.86867 84.000
51.88862 85.000
51.90857 85.000
51.92851 63.000
51.94846 77.000
51.96841 84.000
51.98835 85.000
52.00830 86.000
52.02825 72.000
52.04820 90.000
52.06814 69.000
52.08809 83.000
52.10804 88.000
52.12798 66.000
52.14793 73.000
52.16788 87.000
52.18782 86.000
52.20777 78.000
52.22772 96.000
52.24767 78.000
52.26761 79.000
52.28756 87.000
52.30751 71.000
52.32745 81.000
52.34740 84.000
52.36735 96.000
52.38729 73.000
52.40724 77.000
52.42719 80.000
52.44713 71.000
52.46708 71.000
52.48703 83.000
52.50698 97.000
52.52692 85.000
52.54687 84.000
52.56682 96.000
52.58676 75.000
52.60671 82.000
52.62666 91.000
52.64660 76.000
52.66655 99.000
52.68650 75.000
52.70645 89.000
52.72639 82.000
52.74634 78.000
52.76629 107.000
52.78623 85.000
52.80618 87.000
52.82613 104.000
52.84607 120.000
52.86602 134.000
52.88597 111.000
52.90591 139.000
52.92586 126.000
52.94581 104.000
52.96576 119.000
52.98570 122.000
53.00565 127.000
53.02560 117.000
53.04554 106.000
53.06549 108.000
53.08544 103.000
53.10538 110.000
53.12533 90.000
53.14528 113.000
53.16523 90.000
53.18517 82.000
53.20512 93.000
53.22507 92.000
53.24501 96.000
53.26496 95.000
53.28491 106.000
53.30485 90.000
53.32480 91.000
53.34475 85.000
53.36469 82.000
53.38464 103.000
53.40459 98.000
53.42454 91.000
53.44448 106.000
53.46443 103.000
53.48438 118.000
53.50432 110.000
53.52427 130.000
53.54422 120.000
53.56416 124.000
53.58411 130.000
53.60406 114.000
53.62401 119.000
53.64395 127.000
53.66390 125.000
53.68385 110.000
53.70379 117.000
53.72374 114.000
53.74369 121.000
53.76363 108.000
53.78358 101.000
53.80353 116.000
53.82348 106.000
53.84342 105.000
53.86337 92.000
53.88332 93.000
53.90326 94.000
53.92321 98.000
53.94316 100.000
53.96310 91.000
53.98305 87.000
54.00300 86.000
54.02294 85.000
54.04289 73.000
54.06284 71.000
54.08279 84.000
54.10273 88.000
54.12268 73.000
54.14263 96.000
54.16257 83.000
54.18252 74.000
54.20247 78.000
54.22241 97.000
54.24236 76.000
54.26231 77.000
54.28226 90.000
54.30220 83.000
54.32215 84.000
54.34210 87.000
54.36204 101.000
54.38199 69.000
54.40194 76.000
54.42188 68.000
54.44183 79.000
54.46178 86.000
54.48172 69.000
54.50167 87.000
54.52162 100.000
54.54157 90.000
54.56151 79.000
54.58146 71.000
54.60141 95.000
54.62135 87.000
54.64130 91.000
54.66125 86.000
54.68119 72.000
54.70114 87.000
54.72109 80.000
54.74104 97.000
54.76098 76.000
54.78093 84.000
54.80088 76.000
54.82082 93.000
54.84077 77.000
54.86072 94.000
54.88066 93.000
54.90061 76.000
54.92056 81.000
54.94050 94.000
54.96045 76.000
54.98040 78.000
55.00035 90.000
55.02029 94.000
55.04024 72.000
55.06019 70.000
55.08013 88.000
55.10008 74.000
55.12003 64.000
55.13997 91.000
55.15992 74.000
55.17987 83.000
55.19982 89.000
55.21976 79.000
55.23971 92.000
55.25966 80.000
55.27960 81.000
55.29955 96.000
55.31950 74.000
55.33944 70.000
55.35939 78.000
55.37934 88.000
55.39929 79.000
55.41923 70.000
55.43918 76.000
55.45913 91.000
55.47907 64.000
55.49902 87.000
55.51897 96.000
55.53891 86.000
55.55886 80.000
55.57881 77.000
55.59875 77.000
55.61870 77.000
55.63865 91.000
55.65860 79.000
55.67854 83.000
55.69849 96.000
55.71844 77.000
55.73838 98.000
55.75833 84.000
55.77828 83.000
55.79822 59.000
55.81817 60.000
55.83812 90.000
55.85807 86.000
55.87801 77.000
55.89796 90.000
55.91791 72.000
55.93785 83.000
55.95780 96.000
55.97775 91.000
55.99769 81.000
56.01764 83.000
56.03759 94.000
56.05753 96.000
56.07748 85.000
56.09743 72.000
56.11738 69.000
56.13732 71.000
56.15727 86.000
56.17722 88.000
56.19716 91.000
56.21711 86.000
56.23706 70.000
56.25700 82.000
56.27695 74.000
56.29690 61.000
56.31685 84.000
56.33679 88.000
56.35674 84.000
56.37669 69.000
56.39663 97.000
56.41658 93.000
56.43653 92.000
56.45647 84.000
56.47642 83.000
56.49637 89.000
56.51631 89.000
56.53626 66.000
56.55621 79.000
56.57616 118.000
56.59610 85.000
56.61605 77.000
56.63600 78.000
56.65594 95.000
56.67589 93.000
56.69584 84.000
56.71578 84.000
56.73573 93.000
56.75568 74.000
56.77563 87.000
56.79557 83.000
56.81552 91.000
56.83547 111.000
56.85541 97.000
56.87536 121.000
56.89531 109.000
56.91525 94.000
56.93520 127.000
56.95515 115.000
56.97510 153.000
56.99504 153.000
57.01499 148.000
57.03494 133.000
57.05488 165.000
57.07483 154.000
57.09478 159.000
57.11472 189.000
57.13467 163.000
57.15462 194.000
57.17456 191.000
57.19451 202.000
57.21446 226.000
57.23441 196.000
57.25435 192.000
57.27430 204.000
57.29425 180.000
57.31419 163.000
57.33414 167.000
57.35409 160.000
57.37403 189.000
57.39398 155.000
57.41393 161.000
57.43388 178.000
57.45382 154.000
57.47377 144.000
57.49372 157.000
57.51366 190.000
57.53361 162.000
57.55356 159.000
57.57350 171.000
57.59345 149.000
57.61340 156.000
57.63334 142.000
57.65329 127.000
57.67324 117.000
57.69319 98.000
57.71313 116.000
57.73308 119.000
57.75303 107.000
57.77297 105.000
57.79292 97.000
57.81287 79.000
57.83281 101.000
57.85276 116.000
57.87271 111.000
57.89266 105.000
57.91260 76.000
57.93255 109.000
57.95250 98.000
57.97244 80.000
57.99239 91.000
58.01234 93.000
58.03228 86.000
58.05223 90.000
58.07218 104.000
58.09212 84.000
58.11207 89.000
58.13202 94.000
58.15197 91.000
58.17191 90.000
58.19186 84.000
58.21181 87.000
58.23175 100.000
58.25170 107.000
58.27165 101.000
58.29159 91.000
58.31154 102.000
58.33149 83.000
58.35144 94.000
58.37138 82.000
58.39133 104.000
58.41128 83.000
58.43122 94.000
58.45117 77.000
58.47112 97.000
58.49106 97.000
58.51101 94.000
58.53096 97.000
58.55090 74.000
58.57085 86.000
58.59080 77.000
58.61075 92.000
58.63069 86.000
58.65064 89.000
58.67059 89.000
58.69053 92.000
58.71048 78.000
58.73043 76.000
58.75037 87.000
58.77032 64.000
58.79027 101.000
58.81022 83.000
58.83016 78.000
58.85011 81.000
58.87006 81.000
58.89000 71.000
58.90995 72.000
58.92990 78.000
58.94984 73.000
58.96979 70.000
58.98974 105.000
59.00969 81.000
59.02963 94.000
59.04958 75.000
59.06953 80.000
59.08947 83.000
59.10942 74.000
59.12937 94.000
59.14931 96.000
59.16926 71.000
59.18921 90.000
59.20915 96.000
59.22910 72.000
59.24905 71.000
59.26900 83.000
59.28894 81.000
59.30889 83.000
59.32884 97.000
59.34878 82.000
59.36873 84.000
59.38868 83.000
59.40862 84.000
59.42857 96.000
59.44852 77.000
59.46847 80.000
59.48841 78.000
59.50836 84.000
59.52831 68.000
59.54825 105.000
59.56820 83.000
59.58815 87.000
59.60809 97.000
59.62804 68.000
59.64799 66.000
59.66793 91.000
59.68788 67.000
59.70783 90.000
59.72778 93.000
59.74772 81.000
59.76767 69.000
59.78762 101.000
59.80756 79.000
59.82751 83.000
59.84746 71.000
59.86740 90.000
59.88735 83.000
59.90730 82.000
59.92725 95.000
59.94719 91.000
59.96714 89.000
59.98709 98.000
60.00703 76.000
60.02698 87.000
60.04693 84.000
60.06687 72.000
60.08682 89.000
60.10677 84.000
60.12671 83.000
60.14666 74.000
60.16661 82.000
60.18656 87.000
60.20650 94.000
60.22645 102.000
60.24640 74.000
60.26634 78.000
60.28629 94.000
60.30624 91.000
60.32618 94.000
60.34613 97.000
60.36608 102.000
60.38603 86.000
60.40597 74.000
60.42592 91.000
60.44587 84.000
60.46581 109.000
60.48576 86.000
60.50571 94.000
60.52565 85.000
60.54560 70.000
60.56555 85.000
60.58550 95.000
60.60544 91.000
60.62539 87.000
60.64534 91.000
60.66528 80.000
60.68523 75.000
60.70518 99.000
60.72512 72.000
60.74507 87.000
60.76502 77.000
60.78496 85.000
60.80491 98.000
60.82486 111.000
60.84481 88.000
60.86475 85.000
60.88470 91.000
60.90465 88.000
60.92459 73.000
60.94454 88.000
60.96449 78.000
60.98443 88.000
61.00438 103.000
61.02433 82.000
61.04428 104.000
61.06422 76.000
61.08417 90.000
61.10412 74.000
61.12406 94.000
61.14401 81.000
61.16396 87.000
61.18390 79.000
61.20385 109.000
61.22380 111.000
61.24374 88.000
61.26369 97.000
61.28364 95.000
61.30359 117.000
61.32353 119.000
61.34348 127.000
61.36343 114.000
61.38337 129.000
61.40332 92.000
61.42327 120.000
61.44321 128.000
61.46316 138.000
61.48311 135.000
61.50306 131.000
61.52300 163.000
61.54295 135.000
61.56290 191.000
61.58284 169.000
61.60279 184.000
61.62274 212.000
61.64268 200.000
61.66263 272.000
61.68258 274.000
61.70252 311.000
61.72247 343.000
61.74242 416.000
61.76237 417.000
61.78231 459.000
61.80226 524.000
61.82221 519.000
61.84215 534.000
61.86210 479.000
61.88205 454.000
61.90199 390.000
61.92194 425.000
61.94189 367.000
61.96184 358.000
61.98178 358.000
62.00173 338.000
62.02168 300.000
62.04162 248.000
62.06157 265.000
62.08152 194.000
62.10146 199.000
62.12141 158.000
62.14136 171.000
62.16131 135.000
62.18125 150.000
62.20120 148.000
62.22115 130.000
62.24109 109.000
62.26104 130.000
62.28099 105.000
62.30093 117.000
62.32088 121.000
62.34083 121.000
62.36077 119.000
62.38072 117.000
62.40067 115.000
62.42062 129.000
62.44056 112.000
62.46051 141.000
62.48046 133.000
62.50040 132.000
62.52035 145.000
62.54030 145.000
62.56024 161.000
62.58019 158.000
62.60014 185.000
62.62009 195.000
62.64003 205.000
62.65998 210.000
62.67993 217.000
62.69987 216.000
62.71982 226.000
62.73977 248.000
62.75971 223.000
62.77966 227.000
62.79961 254.000
62.81955 262.000
62.83950 284.000
62.85945 340.000
62.87940 290.000
62.89934 278.000
62.91929 269.000
62.93924 234.000
62.95918 209.000
62.97913 204.000
62.99908 239.000
63.01902 220.000
63.03897 226.000
63.05892 193.000
63.07887 206.000
63.09881 146.000
63.11876 140.000
63.13871 132.000
63.15865 125.000
63.17860 141.000
63.19855 118.000
63.21849 114.000
63.23844 133.000
63.25839 116.000
63.27833 135.000
63.29828 149.000
63.31823 118.000
63.33818 111.000
63.35812 107.000
63.37807 107.000
63.39802 128.000
63.41796 108.000
63.43791 125.000
63.45786 125.000
63.47780 142.000
63.49775 171.000
63.51770 199.000
63.53765 231.000
63.55759 239.000
63.57754 297.000
63.59749 350.000
63.61743 342.000
63.63738 319.000
63.65733 338.000
63.67727 309.000
63.69722 307.000
63.71717 263.000
63.73712 308.000
63.75706 297.000
63.77701 315.000
63.79696 296.000
63.81690 296.000
63.83685 247.000
63.85680 250.000
63.87674 228.000
63.89669 225.000
63.91664 234.000
63.93658 212.000
63.95653 215.000
63.97648 193.000
63.99643 182.000
64.01637 196.000
64.03632 173.000
64.05627 166.000
64.07621 149.000
64.09616 184.000
64.11611 158.000
64.13605 148.000
64.15600 141.000
64.17595 128.000
64.19590 131.000
64.21584 156.000
64.23579 125.000
64.25574 119.000
64.27568 111.000
64.29563 124.000
64.31558 105.000
64.33552 100.000
64.35547 105.000
64.37542 104.000
64.39536 91.000
64.41531 110.000
64.43526 95.000
64.45521 102.000
64.47515 84.000
64.49510 103.000
64.51505 95.000
64.53499 100.000
64.55494 76.000
64.57489 95.000
64.59483 97.000
64.61478 77.000
64.63473 94.000
64.65468 85.000
64.67462 81.000
64.69457 88.000
64.71452 102.000
64.73446 94.000
64.75441 75.000
64.77436 84.000
64.79430 86.000
64.81425 91.000
64.83420 67.000
64.85414 102.000
64.87409 100.000
64.89404 89.000
64.91399 92.000
64.93393 76.000
64.95388 92.000
64.97383 103.000
64.99377 90.000
65.01372 92.000
65.03367 79.000
65.05361 88.000
65.07356 83.000
65.09351 96.000
65.11346 81.000
65.13340 87.000
65.15335 95.000
65.17330 103.000
65.19324 90.000
65.21319 95.000
65.23314 106.000
65.25308 125.000
65.27303 94.000
65.29298 105.000
65.31293 118.000
65.33287 106.000
65.35282 125.000
65.37277 131.000
65.39271 117.000
65.41266 114.000
65.43261 142.000
65.45255 114.000
65.47250 110.000
65.49245 106.000
65.51239 101.000
65.53234 122.000
65.55229 115.000
65.57224 124.000
65.59218 132.000
65.61213 111.000
65.63208 119.000
65.65202 124.000
65.67197 103.000
65.69192 100.000
65.71186 96.000
65.73181 115.000
65.75176 120.000
65.77171 124.000
65.79165 128.000
65.81160 126.000
65.83155 119.000
65.85149 110.000
65.87144 135.000
65.89139 130.000
65.91133 138.000
65.93128 169.000
65.95123 191.000
65.97117 184.000
65.99112 202.000
66.01107 258.000
66.03102 274.000
66.05096 250.000
66.07091 220.000
66.09086 244.000
66.11080 212.000
66.13075 208.000
66.15070 253.000
66.17064 231.000
66.19059 239.000
66.21054 213.000
66.23049 227.000
66.25043 209.000
66.27038 207.000
66.29033 207.000
66.31027 194.000
66.33022 190.000
66.35017 195.000
66.37011 193.000
66.39006 201.000
66.41001 155.000
66.42995 154.000
66.44990 142.000
66.46985 143.000
66.48980 169.000
66.50974 130.000
66.52969 128.000
66.54964 146.000
66.56958 131.000
66.58953 147.000
66.60948 136.000
66.62942 123.000
66.64937 106.000
66.66932 119.000
66.68927 131.000
66.70921 121.000
66.72916 120.000
66.74911 102.000
66.76905 118.000
66.78900 110.000
66.80895 131.000
66.82889 112.000
66.84884 111.000
66.86879 126.000
66.88874 112.000
66.90868 123.000
66.92863 127.000
66.94858 121.000
66.96852 137.000
66.98847 124.000
67.00842 132.000
67.02836 124.000
67.04831 114.000
67.06826 129.000
67.08820 126.000
67.10815 118.000
67.12810 127.000
67.14805 103.000
67.16799 111.000
67.18794 111.000
67.20789 116.000
67.22783 88.000
67.24778 108.000
67.26773 86.000
67.28767 95.000
67.30762 74.000
67.32757 94.000
67.34752 103.000
67.36746 99.000
67.38741 81.000
67.40736 92.000
67.42730 78.000
67.44725 81.000
67.46720 81.000
67.48714 92.000
67.50709 85.000
67.52704 82.000
67.54698 112.000
67.56693 102.000
67.58688 87.000
67.60683 91.000
67.62677 98.000
67.64672 101.000
67.66667 105.000
67.68661 97.000
67.70656 103.000
67.72651 90.000
67.74645 92.000
67.76640 106.000
67.78635 122.000
67.80630 106.000
67.82624 97.000
67.84619 93.000
67.86614 112.000
67.88608 111.000
67.90603 98.000
67.92598 108.000
67.94592 95.000
67.96587 119.000
67.98582 118.000
68.00576 95.000
68.02571 107.000
68.04566 125.000
68.06561 104.000
68.08555 103.000
68.10550 98.000
68.12545 97.000
68.14539 93.000
68.16534 125.000
68.18529 105.000
68.20523 94.000
68.22518 99.000
68.24513 93.000
68.26508 100.000
68.28502 92.000
68.30497 89.000
68.32492 81.000
68.34486 97.000
68.36481 92.000
68.38476 107.000
68.40470 87.000
68.42465 92.000
68.44460 114.000
68.46455 108.000
68.48449 99.000
68.50444 102.000
68.52439 80.000
68.54433 105.000
68.56428 96.000
68.58423 98.000
68.60417 87.000
68.62412 101.000
68.64407 77.000
68.66401 86.000
68.68396 90.000
68.70391 79.000
68.72386 83.000
68.74380 84.000
68.76375 72.000
68.78370 79.000
68.80364 90.000
68.82359 78.000
68.84354 93.000
68.86348 92.000
68.88343 83.000
68.90338 80.000
68.92333 80.000
68.94327 92.000
68.96322 77.000
68.98317 72.000
69.00311 86.000
69.02306 85.000
69.04301 88.000
69.06295 87.000
69.08290 77.000
69.10285 77.000
69.12279 70.000
69.14274 80.000
69.16269 96.000
69.18264 75.000
69.20258 87.000
69.22253 86.000
69.24248 85.000
69.26242 95.000
69.28237 87.000
69.30232 91.000
69.32226 76.000
69.34221 95.000
69.36216 66.000
69.38211 71.000
69.40205 75.000
69.42200 86.000
69.44195 82.000
69.46189 81.000
69.48184 73.000
69.50179 96.000
69.52173 74.000
69.54168 97.000
69.56163 85.000
69.58157 98.000
69.60152 91.000
69.62147 84.000
69.64142 72.000
69.66136 99.000
69.68131 89.000
69.70126 103.000
69.72120 80.000
69.74115 93.000
69.76110 78.000
69.78104 93.000
69.80099 94.000
69.82094 94.000
69.84089 88.000
69.86083 77.000
69.88078 81.000
69.90073 86.000
69.92067 90.000
69.94062 72.000
69.96057 90.000
69.98051 83.000
70.00046 77.000
70.02041 74.000
70.04035 80.000
70.06030 77.000
70.08025 76.000
70.10020 79.000
70.12014 76.000
70.14009 70.000
70.16004 78.000
70.17998 70.000
70.19993 68.000
70.21988 74.000
70.23982 95.000
70.25977 72.000
70.27972 67.000
70.29967 91.000
70.31961 85.000
70.33956 96.000
70.35951 75.000
70.37945 70.000
70.39940 87.000
70.41935 76.000
70.43929 80.000
70.45924 91.000
70.47919 75.000
70.49914 97.000
70.51908 82.000
70.53903 79.000
70.55898 75.000
70.57892 73.000
70.59887 91.000
70.61882 67.000
70.63876 66.000
70.65871 80.000
70.67866 71.000
70.69860 81.000
70.71855 85.000
70.73850 84.000
70.75845 97.000
70.77839 91.000
70.79834 84.000
70.81829 70.000
70.83823 88.000
70.85818 82.000
70.87813 75.000
70.89807 82.000
70.91802 69.000
70.93797 81.000
70.95792 77.000
70.97786 92.000
70.99781 96.000
71.01776 72.000
71.03770 97.000
71.05765 85.000
71.07760 78.000
71.09754 84.000
71.11749 77.000
71.13744 69.000
71.15738 100.000
71.17733 69.000
71.19728 93.000
71.21723 87.000
71.23717 80.000
71.25712 91.000
71.27707 86.000
71.29701 99.000
71.31696 70.000
71.33691 103.000
71.35685 105.000
71.37680 85.000
71.39675 92.000
71.41670 98.000
71.43664 76.000
71.45659 96.000
71.47654 88.000
71.49648 59.000
71.51643 85.000
71.53638 74.000
71.55632 78.000
71.57627 103.000
71.59622 96.000
71.61616 96.000
71.63611 85.000
71.65606 93.000
71.67601 83.000
71.69595 78.000
71.71590 92.000
71.73585 85.000
71.75579 80.000
71.77574 85.000
71.79569 86.000
71.81563 78.000
71.83558 86.000
71.85553 67.000
71.87548 89.000
71.89542 84.000
71.91537 87.000
71.93532 89.000
71.95526 80.000
71.97521 80.000
71.99516 88.000
72.01510 75.000
72.03505 79.000
72.05500 77.000
72.07495 73.000
72.09489 68.000
72.11484 92.000
72.13479 100.000
72.15473 78.000
72.17468 96.000
72.19463 87.000
72.21457 85.000
72.23452 77.000
72.25447 87.000
72.27441 85.000
72.29436 82.000
72.31431 86.000
72.33426 90.000
72.35420 109.000
72.37415 96.000
72.39410 85.000
72.41404 93.000
72.43399 70.000
72.45394 77.000
72.47388 83.000
72.49383 92.000
72.51378 109.000
72.53373 95.000
72.55367 100.000
72.57362 96.000
72.59357 106.000
72.61351 110.000
72.63346 99.000
72.65341 94.000
72.67335 111.000
72.69330 102.000
72.71325 109.000
72.73319 126.000
72.75314 100.000
72.77309 109.000
72.79304 98.000
72.81298 119.000
72.83293 98.000
72.85288 117.000
72.87282 106.000
72.89277 123.000
72.91272 133.000
72.93266 118.000
72.95261 126.000
72.97256 163.000
72.99251 156.000
73.01245 170.000
73.03240 195.000
73.05235 147.000
73.07229 154.000
73.09224 157.000
73.11219 138.000
73.13213 168.000
73.15208 158.000
73.17203 146.000
73.19197 146.000
73.21192 173.000
73.23187 174.000
73.25182 158.000
73.27176 154.000
73.29171 148.000
73.31166 142.000
73.33160 147.000
73.35155 146.000
73.37150 122.000
73.39144 129.000
73.41139 115.000
73.43134 120.000
73.45129 117.000
73.47123 97.000
73.49118 117.000
73.51113 127.000
73.53107 98.000
73.55102 94.000
73.57097 112.000
73.59091 83.000
73.61086 89.000
73.63081 94.000
73.65076 95.000
73.67070 87.000
73.69065 80.000
73.71060 93.000
73.73054 85.000
73.75049 85.000
73.77044 76.000
73.79038 93.000
73.81033 96.000
73.83028 96.000
73.85022 92.000
73.87017 75.000
73.89012 88.000
73.91007 87.000
73.93001 108.000
73.94996 80.000
73.96991 86.000
73.98985 82.000
74.00980 88.000
74.02975 82.000
74.04969 90.000
74.06964 91.000
74.08959 112.000
74.10954 90.000
74.12948 95.000
74.14943 93.000
74.16938 105.000
74.18932 92.000
74.20927 117.000
74.22922 104.000
74.24916 116.000
74.26911 100.000
74.28906 103.000
74.30900 94.000
74.32895 105.000
74.34890 117.000
74.36885 118.000
74.38879 99.000
74.40874 116.000
74.42869 95.000
74.44863 116.000
74.46858 103.000
74.48853 109.000
74.50847 95.000
74.52842 117.000
74.54837 111.000
74.56832 94.000
74.58826 79.000
74.60821 96.000
74.62816 100.000
74.64810 104.000
74.66805 106.000
74.68800 106.000
74.70794 107.000
74.72789 105.000
74.74784 81.000
74.76778 101.000
74.78773 77.000
74.80768 93.000
74.82763 115.000
74.84757 94.000
74.86752 95.000
74.88747 99.000
74.90741 104.000
74.92736 121.000
74.94731 119.000
74.96725 110.000
74.98720 138.000
75.00715 139.000
75.02710 143.000
75.04704 128.000
75.06699 108.000
75.08694 135.000
75.10688 118.000
75.12683 121.000
75.14678 135.000
75.16672 110.000
75.18667 132.000
75.20662 118.000
75.22657 121.000
75.24651 112.000
75.26646 120.000
75.28641 131.000
75.30635 128.000
75.32630 106.000
75.34625 117.000
75.36619 123.000
75.38614 113.000
75.40609 117.000
75.42603 116.000
75.44598 124.000
75.46593 99.000
75.48588 120.000
75.50582 134.000
75.52577 119.000
75.54572 90.000
75.56566 97.000
75.58561 96.000
75.60556 90.000
75.62550 104.000
75.64545 91.000
75.66540 89.000
75.68535 105.000
75.70529 95.000
75.72524 89.000
75.74519 107.000
75.76513 83.000
75.78508 83.000
75.80503 92.000
75.82497 97.000
75.84492 77.000
75.86487 76.000
75.88481 86.000
75.90476 79.000
75.92471 101.000
75.94466 70.000
75.96460 75.000
75.98455 92.000
76.00450 100.000
76.02444 86.000
76.04439 89.000
76.06434 87.000
76.08428 79.000
76.10423 90.000
76.12418 87.000
76.14413 102.000
76.16407 78.000
76.18402 76.000
76.20397 85.000
76.22391 73.000
76.24386 99.000
76.26381 87.000
76.28375 65.000
76.30370 70.000
76.32365 84.000
76.34359 93.000
76.36354 115.000
76.38349 76.000
76.40344 72.000
76.42338 85.000
76.44333 86.000
76.46328 75.000
76.48322 88.000
76.50317 104.000
76.52312 72.000
76.54306 94.000
76.56301 84.000
76.58296 83.000
76.60291 84.000
76.62285 90.000
76.64280 93.000
76.66275 80.000
76.68269 92.000
76.70264 93.000
76.72259 88.000
76.74253 88.000
76.76248 87.000
76.78243 72.000
76.80238 86.000
76.82232 81.000
76.84227 57.000
76.86222 78.000
76.88216 81.000
76.90211 92.000
76.92206 77.000
76.94200 82.000
76.96195 79.000
76.98190 97.000
77.00184 94.000
77.02179 107.000
77.04174 79.000
77.06169 88.000
77.08163 91.000
77.10158 94.000
77.12153 112.000
77.14147 96.000
77.16142 139.000
77.18137 125.000
77.20131 152.000
77.22126 160.000
77.24121 156.000
77.26116 124.000
77.28110 136.000
77.30105 132.000
77.32100 143.000
77.34094 130.000
77.36089 141.000
77.38084 126.000
77.40078 118.000
77.42073 120.000
77.44068 155.000
77.46062 152.000
77.48057 126.000
77.50052 129.000
77.52047 137.000
77.54041 136.000
77.56036 123.000
77.58031 137.000
77.60025 118.000
77.62020 114.000
77.64015 122.000
77.66009 110.000
77.68004 113.000
77.69999 124.000
77.71994 138.000
77.73988 135.000
77.75983 127.000
77.77978 115.000
77.79972 126.000
77.81967 135.000
77.83962 134.000
77.85956 136.000
77.87951 150.000
77.89946 140.000
77.91940 169.000
77.93935 138.000
77.95930 153.000
77.97925 145.000
77.99919 165.000
78.01914 156.000
78.03909 162.000
78.05903 143.000
78.07898 188.000
78.09893 185.000
78.11887 185.000
78.13882 185.000
78.15877 174.000
78.17872 178.000
78.19866 189.000
78.21861 168.000
78.23856 166.000
78.25850 169.000
78.27845 166.000
78.29840 171.000
78.31834 175.000
78.33829 173.000
78.35824 156.000
78.37819 154.000
78.39813 139.000
78.41808 131.000
78.43803 140.000
78.45797 118.000
78.47792 120.000
78.49787 116.000
78.51781 99.000
78.53776 93.000
78.55771 81.000
78.57765 101.000
78.59760 103.000
78.61755 95.000
78.63750 92.000
78.65744 85.000
78.67739 85.000
78.69734 76.000
78.71728 96.000
78.73723 86.000
78.75718 84.000
78.77712 89.000
78.79707 86.000
78.81702 80.000
78.83697 81.000
78.85691 79.000
78.87686 90.000
78.89681 113.000
78.91675 94.000
78.93670 85.000
78.95665 85.000
78.97659 99.000
78.99654 85.000
79.01649 82.000
79.03643 82.000
79.05638 93.000
79.07633 72.000
79.09628 77.000
79.11622 84.000
79.13617 99.000
79.15612 96.000
79.17606 96.000
79.19601 98.000
79.21596 102.000
79.23590 89.000
79.25585 89.000
79.27580 105.000
79.29575 97.000
79.31569 90.000
79.33564 95.000
79.35559 82.000
79.37553 88.000
79.39548 94.000
79.41543 96.000
79.43537 84.000
79.45532 87.000
79.47527 96.000
79.49521 83.000
79.51516 95.000
79.53511 87.000
79.55506 82.000
79.57500 79.000
79.59495 68.000
79.61490 87.000
79.63484 89.000
79.65479 103.000
79.67474 86.000
79.69468 72.000
79.71463 85.000
79.73458 89.000
79.75453 68.000
79.77447 87.000
79.79442 77.000
79.81437 82.000
79.83431 98.000
79.85426 82.000
79.87421 82.000
79.89415 77.000
79.91410 80.000
79.93405 89.000
79.95399 75.000
79.97394 72.000
79.99389 77.000
80.01384 104.000
80.03378 101.000
80.05373 80.000
80.07368 104.000
80.09362 93.000
80.11357 79.000
80.13352 93.000
80.15346 86.000
80.17341 91.000
80.19336 82.000
80.21331 87.000
80.23325 101.000
80.25320 121.000
80.27315 91.000
80.29309 94.000
80.31304 91.000
80.33299 107.000
80.35293 75.000
80.37288 100.000
80.39283 91.000
80.41278 62.000
80.43272 81.000
80.45267 90.000
80.47262 86.000
80.49256 102.000
80.51251 71.000
80.53246 77.000
80.55240 89.000
80.57235 74.000
80.59230 80.000
80.61224 77.000
80.63219 85.000
80.65214 87.000
80.67209 73.000
80.69203 80.000
80.71198 81.000
80.73193 99.000
80.75187 75.000
80.77182 82.000
80.79177 74.000
80.81171 93.000
80.83166 83.000
80.85161 81.000
80.87156 90.000
80.89150 63.000
80.91145 95.000
80.93140 81.000
80.95134 75.000
80.97129 83.000
80.99124 54.000
81.01118 86.000
81.03113 71.000
81.05108 85.000
81.07102 61.000
81.09097 77.000
81.11092 95.000
81.13087 93.000
81.15081 84.000
81.17076 64.000
81.19071 74.000
81.21065 70.000
81.23060 74.000
81.25055 91.000
81.27049 81.000
81.29044 78.000
81.31039 80.000
81.33034 76.000
81.35028 80.000
81.37023 76.000
81.39018 86.000
81.41012 103.000
81.43007 86.000
81.45002 95.000
81.46996 66.000
81.48991 68.000
81.50986 76.000
81.52980 74.000
81.54975 75.000
81.56970 94.000
81.58965 73.000
81.60959 74.000
81.62954 70.000
81.64949 81.000
81.66943 77.000
81.68938 88.000
81.70933 73.000
81.72927 77.000
81.74922 85.000
81.76917 74.000
81.78912 82.000
81.80906 88.000
81.82901 78.000
81.84896 82.000
81.86890 86.000
81.88885 85.000
81.90880 80.000
81.92874 77.000
81.94869 78.000
81.96864 79.000
81.98859 81.000
82.00853 75.000
82.02848 83.000
82.04843 105.000
82.06837 95.000
82.08832 87.000
82.10827 87.000
82.12821 78.000
82.14816 84.000
82.16811 98.000
82.18805 64.000
82.20800 101.000
82.22795 85.000
82.24790 84.000
82.26784 83.000
82.28779 102.000
82.30774 97.000
82.32768 96.000
82.34763 96.000
82.36758 86.000
82.38752 82.000
82.40747 80.000
82.42742 89.000
82.44737 87.000
82.46731 76.000
82.48726 72.000
82.50721 81.000
82.52715 85.000
82.54710 78.000
82.56705 93.000
82.58699 75.000
82.60694 80.000
82.62689 91.000
82.64683 75.000
82.66678 73.000
82.68673 82.000
82.70668 88.000
82.72662 90.000
82.74657 86.000
82.76652 81.000
82.78646 85.000
82.80641 74.000
82.82636 93.000
82.84630 73.000
82.86625 77.000
82.88620 98.000
82.90615 68.000
82.92609 77.000
82.94604 81.000
82.96599 86.000
82.98593 88.000
83.00588 83.000
83.02583 68.000
83.04577 74.000
83.06572 85.000
83.08567 84.000
83.10561 76.000
83.12556 76.000
83.14551 90.000
83.16546 74.000
83.18540 86.000
83.20535 68.000
83.22530 78.000
83.24524 103.000
83.26519 96.000
83.28514 76.000
83.30508 78.000
83.32503 74.000
83.34498 85.000
83.36493 76.000
83.38487 96.000
83.40482 105.000
83.42477 84.000
83.44471 75.000
83.46466 81.000
83.48461 95.000
83.50455 89.000
83.52450 90.000
83.54445 92.000
83.56440 83.000
83.58434 83.000
83.60429 81.000
83.62424 96.000
83.64418 103.000
83.66413 95.000
83.68408 105.000
83.70402 111.000
83.72397 91.000
83.74392 100.000
83.76386 100.000
83.78381 117.000
83.80376 137.000
83.82371 144.000
83.84365 139.000
83.86360 144.000
83.88355 140.000
83.90349 149.000
83.92344 164.000
83.94339 146.000
83.96333 118.000
83.98328 133.000
84.00323 126.000
84.02318 123.000
84.04312 147.000
84.06307 149.000
84.08302 140.000
84.10296 143.000
84.12291 160.000
84.14286 164.000
84.16280 152.000
84.18275 155.000
84.20270 142.000
84.22264 145.000
84.24259 139.000
84.26254 143.000
84.28249 155.000
84.30243 138.000
84.32238 116.000
84.34233 115.000
84.36227 123.000
84.38222 105.000
84.40217 125.000
84.42211 111.000
84.44206 116.000
84.46201 111.000
84.48196 92.000
84.50190 126.000
84.52185 98.000
84.54180 107.000
84.56174 121.000
84.58169 91.000
84.60164 100.000
84.62158 87.000
84.64153 102.000
84.66148 109.000
84.68142 98.000
84.70137 96.000
84.72132 90.000
84.74127 82.000
84.76121 85.000
84.78116 72.000
84.80111 71.000
84.82105 89.000
84.84100 80.000
84.86095 87.000
84.88089 95.000
84.90084 80.000
84.92079 85.000
84.94074 77.000
84.96068 83.000
84.98063 72.000
85.00058 92.000
85.02052 76.000
85.04047 61.000
85.06042 88.000
85.08036 78.000
85.10031 86.000
85.12026 81.000
85.14021 74.000
85.16015 90.000
85.18010 85.000
85.20005 105.000
85.21999 85.000
85.23994 77.000
85.25989 80.000
85.27983 74.000
85.29978 79.000
85.31973 94.000
85.33967 72.000
85.35962 67.000
85.37957 76.000
85.39952 75.000
85.41946 76.000
85.43941 80.000
85.45936 93.000
85.47930 71.000
85.49925 76.000
85.51920 82.000
85.53914 91.000
85.55909 86.000
85.57904 78.000
85.59899 99.000
85.61893 83.000
85.63888 65.000
85.65883 78.000
85.67877 71.000
85.69872 80.000
85.71867 77.000
85.73861 74.000
85.75856 105.000
85.77851 78.000
85.79845 83.000
85.81840 79.000
85.83835 84.000
85.85830 73.000
85.87824 69.000
85.89819 92.000
85.91814 69.000
85.93808 76.000
85.95803 84.000
85.97798 83.000
85.99792 84.000
86.01787 64.000
86.03782 84.000
86.05777 68.000
86.07771 74.000
86.09766 67.000
86.11761 78.000
86.13755 89.000
86.15750 97.000
86.17745 78.000
86.19739 73.000
86.21734 96.000
86.23729 76.000
86.25723 76.000
86.27718 86.000
86.29713 67.000
86.31708 89.000
86.33702 81.000
86.35697 69.000
86.37692 88.000
86.39686 76.000
86.41681 96.000
86.43676 79.000
86.45670 84.000
86.47665 73.000
86.49660 82.000
86.51655 74.000
86.53649 73.000
86.55644 85.000
86.57639 85.000
86.59633 108.000
86.61628 95.000
86.63623 97.000
86.65617 93.000
86.67612 86.000
86.69607 87.000
86.71602 101.000
86.73596 103.000
86.75591 86.000
86.77586 90.000
86.79580 104.000
86.81575 95.000
86.83570 87.000
86.85564 86.000
86.87559 89.000
86.89554 99.000
86.91548 102.000
86.93543 77.000
86.95538 87.000
86.97533 109.000
86.99527 103.000
87.01522 97.000
87.03517 104.000
87.05511 99.000
87.07506 108.000
87.09501 82.000
87.11495 83.000
87.13490 99.000
87.15485 116.000
87.17480 106.000
87.19474 105.000
87.21469 123.000
87.23464 99.000
87.25458 121.000
87.27453 115.000
87.29448 106.000
87.31442 112.000
87.33437 98.000
87.35432 100.000
87.37426 114.000
87.39421 91.000
87.41416 90.000
87.43411 114.000
87.45405 98.000
87.47400 111.000
87.49395 108.000
87.51389 114.000
87.53384 102.000
87.55379 97.000
87.57373 96.000
87.59368 90.000
87.61363 88.000
87.63358 84.000
87.65352 91.000
87.67347 84.000
87.69342 88.000
87.71336 87.000
87.73331 85.000
87.75326 75.000
87.77320 89.000
87.79315 78.000
87.81310 89.000
87.83304 83.000
87.85299 66.000
87.87294 80.000
87.89289 81.000
87.91283 84.000
87.93278 84.000
87.95273 70.000
87.97267 66.000
87.99262 77.000
88.01257 91.000
88.03251 73.000
88.05246 76.000
88.07241 95.000
88.09236 81.000
88.11230 76.000
88.13225 73.000
88.15220 76.000
88.17214 73.000
88.19209 80.000
88.21204 81.000
88.23198 80.000
88.25193 67.000
88.27188 84.000
88.29183 89.000
88.31177 77.000
88.33172 80.000
88.35167 81.000
88.37161 77.000
88.39156 76.000
88.41151 85.000
88.43145 65.000
88.45140 71.000
88.47135 77.000
88.49129 71.000
88.51124 81.000
88.53119 73.000
88.55114 79.000
88.57108 51.000
88.59103 87.000
88.61098 84.000
88.63092 88.000
88.65087 71.000
88.67082 73.000
88.69076 74.000
88.71071 93.000
88.73066 78.000
88.75061 84.000
88.77055 90.000
88.79050 86.000
88.81045 73.000
88.83039 78.000
88.85034 81.000
88.87029 79.000
88.89023 77.000
88.91018 80.000
88.93013 89.000
88.95007 77.000
88.97002 76.000
88.98997 68.000
89.00992 71.000
89.02986 85.000
89.04981 93.000
89.06976 75.000
89.08970 69.000
89.10965 69.000
89.12960 75.000
89.14954 88.000
89.16949 77.000
89.18944 71.000
89.20939 89.000
89.22933 71.000
89.24928 75.000
89.26923 66.000
89.28917 74.000
89.30912 83.000
89.32907 89.000
89.34901 69.000
89.36896 99.000
89.38891 100.000
89.40885 90.000
89.42880 78.000
89.44875 83.000
89.46870 92.000
89.48864 92.000
89.50859 86.000
89.52854 79.000
89.54848 87.000
89.56843 83.000
89.58838 100.000
89.60832 84.000
89.62827 66.000
89.64822 82.000
89.66817 85.000
89.68811 79.000
89.70806 102.000
89.72801 97.000
89.74795 104.000
89.76790 107.000
89.78785 99.000
89.80779 86.000
89.82774 105.000
89.84769 95.000
89.86764 109.000
89.88758 102.000
89.90753 111.000
89.92748 104.000
89.94742 99.000
89.96737 105.000
89.98732 96.000
90.00726 104.000
