10.00000 103.000
10.01995 101.000
10.03989 109.000
10.05984 97.000
10.07979 90.000
10.09973 114.000
10.11968 111.000
10.13963 110.000
10.15958 107.000
10.17952 103.000
10.19947 117.000
10.21942 111.000
10.23936 105.000
10.25931 125.000
10.27926 107.000
10.29920 111.000
10.31915 123.000
10.33910 100.000
10.35905 121.000
10.37899 122.000
10.39894 96.000
10.41889 118.000
10.43883 103.000
10.45878 128.000
10.47873 122.000
10.49867 110.000
10.51862 115.000
10.53857 116.000
10.55851 94.000
10.57846 109.000
10.59841 112.000
10.61836 100.000
10.63830 121.000
10.65825 85.000
10.67820 102.000
10.69814 114.000
10.71809 103.000
10.73804 110.000
10.75798 95.000
10.77793 103.000
10.79788 97.000
10.81783 96.000
10.83777 98.000
10.85772 126.000
10.87767 106.000
10.89761 108.000
10.91756 95.000
10.93751 101.000
10.95745 110.000
10.97740 112.000
10.99735 99.000
11.01730 103.000
11.03724 115.000
11.05719 109.000
11.07714 87.000
11.09708 110.000
11.11703 112.000
11.13698 112.000
11.15692 103.000
11.17687 107.000
11.19682 109.000
11.21676 111.000
11.23671 128.000
11.25666 108.000
11.27661 105.000
11.29655 107.000
11.31650 115.000
11.33645 96.000
11.35639 91.000
11.37634 102.000
11.39629 108.000
11.41623 96.000
11.43618 90.000
11.45613 110.000
11.47608 89.000
11.49602 107.000
11.51597 107.000
11.53592 106.000
11.55586 96.000
11.57581 115.000
11.59576 86.000
11.61570 102.000
11.63565 113.000
11.65560 97.000
11.67554 95.000
11.69549 101.000
11.71544 125.000
11.73539 127.000
11.75533 115.000
11.77528 119.000
11.79523 122.000
11.81517 107.000
11.83512 113.000
11.85507 109.000
11.87501 87.000
11.89496 102.000
11.91491 106.000
11.93486 116.000
11.95480 123.000
11.97475 114.000
11.99470 87.000
12.01464 90.000
12.03459 116.000
12.05454 97.000
12.07448 92.000
12.09443 93.000
12.11438 90.000
12.13432 104.000
12.15427 120.000
12.17422 121.000
12.19417 105.000
12.21411 112.000
12.23406 108.000
12.25401 92.000
12.27395 107.000
12.29390 121.000
12.31385 115.000
12.33379 100.000
12.35374 121.000
12.37369 95.000
12.39364 108.000
12.41358 101.000
12.43353 104.000
12.45348 116.000
12.47342 116.000
12.49337 90.000
12.51332 107.000
12.53326 95.000
12.55321 98.000
12.57316 104.000
12.59311 107.000
12.61305 93.000
12.63300 101.000
12.65295 118.000
12.67289 104.000
12.69284 97.000
12.71279 96.000
12.73273 137.000
12.75268 101.000
12.77263 102.000
12.79257 122.000
12.81252 107.000
12.83247 106.000
12.85242 121.000
12.87236 110.000
12.89231 109.000
12.91226 101.000
12.93220 130.000
12.95215 116.000
12.97210 103.000
12.99204 112.000
13.01199 122.000
13.03194 100.000
13.05189 106.000
13.07183 123.000
13.09178 106.000
13.11173 96.000
13.13167 99.000
13.15162 112.000
13.17157 110.000
13.19151 106.000
13.21146 109.000
13.23141 110.000
13.25135 120.000
13.27130 110.000
13.29125 108.000
13.31120 136.000
13.33114 108.000
13.35109 113.000
13.37104 108.000
13.39098 124.000
13.41093 109.000
13.43088 106.000
13.45082 112.000
13.47077 106.000
13.49072 107.000
13.51067 112.000
13.53061 123.000
13.55056 88.000
13.57051 113.000
13.59045 93.000
13.61040 107.000
13.63035 109.000
13.65029 101.000
13.67024 109.000
13.69019 96.000
13.71013 102.000
13.73008 110.000
13.75003 105.000
13.76998 103.000
13.78992 113.000
13.80987 108.000
13.82982 88.000
13.84976 111.000
13.86971 124.000
13.88966 114.000
13.90960 135.000
13.92955 122.000
13.94950 123.000
13.96945 110.000
13.98939 106.000
14.00934 100.000
14.02929 120.000
14.04923 108.000
14.06918 115.000
14.08913 104.000
14.10907 115.000
14.12902 103.000
14.14897 102.000
14.16892 115.000
14.18886 117.000
14.20881 119.000
14.22876 116.000
14.24870 119.000
14.26865 111.000
14.28860 113.000
14.30854 141.000
14.32849 131.000
14.34844 114.000
14.36838 108.000
14.38833 115.000
14.40828 120.000
14.42823 136.000
14.44817 119.000
14.46812 110.000
14.48807 113.000
14.50801 111.000
14.52796 113.000
14.54791 124.000
14.56785 109.000
14.58780 110.000
14.60775 119.000
14.62770 120.000
14.64764 110.000
14.66759 114.000
14.68754 119.000
14.70748 127.000
14.72743 116.000
14.74738 112.000
14.76732 107.000
14.78727 123.000
14.80722 107.000
14.82716 116.000
14.84711 150.000
14.86706 133.000
14.88701 126.000
14.90695 120.000
14.92690 121.000
14.94685 122.000
14.96679 125.000
14.98674 116.000
15.00669 136.000
15.02663 131.000
15.04658 128.000
15.06653 128.000
15.08648 149.000
15.10642 133.000
15.12637 146.000
15.14632 150.000
15.16626 173.000
15.18621 161.000
15.20616 184.000
15.22610 184.000
15.24605 145.000
15.26600 160.000
15.28594 153.000
15.30589 174.000
15.32584 180.000
15.34579 188.000
15.36573 210.000
15.38568 186.000
15.40563 197.000
15.42557 155.000
15.44552 206.000
15.46547 195.000
15.48541 212.000
15.50536 213.000
15.52531 247.000
15.54526 226.000
15.56520 223.000
15.58515 280.000
15.60510 325.000
15.62504 352.000
15.64499 422.000
15.66494 521.000
15.68488 730.000
15.70483 954.000
15.72478 1439.000
15.74472 2051.000
15.76467 3033.000
15.78462 4168.000
15.80457 5727.000
15.82451 7828.000
15.84446 10146.000
15.86441 12003.000
15.88435 12611.000
15.90430 12241.000
15.92425 10195.000
15.94419 7084.000
15.96414 4667.000
15.98409 2515.000
16.00404 1293.000
16.02398 702.000
16.04393 481.000
16.06388 398.000
16.08382 351.000
16.10377 344.000
16.12372 330.000
16.14366 260.000
16.16361 263.000
16.18356 271.000
16.20351 250.000
16.22345 197.000
16.24340 207.000
16.26335 196.000
16.28329 211.000
16.30324 194.000
16.32319 182.000
16.34313 162.000
16.36308 166.000
16.38303 194.000
16.40297 191.000
16.42292 176.000
16.44287 145.000
16.46282 187.000
16.48276 143.000
16.50271 127.000
16.52266 156.000
16.54260 155.000
16.56255 152.000
16.58250 140.000
16.60244 150.000
16.62239 136.000
16.64234 122.000
16.66229 134.000
16.68223 146.000
16.70218 141.000
16.72213 114.000
16.74207 119.000
16.76202 108.000
16.78197 121.000
16.80191 118.000
16.82186 129.000
16.84181 125.000
16.86175 127.000
16.88170 134.000
16.90165 130.000
16.92160 112.000
16.94154 107.000
16.96149 125.000
16.98144 105.000
17.00138 162.000
17.02133 128.000
17.04128 126.000
17.06122 115.000
17.08117 97.000
17.10112 117.000
17.12107 117.000
17.14101 103.000
17.16096 118.000
17.18091 101.000
17.20085 109.000
17.22080 135.000
17.24075 125.000
17.26069 124.000
17.28064 112.000
17.30059 125.000
17.32053 96.000
17.34048 110.000
17.36043 95.000
17.38038 111.000
17.40032 110.000
17.42027 116.000
17.44022 105.000
17.46016 106.000
17.48011 101.000
17.50006 102.000
17.52000 133.000
17.53995 113.000
17.55990 93.000
17.57985 111.000
17.59979 101.000
17.61974 96.000
17.63969 118.000
17.65963 123.000
17.67958 118.000
17.69953 103.000
17.71947 109.000
17.73942 137.000
17.75937 100.000
17.77932 107.000
17.79926 104.000
17.81921 126.000
17.83916 116.000
17.85910 95.000
17.87905 95.000
17.89900 108.000
17.91894 114.000
17.93889 112.000
17.95884 109.000
17.97878 105.000
17.99873 91.000
18.01868 117.000
18.03863 113.000
18.05857 110.000
18.07852 117.000
18.09847 121.000
18.11841 94.000
18.13836 104.000
18.15831 118.000
18.17825 103.000
18.19820 113.000
18.21815 95.000
18.23810 111.000
18.25804 120.000
18.27799 85.000
18.29794 104.000
18.31788 111.000
18.33783 103.000
18.35778 126.000
18.37772 121.000
18.39767 133.000
18.41762 137.000
18.43756 128.000
18.45751 136.000
18.47746 89.000
18.49741 135.000
18.51735 124.000
18.53730 124.000
18.55725 111.000
18.57719 108.000
18.59714 101.000
18.61709 121.000
18.63703 111.000
18.65698 125.000
18.67693 114.000
18.69688 108.000
18.71682 108.000
18.73677 107.000
18.75672 117.000
18.77666 93.000
18.79661 96.000
18.81656 112.000
18.83650 107.000
18.85645 98.000
18.87640 90.000
18.89634 104.000
18.91629 102.000
18.93624 96.000
18.95619 103.000
18.97613 102.000
18.99608 98.000
19.01603 109.000
19.03597 110.000
19.05592 104.000
19.07587 115.000
19.09581 99.000
19.11576 82.000
19.13571 118.000
19.15566 110.000
19.17560 114.000
19.19555 89.000
19.21550 122.000
19.23544 94.000
19.25539 114.000
19.27534 115.000
19.29528 103.000
19.31523 105.000
19.33518 103.000
19.35513 128.000
19.37507 116.000
19.39502 101.000
19.41497 120.000
19.43491 107.000
19.45486 109.000
19.47481 111.000
19.49475 105.000
19.51470 122.000
19.53465 104.000
19.55459 126.000
19.57454 101.000
19.59449 94.000
19.61444 103.000
19.63438 117.000
19.65433 89.000
19.67428 98.000
19.69422 111.000
19.71417 102.000
19.73412 107.000
19.75406 104.000
19.77401 102.000
19.79396 122.000
19.81391 97.000
19.83385 109.000
19.85380 84.000
19.87375 95.000
19.89369 119.000
19.91364 102.000
19.93359 102.000
19.95353 115.000
19.97348 108.000
19.99343 109.000
20.01337 94.000
20.03332 102.000
20.05327 117.000
20.07322 110.000
20.09316 89.000
20.11311 108.000
20.13306 112.000
20.15300 107.000
20.17295 116.000
20.19290 102.000
20.21284 101.000
20.23279 107.000
20.25274 140.000
20.27269 108.000
20.29263 110.000
20.31258 99.000
20.33253 102.000
20.35247 89.000
20.37242 112.000
20.39237 110.000
20.41231 121.000
20.43226 113.000
20.45221 113.000
20.47215 119.000
20.49210 128.000
20.51205 121.000
20.53200 148.000
20.55194 102.000
20.57189 127.000
20.59184 146.000
20.61178 122.000
20.63173 95.000
20.65168 109.000
20.67162 108.000
20.69157 124.000
20.71152 106.000
20.73147 109.000
20.75141 107.000
20.77136 114.000
20.79131 101.000
20.81125 118.000
20.83120 119.000
20.85115 116.000
20.87109 117.000
20.89104 112.000
20.91099 104.000
20.93094 104.000
20.95088 106.000
20.97083 113.000
20.99078 103.000
21.01072 103.000
21.03067 86.000
21.05062 117.000
21.07056 131.000
21.09051 119.000
21.11046 128.000
21.13040 115.000
21.15035 113.000
21.17030 113.000
21.19025 122.000
21.21019 128.000
21.23014 107.000
21.25009 112.000
21.27003 106.000
21.28998 103.000
21.30993 106.000
21.32987 109.000
21.34982 106.000
21.36977 107.000
21.38972 105.000
21.40966 117.000
21.42961 123.000
21.44956 97.000
21.46950 133.000
21.48945 115.000
21.50940 101.000
21.52934 103.000
21.54929 122.000
21.56924 104.000
21.58918 124.000
21.60913 115.000
21.62908 129.000
21.64903 114.000
21.66897 99.000
21.68892 106.000
21.70887 103.000
21.72881 123.000
21.74876 114.000
21.76871 125.000
21.78865 131.000
21.80860 114.000
21.82855 106.000
21.84850 112.000
21.86844 118.000
21.88839 114.000
21.90834 105.000
21.92828 122.000
21.94823 121.000
21.96818 120.000
21.98812 134.000
22.00807 114.000
22.02802 108.000
22.04796 111.000
22.06791 142.000
22.08786 108.000
22.10781 103.000
22.12775 124.000
22.14770 104.000
22.16765 109.000
22.18759 106.000
22.20754 122.000
22.22749 98.000
22.24743 112.000
22.26738 100.000
22.28733 101.000
22.30728 106.000
22.32722 115.000
22.34717 114.000
22.36712 108.000
22.38706 119.000
22.40701 114.000
22.42696 120.000
22.44690 125.000
22.46685 116.000
22.48680 99.000
22.50675 111.000
22.52669 133.000
22.54664 89.000
22.56659 109.000
22.58653 109.000
22.60648 98.000
22.62643 103.000
22.64637 98.000
22.66632 123.000
22.68627 111.000
22.70621 120.000
22.72616 98.000
22.74611 116.000
22.76606 108.000
22.78600 112.000
22.80595 109.000
22.82590 100.000
22.84584 116.000
22.86579 118.000
22.88574 105.000
22.90568 126.000
22.92563 128.000
22.94558 91.000
22.96553 105.000
22.98547 98.000
23.00542 113.000
23.02537 102.000
23.04531 113.000
23.06526 102.000
23.08521 105.000
23.10515 103.000
23.12510 106.000
23.14505 105.000
23.16499 112.000
23.18494 111.000
23.20489 95.000
23.22484 119.000
23.24478 116.000
23.26473 121.000
23.28468 112.000
23.30462 116.000
23.32457 105.000
23.34452 95.000
23.36446 132.000
23.38441 127.000
23.40436 104.000
23.42431 111.000
23.44425 95.000
23.46420 120.000
23.48415 106.000
23.50409 116.000
23.52404 117.000
23.54399 105.000
23.56393 125.000
23.58388 107.000
23.60383 114.000
23.62377 130.000
23.64372 132.000
23.66367 117.000
23.68362 112.000
23.70356 108.000
23.72351 107.000
23.74346 121.000
23.76340 133.000
23.78335 95.000
23.80330 108.000
23.82324 97.000
23.84319 95.000
23.86314 102.000
23.88309 119.000
23.90303 107.000
23.92298 100.000
23.94293 102.000
23.96287 89.000
23.98282 103.000
24.00277 110.000
24.02271 110.000
24.04266 106.000
24.06261 94.000
24.08256 124.000
24.10250 117.000
24.12245 119.000
24.14240 125.000
24.16234 113.000
24.18229 115.000
24.20224 109.000
24.22218 108.000
24.24213 99.000
24.26208 103.000
24.28202 119.000
24.30197 119.000
24.32192 114.000
24.34187 111.000
24.36181 108.000
24.38176 122.000
24.40171 124.000
24.42165 126.000
24.44160 110.000
24.46155 114.000
24.48149 115.000
24.50144 127.000
24.52139 132.000
24.54134 107.000
24.56128 116.000
24.58123 97.000
24.60118 106.000
24.62112 116.000
24.64107 111.000
24.66102 102.000
24.68096 97.000
24.70091 140.000
24.72086 108.000
24.74080 105.000
24.76075 125.000
24.78070 98.000
24.80065 104.000
24.82059 104.000
24.84054 113.000
24.86049 126.000
24.88043 99.000
24.90038 110.000
24.92033 126.000
24.94027 122.000
24.96022 119.000
24.98017 103.000
25.00012 112.000
25.02006 102.000
25.04001 99.000
25.05996 120.000
25.07990 112.000
25.09985 121.000
25.11980 109.000
25.13974 97.000
25.15969 114.000
25.17964 127.000
25.19958 111.000
25.21953 128.000
25.23948 112.000
25.25943 106.000
25.27937 119.000
25.29932 116.000
25.31927 119.000
25.33921 114.000
25.35916 102.000
25.37911 112.000
25.39905 107.000
25.41900 113.000
25.43895 129.000
25.45890 104.000
25.47884 128.000
25.49879 104.000
25.51874 120.000
25.53868 126.000
25.55863 121.000
25.57858 108.000
25.59852 117.000
25.61847 119.000
25.63842 115.000
25.65837 125.000
25.67831 119.000
25.69826 116.000
25.71821 126.000
25.73815 131.000
25.75810 99.000
25.77805 119.000
25.79799 110.000
25.81794 104.000
25.83789 124.000
25.85783 125.000
25.87778 131.000
25.89773 122.000
25.91768 140.000
25.93762 115.000
25.95757 119.000
25.97752 112.000
25.99746 122.000
26.01741 110.000
26.03736 123.000
26.05730 137.000
26.07725 115.000
26.09720 118.000
26.11715 107.000
26.13709 133.000
26.15704 100.000
26.17699 114.000
26.19693 146.000
26.21688 131.000
26.23683 121.000
26.25677 113.000
26.27672 124.000
26.29667 106.000
26.31661 101.000
26.33656 119.000
26.35651 130.000
26.37646 128.000
26.39640 114.000
26.41635 128.000
26.43630 104.000
26.45624 119.000
26.47619 128.000
26.49614 113.000
26.51608 137.000
26.53603 115.000
26.55598 109.000
26.57593 125.000
26.59587 105.000
26.61582 131.000
26.63577 117.000
26.65571 113.000
26.67566 113.000
26.69561 134.000
26.71555 120.000
26.73550 124.000
26.75545 122.000
26.77539 123.000
26.79534 131.000
26.81529 108.000
26.83524 103.000
26.85518 100.000
26.87513 133.000
26.89508 113.000
26.91502 122.000
26.93497 135.000
26.95492 121.000
26.97486 103.000
26.99481 122.000
27.01476 122.000
27.03471 107.000
27.05465 113.000
27.07460 123.000
27.09455 121.000
27.11449 122.000
27.13444 126.000
27.15439 118.000
27.17433 139.000
27.19428 163.000
27.21423 157.000
27.23417 140.000
27.25412 153.000
27.27407 150.000
27.29402 144.000
27.31396 138.000
27.33391 130.000
27.35386 120.000
27.37380 114.000
27.39375 126.000
27.41370 124.000
27.43364 119.000
27.45359 119.000
27.47354 132.000
27.49349 140.000
27.51343 120.000
27.53338 120.000
27.55333 120.000
27.57327 110.000
27.59322 124.000
27.61317 126.000
27.63311 151.000
27.65306 116.000
27.67301 131.000
27.69296 117.000
27.71290 143.000
27.73285 128.000
27.75280 117.000
27.77274 121.000
27.79269 145.000
27.81264 118.000
27.83258 153.000
27.85253 117.000
27.87248 114.000
27.89242 119.000
27.91237 132.000
27.93232 107.000
27.95227 118.000
27.97221 136.000
27.99216 135.000
28.01211 127.000
28.03205 125.000
28.05200 120.000
28.07195 140.000
28.09189 133.000
28.11184 148.000
28.13179 137.000
28.15174 122.000
28.17168 135.000
28.19163 138.000
28.21158 144.000
28.23152 144.000
28.25147 127.000
28.27142 146.000
28.29136 141.000
28.31131 134.000
28.33126 156.000
28.35120 166.000
28.37115 169.000
28.39110 143.000
28.41105 165.000
28.43099 144.000
28.45094 161.000
28.47089 156.000
28.49083 146.000
28.51078 138.000
28.53073 148.000
28.55067 143.000
28.57062 117.000
28.59057 128.000
28.61052 132.000
28.63046 149.000
28.65041 136.000
28.67036 129.000
28.69030 124.000
28.71025 134.000
28.73020 109.000
28.75014 126.000
28.77009 133.000
28.79004 130.000
28.80998 149.000
28.82993 129.000
28.84988 128.000
28.86983 136.000
28.88977 120.000
28.90972 100.000
28.92967 133.000
28.94961 117.000
28.96956 132.000
28.98951 131.000
29.00945 125.000
29.02940 136.000
29.04935 115.000
29.06930 122.000
29.08924 138.000
29.10919 113.000
29.12914 133.000
29.14908 120.000
29.16903 127.000
29.18898 119.000
29.20892 133.000
29.22887 126.000
29.24882 99.000
29.26877 145.000
29.28871 131.000
29.30866 121.000
29.32861 129.000
29.34855 121.000
29.36850 122.000
29.38845 136.000
29.40839 114.000
29.42834 116.000
29.44829 139.000
29.46823 133.000
29.48818 124.000
29.50813 133.000
29.52808 121.000
29.54802 113.000
29.56797 132.000
29.58792 126.000
29.60786 112.000
29.62781 112.000
29.64776 127.000
29.66770 125.000
29.68765 103.000
29.70760 130.000
29.72755 135.000
29.74749 134.000
29.76744 124.000
29.78739 116.000
29.80733 127.000
29.82728 107.000
29.84723 120.000
29.86717 126.000
29.88712 122.000
29.90707 132.000
29.92701 133.000
29.94696 118.000
29.96691 124.000
29.98686 132.000
30.00680 117.000
30.02675 122.000
30.04670 134.000
30.06664 131.000
30.08659 128.000
30.10654 130.000
30.12648 121.000
30.14643 141.000
30.16638 132.000
30.18633 143.000
30.20627 146.000
30.22622 136.000
30.24617 126.000
30.26611 145.000
30.28606 160.000
30.30601 140.000
30.32595 145.000
30.34590 161.000
30.36585 138.000
30.38579 156.000
30.40574 144.000
30.42569 154.000
30.44564 122.000
30.46558 139.000
30.48553 121.000
30.50548 127.000
30.52542 116.000
30.54537 124.000
30.56532 124.000
30.58526 118.000
30.60521 125.000
30.62516 111.000
30.64511 148.000
30.66505 129.000
30.68500 132.000
30.70495 125.000
30.72489 118.000
30.74484 149.000
30.76479 130.000
30.78473 139.000
30.80468 102.000
30.82463 126.000
30.84458 131.000
30.86452 127.000
30.88447 144.000
30.90442 117.000
30.92436 125.000
30.94431 109.000
30.96426 139.000
30.98420 115.000
31.00415 113.000
31.02410 127.000
31.04404 136.000
31.06399 165.000
31.08394 131.000
31.10389 129.000
31.12383 128.000
31.14378 142.000
31.16373 112.000
31.18367 124.000
31.20362 108.000
31.22357 147.000
31.24351 133.000
31.26346 119.000
31.28341 135.000
31.30336 158.000
31.32330 111.000
31.34325 112.000
31.36320 115.000
31.38314 126.000
31.40309 119.000
31.42304 140.000
31.44298 132.000
31.46293 122.000
31.48288 155.000
31.50282 138.000
31.52277 147.000
31.54272 132.000
31.56267 135.000
31.58261 158.000
31.60256 167.000
31.62251 142.000
31.64245 168.000
31.66240 121.000
31.68235 149.000
31.70229 175.000
31.72224 174.000
31.74219 179.000
31.76214 188.000
31.78208 195.000
31.80203 209.000
31.82198 226.000
31.84192 263.000
31.86187 276.000
31.88182 304.000
31.90176 373.000
31.92171 383.000
31.94166 446.000
31.96160 486.000
31.98155 629.000
32.00150 698.000
32.02145 859.000
32.04139 973.000
32.06134 1083.000
32.08129 1065.000
32.10123 1076.000
32.12118 954.000
32.14113 829.000
32.16107 733.000
32.18102 622.000
32.20097 513.000
32.22092 336.000
32.24086 270.000
32.26081 261.000
32.28076 185.000
32.30070 172.000
32.32065 162.000
32.34060 152.000
32.36054 153.000
32.38049 124.000
32.40044 148.000
32.42039 140.000
32.44033 138.000
32.46028 142.000
32.48023 136.000
32.50017 146.000
32.52012 160.000
32.54007 122.000
32.56001 108.000
32.57996 133.000
32.59991 124.000
32.61985 105.000
32.63980 158.000
32.65975 118.000
32.67970 124.000
32.69964 111.000
32.71959 120.000
32.73954 135.000
32.75948 121.000
32.77943 138.000
32.79938 129.000
32.81932 118.000
32.83927 119.000
32.85922 124.000
32.87917 130.000
32.89911 125.000
32.91906 126.000
32.93901 117.000
32.95895 141.000
32.97890 118.000
32.99885 115.000
33.01879 128.000
33.03874 114.000
33.05869 121.000
33.07863 123.000
33.09858 137.000
33.11853 127.000
33.13848 127.000
33.15842 127.000
33.17837 118.000
33.19832 112.000
33.21826 118.000
33.23821 111.000
33.25816 126.000
33.27810 114.000
33.29805 120.000
33.31800 122.000
33.33795 131.000
33.35789 115.000
33.37784 114.000
33.39779 143.000
33.41773 109.000
33.43768 137.000
33.45763 124.000
33.47757 113.000
33.49752 124.000
33.51747 126.000
33.53741 124.000
33.55736 121.000
33.57731 119.000
33.59726 126.000
33.61720 109.000
33.63715 118.000
33.65710 107.000
33.67704 123.000
33.69699 126.000
33.71694 134.000
33.73688 119.000
33.75683 135.000
33.77678 112.000
33.79673 88.000
33.81667 90.000
33.83662 111.000
33.85657 124.000
33.87651 128.000
33.89646 106.000
33.91641 122.000
33.93635 140.000
33.95630 102.000
33.97625 121.000
33.99620 124.000
34.01614 135.000
34.03609 119.000
34.05604 133.000
34.07598 118.000
34.09593 119.000
34.11588 124.000
34.13582 138.000
34.15577 113.000
34.17572 135.000
34.19566 123.000
34.21561 137.000
34.23556 127.000
34.25551 126.000
34.27545 110.000
34.29540 114.000
34.31535 130.000
34.33529 128.000
34.35524 112.000
34.37519 139.000
34.39513 122.000
34.41508 120.000
34.43503 139.000
34.45498 141.000
34.47492 124.000
34.49487 140.000
34.51482 143.000
34.53476 119.000
34.55471 127.000
34.57466 122.000
34.59460 129.000
34.61455 128.000
34.63450 134.000
34.65444 127.000
34.67439 125.000
34.69434 112.000
34.71429 109.000
34.73423 128.000
34.75418 147.000
34.77413 129.000
34.79407 119.000
34.81402 120.000
34.83397 132.000
34.85391 110.000
34.87386 119.000
34.89381 154.000
34.91376 150.000
34.93370 126.000
34.95365 125.000
34.97360 134.000
34.99354 115.000
35.01349 143.000
35.03344 139.000
35.05338 142.000
35.07333 120.000
35.09328 126.000
35.11322 121.000
35.13317 120.000
35.15312 138.000
35.17307 129.000
35.19301 150.000
35.21296 117.000
35.23291 110.000
35.25285 141.000
35.27280 130.000
35.29275 126.000
35.31269 158.000
35.33264 144.000
35.35259 136.000
35.37254 121.000
35.39248 151.000
35.41243 157.000
35.43238 134.000
35.45232 151.000
35.47227 147.000
35.49222 139.000
35.51216 139.000
35.53211 152.000
35.55206 163.000
35.57201 190.000
35.59195 196.000
35.61190 189.000
35.63185 213.000
35.65179 211.000
35.67174 264.000
35.69169 254.000
35.71163 264.000
35.73158 283.000
35.75153 371.000
35.77147 459.000
35.79142 532.000
35.81137 623.000
35.83132 734.000
35.85126 912.000
35.87121 1010.000
35.89116 1159.000
35.91110 1332.000
35.93105 1302.000
35.95100 1220.000
35.97094 1030.000
35.99089 904.000
36.01084 824.000
36.03079 689.000
36.05073 594.000
36.07068 412.000
36.09063 333.000
36.11057 274.000
36.13052 229.000
36.15047 191.000
36.17041 181.000
36.19036 165.000
36.21031 174.000
36.23025 170.000
36.25020 170.000
36.27015 147.000
36.29010 177.000
36.31004 143.000
36.32999 164.000
36.34994 156.000
36.36988 146.000
36.38983 172.000
36.40978 172.000
36.42972 138.000
36.44967 172.000
36.46962 162.000
36.48957 152.000
36.50951 135.000
36.52946 166.000
36.54941 152.000
36.56935 135.000
36.58930 166.000
36.60925 163.000
36.62919 141.000
36.64914 141.000
36.66909 143.000
36.68903 158.000
36.70898 167.000
36.72893 173.000
36.74888 202.000
36.76882 181.000
36.78877 230.000
36.80872 237.000
36.82866 240.000
36.84861 259.000
36.86856 247.000
36.88850 241.000
36.90845 228.000
36.92840 225.000
36.94835 225.000
36.96829 219.000
36.98824 211.000
37.00819 208.000
37.02813 187.000
37.04808 219.000
37.06803 197.000
37.08797 232.000
37.10792 280.000
37.12787 317.000
37.14781 378.000
37.16776 554.000
37.18771 818.000
37.20766 1111.000
37.22760 1483.000
37.24755 1558.000
37.26750 1580.000
37.28744 1391.000
37.30739 1240.000
37.32734 1208.000
37.34728 1117.000
37.36723 968.000
37.38718 683.000
37.40713 512.000
37.42707 449.000
37.44702 310.000
37.46697 280.000
37.48691 233.000
37.50686 204.000
37.52681 227.000
37.54675 181.000
37.56670 200.000
37.58665 157.000
37.60660 167.000
37.62654 162.000
37.64649 164.000
37.66644 150.000
37.68638 163.000
37.70633 165.000
37.72628 165.000
37.74622 149.000
37.76617 149.000
37.78612 153.000
37.80606 146.000
37.82601 133.000
37.84596 138.000
37.86591 128.000
37.88585 122.000
37.90580 142.000
37.92575 137.000
37.94569 155.000
37.96564 137.000
37.98559 135.000
38.00553 146.000
38.02548 137.000
38.04543 141.000
38.06538 133.000
38.08532 129.000
38.10527 153.000
38.12522 133.000
38.14516 148.000
38.16511 137.000
38.18506 146.000
38.20500 136.000
38.22495 129.000
38.24490 124.000
38.26484 118.000
38.28479 151.000
38.30474 139.000
38.32469 128.000
38.34463 148.000
38.36458 130.000
38.38453 150.000
38.40447 138.000
38.42442 148.000
38.44437 141.000
38.46431 136.000
38.48426 131.000
38.50421 129.000
38.52416 132.000
38.54410 139.000
38.56405 137.000
38.58400 122.000
38.60394 113.000
38.62389 138.000
38.64384 144.000
38.66378 153.000
38.68373 144.000
38.70368 138.000
38.72362 142.000
38.74357 155.000
38.76352 138.000
38.78347 159.000
38.80341 154.000
38.82336 145.000
38.84331 146.000
38.86325 135.000
38.88320 172.000
38.90315 177.000
38.92309 173.000
38.94304 148.000
38.96299 172.000
38.98294 168.000
39.00288 151.000
39.02283 148.000
39.04278 170.000
39.06272 173.000
39.08267 184.000
39.10262 222.000
39.12256 187.000
39.14251 208.000
39.16246 220.000
39.18241 203.000
39.20235 224.000
39.22230 263.000
39.24225 261.000
39.26219 319.000
39.28214 399.000
39.30209 403.000
39.32203 568.000
39.34198 691.000
39.36193 946.000
39.38187 1191.000
39.40182 1533.000
39.42177 1870.000
39.44172 2204.000
39.46166 2368.000
39.48161 2520.000
39.50156 2435.000
39.52150 2078.000
39.54145 1915.000
39.56140 1655.000
39.58134 1549.000
39.60129 1260.000
39.62124 996.000
39.64119 794.000
39.66113 537.000
39.68108 501.000
39.70103 328.000
39.72097 319.000
39.74092 242.000
39.76087 266.000
39.78081 239.000
39.80076 180.000
39.82071 210.000
39.84065 192.000
39.86060 181.000
39.88055 145.000
39.90050 167.000
39.92044 177.000
39.94039 156.000
39.96034 159.000
39.98028 145.000
40.00023 167.000
40.02018 154.000
40.04012 157.000
40.06007 144.000
40.08002 143.000
40.09997 133.000
40.11991 131.000
40.13986 161.000
40.15981 135.000
40.17975 136.000
40.19970 141.000
40.21965 163.000
40.23959 112.000
40.25954 133.000
40.27949 149.000
40.29943 125.000
40.31938 151.000
40.33933 124.000
40.35928 121.000
40.37922 154.000
40.39917 146.000
40.41912 153.000
40.43906 115.000
40.45901 121.000
40.47896 115.000
40.49890 128.000
40.51885 143.000
40.53880 127.000
40.55875 120.000
40.57869 123.000
40.59864 154.000
40.61859 118.000
40.63853 140.000
40.65848 117.000
40.67843 131.000
40.69837 129.000
40.71832 109.000
40.73827 112.000
40.75822 122.000
40.77816 127.000
40.79811 135.000
40.81806 119.000
40.83800 122.000
40.85795 129.000
40.87790 114.000
40.89784 123.000
40.91779 122.000
40.93774 110.000
40.95768 105.000
40.97763 151.000
40.99758 125.000
41.01753 118.000
41.03747 120.000
41.05742 134.000
41.07737 109.000
41.09731 114.000
41.11726 112.000
41.13721 116.000
41.15715 109.000
41.17710 144.000
41.19705 118.000
41.21700 125.000
41.23694 145.000
41.25689 136.000
41.27684 134.000
41.29678 131.000
41.31673 127.000
41.33668 114.000
41.35662 129.000
41.37657 131.000
41.39652 140.000
41.41646 143.000
41.43641 136.000
41.45636 116.000
41.47631 107.000
41.49625 133.000
41.51620 150.000
41.53615 133.000
41.55609 119.000
41.57604 157.000
41.59599 133.000
41.61593 152.000
41.63588 120.000
41.65583 114.000
41.67578 141.000
41.69572 141.000
41.71567 142.000
41.73562 143.000
41.75556 145.000
41.77551 151.000
41.79546 159.000
41.81540 110.000
41.83535 137.000
41.85530 124.000
41.87524 126.000
41.89519 120.000
41.91514 140.000
41.93509 133.000
41.95503 141.000
41.97498 141.000
41.99493 130.000
42.01487 129.000
42.03482 138.000
42.05477 122.000
42.07471 142.000
42.09466 145.000
42.11461 149.000
42.13456 140.000
42.15450 154.000
42.17445 133.000
42.19440 121.000
42.21434 122.000
42.23429 126.000
42.25424 120.000
42.27418 131.000
42.29413 125.000
42.31408 137.000
42.33403 132.000
42.35397 123.000
42.37392 152.000
42.39387 143.000
42.41381 146.000
42.43376 124.000
42.45371 144.000
42.47365 142.000
42.49360 138.000
42.51355 172.000
42.53349 151.000
42.55344 141.000
42.57339 146.000
42.59334 146.000
42.61328 153.000
42.63323 140.000
42.65318 147.000
42.67312 147.000
42.69307 150.000
42.71302 146.000
42.73296 149.000
42.75291 151.000
42.77286 136.000
42.79281 166.000
42.81275 144.000
42.83270 157.000
42.85265 161.000
42.87259 150.000
42.89254 191.000
42.91249 155.000
42.93243 180.000
42.95238 178.000
42.97233 196.000
42.99227 189.000
43.01222 202.000
43.03217 210.000
43.05212 195.000
43.07206 227.000
43.09201 264.000
43.11196 286.000
43.13190 315.000
43.15185 357.000
43.17180 489.000
43.19174 700.000
43.21169 1030.000
43.23164 1551.000
43.25159 2111.000
43.27153 2518.000
43.29148 2555.000
43.31143 2291.000
43.33137 1908.000
43.35132 1671.000
43.37127 1714.000
43.39121 1675.000
43.41116 1546.000
43.43111 1264.000
43.45105 1029.000
43.47100 814.000
43.49095 835.000
43.51090 864.000
43.53084 1035.000
43.55079 1060.000
43.57074 1156.000
43.59068 1137.000
43.61063 1022.000
43.63058 990.000
43.65052 814.000
43.67047 781.000
43.69042 762.000
43.71037 588.000
43.73031 566.000
43.75026 412.000
43.77021 360.000
43.79015 311.000
43.81010 256.000
43.83005 253.000
43.84999 227.000
43.86994 215.000
43.88989 211.000
43.90984 181.000
43.92978 164.000
43.94973 166.000
43.96968 172.000
43.98962 154.000
44.00957 154.000
44.02952 163.000
44.04946 157.000
44.06941 168.000
44.08936 121.000
44.10930 158.000
44.12925 153.000
44.14920 164.000
44.16915 133.000
44.18909 143.000
44.20904 123.000
44.22899 143.000
44.24893 121.000
44.26888 124.000
44.28883 127.000
44.30877 115.000
44.32872 139.000
44.34867 146.000
44.36862 131.000
44.38856 120.000
44.40851 114.000
44.42846 140.000
44.44840 133.000
44.46835 136.000
44.48830 139.000
44.50824 143.000
44.52819 119.000
44.54814 133.000
44.56808 138.000
44.58803 146.000
44.60798 136.000
44.62793 145.000
44.64787 138.000
44.66782 119.000
44.68777 142.000
44.70771 141.000
44.72766 149.000
44.74761 147.000
44.76755 127.000
44.78750 151.000
44.80745 137.000
44.82740 139.000
44.84734 148.000
44.86729 115.000
44.88724 134.000
44.90718 146.000
44.92713 121.000
44.94708 136.000
44.96702 118.000
44.98697 152.000
45.00692 135.000
45.02686 138.000
45.04681 128.000
45.06676 180.000
45.08671 138.000
45.10665 136.000
45.12660 172.000
45.14655 161.000
45.16649 171.000
45.18644 153.000
45.20639 164.000
45.22633 163.000
45.24628 163.000
45.26623 148.000
45.28618 165.000
45.30612 120.000
45.32607 138.000
45.34602 146.000
45.36596 125.000
45.38591 145.000
45.40586 145.000
45.42580 149.000
45.44575 139.000
45.46570 116.000
45.48565 131.000
45.50559 150.000
45.52554 137.000
45.54549 118.000
45.56543 127.000
45.58538 127.000
45.60533 144.000
45.62527 125.000
45.64522 125.000
45.66517 153.000
45.68511 98.000
45.70506 105.000
45.72501 120.000
45.74496 100.000
45.76490 119.000
45.78485 121.000
45.80480 115.000
45.82474 98.000
45.84469 127.000
45.86464 122.000
45.88458 133.000
45.90453 114.000
45.92448 126.000
45.94443 135.000
45.96437 133.000
45.98432 116.000
46.00427 124.000
46.02421 146.000
46.04416 128.000
46.06411 104.000
46.08405 120.000
46.10400 115.000
46.12395 116.000
46.14389 141.000
46.16384 119.000
46.18379 115.000
46.20374 104.000
46.22368 120.000
46.24363 116.000
46.26358 130.000
46.28352 137.000
46.30347 129.000
46.32342 101.000
46.34336 114.000
46.36331 117.000
46.38326 126.000
46.40321 144.000
46.42315 122.000
46.44310 140.000
46.46305 105.000
46.48299 115.000
46.50294 110.000
46.52289 112.000
46.54283 136.000
46.56278 138.000
46.58273 116.000
46.60267 98.000
46.62262 137.000
46.64257 120.000
46.66252 136.000
46.68246 124.000
46.70241 137.000
46.72236 99.000
46.74230 111.000
46.76225 115.000
46.78220 133.000
46.80214 121.000
46.82209 129.000
46.84204 107.000
46.86199 148.000
46.88193 110.000
46.90188 108.000
46.92183 118.000
46.94177 127.000
46.96172 127.000
46.98167 131.000
47.00161 124.000
47.02156 110.000
47.04151 115.000
47.06146 147.000
47.08140 131.000
47.10135 117.000
47.12130 124.000
47.14124 125.000
47.16119 115.000
47.18114 103.000
47.20108 107.000
47.22103 121.000
47.24098 114.000
47.26092 116.000
47.28087 121.000
47.30082 143.000
47.32077 136.000
47.34071 122.000
47.36066 107.000
47.38061 117.000
47.40055 125.000
47.42050 134.000
47.44045 121.000
47.46039 130.000
47.48034 139.000
47.50029 149.000
47.52024 115.000
47.54018 122.000
47.56013 121.000
47.58008 138.000
47.60002 107.000
47.61997 134.000
47.63992 138.000
47.65986 123.000
47.67981 124.000
47.69976 112.000
47.71970 126.000
47.73965 135.000
47.75960 145.000
47.77955 117.000
47.79949 128.000
47.81944 134.000
47.83939 157.000
47.85933 121.000
47.87928 120.000
47.89923 97.000
47.91917 128.000
47.93912 141.000
47.95907 123.000
47.97902 126.000
47.99896 138.000
48.01891 116.000
48.03886 127.000
48.05880 130.000
48.07875 141.000
48.09870 152.000
48.11864 149.000
48.13859 149.000
48.15854 132.000
48.17848 121.000
48.19843 160.000
48.21838 160.000
48.23833 146.000
48.25827 147.000
48.27822 154.000
48.29817 162.000
48.31811 153.000
48.33806 160.000
48.35801 146.000
48.37795 161.000
48.39790 136.000
48.41785 170.000
48.43780 180.000
48.45774 190.000
48.47769 187.000
48.49764 183.000
48.51758 209.000
48.53753 244.000
48.55748 236.000
48.57742 234.000
48.59737 249.000
48.61732 253.000
48.63726 293.000
48.65721 353.000
48.67716 390.000
48.69711 446.000
48.71705 515.000
48.73700 639.000
48.75695 839.000
48.77689 1054.000
48.79684 1357.000
48.81679 1788.000
48.83673 1986.000
48.85668 2218.000
48.87663 1984.000
48.89658 1943.000
48.91652 1677.000
48.93647 1707.000
48.95642 1582.000
48.97636 1477.000
48.99631 1323.000
49.01626 1217.000
49.03620 1006.000
49.05615 775.000
49.07610 647.000
49.09605 527.000
49.11599 417.000
49.13594 348.000
49.15589 298.000
49.17583 293.000
49.19578 282.000
49.21573 229.000
49.23567 247.000
49.25562 210.000
49.27557 209.000
49.29551 198.000
49.31546 194.000
49.33541 199.000
49.35536 165.000
49.37530 195.000
49.39525 153.000
49.41520 176.000
49.43514 158.000
49.45509 173.000
49.47504 163.000
49.49498 168.000
49.51493 127.000
49.53488 158.000
49.55483 159.000
49.57477 139.000
49.59472 137.000
49.61467 147.000
49.63461 148.000
49.65456 142.000
49.67451 129.000
49.69445 152.000
49.71440 136.000
49.73435 150.000
49.75429 147.000
49.77424 126.000
49.79419 131.000
49.81414 117.000
49.83408 138.000
49.85403 132.000
49.87398 150.000
49.89392 138.000
49.91387 130.000
49.93382 116.000
49.95376 105.000
49.97371 117.000
49.99366 139.000
50.01361 141.000
50.03355 117.000
50.05350 128.000
50.07345 141.000
50.09339 128.000
50.11334 144.000
50.13329 128.000
50.15323 102.000
50.17318 134.000
50.19313 130.000
50.21307 142.000
50.23302 109.000
50.25297 128.000
50.27292 106.000
50.29286 128.000
50.31281 153.000
50.33276 117.000
50.35270 115.000
50.37265 120.000
50.39260 120.000
50.41254 128.000
50.43249 119.000
50.45244 122.000
50.47239 101.000
50.49233 108.000
50.51228 130.000
50.53223 116.000
50.55217 122.000
50.57212 118.000
50.59207 118.000
50.61201 104.000
50.63196 106.000
50.65191 112.000
50.67186 126.000
50.69180 118.000
50.71175 122.000
50.73170 116.000
50.75164 129.000
50.77159 98.000
50.79154 113.000
50.81148 131.000
50.83143 121.000
50.85138 133.000
50.87132 134.000
50.89127 127.000
50.91122 125.000
50.93117 128.000
50.95111 123.000
50.97106 108.000
50.99101 123.000
51.01095 113.000
51.03090 130.000
51.05085 101.000
51.07079 118.000
51.09074 117.000
51.11069 96.000
51.13064 139.000
51.15058 109.000
51.17053 102.000
51.19048 110.000
51.21042 128.000
51.23037 117.000
51.25032 103.000
51.27026 102.000
51.29021 123.000
51.31016 118.000
51.33010 127.000
51.35005 118.000
51.37000 116.000
51.38995 108.000
51.40989 118.000
51.42984 103.000
51.44979 113.000
51.46973 123.000
51.48968 116.000
51.50963 129.000
51.52957 107.000
51.54952 108.000
51.56947 125.000
51.58942 117.000
51.60936 108.000
51.62931 103.000
51.64926 100.000
51.66920 108.000
51.68915 138.000
51.70910 127.000
51.72904 120.000
51.74899 116.000
51.76894 131.000
51.78888 110.000
51.80883 106.000
51.82878 121.000
51.84873 127.000
51.86867 123.000
51.88862 102.000
51.90857 107.000
51.92851 121.000
51.94846 113.000
51.96841 125.000
51.98835 108.000
52.00830 109.000
52.02825 121.000
52.04820 120.000
52.06814 113.000
52.08809 109.000
52.10804 114.000
52.12798 115.000
52.14793 122.000
52.16788 112.000
52.18782 119.000
52.20777 105.000
52.22772 104.000
52.24767 138.000
52.26761 94.000
52.28756 98.000
52.30751 111.000
52.32745 115.000
52.34740 103.000
52.36735 120.000
52.38729 115.000
52.40724 141.000
52.42719 115.000
52.44713 127.000
52.46708 99.000
52.48703 125.000
52.50698 128.000
52.52692 97.000
52.54687 104.000
52.56682 112.000
52.58676 105.000
52.60671 122.000
52.62666 120.000
52.64660 114.000
52.66655 124.000
52.68650 106.000
52.70645 124.000
52.72639 109.000
52.74634 107.000
52.76629 116.000
52.78623 136.000
52.80618 127.000
52.82613 124.000
52.84607 119.000
52.86602 119.000
52.88597 120.000
52.90591 112.000
52.92586 135.000
52.94581 118.000
52.96576 136.000
52.98570 119.000
53.00565 104.000
53.02560 116.000
53.04554 105.000
53.06549 125.000
53.08544 101.000
53.10538 111.000
53.12533 122.000
53.14528 115.000
53.16523 115.000
53.18517 110.000
53.20512 133.000
53.22507 128.000
53.24501 137.000
53.26496 114.000
53.28491 100.000
53.30485 111.000
53.32480 118.000
53.34475 112.000
53.36469 130.000
53.38464 131.000
53.40459 122.000
53.42454 112.000
53.44448 109.000
53.46443 129.000
53.48438 131.000
53.50432 122.000
53.52427 122.000
53.54422 126.000
53.56416 116.000
53.58411 113.000
53.60406 116.000
53.62401 132.000
53.64395 146.000
53.66390 122.000
53.68385 115.000
53.70379 111.000
53.72374 124.000
53.74369 113.000
53.76363 123.000
53.78358 109.000
53.80353 124.000
53.82348 143.000
53.84342 123.000
53.86337 134.000
53.88332 129.000
53.90326 109.000
53.92321 112.000
53.94316 119.000
53.96310 117.000
53.98305 125.000
54.00300 134.000
54.02294 107.000
54.04289 126.000
54.06284 128.000
54.08279 111.000
54.10273 138.000
54.12268 117.000
54.14263 112.000
54.16257 118.000
54.18252 101.000
54.20247 126.000
54.22241 121.000
54.24236 130.000
54.26231 102.000
54.28226 124.000
54.30220 117.000
54.32215 118.000
54.34210 112.000
54.36204 120.000
54.38199 113.000
54.40194 126.000
54.42188 102.000
54.44183 127.000
54.46178 124.000
54.48172 111.000
54.50167 111.000
54.52162 120.000
54.54157 118.000
54.56151 117.000
54.58146 109.000
54.60141 118.000
54.62135 93.000
54.64130 122.000
54.66125 117.000
54.68119 110.000
54.70114 114.000
54.72109 118.000
54.74104 83.000
54.76098 111.000
54.78093 130.000
54.80088 122.000
54.82082 96.000
54.84077 112.000
54.86072 111.000
54.88066 117.000
54.90061 97.000
54.92056 109.000
54.94050 108.000
54.96045 96.000
54.98040 121.000
55.00035 136.000
55.02029 111.000
55.04024 109.000
55.06019 105.000
55.08013 114.000
55.10008 108.000
55.12003 110.000
55.13997 128.000
55.15992 122.000
55.17987 114.000
55.19982 111.000
55.21976 117.000
55.23971 114.000
55.25966 127.000
55.27960 97.000
55.29955 117.000
55.31950 117.000
55.33944 118.000
55.35939 94.000
55.37934 120.000
55.39929 99.000
55.41923 115.000
55.43918 147.000
55.45913 117.000
55.47907 121.000
55.49902 104.000
55.51897 103.000
55.53891 121.000
55.55886 135.000
55.57881 106.000
55.59875 106.000
55.61870 120.000
55.63865 117.000
55.65860 111.000
55.67854 110.000
55.69849 116.000
55.71844 119.000
55.73838 110.000
55.75833 116.000
55.77828 105.000
55.79822 117.000
55.81817 117.000
55.83812 100.000
55.85807 126.000
55.87801 124.000
55.89796 115.000
55.91791 111.000
55.93785 110.000
55.95780 123.000
55.97775 105.000
55.99769 114.000
56.01764 108.000
56.03759 112.000
56.05753 131.000
56.07748 108.000
56.09743 113.000
56.11738 110.000
56.13732 111.000
56.15727 112.000
56.17722 116.000
56.19716 121.000
56.21711 111.000
56.23706 102.000
56.25700 117.000
56.27695 135.000
56.29690 131.000
56.31685 114.000
56.33679 101.000
56.35674 109.000
56.37669 110.000
56.39663 124.000
56.41658 113.000
56.43653 128.000
56.45647 116.000
56.47642 95.000
56.49637 113.000
56.51631 115.000
56.53626 112.000
56.55621 109.000
56.57616 120.000
56.59610 117.000
56.61605 108.000
56.63600 112.000
56.65594 118.000
56.67589 114.000
56.69584 122.000
56.71578 121.000
56.73573 113.000
56.75568 129.000
56.77563 143.000
56.79557 113.000
56.81552 122.000
56.83547 123.000
56.85541 105.000
56.87536 126.000
56.89531 106.000
56.91525 108.000
56.93520 103.000
56.95515 133.000
56.97510 129.000
56.99504 120.000
57.01499 127.000
57.03494 115.000
57.05488 121.000
57.07483 110.000
57.09478 120.000
57.11472 118.000
57.13467 122.000
57.15462 125.000
57.17456 107.000
57.19451 129.000
57.21446 133.000
57.23441 121.000
57.25435 122.000
57.27430 122.000
57.29425 139.000
57.31419 145.000
57.33414 144.000
57.35409 137.000
57.37403 152.000
57.39398 121.000
57.41393 146.000
57.43388 142.000
57.45382 138.000
57.47377 138.000
57.49372 154.000
57.51366 128.000
57.53361 134.000
57.55356 120.000
57.57350 149.000
57.59345 121.000
57.61340 117.000
57.63334 142.000
57.65329 125.000
57.67324 122.000
57.69319 125.000
57.71313 122.000
57.73308 139.000
57.75303 111.000
57.77297 131.000
57.79292 139.000
57.81287 122.000
57.83281 125.000
57.85276 126.000
57.87271 132.000
57.89266 117.000
57.91260 133.000
57.93255 117.000
57.95250 126.000
57.97244 118.000
57.99239 120.000
58.01234 100.000
58.03228 101.000
58.05223 99.000
58.07218 126.000
58.09212 114.000
58.11207 137.000
58.13202 105.000
58.15197 155.000
58.17191 128.000
58.19186 115.000
58.21181 113.000
58.23175 88.000
58.25170 115.000
58.27165 104.000
58.29159 116.000
58.31154 125.000
58.33149 124.000
58.35144 111.000
58.37138 112.000
58.39133 97.000
58.41128 109.000
58.43122 108.000
58.45117 117.000
58.47112 121.000
58.49106 109.000
58.51101 114.000
58.53096 111.000
58.55090 113.000
58.57085 108.000
58.59080 114.000
58.61075 108.000
58.63069 104.000
58.65064 122.000
58.67059 142.000
58.69053 110.000
58.71048 114.000
58.73043 120.000
58.75037 126.000
58.77032 115.000
58.79027 128.000
58.81022 115.000
58.83016 113.000
58.85011 118.000
58.87006 120.000
58.89000 124.000
58.90995 138.000
58.92990 107.000
58.94984 114.000
58.96979 108.000
58.98974 128.000
59.00969 126.000
59.02963 99.000
59.04958 102.000
59.06953 114.000
59.08947 115.000
59.10942 128.000
59.12937 100.000
59.14931 119.000
59.16926 135.000
59.18921 108.000
59.20915 113.000
59.22910 109.000
59.24905 118.000
59.26900 98.000
59.28894 110.000
59.30889 107.000
59.32884 119.000
59.34878 116.000
59.36873 127.000
59.38868 127.000
59.40862 122.000
59.42857 122.000
59.44852 106.000
59.46847 129.000
59.48841 116.000
59.50836 115.000
59.52831 106.000
59.54825 113.000
59.56820 131.000
59.58815 123.000
59.60809 119.000
59.62804 102.000
59.64799 121.000
59.66793 101.000
59.68788 124.000
59.70783 127.000
59.72778 115.000
59.74772 143.000
59.76767 124.000
59.78762 101.000
59.80756 88.000
59.82751 116.000
59.84746 118.000
59.86740 129.000
59.88735 99.000
59.90730 119.000
59.92725 120.000
59.94719 119.000
59.96714 129.000
59.98709 111.000
60.00703 119.000
60.02698 106.000
60.04693 112.000
60.06687 126.000
60.08682 96.000
60.10677 131.000
60.12671 93.000
60.14666 124.000
60.16661 116.000
60.18656 115.000
60.20650 97.000
60.22645 137.000
60.24640 127.000
60.26634 105.000
60.28629 118.000
60.30624 112.000
60.32618 139.000
60.34613 109.000
60.36608 99.000
60.38603 122.000
60.40597 112.000
60.42592 117.000
60.44587 116.000
60.46581 89.000
60.48576 116.000
60.50571 123.000
60.52565 134.000
60.54560 117.000
60.56555 117.000
60.58550 126.000
60.60544 120.000
60.62539 113.000
60.64534 125.000
60.66528 124.000
60.68523 112.000
60.70518 104.000
60.72512 115.000
60.74507 121.000
60.76502 109.000
60.78496 125.000
60.80491 133.000
60.82486 120.000
60.84481 118.000
60.86475 121.000
60.88470 122.000
60.90465 131.000
60.92459 111.000
60.94454 135.000
60.96449 122.000
60.98443 142.000
61.00438 130.000
61.02433 151.000
61.04428 131.000
61.06422 123.000
61.08417 112.000
61.10412 129.000
61.12406 110.000
61.14401 133.000
61.16396 134.000
61.18390 116.000
61.20385 122.000
61.22380 132.000
61.24374 133.000
61.26369 137.000
61.28364 118.000
61.30359 142.000
61.32353 135.000
61.34348 134.000
61.36343 126.000
61.38337 129.000
61.40332 114.000
61.42327 134.000
61.44321 141.000
61.46316 120.000
61.48311 139.000
61.50306 135.000
61.52300 143.000
61.54295 144.000
61.56290 178.000
61.58284 170.000
61.60279 151.000
61.62274 155.000
61.64268 123.000
61.66263 168.000
61.68258 166.000
61.70252 153.000
61.72247 164.000
61.74242 181.000
61.76237 134.000
61.78231 166.000
61.80226 192.000
61.82221 200.000
61.84215 228.000
61.86210 223.000
61.88205 253.000
61.90199 238.000
61.92194 306.000
61.94189 350.000
61.96184 330.000
61.98178 383.000
62.00173 441.000
62.02168 484.000
62.04162 522.000
62.06157 636.000
62.08152 714.000
62.10146 711.000
62.12141 754.000
62.14136 824.000
62.16131 750.000
62.18125 708.000
62.20120 679.000
62.22115 680.000
62.24109 636.000
62.26104 618.000
62.28099 558.000
62.30093 560.000
62.32088 533.000
62.34083 465.000
62.36077 420.000
62.38072 402.000
62.40067 368.000
62.42062 345.000
62.44056 292.000
62.46051 278.000
62.48046 206.000
62.50040 235.000
62.52035 214.000
62.54030 191.000
62.56024 186.000
62.58019 197.000
62.60014 199.000
62.62009 197.000
62.64003 227.000
62.65998 225.000
62.67993 226.000
62.69987 267.000
62.71982 293.000
62.73977 379.000
62.75971 459.000
62.77966 628.000
62.79961 740.000
62.81955 845.000
62.83950 926.000
62.85945 979.000
62.87940 895.000
62.89934 900.000
62.91929 860.000
62.93924 729.000
62.95918 671.000
62.97913 724.000
62.99908 659.000
63.01902 656.000
63.03897 635.000
63.05892 587.000
63.07887 535.000
63.09881 453.000
63.11876 385.000
63.13871 333.000
63.15865 274.000
63.17860 212.000
63.19855 222.000
63.21849 212.000
63.23844 179.000
63.25839 169.000
63.27833 181.000
63.29828 164.000
63.31823 170.000
63.33818 158.000
63.35812 137.000
63.37807 140.000
63.39802 138.000
63.41796 140.000
63.43791 176.000
63.45786 133.000
63.47780 137.000
63.49775 144.000
63.51770 154.000
63.53765 134.000
63.55759 171.000
63.57754 125.000
63.59749 108.000
63.61743 110.000
63.63738 133.000
63.65733 139.000
63.67727 157.000
63.69722 123.000
63.71717 158.000
63.73712 140.000
63.75706 135.000
63.77701 114.000
63.79696 138.000
63.81690 135.000
63.83685 119.000
63.85680 132.000
63.87674 146.000
63.89669 129.000
63.91664 149.000
63.93658 151.000
63.95653 128.000
63.97648 135.000
63.99643 147.000
64.01637 150.000
64.03632 120.000
64.05627 133.000
64.07621 148.000
64.09616 151.000
64.11611 109.000
64.13605 122.000
64.15600 171.000
64.17595 197.000
64.19590 170.000
64.21584 175.000
64.23579 197.000
64.25574 219.000
64.27568 250.000
64.29563 273.000
64.31558 292.000
64.33552 316.000
64.35547 386.000
64.37542 374.000
64.39536 445.000
64.41531 423.000
64.43526 511.000
64.45521 490.000
64.47515 563.000
64.49510 530.000
64.51505 629.000
64.53499 637.000
64.55494 612.000
64.57489 618.000
64.59483 634.000
64.61478 555.000
64.63473 523.000
64.65468 496.000
64.67462 417.000
64.69457 454.000
64.71452 401.000
64.73446 401.000
64.75441 387.000
64.77436 337.000
64.79430 312.000
64.81425 281.000
64.83420 291.000
64.85414 250.000
64.87409 204.000
64.89404 191.000
64.91399 173.000
64.93393 177.000
64.95388 159.000
64.97383 152.000
64.99377 157.000
65.01372 129.000
65.03367 134.000
65.05361 138.000
65.07356 148.000
65.09351 120.000
65.11346 132.000
65.13340 137.000
65.15335 118.000
65.17330 164.000
65.19324 121.000
65.21319 133.000
65.23314 133.000
65.25308 123.000
65.27303 117.000
65.29298 155.000
65.31293 143.000
65.33287 115.000
65.35282 113.000
65.37277 123.000
65.39271 119.000
65.41266 124.000
65.43261 147.000
65.45255 139.000
65.47250 121.000
65.49245 120.000
65.51239 137.000
65.53234 141.000
65.55229 128.000
65.57224 138.000
65.59218 121.000
65.61213 131.000
65.63208 127.000
65.65202 131.000
65.67197 114.000
65.69192 130.000
65.71186 130.000
65.73181 137.000
65.75176 126.000
65.77171 128.000
65.79165 124.000
65.81160 110.000
65.83155 109.000
65.85149 108.000
65.87144 140.000
65.89139 131.000
65.91133 132.000
65.93128 131.000
65.95123 129.000
65.97117 126.000
65.99112 128.000
66.01107 147.000
66.03102 140.000
66.05096 133.000
66.07091 125.000
66.09086 113.000
66.11080 119.000
66.13075 108.000
66.15070 130.000
66.17064 120.000
66.19059 118.000
66.21054 122.000
66.23049 149.000
66.25043 128.000
66.27038 122.000
66.29033 119.000
66.31027 108.000
66.33022 130.000
66.35017 139.000
66.37011 133.000
66.39006 134.000
66.41001 161.000
66.42995 143.000
66.44990 119.000
66.46985 147.000
66.48980 152.000
66.50974 138.000
66.52969 149.000
66.54964 151.000
66.56958 154.000
66.58953 162.000
66.60948 159.000
66.62942 215.000
66.64937 215.000
66.66932 211.000
66.68927 232.000
66.70921 290.000
66.72916 279.000
66.74911 335.000
66.76905 312.000
66.78900 328.000
66.80895 352.000
66.82889 406.000
66.84884 417.000
66.86879 428.000
66.88874 441.000
66.90868 501.000
66.92863 523.000
66.94858 463.000
66.96852 509.000
66.98847 456.000
67.00842 519.000
67.02836 514.000
67.04831 462.000
67.06826 448.000
67.08820 417.000
67.10815 409.000
67.12810 374.000
67.14805 311.000
67.16799 336.000
67.18794 300.000
67.20789 279.000
67.22783 300.000
67.24778 246.000
67.26773 216.000
67.28767 205.000
67.30762 185.000
67.32757 201.000
67.34752 176.000
67.36746 144.000
67.38741 150.000
67.40736 140.000
67.42730 146.000
67.44725 136.000
67.46720 106.000
67.48714 137.000
67.50709 139.000
67.52704 132.000
67.54698 140.000
67.56693 142.000
67.58688 112.000
67.60683 124.000
67.62677 127.000
67.64672 117.000
67.66667 106.000
67.68661 110.000
67.70656 127.000
67.72651 127.000
67.74645 124.000
67.76640 115.000
67.78635 122.000
67.80630 108.000
67.82624 120.000
67.84619 128.000
67.86614 137.000
67.88608 119.000
67.90603 132.000
67.92598 122.000
67.94592 129.000
67.96587 126.000
67.98582 116.000
68.00576 120.000
68.02571 123.000
68.04566 87.000
68.06561 114.000
68.08555 116.000
68.10550 124.000
68.12545 91.000
68.14539 125.000
68.16534 120.000
68.18529 122.000
68.20523 135.000
68.22518 121.000
68.24513 119.000
68.26508 111.000
68.28502 112.000
68.30497 102.000
68.32492 131.000
68.34486 96.000
68.36481 118.000
68.38476 106.000
68.40470 104.000
68.42465 111.000
68.44460 98.000
68.46455 128.000
68.48449 118.000
68.50444 132.000
68.52439 114.000
68.54433 104.000
68.56428 105.000
68.58423 127.000
68.60417 132.000
68.62412 114.000
68.64407 107.000
68.66401 135.000
68.68396 114.000
68.70391 118.000
68.72386 126.000
68.74380 122.000
68.76375 119.000
68.78370 123.000
68.80364 102.000
68.82359 119.000
68.84354 132.000
68.86348 117.000
68.88343 112.000
68.90338 121.000
68.92333 119.000
68.94327 117.000
68.96322 111.000
68.98317 114.000
69.00311 109.000
69.02306 117.000
69.04301 110.000
69.06295 111.000
69.08290 106.000
69.10285 120.000
69.12279 95.000
69.14274 115.000
69.16269 108.000
69.18264 122.000
69.20258 124.000
69.22253 107.000
69.24248 121.000
69.26242 131.000
69.28237 109.000
69.30232 91.000
69.32226 107.000
69.34221 134.000
69.36216 91.000
69.38211 124.000
69.40205 132.000
69.42200 114.000
69.44195 110.000
69.46189 103.000
69.48184 110.000
69.50179 105.000
69.52173 118.000
69.54168 125.000
69.56163 106.000
69.58157 123.000
69.60152 107.000
69.62147 100.000
69.64142 107.000
69.66136 112.000
69.68131 131.000
69.70126 100.000
69.72120 120.000
69.74115 133.000
69.76110 143.000
69.78104 116.000
69.80099 106.000
69.82094 118.000
69.84089 126.000
69.86083 118.000
69.88078 116.000
69.90073 135.000
69.92067 120.000
69.94062 118.000
69.96057 125.000
69.98051 116.000
70.00046 131.000
70.02041 118.000
70.04035 131.000
70.06030 126.000
70.08025 121.000
70.10020 130.000
70.12014 105.000
70.14009 126.000
70.16004 110.000
70.17998 121.000
70.19993 122.000
70.21988 120.000
70.23982 94.000
70.25977 128.000
70.27972 114.000
70.29967 120.000
70.31961 126.000
70.33956 95.000
70.35951 107.000
70.37945 108.000
70.39940 114.000
70.41935 134.000
70.43929 110.000
70.45924 111.000
70.47919 104.000
70.49914 119.000
70.51908 113.000
70.53903 108.000
70.55898 105.000
70.57892 103.000
70.59887 129.000
70.61882 112.000
70.63876 121.000
70.65871 106.000
70.67866 130.000
70.69860 96.000
70.71855 111.000
70.73850 102.000
70.75845 128.000
70.77839 109.000
70.79834 104.000
70.81829 126.000
70.83823 111.000
70.85818 127.000
70.87813 123.000
70.89807 117.000
70.91802 121.000
70.93797 110.000
70.95792 111.000
70.97786 100.000
70.99781 113.000
71.01776 131.000
71.03770 124.000
71.05765 123.000
71.07760 96.000
71.09754 110.000
71.11749 97.000
71.13744 96.000
71.15738 111.000
71.17733 101.000
71.19728 116.000
71.21723 121.000
71.23717 128.000
71.25712 101.000
71.27707 104.000
71.29701 115.000
71.31696 101.000
71.33691 119.000
71.35685 125.000
71.37680 99.000
71.39675 125.000
71.41670 126.000
71.43664 124.000
71.45659 102.000
71.47654 118.000
71.49648 126.000
71.51643 113.000
71.53638 113.000
71.55632 118.000
71.57627 108.000
71.59622 100.000
71.61616 102.000
71.63611 109.000
71.65606 111.000
71.67601 105.000
71.69595 120.000
71.71590 98.000
71.73585 104.000
71.75579 111.000
71.77574 117.000
71.79569 117.000
71.81563 100.000
71.83558 137.000
71.85553 114.000
71.87548 112.000
71.89542 119.000
71.91537 137.000
71.93532 113.000
71.95526 99.000
71.97521 121.000
71.99516 105.000
72.01510 105.000
72.03505 111.000
72.05500 86.000
72.07495 113.000
72.09489 87.000
72.11484 114.000
72.13479 101.000
72.15473 124.000
72.17468 102.000
72.19463 109.000
72.21457 102.000
72.23452 121.000
72.25447 103.000
72.27441 81.000
72.29436 138.000
72.31431 133.000
72.33426 130.000
72.35420 128.000
72.37415 108.000
72.39410 129.000
72.41404 109.000
72.43399 102.000
72.45394 104.000
72.47388 111.000
72.49383 108.000
72.51378 116.000
72.53373 110.000
72.55367 114.000
72.57362 95.000
72.59357 117.000
72.61351 121.000
72.63346 112.000
72.65341 133.000
72.67335 96.000
72.69330 104.000
72.71325 116.000
72.73319 117.000
72.75314 127.000
72.77309 113.000
72.79304 125.000
72.81298 124.000
72.83293 100.000
72.85288 131.000
72.87282 122.000
72.89277 131.000
72.91272 101.000
72.93266 131.000
72.95261 119.000
72.97256 115.000
72.99251 129.000
73.01245 107.000
73.03240 106.000
73.05235 104.000
73.07229 114.000
73.09224 118.000
73.11219 146.000
73.13213 114.000
73.15208 116.000
73.17203 111.000
73.19197 114.000
73.21192 138.000
73.23187 123.000
73.25182 103.000
73.27176 114.000
73.29171 114.000
73.31166 122.000
73.33160 108.000
73.35155 121.000
73.37150 98.000
73.39144 141.000
73.41139 141.000
73.43134 140.000
73.45129 126.000
73.47123 151.000
73.49118 121.000
73.51113 134.000
73.53107 134.000
73.55102 147.000
73.57097 133.000
73.59091 129.000
73.61086 160.000
73.63081 175.000
73.65076 175.000
73.67070 174.000
73.69065 172.000
73.71060 205.000
73.73054 221.000
73.75049 210.000
73.77044 217.000
73.79038 236.000
73.81033 237.000
73.83028 253.000
73.85022 275.000
73.87017 251.000
73.89012 264.000
73.91007 264.000
73.93001 247.000
73.94996 214.000
73.96991 239.000
73.98985 222.000
74.00980 228.000
74.02975 210.000
74.04969 202.000
74.06964 193.000
74.08959 213.000
74.10954 173.000
74.12948 188.000
74.14943 184.000
74.16938 171.000
74.18932 162.000
74.20927 165.000
74.22922 154.000
74.24916 126.000
74.26911 133.000
74.28906 130.000
74.30900 126.000
74.32895 139.000
74.34890 132.000
74.36885 136.000
74.38879 125.000
74.40874 136.000
74.42869 107.000
74.44863 118.000
74.46858 133.000
74.48853 139.000
74.50847 107.000
74.52842 127.000
74.54837 119.000
74.56832 118.000
74.58826 106.000
74.60821 122.000
74.62816 114.000
74.64810 119.000
74.66805 107.000
74.68800 145.000
74.70794 104.000
74.72789 108.000
74.74784 129.000
74.76778 121.000
74.78773 114.000
74.80768 115.000
74.82763 130.000
74.84757 104.000
74.86752 125.000
74.88747 114.000
74.90741 135.000
74.92736 143.000
74.94731 120.000
74.96725 124.000
74.98720 134.000
75.00715 112.000
75.02710 107.000
75.04704 126.000
75.06699 134.000
75.08694 124.000
75.10688 129.000
75.12683 152.000
75.14678 131.000
75.16672 147.000
75.18667 166.000
75.20662 163.000
75.22657 168.000
75.24651 178.000
75.26646 195.000
75.28641 229.000
75.30635 309.000
75.32630 317.000
75.34625 356.000
75.36619 392.000
75.38614 426.000
75.40609 367.000
75.42603 364.000
75.44598 329.000
75.46593 289.000
75.48588 291.000
75.50582 271.000
75.52577 272.000
75.54572 259.000
75.56566 304.000
75.58561 290.000
75.60556 279.000
75.62550 247.000
75.64545 259.000
75.66540 253.000
75.68535 187.000
75.70529 198.000
75.72524 216.000
75.74519 161.000
75.76513 164.000
75.78508 150.000
75.80503 141.000
75.82497 139.000
75.84492 125.000
75.86487 159.000
75.88481 161.000
75.90476 145.000
75.92471 116.000
75.94466 172.000
75.96460 161.000
75.98455 137.000
76.00450 175.000
76.02444 149.000
76.04439 157.000
76.06434 179.000
76.08428 165.000
76.10423 165.000
76.12418 167.000
76.14413 187.000
76.16407 185.000
76.18402 200.000
76.20397 166.000
76.22391 137.000
76.24386 155.000
76.26381 139.000
76.28375 171.000
76.30370 145.000
76.32365 177.000
76.34359 151.000
76.36354 143.000
76.38349 175.000
76.40344 141.000
76.42338 113.000
76.44333 132.000
76.46328 119.000
76.48322 134.000
76.50317 133.000
76.52312 134.000
76.54306 155.000
76.56301 127.000
76.58296 114.000
76.60291 119.000
76.62285 107.000
76.64280 137.000
76.66275 126.000
76.68269 112.000
76.70264 114.000
76.72259 139.000
76.74253 113.000
76.76248 112.000
76.78243 122.000
76.80238 144.000
76.82232 120.000
76.84227 103.000
76.86222 103.000
76.88216 109.000
76.90211 102.000
76.92206 115.000
76.94200 128.000
76.96195 125.000
76.98190 113.000
77.00184 119.000
77.02179 104.000
77.04174 125.000
77.06169 128.000
77.08163 122.000
77.10158 134.000
77.12153 133.000
77.14147 119.000
77.16142 105.000
77.18137 114.000
77.20131 109.000
77.22126 130.000
77.24121 122.000
77.26116 116.000
77.28110 109.000
77.30105 110.000
77.32100 135.000
77.34094 107.000
77.36089 118.000
77.38084 108.000
77.40078 112.000
77.42073 123.000
77.44068 124.000
77.46062 124.000
77.48057 122.000
77.50052 135.000
77.52047 140.000
77.54041 129.000
77.56036 133.000
77.58031 119.000
77.60025 130.000
77.62020 118.000
77.64015 121.000
77.66009 122.000
77.68004 133.000
77.69999 142.000
77.71994 122.000
77.73988 141.000
77.75983 120.000
77.77978 133.000
77.79972 122.000
77.81967 120.000
77.83962 132.000
77.85956 152.000
77.87951 155.000
77.89946 134.000
77.91940 159.000
77.93935 137.000
77.95930 160.000
77.97925 168.000
77.99919 155.000
78.01914 171.000
78.03909 195.000
78.05903 211.000
78.07898 228.000
78.09893 211.000
78.11887 190.000
78.13882 238.000
78.15877 231.000
78.17872 248.000
78.19866 275.000
78.21861 281.000
78.23856 276.000
78.25850 288.000
78.27845 283.000
78.29840 363.000
78.31834 357.000
78.33829 360.000
78.35824 373.000
78.37819 386.000
78.39813 373.000
78.41808 369.000
78.43803 367.000
78.45797 362.000
78.47792 340.000
78.49787 347.000
78.51781 294.000
78.53776 342.000
78.55771 315.000
78.57765 297.000
78.59760 278.000
78.61755 292.000
78.63750 255.000
78.65744 272.000
78.67739 257.000
78.69734 243.000
78.71728 225.000
78.73723 210.000
78.75718 189.000
78.77712 163.000
78.79707 188.000
78.81702 163.000
78.83697 171.000
78.85691 162.000
78.87686 164.000
78.89681 139.000
78.91675 156.000
78.93670 140.000
78.95665 137.000
78.97659 140.000
78.99654 111.000
79.01649 138.000
79.03643 136.000
79.05638 130.000
79.07633 132.000
79.09628 112.000
79.11622 126.000
79.13617 133.000
79.15612 127.000
79.17606 145.000
79.19601 173.000
79.21596 151.000
79.23590 189.000
79.25585 193.000
79.27580 217.000
79.29575 238.000
79.31569 267.000
79.33564 326.000
79.35559 324.000
79.37553 279.000
79.39548 297.000
79.41543 262.000
79.43537 246.000
79.45532 250.000
79.47527 236.000
79.49521 228.000
79.51516 247.000
79.53511 226.000
79.55506 224.000
79.57500 257.000
79.59495 231.000
79.61490 213.000
79.63484 210.000
79.65479 193.000
79.67474 210.000
79.69468 168.000
79.71463 160.000
79.73458 175.000
79.75453 127.000
79.77447 156.000
79.79442 122.000
79.81437 129.000
79.83431 146.000
79.85426 121.000
79.87421 125.000
79.89415 113.000
79.91410 123.000
79.93405 124.000
79.95399 123.000
79.97394 117.000
79.99389 121.000
80.01384 134.000
80.03378 118.000
80.05373 102.000
80.07368 110.000
80.09362 108.000
80.11357 112.000
80.13352 105.000
80.15346 128.000
80.17341 117.000
80.19336 139.000
80.21331 131.000
80.23325 120.000
80.25320 136.000
80.27315 117.000
80.29309 108.000
80.31304 129.000
80.33299 121.000
80.35293 93.000
80.37288 118.000
80.39283 89.000
80.41278 107.000
80.43272 118.000
80.45267 114.000
80.47262 122.000
80.49256 124.000
80.51251 119.000
80.53246 129.000
80.55240 124.000
80.57235 115.000
80.59230 116.000
80.61224 123.000
80.63219 103.000
80.65214 119.000
80.67209 97.000
80.69203 116.000
80.71198 112.000
80.73193 119.000
80.75187 116.000
80.77182 99.000
80.79177 117.000
80.81171 89.000
80.83166 111.000
80.85161 101.000
80.87156 113.000
80.89150 115.000
80.91145 130.000
80.93140 124.000
80.95134 101.000
80.97129 125.000
80.99124 119.000
81.01118 119.000
81.03113 111.000
81.05108 128.000
81.07102 134.000
81.09097 142.000
81.11092 133.000
81.13087 133.000
81.15081 144.000
81.17076 148.000
81.19071 119.000
81.21065 121.000
81.23060 137.000
81.25055 114.000
81.27049 133.000
81.29044 120.000
81.31039 127.000
81.33034 121.000
81.35028 112.000
81.37023 127.000
81.39018 127.000
81.41012 134.000
81.43007 108.000
81.45002 111.000
81.46996 112.000
81.48991 135.000
81.50986 101.000
81.52980 117.000
81.54975 129.000
81.56970 135.000
81.58965 123.000
81.60959 112.000
81.62954 120.000
81.64949 108.000
81.66943 98.000
81.68938 121.000
81.70933 111.000
81.72927 109.000
81.74922 105.000
81.76917 111.000
81.78912 101.000
81.80906 116.000
81.82901 101.000
81.84896 99.000
81.86890 126.000
81.88885 109.000
81.90880 108.000
81.92874 118.000
81.94869 126.000
81.96864 109.000
81.98859 103.000
82.00853 104.000
82.02848 117.000
82.04843 107.000
82.06837 136.000
82.08832 106.000
82.10827 97.000
82.12821 118.000
82.14816 125.000
82.16811 119.000
82.18805 113.000
82.20800 101.000
82.22795 108.000
82.24790 116.000
82.26784 113.000
82.28779 134.000
82.30774 100.000
82.32768 108.000
82.34763 94.000
82.36758 111.000
82.38752 108.000
82.40747 118.000
82.42742 80.000
82.44737 123.000
82.46731 98.000
82.48726 94.000
82.50721 95.000
82.52715 121.000
82.54710 120.000
82.56705 120.000
82.58699 113.000
82.60694 129.000
82.62689 114.000
82.64683 87.000
82.66678 106.000
82.68673 106.000
82.70668 127.000
82.72662 121.000
82.74657 129.000
82.76652 93.000
82.78646 102.000
82.80641 97.000
82.82636 118.000
82.84630 123.000
82.86625 101.000
82.88620 98.000
82.90615 127.000
82.92609 90.000
82.94604 108.000
82.96599 127.000
82.98593 110.000
83.00588 110.000
83.02583 132.000
83.04577 102.000
83.06572 104.000
83.08567 91.000
83.10561 103.000
83.12556 108.000
83.14551 112.000
83.16546 106.000
83.18540 119.000
83.20535 129.000
83.22530 94.000
83.24524 122.000
83.26519 92.000
83.28514 114.000
83.30508 99.000
83.32503 113.000
83.34498 120.000
83.36493 127.000
83.38487 120.000
83.40482 109.000
83.42477 140.000
83.44471 114.000
83.46466 106.000
83.48461 122.000
83.50455 119.000
83.52450 127.000
83.54445 90.000
83.56440 108.000
83.58434 94.000
83.60429 120.000
83.62424 102.000
83.64418 103.000
83.66413 98.000
83.68408 106.000
83.70402 94.000
83.72397 110.000
83.74392 124.000
83.76386 106.000
83.78381 102.000
83.80376 139.000
83.82371 106.000
83.84365 126.000
83.86360 127.000
83.88355 123.000
83.90349 121.000
83.92344 106.000
83.94339 100.000
83.96333 116.000
83.98328 117.000
84.00323 113.000
84.02318 106.000
84.04312 120.000
84.06307 114.000
84.08302 98.000
84.10296 124.000
84.12291 103.000
84.14286 107.000
84.16280 122.000
84.18275 123.000
84.20270 115.000
84.22264 104.000
84.24259 133.000
84.26254 120.000
84.28249 130.000
84.30243 101.000
84.32238 127.000
84.34233 103.000
84.36227 123.000
84.38222 114.000
84.40217 132.000
84.42211 140.000
84.44206 112.000
84.46201 116.000
84.48196 133.000
84.50190 127.000
84.52185 140.000
84.54180 136.000
84.56174 137.000
84.58169 143.000
84.60164 125.000
84.62158 149.000
84.64153 190.000
84.66148 161.000
84.68142 169.000
84.70137 174.000
84.72132 172.000
84.74127 197.000
84.76121 196.000
84.78116 195.000
84.80111 224.000
84.82105 211.000
84.84100 206.000
84.86095 235.000
84.88089 247.000
84.90084 270.000
84.92079 282.000
84.94074 270.000
84.96068 264.000
84.98063 301.000
85.00058 259.000
85.02052 228.000
85.04047 240.000
85.06042 250.000
85.08036 229.000
85.10031 220.000
85.12026 214.000
85.14021 228.000
85.16015 223.000
85.18010 198.000
85.20005 185.000
85.21999 181.000
85.23994 201.000
85.25989 183.000
85.27983 182.000
85.29978 176.000
85.31973 180.000
85.33967 155.000
85.35962 166.000
85.37957 162.000
85.39952 148.000
85.41946 122.000
85.43941 117.000
85.45936 139.000
85.47930 129.000
85.49925 130.000
85.51920 112.000
85.53914 129.000
85.55909 135.000
85.57904 107.000
85.59899 138.000
85.61893 128.000
85.63888 124.000
85.65883 118.000
85.67877 100.000
85.69872 131.000
85.71867 137.000
85.73861 107.000
85.75856 109.000
85.77851 103.000
85.79845 127.000
85.81840 141.000
85.83835 144.000
85.85830 105.000
85.87824 123.000
85.89819 89.000
85.91814 109.000
85.93808 124.000
85.95803 113.000
85.97798 128.000
85.99792 114.000
86.01787 98.000
86.03782 90.000
86.05777 100.000
86.07771 121.000
86.09766 124.000
86.11761 101.000
86.13755 113.000
86.15750 118.000
86.17745 120.000
86.19739 123.000
86.21734 109.000
86.23729 118.000
86.25723 128.000
86.27718 125.000
86.29713 111.000
86.31708 117.000
86.33702 115.000
86.35697 132.000
86.37692 111.000
86.39686 107.000
86.41681 106.000
86.43676 113.000
86.45670 118.000
86.47665 119.000
86.49660 113.000
86.51655 110.000
86.53649 107.000
86.55644 126.000
86.57639 118.000
86.59633 117.000
86.61628 96.000
86.63623 113.000
86.65617 99.000
86.67612 94.000
86.69607 114.000
86.71602 119.000
86.73596 119.000
86.75591 111.000
86.77586 112.000
86.79580 106.000
86.81575 123.000
86.83570 110.000
86.85564 127.000
86.87559 118.000
86.89554 142.000
86.91548 126.000
86.93543 117.000
86.95538 117.000
86.97533 114.000
86.99527 106.000
87.01522 121.000
87.03517 121.000
87.05511 123.000
87.07506 111.000
87.09501 120.000
87.11495 117.000
87.13490 109.000
87.15485 114.000
87.17480 125.000
87.19474 131.000
87.21469 139.000
87.23464 133.000
87.25458 137.000
87.27453 126.000
87.29448 145.000
87.31442 125.000
87.33437 141.000
87.35432 132.000
87.37426 149.000
87.39421 130.000
87.41416 143.000
87.43411 110.000
87.45405 153.000
87.47400 146.000
87.49395 127.000
87.51389 146.000
87.53384 145.000
87.55379 115.000
87.57373 161.000
87.59368 141.000
87.61363 159.000
87.63358 152.000
87.65352 135.000
87.67347 150.000
87.69342 110.000
87.71336 133.000
87.73331 126.000
87.75326 120.000
87.77320 137.000
87.79315 116.000
87.81310 124.000
87.83304 146.000
87.85299 142.000
87.87294 128.000
87.89289 122.000
87.91283 132.000
87.93278 129.000
87.95273 128.000
87.97267 135.000
87.99262 103.000
88.01257 118.000
88.03251 127.000
88.05246 127.000
88.07241 123.000
88.09236 128.000
88.11230 126.000
88.13225 116.000
88.15220 104.000
88.17214 141.000
88.19209 134.000
88.21204 118.000
88.23198 117.000
88.25193 119.000
88.27188 108.000
88.29183 104.000
88.31177 114.000
88.33172 111.000
88.35167 123.000
88.37161 106.000
88.39156 107.000
88.41151 113.000
88.43145 117.000
88.45140 102.000
88.47135 112.000
88.49129 132.000
88.51124 112.000
88.53119 98.000
88.55114 113.000
88.57108 131.000
88.59103 116.000
88.61098 109.000
88.63092 121.000
88.65087 121.000
88.67082 98.000
88.69076 106.000
88.71071 77.000
88.73066 101.000
88.75061 104.000
88.77055 106.000
88.79050 121.000
88.81045 121.000
88.83039 109.000
88.85034 113.000
88.87029 122.000
88.89023 119.000
88.91018 100.000
88.93013 124.000
88.95007 127.000
88.97002 120.000
88.98997 125.000
89.00992 129.000
89.02986 91.000
89.04981 112.000
89.06976 103.000
89.08970 113.000
89.10965 115.000
89.12960 89.000
89.14954 95.000
89.16949 101.000
89.18944 116.000
89.20939 103.000
89.22933 106.000
89.24928 114.000
89.26923 119.000
89.28917 94.000
89.30912 127.000
89.32907 104.000
89.34901 118.000
89.36896 87.000
89.38891 91.000
89.40885 109.000
89.42880 113.000
89.44875 102.000
89.46870 105.000
89.48864 120.000
89.50859 121.000
89.52854 103.000
89.54848 99.000
89.56843 123.000
89.58838 113.000
89.60832 112.000
89.62827 109.000
89.64822 94.000
89.66817 106.000
89.68811 104.000
89.70806 121.000
89.72801 108.000
89.74795 122.000
89.76790 112.000
89.78785 109.000
89.80779 102.000
89.82774 107.000
89.84769 132.000
89.86764 107.000
89.88758 91.000
89.90753 116.000
89.92748 129.000
89.94742 111.000
89.96737 103.000
89.98732 115.000
90.00726 131.000
