10.00000 67.000
10.01995 63.000
10.03989 80.000
10.05984 81.000
10.07979 76.000
10.09973 81.000
10.11968 83.000
10.13963 75.000
10.15958 76.000
10.17952 92.000
10.19947 86.000
10.21942 78.000
10.23936 103.000
10.25931 93.000
10.27926 90.000
10.29920 84.000
10.31915 76.000
10.33910 96.000
10.35905 77.000
10.37899 80.000
10.39894 81.000
10.41889 112.000
10.43883 97.000
10.45878 83.000
10.47873 89.000
10.49867 86.000
10.51862 89.000
10.53857 92.000
10.55851 94.000
10.57846 66.000
10.59841 78.000
10.61836 84.000
10.63830 71.000
10.65825 89.000
10.67820 84.000
10.69814 95.000
10.71809 80.000
10.73804 76.000
10.75798 78.000
10.77793 69.000
10.79788 79.000
10.81783 93.000
10.83777 94.000
10.85772 79.000
10.87767 89.000
10.89761 88.000
10.91756 89.000
10.93751 93.000
10.95745 77.000
10.97740 79.000
10.99735 85.000
11.01730 67.000
11.03724 85.000
11.05719 74.000
11.07714 87.000
11.09708 86.000
11.11703 82.000
11.13698 97.000
11.15692 83.000
11.17687 80.000
11.19682 78.000
11.21676 61.000
11.23671 84.000
11.25666 79.000
11.27661 98.000
11.29655 86.000
11.31650 74.000
11.33645 79.000
11.35639 75.000
11.37634 86.000
11.39629 78.000
11.41623 92.000
11.43618 82.000
11.45613 86.000
11.47608 79.000
11.49602 92.000
11.51597 74.000
11.53592 83.000
11.55586 76.000
11.57581 90.000
11.59576 88.000
11.61570 97.000
11.63565 92.000
11.65560 83.000
11.67554 90.000
11.69549 80.000
11.71544 83.000
11.73539 82.000
11.75533 66.000
11.77528 90.000
11.79523 70.000
11.81517 85.000
11.83512 90.000
11.85507 86.000
11.87501 76.000
11.89496 74.000
11.91491 91.000
11.93486 62.000
11.95480 86.000
11.97475 79.000
11.99470 95.000
12.01464 95.000
12.03459 82.000
12.05454 92.000
12.07448 78.000
12.09443 89.000
12.11438 70.000
12.13432 85.000
12.15427 101.000
12.17422 83.000
12.19417 80.000
12.21411 93.000
12.23406 84.000
12.25401 84.000
12.27395 99.000
12.29390 68.000
12.31385 93.000
12.33379 89.000
12.35374 82.000
12.37369 91.000
12.39364 84.000
12.41358 86.000
12.43353 97.000
12.45348 85.000
12.47342 84.000
12.49337 87.000
12.51332 73.000
12.53326 96.000
12.55321 100.000
12.57316 88.000
12.59311 91.000
12.61305 75.000
12.63300 86.000
12.65295 82.000
12.67289 95.000
12.69284 86.000
12.71279 88.000
12.73273 86.000
12.75268 83.000
12.77263 81.000
12.79257 75.000
12.81252 68.000
12.83247 90.000
12.85242 88.000
12.87236 97.000
12.89231 95.000
12.91226 56.000
12.93220 107.000
12.95215 65.000
12.97210 92.000
12.99204 94.000
13.01199 92.000
13.03194 87.000
13.05189 69.000
13.07183 86.000
13.09178 75.000
13.11173 92.000
13.13167 82.000
13.15162 97.000
13.17157 97.000
13.19151 71.000
13.21146 83.000
13.23141 82.000
13.25135 75.000
13.27130 68.000
13.29125 71.000
13.31120 92.000
13.33114 104.000
13.35109 78.000
13.37104 90.000
13.39098 98.000
13.41093 93.000
13.43088 81.000
13.45082 82.000
13.47077 114.000
13.49072 78.000
13.51067 107.000
13.53061 95.000
13.55056 107.000
13.57051 86.000
13.59045 79.000
13.61040 80.000
13.63035 84.000
13.65029 94.000
13.67024 77.000
13.69019 85.000
13.71013 78.000
13.73008 99.000
13.75003 87.000
13.76998 92.000
13.78992 91.000
13.80987 88.000
13.82982 100.000
13.84976 96.000
13.86971 107.000
13.88966 90.000
13.90960 103.000
13.92955 87.000
13.94950 90.000
13.96945 111.000
13.98939 93.000
14.00934 87.000
14.02929 85.000
14.04923 86.000
14.06918 86.000
14.08913 83.000
14.10907 82.000
14.12902 96.000
14.14897 80.000
14.16892 84.000
14.18886 83.000
14.20881 79.000
14.22876 106.000
14.24870 101.000
14.26865 89.000
14.28860 103.000
14.30854 100.000
14.32849 89.000
14.34844 92.000
14.36838 95.000
14.38833 102.000
14.40828 99.000
14.42823 96.000
14.44817 87.000
14.46812 82.000
14.48807 109.000
14.50801 84.000
14.52796 102.000
14.54791 97.000
14.56785 97.000
14.58780 114.000
14.60775 106.000
14.62770 95.000
14.64764 94.000
14.66759 97.000
14.68754 115.000
14.70748 123.000
14.72743 113.000
14.74738 95.000
14.76732 111.000
14.78727 90.000
14.80722 96.000
14.82716 88.000
14.84711 118.000
14.86706 99.000
14.88701 106.000
14.90695 99.000
14.92690 111.000
14.94685 115.000
14.96679 125.000
14.98674 128.000
15.00669 140.000
15.02663 129.000
15.04658 123.000
15.06653 137.000
15.08648 129.000
15.10642 159.000
15.12637 170.000
15.14632 176.000
15.16626 187.000
15.18621 242.000
15.20616 247.000
15.22610 294.000
15.24605 312.000
15.26600 399.000
15.28594 403.000
15.30589 429.000
15.32584 485.000
15.34579 514.000
15.36573 535.000
15.38568 530.000
15.40563 510.000
15.42557 426.000
15.44552 380.000
15.46547 321.000
15.48541 242.000
15.50536 211.000
15.52531 129.000
15.54526 128.000
15.56520 119.000
15.58515 120.000
15.60510 124.000
15.62504 116.000
15.64499 118.000
15.66494 118.000
15.68488 125.000
15.70483 123.000
15.72478 116.000
15.74472 94.000
15.76467 116.000
15.78462 107.000
15.80457 105.000
15.82451 118.000
15.84446 86.000
15.86441 112.000
15.88435 109.000
15.90430 107.000
15.92425 109.000
15.94419 98.000
15.96414 86.000
15.98409 107.000
16.00404 110.000
16.02398 93.000
16.04393 100.000
16.06388 115.000
16.08382 100.000
16.10377 111.000
16.12372 107.000
16.14366 113.000
16.16361 114.000
16.18356 111.000
16.20351 115.000
16.22345 124.000
16.24340 130.000
16.26335 120.000
16.28329 101.000
16.30324 113.000
16.32319 133.000
16.34313 124.000
16.36308 109.000
16.38303 119.000
16.40297 119.000
16.42292 116.000
16.44287 133.000
16.46282 136.000
16.48276 113.000
16.50271 125.000
16.52266 128.000
16.54260 113.000
16.56255 145.000
16.58250 126.000
16.60244 116.000
16.62239 104.000
16.64234 101.000
16.66229 101.000
16.68223 124.000
16.70218 145.000
16.72213 138.000
16.74207 120.000
16.76202 117.000
16.78197 125.000
16.80191 118.000
16.82186 119.000
16.84181 118.000
16.86175 111.000
16.88170 104.000
16.90165 122.000
16.92160 137.000
16.94154 111.000
16.96149 127.000
16.98144 120.000
17.00138 102.000
17.02133 125.000
17.04128 118.000
17.06122 135.000
17.08117 136.000
17.10112 128.000
17.12107 142.000
17.14101 129.000
17.16096 108.000
17.18091 141.000
17.20085 129.000
17.22080 119.000
17.24075 164.000
17.26069 132.000
17.28064 120.000
17.30059 145.000
17.32053 119.000
17.34048 139.000
17.36043 123.000
17.38038 126.000
17.40032 128.000
17.42027 122.000
17.44022 131.000
17.46016 136.000
17.48011 111.000
17.50006 140.000
17.52000 134.000
17.53995 139.000
17.55990 160.000
17.57985 143.000
17.59979 142.000
17.61974 148.000
17.63969 156.000
17.65963 151.000
17.67958 135.000
17.69953 140.000
17.71947 148.000
17.73942 165.000
17.75937 181.000
17.77932 175.000
17.79926 201.000
17.81921 219.000
17.83916 254.000
17.85910 265.000
17.87905 288.000
17.89900 283.000
17.91894 368.000
17.93889 321.000
17.95884 388.000
17.97878 323.000
17.99873 350.000
18.01868 346.000
18.03863 303.000
18.05857 332.000
18.07852 277.000
18.09847 242.000
18.11841 218.000
18.13836 216.000
18.15831 189.000
18.17825 158.000
18.19820 171.000
18.21815 184.000
18.23810 177.000
18.25804 161.000
18.27799 141.000
18.29794 159.000
18.31788 156.000
18.33783 159.000
18.35778 154.000
18.37772 163.000
18.39767 139.000
18.41762 143.000
18.43756 153.000
18.45751 147.000
18.47746 144.000
18.49741 158.000
18.51735 130.000
18.53730 145.000
18.55725 146.000
18.57719 155.000
18.59714 140.000
18.61709 149.000
18.63703 175.000
18.65698 158.000
18.67693 153.000
18.69688 135.000
18.71682 163.000
18.73677 144.000
18.75672 156.000
18.77666 154.000
18.79661 152.000
18.81656 150.000
18.83650 145.000
18.85645 137.000
18.87640 148.000
18.89634 135.000
18.91629 153.000
18.93624 157.000
18.95619 152.000
18.97613 158.000
18.99608 139.000
19.01603 169.000
19.03597 165.000
19.05592 140.000
19.07587 156.000
19.09581 139.000
19.11576 130.000
19.13571 144.000
19.15566 173.000
19.17560 146.000
19.19555 158.000
19.21550 156.000
19.23544 160.000
19.25539 163.000
19.27534 145.000
19.29528 180.000
19.31523 151.000
19.33518 169.000
19.35513 159.000
19.37507 172.000
19.39502 146.000
19.41497 165.000
19.43491 150.000
19.45486 167.000
19.47481 156.000
19.49475 144.000
19.51470 144.000
19.53465 146.000
19.55459 151.000
19.57454 157.000
19.59449 161.000
19.61444 191.000
19.63438 176.000
19.65433 154.000
19.67428 169.000
19.69422 155.000
19.71417 164.000
19.73412 153.000
19.75406 183.000
19.77401 166.000
19.79396 147.000
19.81391 182.000
19.83385 157.000
19.85380 160.000
19.87375 156.000
19.89369 161.000
19.91364 159.000
19.93359 167.000
19.95353 181.000
19.97348 159.000
19.99343 180.000
20.01337 176.000
20.03332 157.000
20.05327 180.000
20.07322 171.000
20.09316 168.000
20.11311 184.000
20.13306 158.000
20.15300 155.000
20.17295 176.000
20.19290 175.000
20.21284 160.000
20.23279 185.000
20.25274 179.000
20.27269 172.000
20.29263 166.000
20.31258 179.000
20.33253 150.000
20.35247 175.000
20.37242 162.000
20.39237 178.000
20.41231 166.000
20.43226 165.000
20.45221 184.000
20.47215 163.000
20.49210 167.000
20.51205 202.000
20.53200 171.000
20.55194 163.000
20.57189 163.000
20.59184 182.000
20.61178 164.000
20.63173 176.000
20.65168 163.000
20.67162 153.000
20.69157 198.000
20.71152 182.000
20.73147 162.000
20.75141 196.000
20.77136 170.000
20.79131 159.000
20.81125 208.000
20.83120 166.000
20.85115 184.000
20.87109 190.000
20.89104 163.000
20.91099 192.000
20.93094 182.000
20.95088 207.000
20.97083 197.000
20.99078 191.000
21.01072 210.000
21.03067 198.000
21.05062 154.000
21.07056 182.000
21.09051 178.000
21.11046 185.000
21.13040 177.000
21.15035 178.000
21.17030 214.000
21.19025 181.000
21.21019 199.000
21.23014 173.000
21.25009 187.000
21.27003 192.000
21.28998 168.000
21.30993 177.000
21.32987 199.000
21.34982 186.000
21.36977 168.000
21.38972 190.000
21.40966 180.000
21.42961 192.000
21.44956 203.000
21.46950 198.000
21.48945 169.000
21.50940 198.000
21.52934 188.000
21.54929 225.000
21.56924 158.000
21.58918 183.000
21.60913 186.000
21.62908 193.000
21.64903 184.000
21.66897 187.000
21.68892 193.000
21.70887 204.000
21.72881 187.000
21.74876 190.000
21.76871 182.000
21.78865 180.000
21.80860 215.000
21.82855 206.000
21.84850 167.000
21.86844 185.000
21.88839 183.000
21.90834 219.000
21.92828 171.000
21.94823 190.000
21.96818 181.000
21.98812 197.000
22.00807 188.000
22.02802 180.000
22.04796 166.000
22.06791 189.000
22.08786 183.000
22.10781 186.000
22.12775 205.000
22.14770 202.000
22.16765 175.000
22.18759 193.000
22.20754 176.000
22.22749 197.000
22.24743 183.000
22.26738 170.000
22.28733 168.000
22.30728 197.000
22.32722 185.000
22.34717 177.000
22.36712 173.000
22.38706 230.000
22.40701 184.000
22.42696 170.000
22.44690 208.000
22.46685 187.000
22.48680 191.000
22.50675 192.000
22.52669 190.000
22.54664 191.000
22.56659 189.000
22.58653 182.000
22.60648 195.000
22.62643 183.000
22.64637 166.000
22.66632 174.000
22.68627 203.000
22.70621 193.000
22.72616 201.000
22.74611 210.000
22.76606 179.000
22.78600 196.000
22.80595 199.000
22.82590 203.000
22.84584 206.000
22.86579 200.000
22.88574 214.000
22.90568 197.000
22.92563 201.000
22.94558 184.000
22.96553 202.000
22.98547 185.000
23.00542 172.000
23.02537 201.000
23.04531 185.000
23.06526 197.000
23.08521 185.000
23.10515 183.000
23.12510 197.000
23.14505 196.000
23.16499 187.000
23.18494 236.000
23.20489 187.000
23.22484 196.000
23.24478 179.000
23.26473 218.000
23.28468 195.000
23.30462 189.000
23.32457 184.000
23.34452 193.000
23.36446 197.000
23.38441 195.000
23.40436 214.000
23.42431 181.000
23.44425 198.000
23.46420 209.000
23.48415 169.000
23.50409 215.000
23.52404 189.000
23.54399 185.000
23.56393 200.000
23.58388 219.000
23.60383 177.000
23.62377 213.000
23.64372 200.000
23.66367 215.000
23.68362 180.000
23.70356 194.000
23.72351 182.000
23.74346 201.000
23.76340 200.000
23.78335 207.000
23.80330 210.000
23.82324 210.000
23.84319 201.000
23.86314 198.000
23.88309 231.000
23.90303 218.000
23.92298 206.000
23.94293 232.000
23.96287 203.000
23.98282 191.000
24.00277 204.000
24.02271 233.000
24.04266 189.000
24.06261 210.000
24.08256 228.000
24.10250 198.000
24.12245 207.000
24.14240 191.000
24.16234 207.000
24.18229 181.000
24.20224 213.000
24.22218 216.000
24.24213 202.000
24.26208 252.000
24.28202 197.000
24.30197 199.000
24.32192 201.000
24.34187 206.000
24.36181 190.000
24.38176 207.000
24.40171 199.000
24.42165 206.000
24.44160 220.000
24.46155 189.000
24.48149 183.000
24.50144 203.000
24.52139 224.000
24.54134 218.000
24.56128 207.000
24.58123 204.000
24.60118 199.000
24.62112 205.000
24.64107 184.000
24.66102 213.000
24.68096 202.000
24.70091 208.000
24.72086 245.000
24.74080 207.000
24.76075 188.000
24.78070 177.000
24.80065 230.000
24.82059 206.000
24.84054 186.000
24.86049 193.000
24.88043 214.000
24.90038 215.000
24.92033 208.000
24.94027 211.000
24.96022 227.000
24.98017 191.000
25.00012 189.000
25.02006 187.000
25.04001 188.000
25.05996 222.000
25.07990 210.000
25.09985 185.000
25.11980 213.000
25.13974 209.000
25.15969 229.000
25.17964 234.000
25.19958 201.000
25.21953 223.000
25.23948 210.000
25.25943 203.000
25.27937 206.000
25.29932 193.000
25.31927 237.000
25.33921 209.000
25.35916 224.000
25.37911 211.000
25.39905 221.000
25.41900 229.000
25.43895 226.000
25.45890 212.000
25.47884 220.000
25.49879 237.000
25.51874 222.000
25.53868 215.000
25.55863 224.000
25.57858 215.000
25.59852 225.000
25.61847 239.000
25.63842 215.000
25.65837 216.000
25.67831 216.000
25.69826 202.000
25.71821 195.000
25.73815 224.000
25.75810 230.000
25.77805 258.000
25.79799 236.000
25.81794 242.000
25.83789 204.000
25.85783 240.000
25.87778 231.000
25.89773 223.000
25.91768 241.000
25.93762 218.000
25.95757 226.000
25.97752 221.000
25.99746 205.000
26.01741 228.000
26.03736 257.000
26.05730 225.000
26.07725 224.000
26.09720 225.000
26.11715 209.000
26.13709 215.000
26.15704 209.000
26.17699 261.000
26.19693 237.000
26.21688 222.000
26.23683 179.000
26.25677 222.000
26.27672 200.000
26.29667 225.000
26.31661 220.000
26.33656 213.000
26.35651 228.000
26.37646 217.000
26.39640 227.000
26.41635 220.000
26.43630 266.000
26.45624 237.000
26.47619 233.000
26.49614 226.000
26.51608 273.000
26.53603 206.000
26.55598 247.000
26.57593 215.000
26.59587 214.000
26.61582 222.000
26.63577 229.000
26.65571 223.000
26.67566 231.000
26.69561 232.000
26.71555 227.000
26.73550 236.000
26.75545 226.000
26.77539 241.000
26.79534 219.000
26.81529 254.000
26.83524 220.000
26.85518 258.000
26.87513 245.000
26.89508 271.000
26.91502 221.000
26.93497 244.000
26.95492 239.000
26.97486 233.000
26.99481 236.000
27.01476 244.000
27.03471 246.000
27.05465 232.000
27.07460 235.000
27.09455 243.000
27.11449 245.000
27.13444 238.000
27.15439 259.000
27.17433 244.000
27.19428 254.000
27.21423 245.000
27.23417 239.000
27.25412 257.000
27.27407 253.000
27.29402 231.000
27.31396 258.000
27.33391 213.000
27.35386 256.000
27.37380 254.000
27.39375 233.000
27.41370 232.000
27.43364 236.000
27.45359 217.000
27.47354 248.000
27.49349 276.000
27.51343 270.000
27.53338 245.000
27.55333 264.000
27.57327 255.000
27.59322 235.000
27.61317 244.000
27.63311 245.000
27.65306 260.000
27.67301 229.000
27.69296 245.000
27.71290 236.000
27.73285 248.000
27.75280 271.000
27.77274 248.000
27.79269 249.000
27.81264 264.000
27.83258 239.000
27.85253 236.000
27.87248 247.000
27.89242 276.000
27.91237 261.000
27.93232 273.000
27.95227 221.000
27.97221 248.000
27.99216 253.000
28.01211 243.000
28.03205 252.000
28.05200 256.000
28.07195 264.000
28.09189 275.000
28.11184 266.000
28.13179 246.000
28.15174 233.000
28.17168 273.000
28.19163 239.000
28.21158 257.000
28.23152 241.000
28.25147 263.000
28.27142 257.000
28.29136 255.000
28.31131 274.000
28.33126 264.000
28.35120 259.000
28.37115 273.000
28.39110 225.000
28.41105 252.000
28.43099 268.000
28.45094 254.000
28.47089 246.000
28.49083 229.000
28.51078 263.000
28.53073 268.000
28.55067 234.000
28.57062 282.000
28.59057 263.000
28.61052 291.000
28.63046 243.000
28.65041 250.000
28.67036 235.000
28.69030 257.000
28.71025 273.000
28.73020 267.000
28.75014 247.000
28.77009 259.000
28.79004 287.000
28.80998 238.000
28.82993 215.000
28.84988 276.000
28.86983 265.000
28.88977 260.000
28.90972 242.000
28.92967 251.000
28.94961 213.000
28.96956 266.000
28.98951 267.000
29.00945 268.000
29.02940 260.000
29.04935 281.000
29.06930 259.000
29.08924 243.000
29.10919 274.000
29.12914 282.000
29.14908 284.000
29.16903 272.000
29.18898 285.000
29.20892 244.000
29.22887 261.000
29.24882 280.000
29.26877 273.000
29.28871 258.000
29.30866 225.000
29.32861 277.000
29.34855 281.000
29.36850 275.000
29.38845 285.000
29.40839 271.000
29.42834 294.000
29.44829 275.000
29.46823 275.000
29.48818 322.000
29.50813 274.000
29.52808 292.000
29.54802 299.000
29.56797 364.000
29.58792 367.000
29.60786 388.000
29.62781 377.000
29.64776 435.000
29.66770 419.000
29.68765 514.000
29.70760 605.000
29.72755 634.000
29.74749 665.000
29.76744 705.000
29.78739 755.000
29.80733 813.000
29.82728 748.000
29.84723 786.000
29.86717 844.000
29.88712 727.000
29.90707 711.000
29.92701 641.000
29.94696 589.000
29.96691 505.000
29.98686 477.000
30.00680 403.000
30.02675 390.000
30.04670 362.000
30.06664 326.000
30.08659 309.000
30.10654 302.000
30.12648 269.000
30.14643 292.000
30.16638 287.000
30.18633 289.000
30.20627 268.000
30.22622 253.000
30.24617 275.000
30.26611 262.000
30.28606 255.000
30.30601 287.000
30.32595 275.000
30.34590 250.000
30.36585 253.000
30.38579 245.000
30.40574 254.000
30.42569 252.000
30.44564 272.000
30.46558 276.000
30.48553 267.000
30.50548 278.000
30.52542 253.000
30.54537 254.000
30.56532 241.000
30.58526 258.000
30.60521 289.000
30.62516 239.000
30.64511 265.000
30.66505 249.000
30.68500 240.000
30.70495 244.000
30.72489 246.000
30.74484 252.000
30.76479 254.000
30.78473 249.000
30.80468 280.000
30.82463 271.000
30.84458 262.000
30.86452 243.000
30.88447 228.000
30.90442 253.000
30.92436 246.000
30.94431 252.000
30.96426 264.000
30.98420 231.000
31.00415 265.000
31.02410 236.000
31.04404 267.000
31.06399 252.000
31.08394 241.000
31.10389 260.000
31.12383 230.000
31.14378 282.000
31.16373 285.000
31.18367 264.000
31.20362 270.000
31.22357 319.000
31.24351 306.000
31.26346 315.000
31.28341 330.000
31.30336 336.000
31.32330 337.000
31.34325 375.000
31.36320 370.000
31.38314 372.000
31.40309 388.000
31.42304 378.000
31.44298 389.000
31.46293 378.000
31.48288 369.000
31.50282 320.000
31.52277 313.000
31.54272 280.000
31.56267 278.000
31.58261 273.000
31.60256 251.000
31.62251 243.000
31.64245 240.000
31.66240 237.000
31.68235 226.000
31.70229 241.000
31.72224 239.000
31.74219 251.000
31.76214 203.000
31.78208 244.000
31.80203 222.000
31.82198 242.000
31.84192 227.000
31.86187 241.000
31.88182 238.000
31.90176 222.000
31.92171 236.000
31.94166 245.000
31.96160 246.000
31.98155 232.000
32.00150 211.000
32.02145 216.000
32.04139 266.000
32.06134 245.000
32.08129 232.000
32.10123 255.000
32.12118 225.000
32.14113 235.000
32.16107 237.000
32.18102 232.000
32.20097 273.000
32.22092 215.000
32.24086 235.000
32.26081 246.000
32.28076 242.000
32.30070 210.000
32.32065 243.000
32.34060 244.000
32.36054 246.000
32.38049 232.000
32.40044 221.000
32.42039 228.000
32.44033 246.000
32.46028 246.000
32.48023 226.000
32.50017 232.000
32.52012 233.000
32.54007 248.000
32.56001 246.000
32.57996 221.000
32.59991 221.000
32.61985 216.000
32.63980 201.000
32.65975 209.000
32.67970 217.000
32.69964 253.000
32.71959 234.000
32.73954 240.000
32.75948 243.000
32.77943 208.000
32.79938 212.000
32.81932 231.000
32.83927 189.000
32.85922 203.000
32.87917 254.000
32.89911 266.000
32.91906 237.000
32.93901 233.000
32.95895 222.000
32.97890 224.000
32.99885 216.000
33.01879 230.000
33.03874 194.000
33.05869 201.000
33.07863 224.000
33.09858 230.000
33.11853 217.000
33.13848 234.000
33.15842 213.000
33.17837 233.000
33.19832 211.000
33.21826 210.000
33.23821 236.000
33.25816 210.000
33.27810 226.000
33.29805 227.000
33.31800 233.000
33.33795 225.000
33.35789 220.000
33.37784 197.000
33.39779 213.000
33.41773 244.000
33.43768 224.000
33.45763 216.000
33.47757 241.000
33.49752 208.000
33.51747 240.000
33.53741 217.000
33.55736 247.000
33.57731 222.000
33.59726 232.000
33.61720 194.000
33.63715 186.000
33.65710 225.000
33.67704 211.000
33.69699 223.000
33.71694 205.000
33.73688 206.000
33.75683 214.000
33.77678 249.000
33.79673 224.000
33.81667 214.000
33.83662 230.000
33.85657 210.000
33.87651 228.000
33.89646 222.000
33.91641 206.000
33.93635 241.000
33.95630 244.000
33.97625 229.000
33.99620 204.000
34.01614 226.000
34.03609 208.000
34.05604 198.000
34.07598 226.000
34.09593 213.000
34.11588 199.000
34.13582 225.000
34.15577 187.000
34.17572 199.000
34.19566 212.000
34.21561 198.000
34.23556 235.000
34.25551 204.000
34.27545 216.000
34.29540 216.000
34.31535 197.000
34.33529 229.000
34.35524 228.000
34.37519 203.000
34.39513 228.000
34.41508 230.000
34.43503 219.000
34.45498 218.000
34.47492 219.000
34.49487 227.000
34.51482 247.000
34.53476 219.000
34.55471 211.000
34.57466 226.000
34.59460 238.000
34.61455 227.000
34.63450 215.000
34.65444 205.000
34.67439 262.000
34.69434 239.000
34.71429 237.000
34.73423 277.000
34.75418 249.000
34.77413 237.000
34.79407 303.000
34.81402 286.000
34.83397 303.000
34.85391 306.000
34.87386 322.000
34.89381 392.000
34.91376 383.000
34.93370 425.000
34.95365 499.000
34.97360 627.000
34.99354 664.000
35.01349 735.000
35.03344 873.000
35.05338 996.000
35.07333 1164.000
35.09328 1326.000
35.11322 1474.000
35.13317 1678.000
35.15312 1736.000
35.17307 1906.000
35.19301 2012.000
35.21296 2065.000
35.23291 2035.000
35.25285 1915.000
35.27280 1884.000
35.29275 1715.000
35.31269 1546.000
35.33264 1395.000
35.35259 1203.000
35.37254 1100.000
35.39248 870.000
35.41243 748.000
35.43238 614.000
35.45232 588.000
35.47227 470.000
35.49222 446.000
35.51216 419.000
35.53211 373.000
35.55206 386.000
35.57201 360.000
35.59195 347.000
35.61190 389.000
35.63185 403.000
35.65179 392.000
35.67174 427.000
35.69169 409.000
35.71163 438.000
35.73158 434.000
35.75153 413.000
35.77147 367.000
35.79142 384.000
35.81137 345.000
35.83132 339.000
35.85126 262.000
35.87121 269.000
35.89116 248.000
35.91110 242.000
35.93105 230.000
35.95100 233.000
35.97094 235.000
35.99089 203.000
36.01084 242.000
36.03079 234.000
36.05073 223.000
36.07068 232.000
36.09063 263.000
36.11057 222.000
36.13052 247.000
36.15047 220.000
36.17041 258.000
36.19036 243.000
36.21031 237.000
36.23025 220.000
36.25020 240.000
36.27015 203.000
36.29010 218.000
36.31004 225.000
36.32999 234.000
36.34994 215.000
36.36988 190.000
36.38983 209.000
36.40978 186.000
36.42972 233.000
36.44967 229.000
36.46962 196.000
36.48957 234.000
36.50951 241.000
36.52946 251.000
36.54941 246.000
36.56935 246.000
36.58930 285.000
36.60925 306.000
36.62919 305.000
36.64914 318.000
36.66909 334.000
36.68903 418.000
36.70898 453.000
36.72893 506.000
36.74888 572.000
36.76882 634.000
36.78877 701.000
36.80872 835.000
36.82866 888.000
36.84861 992.000
36.86856 1044.000
36.88850 1086.000
36.90845 1178.000
36.92840 1115.000
36.94835 1117.000
36.96829 998.000
36.98824 860.000
37.00819 808.000
37.02813 670.000
37.04808 574.000
37.06803 527.000
37.08797 409.000
37.10792 391.000
37.12787 317.000
37.14781 314.000
37.16776 283.000
37.18771 253.000
37.20766 237.000
37.22760 240.000
37.24755 282.000
37.26750 246.000
37.28744 249.000
37.30739 277.000
37.32734 233.000
37.34728 235.000
37.36723 239.000
37.38718 249.000
37.40713 250.000
37.42707 216.000
37.44702 221.000
37.46697 224.000
37.48691 208.000
37.50686 201.000
37.52681 205.000
37.54675 217.000
37.56670 192.000
37.58665 216.000
37.60660 169.000
37.62654 225.000
37.64649 195.000
37.66644 198.000
37.68638 183.000
37.70633 212.000
37.72628 200.000
37.74622 211.000
37.76617 193.000
37.78612 206.000
37.80606 176.000
37.82601 229.000
37.84596 162.000
37.86591 173.000
37.88585 187.000
37.90580 195.000
37.92575 191.000
37.94569 195.000
37.96564 178.000
37.98559 184.000
38.00553 169.000
38.02548 195.000
38.04543 187.000
38.06538 176.000
38.08532 180.000
38.10527 172.000
38.12522 178.000
38.14516 188.000
38.16511 171.000
38.18506 173.000
38.20500 181.000
38.22495 197.000
38.24490 177.000
38.26484 223.000
38.28479 196.000
38.30474 170.000
38.32469 191.000
38.34463 199.000
38.36458 186.000
38.38453 168.000
38.40447 200.000
38.42442 195.000
38.44437 173.000
38.46431 192.000
38.48426 195.000
38.50421 197.000
38.52416 185.000
38.54410 176.000
38.56405 192.000
38.58400 209.000
38.60394 183.000
38.62389 179.000
38.64384 192.000
38.66378 220.000
38.68373 200.000
38.70368 197.000
38.72362 196.000
38.74357 196.000
38.76352 187.000
38.78347 194.000
38.80341 185.000
38.82336 183.000
38.84331 183.000
38.86325 213.000
38.88320 228.000
38.90315 193.000
38.92309 232.000
38.94304 251.000
38.96299 272.000
38.98294 249.000
39.00288 232.000
39.02283 219.000
39.04278 313.000
39.06272 299.000
39.08267 349.000
39.10262 373.000
39.12256 426.000
39.14251 417.000
39.16246 426.000
39.18241 461.000
39.20235 490.000
39.22230 480.000
39.24225 467.000
39.26219 522.000
39.28214 456.000
39.30209 353.000
39.32203 371.000
39.34198 313.000
39.36193 281.000
39.38187 290.000
39.40182 254.000
39.42177 243.000
39.44172 221.000
39.46166 207.000
39.48161 194.000
39.50156 192.000
39.52150 222.000
39.54145 199.000
39.56140 182.000
39.58134 204.000
39.60129 179.000
39.62124 157.000
39.64119 199.000
39.66113 206.000
39.68108 175.000
39.70103 170.000
39.72097 208.000
39.74092 199.000
39.76087 186.000
39.78081 168.000
39.80076 199.000
39.82071 175.000
39.84065 180.000
39.86060 195.000
39.88055 169.000
39.90050 172.000
39.92044 169.000
39.94039 186.000
39.96034 175.000
39.98028 179.000
40.00023 177.000
40.02018 190.000
40.04012 199.000
40.06007 194.000
40.08002 171.000
40.09997 208.000
40.11991 177.000
40.13986 193.000
40.15981 186.000
40.17975 222.000
40.19970 204.000
40.21965 200.000
40.23959 188.000
40.25954 185.000
40.27949 186.000
40.29943 185.000
40.31938 185.000
40.33933 174.000
40.35928 195.000
40.37922 190.000
40.39917 193.000
40.41912 198.000
40.43906 193.000
40.45901 206.000
40.47896 181.000
40.49890 177.000
40.51885 176.000
40.53880 189.000
40.55875 192.000
40.57869 159.000
40.59864 175.000
40.61859 194.000
40.63853 169.000
40.65848 166.000
40.67843 177.000
40.69837 151.000
40.71832 187.000
40.73827 175.000
40.75822 157.000
40.77816 196.000
40.79811 153.000
40.81806 174.000
40.83800 199.000
40.85795 204.000
40.87790 167.000
40.89784 181.000
40.91779 163.000
40.93774 183.000
40.95768 211.000
40.97763 205.000
40.99758 200.000
41.01753 183.000
41.03747 185.000
41.05742 169.000
41.07737 178.000
41.09731 189.000
41.11726 180.000
41.13721 206.000
41.15715 188.000
41.17710 161.000
41.19705 164.000
41.21700 167.000
41.23694 155.000
41.25689 156.000
41.27684 188.000
41.29678 199.000
41.31673 183.000
41.33668 181.000
41.35662 201.000
41.37657 189.000
41.39652 173.000
41.41646 189.000
41.43641 182.000
41.45636 165.000
41.47631 179.000
41.49625 193.000
41.51620 177.000
41.53615 187.000
41.55609 176.000
41.57604 180.000
41.59599 169.000
41.61593 182.000
41.63588 180.000
41.65583 194.000
41.67578 154.000
41.69572 184.000
41.71567 172.000
41.73562 173.000
41.75556 174.000
41.77551 195.000
41.79546 190.000
41.81540 173.000
41.83535 175.000
41.85530 215.000
41.87524 170.000
41.89519 193.000
41.91514 193.000
41.93509 184.000
41.95503 211.000
41.97498 210.000
41.99493 174.000
42.01487 172.000
42.03482 163.000
42.05477 172.000
42.07471 195.000
42.09466 186.000
42.11461 202.000
42.13456 194.000
42.15450 186.000
42.17445 189.000
42.19440 195.000
42.21434 183.000
42.23429 182.000
42.25424 193.000
42.27418 199.000
42.29413 189.000
42.31408 185.000
42.33403 196.000
42.35397 198.000
42.37392 218.000
42.39387 219.000
42.41381 234.000
42.43376 216.000
42.45371 225.000
42.47365 242.000
42.49360 238.000
42.51355 225.000
42.53349 230.000
42.55344 272.000
42.57339 302.000
42.59334 313.000
42.61328 288.000
42.63323 352.000
42.65318 347.000
42.67312 418.000
42.69307 487.000
42.71302 534.000
42.73296 585.000
42.75291 728.000
42.77286 832.000
42.79281 952.000
42.81275 1025.000
42.83270 1160.000
42.85265 1351.000
42.87259 1481.000
42.89254 1554.000
42.91249 1632.000
42.93243 1741.000
42.95238 1881.000
42.97233 1893.000
42.99227 1702.000
43.01222 1617.000
43.03217 1332.000
43.05212 1233.000
43.07206 1154.000
43.09201 1006.000
43.11196 899.000
43.13190 730.000
43.15185 654.000
43.17180 559.000
43.19174 475.000
43.21169 447.000
43.23164 447.000
43.25159 444.000
43.27153 394.000
43.29148 395.000
43.31143 373.000
43.33137 319.000
43.35132 334.000
43.37127 291.000
43.39121 280.000
43.41116 288.000
43.43111 250.000
43.45105 242.000
43.47100 257.000
43.49095 221.000
43.51090 199.000
43.53084 220.000
43.55079 235.000
43.57074 213.000
43.59068 199.000
43.61063 225.000
43.63058 210.000
43.65052 202.000
43.67047 204.000
43.69042 193.000
43.71037 187.000
43.73031 172.000
43.75026 213.000
43.77021 170.000
43.79015 158.000
43.81010 183.000
43.83005 176.000
43.84999 168.000
43.86994 188.000
43.88989 168.000
43.90984 172.000
43.92978 170.000
43.94973 169.000
43.96968 202.000
43.98962 177.000
44.00957 169.000
44.02952 171.000
44.04946 162.000
44.06941 202.000
44.08936 193.000
44.10930 167.000
44.12925 169.000
44.14920 199.000
44.16915 175.000
44.18909 157.000
44.20904 182.000
44.22899 154.000
44.24893 177.000
44.26888 144.000
44.28883 174.000
44.30877 167.000
44.32872 196.000
44.34867 177.000
44.36862 194.000
44.38856 175.000
44.40851 175.000
44.42846 188.000
44.44840 188.000
44.46835 204.000
44.48830 196.000
44.50824 179.000
44.52819 176.000
44.54814 172.000
44.56808 182.000
44.58803 196.000
44.60798 194.000
44.62793 195.000
44.64787 211.000
44.66782 183.000
44.68777 210.000
44.70771 209.000
44.72766 224.000
44.74761 194.000
44.76755 200.000
44.78750 205.000
44.80745 196.000
44.82740 180.000
44.84734 202.000
44.86729 204.000
44.88724 190.000
44.90718 209.000
44.92713 200.000
44.94708 193.000
44.96702 192.000
44.98697 219.000
45.00692 187.000
45.02686 171.000
45.04681 194.000
45.06676 198.000
45.08671 166.000
45.10665 189.000
45.12660 191.000
45.14655 197.000
45.16649 173.000
45.18644 168.000
45.20639 180.000
45.22633 155.000
45.24628 194.000
45.26623 170.000
45.28618 146.000
45.30612 183.000
45.32607 165.000
45.34602 165.000
45.36596 163.000
45.38591 165.000
45.40586 167.000
45.42580 166.000
45.44575 166.000
45.46570 181.000
45.48565 182.000
45.50559 168.000
45.52554 164.000
45.54549 174.000
45.56543 148.000
45.58538 135.000
45.60533 133.000
45.62527 161.000
45.64522 180.000
45.66517 155.000
45.68511 155.000
45.70506 169.000
45.72501 163.000
45.74496 159.000
45.76490 159.000
45.78485 154.000
45.80480 150.000
45.82474 145.000
45.84469 170.000
45.86464 168.000
45.88458 158.000
45.90453 161.000
45.92448 156.000
45.94443 134.000
45.96437 153.000
45.98432 144.000
46.00427 164.000
46.02421 171.000
46.04416 152.000
46.06411 136.000
46.08405 153.000
46.10400 155.000
46.12395 141.000
46.14389 145.000
46.16384 155.000
46.18379 168.000
46.20374 158.000
46.22368 160.000
46.24363 157.000
46.26358 162.000
46.28352 132.000
46.30347 163.000
46.32342 169.000
46.34336 151.000
46.36331 134.000
46.38326 157.000
46.40321 154.000
46.42315 155.000
46.44310 129.000
46.46305 149.000
46.48299 164.000
46.50294 144.000
46.52289 142.000
46.54283 171.000
46.56278 167.000
46.58273 135.000
46.60267 143.000
46.62262 163.000
46.64257 149.000
46.66252 169.000
46.68246 161.000
46.70241 166.000
46.72236 144.000
46.74230 154.000
46.76225 152.000
46.78220 162.000
46.80214 163.000
46.82209 154.000
46.84204 139.000
46.86199 174.000
46.88193 147.000
46.90188 141.000
46.92183 167.000
46.94177 162.000
46.96172 153.000
46.98167 162.000
47.00161 150.000
47.02156 180.000
47.04151 157.000
47.06146 160.000
47.08140 156.000
47.10135 162.000
47.12130 152.000
47.14124 164.000
47.16119 135.000
47.18114 158.000
47.20108 169.000
47.22103 148.000
47.24098 170.000
47.26092 165.000
47.28087 142.000
47.30082 167.000
47.32077 168.000
47.34071 171.000
47.36066 142.000
47.38061 161.000
47.40055 161.000
47.42050 169.000
47.44045 173.000
47.46039 166.000
47.48034 149.000
47.50029 136.000
47.52024 149.000
47.54018 148.000
47.56013 141.000
47.58008 144.000
47.60002 139.000
47.61997 120.000
47.63992 164.000
47.65986 160.000
47.67981 149.000
47.69976 134.000
47.71970 149.000
47.73965 143.000
47.75960 153.000
47.77955 145.000
47.79949 149.000
47.81944 147.000
47.83939 172.000
47.85933 151.000
47.87928 183.000
47.89923 158.000
47.91917 172.000
47.93912 142.000
47.95907 168.000
47.97902 148.000
47.99896 147.000
48.01891 181.000
48.03886 181.000
48.05880 173.000
48.07875 180.000
48.09870 196.000
48.11864 180.000
48.13859 173.000
48.15854 186.000
48.17848 195.000
48.19843 176.000
48.21838 200.000
48.23833 222.000
48.25827 242.000
48.27822 269.000
48.29817 244.000
48.31811 239.000
48.33806 310.000
48.35801 293.000
48.37795 290.000
48.39790 354.000
48.41785 385.000
48.43780 388.000
48.45774 441.000
48.47769 467.000
48.49764 446.000
48.51758 427.000
48.53753 355.000
48.55748 355.000
48.57742 322.000
48.59737 338.000
48.61732 270.000
48.63726 278.000
48.65721 241.000
48.67716 250.000
48.69711 246.000
48.71705 192.000
48.73700 201.000
48.75695 205.000
48.77689 171.000
48.79684 145.000
48.81679 181.000
48.83673 173.000
48.85668 147.000
48.87663 153.000
48.89658 154.000
48.91652 154.000
48.93647 158.000
48.95642 165.000
48.97636 148.000
48.99631 165.000
49.01626 149.000
49.03620 156.000
49.05615 141.000
49.07610 148.000
49.09605 162.000
49.11599 149.000
49.13594 168.000
49.15589 171.000
49.17583 135.000
49.19578 166.000
49.21573 151.000
49.23567 184.000
49.25562 155.000
49.27557 155.000
49.29551 142.000
49.31546 161.000
49.33541 151.000
49.35536 149.000
49.37530 138.000
49.39525 149.000
49.41520 163.000
49.43514 138.000
49.45509 150.000
49.47504 130.000
49.49498 148.000
49.51493 125.000
49.53488 148.000
49.55483 129.000
49.57477 150.000
49.59472 154.000
49.61467 134.000
49.63461 148.000
49.65456 150.000
49.67451 153.000
49.69445 131.000
49.71440 150.000
49.73435 134.000
49.75429 157.000
49.77424 138.000
49.79419 141.000
49.81414 162.000
49.83408 149.000
49.85403 160.000
49.87398 154.000
49.89392 138.000
49.91387 149.000
49.93382 147.000
49.95376 166.000
49.97371 142.000
49.99366 141.000
50.01361 157.000
50.03355 141.000
50.05350 147.000
50.07345 137.000
50.09339 126.000
50.11334 149.000
50.13329 162.000
50.15323 143.000
50.17318 146.000
50.19313 147.000
50.21307 156.000
50.23302 172.000
50.25297 135.000
50.27292 123.000
50.29286 162.000
50.31281 155.000
50.33276 137.000
50.35270 148.000
50.37265 133.000
50.39260 135.000
50.41254 137.000
50.43249 124.000
50.45244 146.000
50.47239 133.000
50.49233 146.000
50.51228 141.000
50.53223 143.000
50.55217 139.000
50.57212 152.000
50.59207 138.000
50.61201 137.000
50.63196 142.000
50.65191 163.000
50.67186 129.000
50.69180 159.000
50.71175 130.000
50.73170 137.000
50.75164 136.000
50.77159 128.000
50.79154 148.000
50.81148 149.000
50.83143 141.000
50.85138 126.000
50.87132 154.000
50.89127 156.000
50.91122 121.000
50.93117 153.000
50.95111 133.000
50.97106 138.000
50.99101 110.000
51.01095 140.000
51.03090 133.000
51.05085 133.000
51.07079 118.000
51.09074 130.000
51.11069 162.000
51.13064 146.000
51.15058 129.000
51.17053 143.000
51.19048 171.000
51.21042 131.000
51.23037 155.000
51.25032 146.000
51.27026 135.000
51.29021 160.000
51.31016 134.000
51.33010 134.000
51.35005 138.000
51.37000 120.000
51.38995 137.000
51.40989 140.000
51.42984 157.000
51.44979 140.000
51.46973 132.000
51.48968 156.000
51.50963 158.000
51.52957 160.000
51.54952 142.000
51.56947 148.000
51.58942 131.000
51.60936 138.000
51.62931 117.000
51.64926 137.000
51.66920 152.000
51.68915 145.000
51.70910 148.000
51.72904 174.000
51.74899 134.000
51.76894 137.000
51.78888 124.000
51.80883 138.000
51.82878 138.000
51.84873 129.000
51.86867 154.000
51.88862 151.000
51.90857 140.000
51.92851 119.000
51.94846 145.000
51.96841 155.000
51.98835 137.000
52.00830 153.000
52.02825 144.000
52.04820 148.000
52.06814 129.000
52.08809 143.000
52.10804 138.000
52.12798 156.000
52.14793 142.000
52.16788 157.000
52.18782 146.000
52.20777 133.000
52.22772 132.000
52.24767 125.000
52.26761 163.000
52.28756 144.000
52.30751 138.000
52.32745 151.000
52.34740 169.000
52.36735 156.000
52.38729 127.000
52.40724 139.000
52.42719 164.000
52.44713 161.000
52.46708 142.000
52.48703 142.000
52.50698 142.000
52.52692 159.000
52.54687 149.000
52.56682 130.000
52.58676 138.000
52.60671 141.000
52.62666 163.000
52.64660 138.000
52.66655 148.000
52.68650 153.000
52.70645 145.000
52.72639 161.000
52.74634 128.000
52.76629 137.000
52.78623 163.000
52.80618 141.000
52.82613 157.000
52.84607 142.000
52.86602 163.000
52.88597 148.000
52.90591 165.000
52.92586 158.000
52.94581 146.000
52.96576 159.000
52.98570 159.000
53.00565 160.000
53.02560 167.000
53.04554 187.000
53.06549 182.000
53.08544 178.000
53.10538 196.000
53.12533 203.000
53.14528 236.000
53.16523 215.000
53.18517 229.000
53.20512 245.000
53.22507 230.000
53.24501 236.000
53.26496 268.000
53.28491 261.000
53.30485 294.000
53.32480 271.000
53.34475 251.000
53.36469 246.000
53.38464 214.000
53.40459 258.000
53.42454 251.000
53.44448 209.000
53.46443 224.000
53.48438 212.000
53.50432 200.000
53.52427 231.000
53.54422 181.000
53.56416 185.000
53.58411 172.000
53.60406 175.000
53.62401 165.000
53.64395 179.000
53.66390 148.000
53.68385 166.000
53.70379 148.000
53.72374 179.000
53.74369 136.000
53.76363 129.000
53.78358 144.000
53.80353 153.000
53.82348 152.000
53.84342 158.000
53.86337 144.000
53.88332 135.000
53.90326 134.000
53.92321 138.000
53.94316 133.000
53.96310 148.000
53.98305 132.000
54.00300 156.000
54.02294 146.000
54.04289 170.000
54.06284 151.000
54.08279 158.000
54.10273 129.000
54.12268 150.000
54.14263 163.000
54.16257 137.000
54.18252 129.000
54.20247 135.000
54.22241 144.000
54.24236 139.000
54.26231 132.000
54.28226 155.000
54.30220 144.000
54.32215 137.000
54.34210 122.000
54.36204 134.000
54.38199 160.000
54.40194 143.000
54.42188 135.000
54.44183 157.000
54.46178 138.000
54.48172 146.000
54.50167 159.000
54.52162 151.000
54.54157 140.000
54.56151 131.000
54.58146 126.000
54.60141 151.000
54.62135 150.000
54.64130 139.000
54.66125 151.000
54.68119 154.000
54.70114 137.000
54.72109 123.000
54.74104 148.000
54.76098 137.000
54.78093 150.000
54.80088 137.000
54.82082 157.000
54.84077 137.000
54.86072 125.000
54.88066 128.000
54.90061 168.000
54.92056 125.000
54.94050 146.000
54.96045 135.000
54.98040 129.000
55.00035 139.000
55.02029 142.000
55.04024 146.000
55.06019 126.000
55.08013 143.000
55.10008 118.000
55.12003 134.000
55.13997 121.000
55.15992 137.000
55.17987 133.000
55.19982 119.000
55.21976 139.000
55.23971 133.000
55.25966 146.000
55.27960 134.000
55.29955 146.000
55.31950 137.000
55.33944 139.000
55.35939 138.000
55.37934 120.000
55.39929 152.000
55.41923 151.000
55.43918 147.000
55.45913 144.000
55.47907 131.000
55.49902 148.000
55.51897 143.000
55.53891 154.000
55.55886 149.000
55.57881 147.000
55.59875 136.000
55.61870 137.000
55.63865 139.000
55.65860 146.000
55.67854 152.000
55.69849 148.000
55.71844 137.000
55.73838 142.000
55.75833 124.000
55.77828 126.000
55.79822 136.000
55.81817 140.000
55.83812 146.000
55.85807 138.000
55.87801 143.000
55.89796 138.000
55.91791 133.000
55.93785 133.000
55.95780 134.000
55.97775 160.000
55.99769 142.000
56.01764 139.000
56.03759 147.000
56.05753 108.000
56.07748 162.000
56.09743 138.000
56.11738 134.000
56.13732 144.000
56.15727 132.000
56.17722 138.000
56.19716 139.000
56.21711 161.000
56.23706 160.000
56.25700 155.000
56.27695 153.000
56.29690 179.000
56.31685 177.000
56.33679 156.000
56.35674 174.000
56.37669 160.000
56.39663 155.000
56.41658 171.000
56.43653 181.000
56.45647 192.000
56.47642 168.000
56.49637 226.000
56.51631 211.000
56.53626 241.000
56.55621 274.000
56.57616 270.000
56.59610 266.000
56.61605 318.000
56.63600 355.000
56.65594 396.000
56.67589 392.000
56.69584 438.000
56.71578 491.000
56.73573 478.000
56.75568 541.000
56.77563 516.000
56.79557 619.000
56.81552 615.000
56.83547 596.000
56.85541 616.000
56.87536 632.000
56.89531 642.000
56.91525 578.000
56.93520 582.000
56.95515 562.000
56.97510 556.000
56.99504 520.000
57.01499 507.000
57.03494 450.000
57.05488 422.000
57.07483 386.000
57.09478 344.000
57.11472 358.000
57.13467 302.000
57.15462 299.000
57.17456 291.000
57.19451 242.000
57.21446 237.000
57.23441 223.000
57.25435 226.000
57.27430 215.000
57.29425 174.000
57.31419 227.000
57.33414 169.000
57.35409 193.000
57.37403 170.000
57.39398 169.000
57.41393 170.000
57.43388 153.000
57.45382 188.000
57.47377 166.000
57.49372 137.000
57.51366 131.000
57.53361 155.000
57.55356 154.000
57.57350 162.000
57.59345 153.000
57.61340 150.000
57.63334 150.000
57.65329 175.000
57.67324 143.000
57.69319 150.000
57.71313 167.000
57.73308 147.000
57.75303 154.000
57.77297 132.000
57.79292 160.000
57.81287 141.000
57.83281 144.000
57.85276 140.000
57.87271 156.000
57.89266 143.000
57.91260 161.000
57.93255 141.000
57.95250 129.000
57.97244 129.000
57.99239 155.000
58.01234 130.000
58.03228 138.000
58.05223 150.000
58.07218 159.000
58.09212 158.000
58.11207 147.000
58.13202 146.000
58.15197 151.000
58.17191 159.000
58.19186 152.000
58.21181 139.000
58.23175 154.000
58.25170 117.000
58.27165 135.000
58.29159 146.000
58.31154 121.000
58.33149 144.000
58.35144 116.000
58.37138 145.000
58.39133 139.000
58.41128 121.000
58.43122 117.000
58.45117 158.000
58.47112 138.000
58.49106 129.000
58.51101 144.000
58.53096 140.000
58.55090 113.000
58.57085 143.000
58.59080 124.000
58.61075 150.000
58.63069 132.000
58.65064 147.000
58.67059 122.000
58.69053 134.000
58.71048 144.000
58.73043 133.000
58.75037 121.000
58.77032 140.000
58.79027 139.000
58.81022 112.000
58.83016 154.000
58.85011 154.000
58.87006 127.000
58.89000 138.000
58.90995 137.000
58.92990 134.000
58.94984 124.000
58.96979 158.000
58.98974 135.000
59.00969 128.000
59.02963 149.000
59.04958 145.000
59.06953 144.000
59.08947 134.000
59.10942 118.000
59.12937 143.000
59.14931 131.000
59.16926 142.000
59.18921 137.000
59.20915 122.000
59.22910 140.000
59.24905 145.000
59.26900 135.000
59.28894 119.000
59.30889 143.000
59.32884 136.000
59.34878 118.000
59.36873 156.000
59.38868 135.000
59.40862 117.000
59.42857 149.000
59.44852 140.000
59.46847 128.000
59.48841 140.000
59.50836 139.000
59.52831 131.000
59.54825 138.000
59.56820 134.000
59.58815 140.000
59.60809 178.000
59.62804 115.000
59.64799 147.000
59.66793 135.000
59.68788 124.000
59.70783 153.000
59.72778 135.000
59.74772 147.000
59.76767 134.000
59.78762 135.000
59.80756 152.000
59.82751 131.000
59.84746 125.000
59.86740 158.000
59.88735 120.000
59.90730 148.000
59.92725 140.000
59.94719 126.000
59.96714 138.000
59.98709 119.000
60.00703 150.000
60.02698 161.000
60.04693 137.000
60.06687 159.000
60.08682 113.000
60.10677 141.000
60.12671 159.000
60.14666 149.000
60.16661 146.000
60.18656 144.000
60.20650 142.000
60.22645 131.000
60.24640 145.000
60.26634 150.000
60.28629 138.000
60.30624 142.000
60.32618 135.000
60.34613 138.000
60.36608 135.000
60.38603 130.000
60.40597 132.000
60.42592 133.000
60.44587 124.000
60.46581 151.000
60.48576 138.000
60.50571 138.000
60.52565 124.000
60.54560 141.000
60.56555 134.000
60.58550 147.000
60.60544 128.000
60.62539 156.000
60.64534 156.000
60.66528 115.000
60.68523 150.000
60.70518 144.000
60.72512 163.000
60.74507 143.000
60.76502 122.000
60.78496 157.000
60.80491 146.000
60.82486 137.000
60.84481 134.000
60.86475 132.000
60.88470 137.000
60.90465 123.000
60.92459 141.000
60.94454 136.000
60.96449 126.000
60.98443 148.000
61.00438 149.000
61.02433 136.000
61.04428 133.000
61.06422 137.000
61.08417 158.000
61.10412 146.000
61.12406 144.000
61.14401 170.000
61.16396 145.000
61.18390 157.000
61.20385 146.000
61.22380 147.000
61.24374 148.000
61.26369 132.000
61.28364 174.000
61.30359 151.000
61.32353 159.000
61.34348 184.000
61.36343 182.000
61.38337 200.000
61.40332 186.000
61.42327 226.000
61.44321 212.000
61.46316 190.000
61.48311 206.000
61.50306 213.000
61.52300 217.000
61.54295 242.000
61.56290 281.000
61.58284 245.000
61.60279 238.000
61.62274 233.000
61.64268 203.000
61.66263 222.000
61.68258 232.000
61.70252 200.000
61.72247 221.000
61.74242 201.000
61.76237 192.000
61.78231 171.000
61.80226 205.000
61.82221 171.000
61.84215 160.000
61.86210 197.000
61.88205 157.000
61.90199 162.000
61.92194 144.000
61.94189 170.000
61.96184 175.000
61.98178 171.000
62.00173 179.000
62.02168 203.000
62.04162 211.000
62.06157 209.000
62.08152 205.000
62.10146 200.000
62.12141 226.000
62.14136 235.000
62.16131 286.000
62.18125 330.000
62.20120 318.000
62.22115 366.000
62.24109 405.000
62.26104 433.000
62.28099 455.000
62.30093 547.000
62.32088 550.000
62.34083 612.000
62.36077 650.000
62.38072 767.000
62.40067 833.000
62.42062 793.000
62.44056 879.000
62.46051 1043.000
62.48046 1039.000
62.50040 1122.000
62.52035 1151.000
62.54030 1196.000
62.56024 1218.000
62.58019 1179.000
62.60014 1140.000
62.62009 1096.000
62.64003 1030.000
62.65998 930.000
62.67993 844.000
62.69987 790.000
62.71982 760.000
62.73977 679.000
62.75971 683.000
62.77966 536.000
62.79961 547.000
62.81955 488.000
62.83950 439.000
62.85945 374.000
62.87940 321.000
62.89934 289.000
62.91929 289.000
62.93924 256.000
62.95918 223.000
62.97913 234.000
62.99908 210.000
63.01902 211.000
63.03897 215.000
63.05892 196.000
63.07887 185.000
63.09881 192.000
63.11876 167.000
63.13871 195.000
63.15865 184.000
63.17860 160.000
63.19855 173.000
63.21849 180.000
63.23844 165.000
63.25839 143.000
63.27833 191.000
63.29828 162.000
63.31823 151.000
63.33818 147.000
63.35812 139.000
63.37807 157.000
63.39802 157.000
63.41796 150.000
63.43791 143.000
63.45786 142.000
63.47780 139.000
63.49775 155.000
63.51770 142.000
63.53765 161.000
63.55759 158.000
63.57754 146.000
63.59749 143.000
63.61743 156.000
63.63738 146.000
63.65733 146.000
63.67727 149.000
63.69722 146.000
63.71717 113.000
63.73712 131.000
63.75706 131.000
63.77701 133.000
63.79696 152.000
63.81690 154.000
63.83685 152.000
63.85680 127.000
63.87674 151.000
63.89669 144.000
63.91664 153.000
63.93658 133.000
63.95653 151.000
63.97648 150.000
63.99643 115.000
64.01637 130.000
64.03632 140.000
64.05627 137.000
64.07621 138.000
64.09616 143.000
64.11611 150.000
64.13605 152.000
64.15600 161.000
64.17595 154.000
64.19590 151.000
64.21584 148.000
64.23579 170.000
64.25574 163.000
64.27568 181.000
64.29563 167.000
64.31558 157.000
64.33552 178.000
64.35547 192.000
64.37542 209.000
64.39536 181.000
64.41531 205.000
64.43526 245.000
64.45521 218.000
64.47515 269.000
64.49510 269.000
64.51505 279.000
64.53499 291.000
64.55494 278.000
64.57489 251.000
64.59483 228.000
64.61478 199.000
64.63473 204.000
64.65468 197.000
64.67462 193.000
64.69457 222.000
64.71452 187.000
64.73446 182.000
64.75441 190.000
64.77436 170.000
64.79430 176.000
64.81425 161.000
64.83420 145.000
64.85414 158.000
64.87409 144.000
64.89404 146.000
64.91399 140.000
64.93393 145.000
64.95388 154.000
64.97383 123.000
64.99377 138.000
65.01372 138.000
65.03367 138.000
65.05361 141.000
65.07356 147.000
65.09351 133.000
65.11346 143.000
65.13340 141.000
65.15335 164.000
65.17330 133.000
65.19324 126.000
65.21319 110.000
65.23314 130.000
65.25308 144.000
65.27303 128.000
65.29298 135.000
65.31293 148.000
65.33287 138.000
65.35282 143.000
65.37277 131.000
65.39271 151.000
65.41266 135.000
65.43261 148.000
65.45255 132.000
65.47250 162.000
65.49245 147.000
65.51239 142.000
65.53234 142.000
65.55229 156.000
65.57224 179.000
65.59218 144.000
65.61213 167.000
65.63208 160.000
65.65202 160.000
65.67197 156.000
65.69192 160.000
65.71186 150.000
65.73181 153.000
65.75176 174.000
65.77171 134.000
65.79165 164.000
65.81160 138.000
65.83155 183.000
65.85149 166.000
65.87144 177.000
65.89139 152.000
65.91133 152.000
65.93128 151.000
65.95123 175.000
65.97117 182.000
65.99112 173.000
66.01107 146.000
66.03102 161.000
66.05096 176.000
66.07091 166.000
66.09086 166.000
66.11080 162.000
66.13075 153.000
66.15070 148.000
66.17064 147.000
66.19059 178.000
66.21054 177.000
66.23049 168.000
66.25043 119.000
66.27038 139.000
66.29033 142.000
66.31027 122.000
66.33022 160.000
66.35017 149.000
66.37011 138.000
66.39006 139.000
66.41001 142.000
66.42995 153.000
66.44990 155.000
66.46985 140.000
66.48980 146.000
66.50974 140.000
66.52969 131.000
66.54964 142.000
66.56958 140.000
66.58953 130.000
66.60948 128.000
66.62942 142.000
66.64937 165.000
66.66932 151.000
66.68927 166.000
66.70921 179.000
66.72916 159.000
66.74911 182.000
66.76905 181.000
66.78900 215.000
66.80895 199.000
66.82889 183.000
66.84884 203.000
66.86879 233.000
66.88874 208.000
66.90868 244.000
66.92863 236.000
66.94858 204.000
66.96852 226.000
66.98847 200.000
67.00842 197.000
67.02836 182.000
67.04831 172.000
67.06826 182.000
67.08820 155.000
67.10815 154.000
67.12810 157.000
67.14805 159.000
67.16799 144.000
67.18794 130.000
67.20789 133.000
67.22783 133.000
67.24778 136.000
67.26773 128.000
67.28767 133.000
67.30762 132.000
67.32757 149.000
67.34752 109.000
67.36746 144.000
67.38741 144.000
67.40736 115.000
67.42730 125.000
67.44725 137.000
67.46720 126.000
67.48714 125.000
67.50709 126.000
67.52704 128.000
67.54698 110.000
67.56693 144.000
67.58688 106.000
67.60683 130.000
67.62677 135.000
67.64672 130.000
67.66667 154.000
67.68661 117.000
67.70656 127.000
67.72651 117.000
67.74645 138.000
67.76640 126.000
67.78635 137.000
67.80630 127.000
67.82624 89.000
67.84619 139.000
67.86614 156.000
67.88608 129.000
67.90603 124.000
67.92598 112.000
67.94592 136.000
67.96587 115.000
67.98582 121.000
68.00576 129.000
68.02571 139.000
68.04566 120.000
68.06561 128.000
68.08555 130.000
68.10550 112.000
68.12545 133.000
68.14539 115.000
68.16534 138.000
68.18529 127.000
68.20523 136.000
68.22518 132.000
68.24513 122.000
68.26508 140.000
68.28502 124.000
68.30497 127.000
68.32492 121.000
68.34486 150.000
68.36481 123.000
68.38476 125.000
68.40470 140.000
68.42465 129.000
68.44460 119.000
68.46455 112.000
68.48449 111.000
68.50444 131.000
68.52439 138.000
68.54433 111.000
68.56428 114.000
68.58423 133.000
68.60417 116.000
68.62412 144.000
68.64407 127.000
68.66401 119.000
68.68396 114.000
68.70391 142.000
68.72386 118.000
68.74380 114.000
68.76375 118.000
68.78370 125.000
68.80364 117.000
68.82359 123.000
68.84354 109.000
68.86348 133.000
68.88343 128.000
68.90338 132.000
68.92333 114.000
68.94327 106.000
68.96322 151.000
68.98317 125.000
69.00311 124.000
69.02306 111.000
69.04301 119.000
69.06295 102.000
69.08290 123.000
69.10285 133.000
69.12279 114.000
69.14274 123.000
69.16269 149.000
69.18264 125.000
69.20258 133.000
69.22253 146.000
69.24248 140.000
69.26242 134.000
69.28237 123.000
69.30232 129.000
69.32226 141.000
69.34221 130.000
69.36216 109.000
69.38211 140.000
69.40205 130.000
69.42200 120.000
69.44195 131.000
69.46189 113.000
69.48184 128.000
69.50179 117.000
69.52173 127.000
69.54168 94.000
69.56163 117.000
69.58157 125.000
69.60152 109.000
69.62147 130.000
69.64142 115.000
69.66136 119.000
69.68131 106.000
69.70126 116.000
69.72120 124.000
69.74115 138.000
69.76110 141.000
69.78104 117.000
69.80099 117.000
69.82094 119.000
69.84089 122.000
69.86083 128.000
69.88078 126.000
69.90073 114.000
69.92067 138.000
69.94062 117.000
69.96057 128.000
69.98051 119.000
70.00046 113.000
70.02041 125.000
70.04035 111.000
70.06030 110.000
70.08025 120.000
70.10020 137.000
70.12014 126.000
70.14009 116.000
70.16004 116.000
70.17998 117.000
70.19993 126.000
70.21988 116.000
70.23982 131.000
70.25977 164.000
70.27972 110.000
70.29967 127.000
70.31961 122.000
70.33956 132.000
70.35951 105.000
70.37945 139.000
70.39940 128.000
70.41935 112.000
70.43929 143.000
70.45924 135.000
70.47919 136.000
70.49914 145.000
70.51908 145.000
70.53903 126.000
70.55898 133.000
70.57892 137.000
70.59887 139.000
70.61882 136.000
70.63876 128.000
70.65871 146.000
70.67866 150.000
70.69860 137.000
70.71855 118.000
70.73850 142.000
70.75845 148.000
70.77839 157.000
70.79834 167.000
70.81829 131.000
70.83823 163.000
70.85818 174.000
70.87813 167.000
70.89807 147.000
70.91802 164.000
70.93797 174.000
70.95792 182.000
70.97786 169.000
70.99781 148.000
71.01776 149.000
71.03770 150.000
71.05765 149.000
71.07760 157.000
71.09754 165.000
71.11749 157.000
71.13744 105.000
71.15738 133.000
71.17733 121.000
71.19728 144.000
71.21723 135.000
71.23717 149.000
71.25712 131.000
71.27707 146.000
71.29701 152.000
71.31696 151.000
71.33691 125.000
71.35685 116.000
71.37680 158.000
71.39675 114.000
71.41670 132.000
71.43664 139.000
71.45659 121.000
71.47654 136.000
71.49648 115.000
71.51643 116.000
71.53638 152.000
71.55632 121.000
71.57627 122.000
71.59622 122.000
71.61616 147.000
71.63611 145.000
71.65606 114.000
71.67601 137.000
71.69595 120.000
71.71590 117.000
71.73585 119.000
71.75579 108.000
71.77574 119.000
71.79569 123.000
71.81563 119.000
71.83558 116.000
71.85553 115.000
71.87548 121.000
71.89542 123.000
71.91537 126.000
71.93532 140.000
71.95526 144.000
71.97521 135.000
71.99516 115.000
72.01510 119.000
72.03505 112.000
72.05500 136.000
72.07495 107.000
72.09489 116.000
72.11484 110.000
72.13479 102.000
72.15473 144.000
72.17468 130.000
72.19463 131.000
72.21457 129.000
72.23452 103.000
72.25447 112.000
72.27441 135.000
72.29436 113.000
72.31431 125.000
72.33426 143.000
72.35420 122.000
72.37415 126.000
72.39410 136.000
72.41404 117.000
72.43399 110.000
72.45394 130.000
72.47388 120.000
72.49383 114.000
72.51378 118.000
72.53373 131.000
72.55367 143.000
72.57362 122.000
72.59357 132.000
72.61351 110.000
72.63346 103.000
72.65341 157.000
72.67335 124.000
72.69330 121.000
72.71325 128.000
72.73319 136.000
72.75314 122.000
72.77309 112.000
72.79304 133.000
72.81298 113.000
72.83293 110.000
72.85288 136.000
72.87282 129.000
72.89277 120.000
72.91272 110.000
72.93266 109.000
72.95261 117.000
72.97256 119.000
72.99251 133.000
73.01245 133.000
73.03240 129.000
73.05235 111.000
73.07229 126.000
73.09224 125.000
73.11219 118.000
73.13213 132.000
73.15208 103.000
73.17203 123.000
73.19197 128.000
73.21192 109.000
73.23187 104.000
73.25182 114.000
73.27176 139.000
73.29171 128.000
73.31166 165.000
73.33160 154.000
73.35155 132.000
73.37150 135.000
73.39144 140.000
73.41139 116.000
73.43134 145.000
73.45129 125.000
73.47123 140.000
73.49118 138.000
73.51113 119.000
73.53107 128.000
73.55102 161.000
73.57097 160.000
73.59091 166.000
73.61086 175.000
73.63081 181.000
73.65076 178.000
73.67070 201.000
73.69065 196.000
73.71060 206.000
73.73054 211.000
73.75049 240.000
73.77044 208.000
73.79038 223.000
73.81033 227.000
73.83028 213.000
73.85022 225.000
73.87017 232.000
73.89012 213.000
73.91007 205.000
73.93001 232.000
73.94996 230.000
73.96991 228.000
73.98985 224.000
74.00980 202.000
74.02975 177.000
74.04969 217.000
74.06964 226.000
74.08959 243.000
74.10954 226.000
74.12948 203.000
74.14943 192.000
74.16938 215.000
74.18932 220.000
74.20927 207.000
74.22922 207.000
74.24916 219.000
74.26911 202.000
74.28906 180.000
74.30900 179.000
74.32895 153.000
74.34890 164.000
74.36885 154.000
74.38879 169.000
74.40874 161.000
74.42869 154.000
74.44863 160.000
74.46858 133.000
74.48853 156.000
74.50847 139.000
74.52842 140.000
74.54837 158.000
74.56832 136.000
74.58826 151.000
74.60821 143.000
74.62816 141.000
74.64810 165.000
74.66805 141.000
74.68800 157.000
74.70794 128.000
74.72789 158.000
74.74784 187.000
74.76778 154.000
74.78773 179.000
74.80768 183.000
74.82763 185.000
74.84757 225.000
74.86752 177.000
74.88747 185.000
74.90741 225.000
74.92736 254.000
74.94731 223.000
74.96725 234.000
74.98720 276.000
75.00715 271.000
75.02710 327.000
75.04704 300.000
75.06699 380.000
75.08694 401.000
75.10688 346.000
75.12683 389.000
75.14678 350.000
75.16672 376.000
75.18667 336.000
75.20662 282.000
75.22657 273.000
75.24651 261.000
75.26646 274.000
75.28641 290.000
75.30635 273.000
75.32630 273.000
75.34625 238.000
75.36619 215.000
75.38614 211.000
75.40609 205.000
75.42603 228.000
75.44598 182.000
75.46593 175.000
75.48588 180.000
75.50582 158.000
75.52577 155.000
75.54572 181.000
75.56566 169.000
75.58561 149.000
75.60556 154.000
75.62550 125.000
75.64545 119.000
75.66540 118.000
75.68535 133.000
75.70529 129.000
75.72524 152.000
75.74519 123.000
75.76513 151.000
75.78508 155.000
75.80503 136.000
75.82497 122.000
75.84492 134.000
75.86487 135.000
75.88481 132.000
75.90476 130.000
75.92471 133.000
75.94466 137.000
75.96460 126.000
75.98455 131.000
76.00450 165.000
76.02444 135.000
76.04439 116.000
76.06434 130.000
76.08428 127.000
76.10423 149.000
76.12418 135.000
76.14413 140.000
76.16407 139.000
76.18402 151.000
76.20397 142.000
76.22391 130.000
76.24386 150.000
76.26381 132.000
76.28375 131.000
76.30370 142.000
76.32365 144.000
76.34359 154.000
76.36354 137.000
76.38349 140.000
76.40344 142.000
76.42338 159.000
76.44333 153.000
76.46328 151.000
76.48322 125.000
76.50317 133.000
76.52312 116.000
76.54306 124.000
76.56301 120.000
76.58296 129.000
76.60291 114.000
76.62285 123.000
76.64280 131.000
76.66275 134.000
76.68269 132.000
76.70264 120.000
76.72259 128.000
76.74253 139.000
76.76248 143.000
76.78243 136.000
76.80238 148.000
76.82232 129.000
76.84227 117.000
76.86222 133.000
76.88216 144.000
76.90211 131.000
76.92206 142.000
76.94200 126.000
76.96195 113.000
76.98190 125.000
77.00184 117.000
77.02179 139.000
77.04174 118.000
77.06169 113.000
77.08163 124.000
77.10158 128.000
77.12153 123.000
77.14147 138.000
77.16142 140.000
77.18137 135.000
77.20131 125.000
77.22126 124.000
77.24121 123.000
77.26116 138.000
77.28110 98.000
77.30105 111.000
77.32100 119.000
77.34094 123.000
77.36089 125.000
77.38084 125.000
77.40078 153.000
77.42073 146.000
77.44068 115.000
77.46062 141.000
77.48057 151.000
77.50052 125.000
77.52047 147.000
77.54041 144.000
77.56036 138.000
77.58031 151.000
77.60025 154.000
77.62020 164.000
77.64015 176.000
77.66009 163.000
77.68004 154.000
77.69999 168.000
77.71994 148.000
77.73988 125.000
77.75983 151.000
77.77978 147.000
77.79972 147.000
77.81967 133.000
77.83962 139.000
77.85956 139.000
77.87951 126.000
77.89946 137.000
77.91940 149.000
77.93935 146.000
77.95930 153.000
77.97925 126.000
77.99919 143.000
78.01914 134.000
78.03909 129.000
78.05903 120.000
78.07898 102.000
78.09893 111.000
78.11887 159.000
78.13882 117.000
78.15877 126.000
78.17872 111.000
78.19866 120.000
78.21861 125.000
78.23856 133.000
78.25850 139.000
78.27845 137.000
78.29840 142.000
78.31834 135.000
78.33829 135.000
78.35824 159.000
78.37819 149.000
78.39813 133.000
78.41808 142.000
78.43803 130.000
78.45797 157.000
78.47792 159.000
78.49787 124.000
78.51781 135.000
78.53776 149.000
78.55771 149.000
78.57765 147.000
78.59760 159.000
78.61755 153.000
78.63750 157.000
78.65744 126.000
78.67739 159.000
78.69734 151.000
78.71728 140.000
78.73723 145.000
78.75718 162.000
78.77712 155.000
78.79707 162.000
78.81702 170.000
78.83697 152.000
78.85691 162.000
78.87686 180.000
78.89681 188.000
78.91675 162.000
78.93670 194.000
78.95665 208.000
78.97659 256.000
78.99654 197.000
79.01649 250.000
79.03643 272.000
79.05638 268.000
79.07633 275.000
79.09628 273.000
79.11622 252.000
79.13617 283.000
79.15612 268.000
79.17606 226.000
79.19601 237.000
79.21596 224.000
79.23590 263.000
79.25585 249.000
79.27580 238.000
79.29575 229.000
79.31569 237.000
79.33564 214.000
79.35559 210.000
79.37553 199.000
79.39548 187.000
79.41543 205.000
79.43537 185.000
79.45532 159.000
79.47527 161.000
79.49521 146.000
79.51516 144.000
79.53511 164.000
79.55506 162.000
79.57500 147.000
79.59495 142.000
79.61490 142.000
79.63484 131.000
79.65479 144.000
79.67474 122.000
79.69468 153.000
79.71463 145.000
79.73458 125.000
79.75453 119.000
79.77447 105.000
79.79442 129.000
79.81437 132.000
79.83431 128.000
79.85426 119.000
79.87421 134.000
79.89415 111.000
79.91410 128.000
79.93405 110.000
79.95399 128.000
79.97394 146.000
79.99389 119.000
80.01384 116.000
80.03378 146.000
80.05373 137.000
80.07368 119.000
80.09362 98.000
80.11357 119.000
80.13352 139.000
80.15346 123.000
80.17341 112.000
80.19336 129.000
80.21331 116.000
80.23325 126.000
80.25320 116.000
80.27315 117.000
80.29309 136.000
80.31304 116.000
80.33299 126.000
80.35293 136.000
80.37288 122.000
80.39283 126.000
80.41278 123.000
80.43272 141.000
80.45267 133.000
80.47262 119.000
80.49256 130.000
80.51251 121.000
80.53246 122.000
80.55240 106.000
80.57235 105.000
80.59230 131.000
80.61224 126.000
80.63219 107.000
80.65214 119.000
80.67209 122.000
80.69203 119.000
80.71198 116.000
80.73193 120.000
80.75187 117.000
80.77182 123.000
80.79177 124.000
80.81171 138.000
80.83166 109.000
80.85161 120.000
80.87156 114.000
80.89150 105.000
80.91145 124.000
80.93140 107.000
80.95134 117.000
80.97129 88.000
80.99124 106.000
81.01118 121.000
81.03113 105.000
81.05108 100.000
81.07102 140.000
81.09097 114.000
81.11092 122.000
81.13087 140.000
81.15081 130.000
81.17076 134.000
81.19071 114.000
81.21065 113.000
81.23060 126.000
81.25055 121.000
81.27049 131.000
81.29044 139.000
81.31039 140.000
81.33034 115.000
81.35028 113.000
81.37023 119.000
81.39018 109.000
81.41012 133.000
81.43007 128.000
81.45002 103.000
81.46996 122.000
81.48991 135.000
81.50986 127.000
81.52980 140.000
81.54975 124.000
81.56970 117.000
81.58965 129.000
81.60959 103.000
81.62954 129.000
81.64949 138.000
81.66943 132.000
81.68938 113.000
81.70933 120.000
81.72927 121.000
81.74922 148.000
81.76917 109.000
81.78912 148.000
81.80906 131.000
81.82901 117.000
81.84896 137.000
81.86890 138.000
81.88885 126.000
81.90880 120.000
81.92874 132.000
81.94869 148.000
81.96864 122.000
81.98859 133.000
82.00853 141.000
82.02848 131.000
82.04843 128.000
82.06837 135.000
82.08832 147.000
82.10827 122.000
82.12821 120.000
82.14816 140.000
82.16811 128.000
82.18805 134.000
82.20800 143.000
82.22795 140.000
82.24790 130.000
82.26784 126.000
82.28779 128.000
82.30774 139.000
82.32768 136.000
82.34763 102.000
82.36758 108.000
82.38752 128.000
82.40747 148.000
82.42742 133.000
82.44737 137.000
82.46731 110.000
82.48726 126.000
82.50721 111.000
82.52715 134.000
82.54710 118.000
82.56705 105.000
82.58699 110.000
82.60694 128.000
82.62689 129.000
82.64683 126.000
82.66678 129.000
82.68673 126.000
82.70668 138.000
82.72662 125.000
82.74657 116.000
82.76652 124.000
82.78646 118.000
82.80641 126.000
82.82636 123.000
82.84630 121.000
82.86625 131.000
82.88620 133.000
82.90615 126.000
82.92609 123.000
82.94604 97.000
82.96599 126.000
82.98593 115.000
83.00588 119.000
83.02583 116.000
83.04577 107.000
83.06572 114.000
83.08567 125.000
83.10561 124.000
83.12556 115.000
83.14551 122.000
83.16546 133.000
83.18540 112.000
83.20535 98.000
83.22530 115.000
83.24524 108.000
83.26519 98.000
83.28514 134.000
83.30508 125.000
83.32503 137.000
83.34498 132.000
83.36493 124.000
83.38487 114.000
83.40482 115.000
83.42477 116.000
83.44471 128.000
83.46466 116.000
83.48461 137.000
83.50455 117.000
83.52450 103.000
83.54445 126.000
83.56440 144.000
83.58434 124.000
83.60429 128.000
83.62424 136.000
83.64418 114.000
83.66413 115.000
83.68408 139.000
83.70402 113.000
83.72397 122.000
83.74392 106.000
83.76386 121.000
83.78381 126.000
83.80376 102.000
83.82371 128.000
83.84365 114.000
83.86360 137.000
83.88355 109.000
83.90349 120.000
83.92344 113.000
83.94339 106.000
83.96333 113.000
83.98328 119.000
84.00323 125.000
84.02318 110.000
84.04312 109.000
84.06307 116.000
84.08302 123.000
84.10296 140.000
84.12291 116.000
84.14286 111.000
84.16280 125.000
84.18275 103.000
84.20270 120.000
84.22264 100.000
84.24259 136.000
84.26254 113.000
84.28249 99.000
84.30243 103.000
84.32238 124.000
84.34233 106.000
84.36227 120.000
84.38222 119.000
84.40217 111.000
84.42211 123.000
84.44206 125.000
84.46201 117.000
84.48196 120.000
84.50190 116.000
84.52185 118.000
84.54180 115.000
84.56174 128.000
84.58169 142.000
84.60164 124.000
84.62158 103.000
84.64153 143.000
84.66148 133.000
84.68142 137.000
84.70137 117.000
84.72132 158.000
84.74127 143.000
84.76121 158.000
84.78116 145.000
84.80111 145.000
84.82105 145.000
84.84100 146.000
84.86095 145.000
84.88089 146.000
84.90084 155.000
84.92079 159.000
84.94074 156.000
84.96068 149.000
84.98063 156.000
85.00058 127.000
85.02052 147.000
85.04047 142.000
85.06042 134.000
85.08036 131.000
85.10031 149.000
85.12026 143.000
85.14021 151.000
85.16015 145.000
85.18010 125.000
85.20005 129.000
85.21999 134.000
85.23994 133.000
85.25989 124.000
85.27983 128.000
85.29978 134.000
85.31973 121.000
85.33967 133.000
85.35962 138.000
85.37957 116.000
85.39952 132.000
85.41946 116.000
85.43941 106.000
85.45936 121.000
85.47930 116.000
85.49925 116.000
85.51920 118.000
85.53914 130.000
85.55909 128.000
85.57904 114.000
85.59899 109.000
85.61893 124.000
85.63888 122.000
85.65883 117.000
85.67877 132.000
85.69872 114.000
85.71867 120.000
85.73861 139.000
85.75856 104.000
85.77851 108.000
85.79845 117.000
85.81840 110.000
85.83835 118.000
85.85830 113.000
85.87824 112.000
85.89819 103.000
85.91814 121.000
85.93808 109.000
85.95803 131.000
85.97798 115.000
85.99792 117.000
86.01787 134.000
86.03782 119.000
86.05777 118.000
86.07771 133.000
86.09766 126.000
86.11761 146.000
86.13755 120.000
86.15750 132.000
86.17745 112.000
86.19739 120.000
86.21734 136.000
86.23729 131.000
86.25723 126.000
86.27718 112.000
86.29713 130.000
86.31708 124.000
86.33702 144.000
86.35697 124.000
86.37692 123.000
86.39686 130.000
86.41681 141.000
86.43676 126.000
86.45670 136.000
86.47665 123.000
86.49660 134.000
86.51655 111.000
86.53649 115.000
86.55644 145.000
86.57639 135.000
86.59633 140.000
86.61628 131.000
86.63623 134.000
86.65617 138.000
86.67612 140.000
86.69607 140.000
86.71602 123.000
86.73596 126.000
86.75591 125.000
86.77586 156.000
86.79580 138.000
86.81575 171.000
86.83570 121.000
86.85564 179.000
86.87559 157.000
86.89554 163.000
86.91548 172.000
86.93543 149.000
86.95538 145.000
86.97533 163.000
86.99527 157.000
87.01522 136.000
87.03517 152.000
87.05511 136.000
87.07506 143.000
87.09501 139.000
87.11495 113.000
87.13490 160.000
87.15485 130.000
87.17480 133.000
87.19474 137.000
87.21469 140.000
87.23464 119.000
87.25458 122.000
87.27453 125.000
87.29448 148.000
87.31442 126.000
87.33437 117.000
87.35432 111.000
87.37426 122.000
87.39421 159.000
87.41416 130.000
87.43411 142.000
87.45405 105.000
87.47400 116.000
87.49395 103.000
87.51389 111.000
87.53384 126.000
87.55379 114.000
87.57373 129.000
87.59368 97.000
87.61363 153.000
87.63358 113.000
87.65352 126.000
87.67347 115.000
87.69342 127.000
87.71336 121.000
87.73331 119.000
87.75326 121.000
87.77320 118.000
87.79315 125.000
87.81310 102.000
87.83304 144.000
87.85299 117.000
87.87294 119.000
87.89289 117.000
87.91283 127.000
87.93278 117.000
87.95273 120.000
87.97267 114.000
87.99262 101.000
88.01257 96.000
88.03251 119.000
88.05246 125.000
88.07241 156.000
88.09236 138.000
88.11230 116.000
88.13225 116.000
88.15220 127.000
88.17214 105.000
88.19209 98.000
88.21204 93.000
88.23198 123.000
88.25193 103.000
88.27188 130.000
88.29183 123.000
88.31177 115.000
88.33172 124.000
88.35167 115.000
88.37161 113.000
88.39156 113.000
88.41151 128.000
88.43145 141.000
88.45140 130.000
88.47135 110.000
88.49129 133.000
88.51124 115.000
88.53119 121.000
88.55114 133.000
88.57108 116.000
88.59103 116.000
88.61098 117.000
88.63092 128.000
88.65087 124.000
88.67082 154.000
88.69076 110.000
88.71071 123.000
88.73066 123.000
88.75061 124.000
88.77055 123.000
88.79050 117.000
88.81045 120.000
88.83039 127.000
88.85034 117.000
88.87029 108.000
88.89023 104.000
88.91018 112.000
88.93013 113.000
88.95007 116.000
88.97002 113.000
88.98997 129.000
89.00992 122.000
89.02986 119.000
89.04981 120.000
89.06976 130.000
89.08970 111.000
89.10965 129.000
89.12960 133.000
89.14954 124.000
89.16949 111.000
89.18944 132.000
89.20939 117.000
89.22933 114.000
89.24928 146.000
89.26923 136.000
89.28917 139.000
89.30912 145.000
89.32907 133.000
89.34901 148.000
89.36896 140.000
89.38891 148.000
89.40885 167.000
89.42880 147.000
89.44875 151.000
89.46870 186.000
89.48864 172.000
89.50859 178.000
89.52854 185.000
89.54848 153.000
89.56843 190.000
89.58838 184.000
89.60832 213.000
89.62827 200.000
89.64822 214.000
89.66817 209.000
89.68811 220.000
89.70806 210.000
89.72801 219.000
89.74795 204.000
89.76790 240.000
89.78785 213.000
89.80779 227.000
89.82774 238.000
89.84769 206.000
89.86764 247.000
89.88758 238.000
89.90753 235.000
89.92748 238.000
89.94742 209.000
89.96737 231.000
89.98732 224.000
90.00726 202.000
