10.00000 283.000
10.01995 324.000
10.03989 353.000
10.05984 339.000
10.07979 324.000
10.09973 321.000
10.11968 355.000
10.13963 320.000
10.15958 323.000
10.17952 320.000
10.19947 352.000
10.21942 308.000
10.23936 346.000
10.25931 345.000
10.27926 316.000
10.29920 336.000
10.31915 345.000
10.33910 336.000
10.35905 338.000
10.37899 323.000
10.39894 314.000
10.41889 341.000
10.43883 322.000
10.45878 316.000
10.47873 336.000
10.49867 375.000
10.51862 326.000
10.53857 337.000
10.55851 332.000
10.57846 353.000
10.59841 335.000
10.61836 333.000
10.63830 348.000
10.65825 339.000
10.67820 334.000
10.69814 378.000
10.71809 332.000
10.73804 335.000
10.75798 345.000
10.77793 391.000
10.79788 328.000
10.81783 355.000
10.83777 342.000
10.85772 329.000
10.87767 360.000
10.89761 322.000
10.91756 318.000
10.93751 303.000
10.95745 336.000
10.97740 355.000
10.99735 345.000
11.01730 346.000
11.03724 349.000
11.05719 348.000
11.07714 342.000
11.09708 334.000
11.11703 308.000
11.13698 343.000
11.15692 375.000
11.17687 342.000
11.19682 338.000
11.21676 327.000
11.23671 391.000
11.25666 334.000
11.27661 343.000
11.29655 360.000
11.31650 357.000
11.33645 321.000
11.35639 337.000
11.37634 324.000
11.39629 350.000
11.41623 384.000
11.43618 338.000
11.45613 377.000
11.47608 320.000
11.49602 351.000
11.51597 323.000
11.53592 345.000
11.55586 367.000
11.57581 376.000
11.59576 354.000
11.61570 352.000
11.63565 392.000
11.65560 352.000
11.67554 316.000
11.69549 339.000
11.71544 313.000
11.73539 327.000
11.75533 355.000
11.77528 334.000
11.79523 399.000
11.81517 345.000
11.83512 349.000
11.85507 330.000
11.87501 374.000
11.89496 345.000
11.91491 378.000
11.93486 350.000
11.95480 358.000
11.97475 322.000
11.99470 343.000
12.01464 380.000
12.03459 355.000
12.05454 372.000
12.07448 348.000
12.09443 335.000
12.11438 369.000
12.13432 356.000
12.15427 377.000
12.17422 382.000
12.19417 329.000
12.21411 311.000
12.23406 336.000
12.25401 328.000
12.27395 343.000
12.29390 358.000
12.31385 359.000
12.33379 344.000
12.35374 366.000
12.37369 363.000
12.39364 349.000
12.41358 317.000
12.43353 368.000
12.45348 349.000
12.47342 357.000
12.49337 374.000
12.51332 326.000
12.53326 371.000
12.55321 347.000
12.57316 363.000
12.59311 350.000
12.61305 337.000
12.63300 343.000
12.65295 372.000
12.67289 395.000
12.69284 343.000
12.71279 359.000
12.73273 356.000
12.75268 360.000
12.77263 342.000
12.79257 341.000
12.81252 352.000
12.83247 396.000
12.85242 379.000
12.87236 353.000
12.89231 365.000
12.91226 340.000
12.93220 378.000
12.95215 354.000
12.97210 319.000
12.99204 369.000
13.01199 352.000
13.03194 340.000
13.05189 361.000
13.07183 380.000
13.09178 384.000
13.11173 358.000
13.13167 370.000
13.15162 374.000
13.17157 331.000
13.19151 387.000
13.21146 368.000
13.23141 351.000
13.25135 359.000
13.27130 372.000
13.29125 374.000
13.31120 369.000
13.33114 383.000
13.35109 330.000
13.37104 357.000
13.39098 351.000
13.41093 336.000
13.43088 356.000
13.45082 338.000
13.47077 353.000
13.49072 376.000
13.51067 363.000
13.53061 369.000
13.55056 366.000
13.57051 359.000
13.59045 368.000
13.61040 335.000
13.63035 353.000
13.65029 365.000
13.67024 368.000
13.69019 357.000
13.71013 380.000
13.73008 347.000
13.75003 354.000
13.76998 349.000
13.78992 380.000
13.80987 379.000
13.82982 384.000
13.84976 358.000
13.86971 376.000
13.88966 405.000
13.90960 377.000
13.92955 392.000
13.94950 371.000
13.96945 350.000
13.98939 373.000
14.00934 345.000
14.02929 387.000
14.04923 346.000
14.06918 374.000
14.08913 387.000
14.10907 394.000
14.12902 341.000
14.14897 373.000
14.16892 347.000
14.18886 384.000
14.20881 346.000
14.22876 392.000
14.24870 403.000
14.26865 366.000
14.28860 386.000
14.30854 390.000
14.32849 363.000
14.34844 374.000
14.36838 385.000
14.38833 370.000
14.40828 375.000
14.42823 363.000
14.44817 405.000
14.46812 367.000
14.48807 366.000
14.50801 413.000
14.52796 378.000
14.54791 382.000
14.56785 358.000
14.58780 364.000
14.60775 399.000
14.62770 346.000
14.64764 349.000
14.66759 379.000
14.68754 401.000
14.70748 388.000
14.72743 347.000
14.74738 384.000
14.76732 349.000
14.78727 376.000
14.80722 381.000
14.82716 357.000
14.84711 383.000
14.86706 388.000
14.88701 342.000
14.90695 375.000
14.92690 384.000
14.94685 381.000
14.96679 383.000
14.98674 379.000
15.00669 378.000
15.02663 396.000
15.04658 386.000
15.06653 391.000
15.08648 384.000
15.10642 408.000
15.12637 389.000
15.14632 405.000
15.16626 389.000
15.18621 417.000
15.20616 383.000
15.22610 381.000
15.24605 407.000
15.26600 388.000
15.28594 385.000
15.30589 409.000
15.32584 425.000
15.34579 391.000
15.36573 373.000
15.38568 418.000
15.40563 404.000
15.42557 403.000
15.44552 441.000
15.46547 406.000
15.48541 429.000
15.50536 441.000
15.52531 442.000
15.54526 449.000
15.56520 546.000
15.58515 606.000
15.60510 660.000
15.62504 740.000
15.64499 889.000
15.66494 971.000
15.68488 1163.000
15.70483 1433.000
15.72478 1716.000
15.74472 1792.000
15.76467 1788.000
15.78462 1404.000
15.80457 1093.000
15.82451 825.000
15.84446 596.000
15.86441 526.000
15.88435 505.000
15.90430 406.000
15.92425 451.000
15.94419 416.000
15.96414 397.000
15.98409 371.000
16.00404 408.000
16.02398 406.000
16.04393 369.000
16.06388 407.000
16.08382 370.000
16.10377 360.000
16.12372 406.000
16.14366 380.000
16.16361 391.000
16.18356 433.000
16.20351 402.000
16.22345 370.000
16.24340 367.000
16.26335 415.000
16.28329 432.000
16.30324 409.000
16.32319 365.000
16.34313 392.000
16.36308 387.000
16.38303 406.000
16.40297 362.000
16.42292 361.000
16.44287 391.000
16.46282 377.000
16.48276 383.000
16.50271 402.000
16.52266 388.000
16.54260 364.000
16.56255 386.000
16.58250 382.000
16.60244 389.000
16.62239 343.000
16.64234 400.000
16.66229 381.000
16.68223 406.000
16.70218 368.000
16.72213 406.000
16.74207 406.000
16.76202 354.000
16.78197 391.000
16.80191 383.000
16.82186 367.000
16.84181 429.000
16.86175 396.000
16.88170 397.000
16.90165 362.000
16.92160 379.000
16.94154 385.000
16.96149 358.000
16.98144 390.000
17.00138 358.000
17.02133 381.000
17.04128 401.000
17.06122 416.000
17.08117 357.000
17.10112 411.000
17.12107 381.000
17.14101 393.000
17.16096 340.000
17.18091 411.000
17.20085 415.000
17.22080 409.000
17.24075 392.000
17.26069 334.000
17.28064 344.000
17.30059 365.000
17.32053 375.000
17.34048 408.000
17.36043 351.000
17.38038 394.000
17.40032 383.000
17.42027 356.000
17.44022 376.000
17.46016 345.000
17.48011 374.000
17.50006 379.000
17.52000 387.000
17.53995 378.000
17.55990 398.000
17.57985 387.000
17.59979 415.000
17.61974 353.000
17.63969 386.000
17.65963 368.000
17.67958 381.000
17.69953 352.000
17.71947 360.000
17.73942 412.000
17.75937 379.000
17.77932 404.000
17.79926 387.000
17.81921 376.000
17.83916 355.000
17.85910 413.000
17.87905 372.000
17.89900 392.000
17.91894 417.000
17.93889 416.000
17.95884 381.000
17.97878 442.000
17.99873 414.000
18.01868 412.000
18.03863 435.000
18.05857 422.000
18.07852 460.000
18.09847 528.000
18.11841 582.000
18.13836 643.000
18.15831 694.000
18.17825 715.000
18.19820 789.000
18.21815 818.000
18.23810 679.000
18.25804 576.000
18.27799 482.000
18.29794 403.000
18.31788 403.000
18.33783 421.000
18.35778 393.000
18.37772 407.000
18.39767 378.000
18.41762 389.000
18.43756 370.000
18.45751 354.000
18.47746 377.000
18.49741 402.000
18.51735 385.000
18.53730 389.000
18.55725 364.000
18.57719 367.000
18.59714 392.000
18.61709 412.000
18.63703 356.000
18.65698 370.000
18.67693 406.000
18.69688 410.000
18.71682 375.000
18.73677 411.000
18.75672 408.000
18.77666 439.000
18.79661 379.000
18.81656 397.000
18.83650 387.000
18.85645 385.000
18.87640 399.000
18.89634 434.000
18.91629 420.000
18.93624 402.000
18.95619 403.000
18.97613 363.000
18.99608 393.000
19.01603 402.000
19.03597 384.000
19.05592 364.000
19.07587 398.000
19.09581 391.000
19.11576 382.000
19.13571 387.000
19.15566 402.000
19.17560 380.000
19.19555 352.000
19.21550 391.000
19.23544 398.000
19.25539 387.000
19.27534 421.000
19.29528 394.000
19.31523 422.000
19.33518 419.000
19.35513 411.000
19.37507 363.000
19.39502 386.000
19.41497 381.000
19.43491 367.000
19.45486 386.000
19.47481 428.000
19.49475 400.000
19.51470 403.000
19.53465 387.000
19.55459 373.000
19.57454 389.000
19.59449 444.000
19.61444 377.000
19.63438 371.000
19.65433 402.000
19.67428 424.000
19.69422 399.000
19.71417 359.000
19.73412 372.000
19.75406 357.000
19.77401 399.000
19.79396 404.000
19.81391 358.000
19.83385 410.000
19.85380 386.000
19.87375 380.000
19.89369 369.000
19.91364 377.000
19.93359 427.000
19.95353 427.000
19.97348 367.000
19.99343 397.000
20.01337 397.000
20.03332 384.000
20.05327 388.000
20.07322 396.000
20.09316 370.000
20.11311 414.000
20.13306 392.000
20.15300 392.000
20.17295 410.000
20.19290 407.000
20.21284 404.000
20.23279 424.000
20.25274 387.000
20.27269 400.000
20.29263 393.000
20.31258 378.000
20.33253 386.000
20.35247 405.000
20.37242 385.000
20.39237 411.000
20.41231 413.000
20.43226 390.000
20.45221 410.000
20.47215 374.000
20.49210 436.000
20.51205 401.000
20.53200 390.000
20.55194 400.000
20.57189 412.000
20.59184 406.000
20.61178 416.000
20.63173 377.000
20.65168 415.000
20.67162 434.000
20.69157 385.000
20.71152 403.000
20.73147 387.000
20.75141 367.000
20.77136 406.000
20.79131 373.000
20.81125 418.000
20.83120 423.000
20.85115 439.000
20.87109 409.000
20.89104 395.000
20.91099 461.000
20.93094 424.000
20.95088 462.000
20.97083 442.000
20.99078 497.000
21.01072 511.000
21.03067 537.000
21.05062 586.000
21.07056 571.000
21.09051 612.000
21.11046 562.000
21.13040 517.000
21.15035 488.000
21.17030 492.000
21.19025 429.000
21.21019 398.000
21.23014 444.000
21.25009 410.000
21.27003 393.000
21.28998 391.000
21.30993 419.000
21.32987 409.000
21.34982 466.000
21.36977 419.000
21.38972 388.000
21.40966 402.000
21.42961 410.000
21.44956 400.000
21.46950 432.000
21.48945 369.000
21.50940 393.000
21.52934 412.000
21.54929 392.000
21.56924 403.000
21.58918 396.000
21.60913 387.000
21.62908 422.000
21.64903 404.000
21.66897 394.000
21.68892 388.000
21.70887 393.000
21.72881 369.000
21.74876 388.000
21.76871 411.000
21.78865 380.000
21.80860 387.000
21.82855 341.000
21.84850 389.000
21.86844 409.000
21.88839 381.000
21.90834 413.000
21.92828 416.000
21.94823 410.000
21.96818 395.000
21.98812 423.000
22.00807 422.000
22.02802 373.000
22.04796 372.000
22.06791 381.000
22.08786 442.000
22.10781 402.000
22.12775 425.000
22.14770 398.000
22.16765 392.000
22.18759 383.000
22.20754 390.000
22.22749 395.000
22.24743 411.000
22.26738 391.000
22.28733 398.000
22.30728 432.000
22.32722 433.000
22.34717 411.000
22.36712 403.000
22.38706 361.000
22.40701 410.000
22.42696 394.000
22.44690 388.000
22.46685 410.000
22.48680 401.000
22.50675 406.000
22.52669 395.000
22.54664 407.000
22.56659 407.000
22.58653 368.000
22.60648 387.000
22.62643 358.000
22.64637 390.000
22.66632 373.000
22.68627 414.000
22.70621 425.000
22.72616 429.000
22.74611 376.000
22.76606 431.000
22.78600 413.000
22.80595 418.000
22.82590 410.000
22.84584 415.000
22.86579 437.000
22.88574 404.000
22.90568 411.000
22.92563 393.000
22.94558 417.000
22.96553 395.000
22.98547 386.000
23.00542 350.000
23.02537 349.000
23.04531 389.000
23.06526 377.000
23.08521 372.000
23.10515 427.000
23.12510 417.000
23.14505 383.000
23.16499 467.000
23.18494 396.000
23.20489 416.000
23.22484 389.000
23.24478 392.000
23.26473 343.000
23.28468 386.000
23.30462 382.000
23.32457 425.000
23.34452 420.000
23.36446 400.000
23.38441 373.000
23.40436 433.000
23.42431 443.000
23.44425 408.000
23.46420 423.000
23.48415 402.000
23.50409 431.000
23.52404 402.000
23.54399 415.000
23.56393 394.000
23.58388 364.000
23.60383 398.000
23.62377 407.000
23.64372 415.000
23.66367 362.000
23.68362 410.000
23.70356 424.000
23.72351 431.000
23.74346 386.000
23.76340 431.000
23.78335 417.000
23.80330 392.000
23.82324 417.000
23.84319 387.000
23.86314 434.000
23.88309 391.000
23.90303 467.000
23.92298 400.000
23.94293 377.000
23.96287 386.000
23.98282 429.000
24.00277 389.000
24.02271 420.000
24.04266 408.000
24.06261 394.000
24.08256 415.000
24.10250 428.000
24.12245 407.000
24.14240 379.000
24.16234 386.000
24.18229 369.000
24.20224 386.000
24.22218 420.000
24.24213 390.000
24.26208 446.000
24.28202 454.000
24.30197 426.000
24.32192 404.000
24.34187 436.000
24.36181 395.000
24.38176 391.000
24.40171 417.000
24.42165 409.000
24.44160 435.000
24.46155 386.000
24.48149 419.000
24.50144 375.000
24.52139 419.000
24.54134 424.000
24.56128 408.000
24.58123 423.000
24.60118 422.000
24.62112 432.000
24.64107 416.000
24.66102 417.000
24.68096 378.000
24.70091 406.000
24.72086 396.000
24.74080 404.000
24.76075 398.000
24.78070 386.000
24.80065 416.000
24.82059 434.000
24.84054 419.000
24.86049 405.000
24.88043 396.000
24.90038 440.000
24.92033 413.000
24.94027 409.000
24.96022 405.000
24.98017 383.000
25.00012 407.000
25.02006 400.000
25.04001 386.000
25.05996 414.000
25.07990 408.000
25.09985 429.000
25.11980 443.000
25.13974 429.000
25.15969 424.000
25.17964 387.000
25.19958 412.000
25.21953 427.000
25.23948 425.000
25.25943 409.000
25.27937 377.000
25.29932 427.000
25.31927 388.000
25.33921 438.000
25.35916 417.000
25.37911 408.000
25.39905 438.000
25.41900 397.000
25.43895 439.000
25.45890 452.000
25.47884 387.000
25.49879 456.000
25.51874 411.000
25.53868 464.000
25.55863 424.000
25.57858 421.000
25.59852 409.000
25.61847 428.000
25.63842 397.000
25.65837 459.000
25.67831 383.000
25.69826 409.000
25.71821 419.000
25.73815 413.000
25.75810 369.000
25.77805 420.000
25.79799 385.000
25.81794 441.000
25.83789 405.000
25.85783 415.000
25.87778 420.000
25.89773 411.000
25.91768 420.000
25.93762 443.000
25.95757 431.000
25.97752 396.000
25.99746 464.000
26.01741 435.000
26.03736 405.000
26.05730 436.000
26.07725 426.000
26.09720 430.000
26.11715 415.000
26.13709 401.000
26.15704 484.000
26.17699 417.000
26.19693 459.000
26.21688 424.000
26.23683 419.000
26.25677 435.000
26.27672 457.000
26.29667 397.000
26.31661 429.000
26.33656 427.000
26.35651 418.000
26.37646 419.000
26.39640 438.000
26.41635 444.000
26.43630 402.000
26.45624 434.000
26.47619 412.000
26.49614 400.000
26.51608 433.000
26.53603 411.000
26.55598 469.000
26.57593 410.000
26.59587 405.000
26.61582 430.000
26.63577 463.000
26.65571 447.000
26.67566 418.000
26.69561 412.000
26.71555 454.000
26.73550 441.000
26.75545 427.000
26.77539 443.000
26.79534 437.000
26.81529 454.000
26.83524 486.000
26.85518 431.000
26.87513 373.000
26.89508 421.000
26.91502 469.000
26.93497 417.000
26.95492 432.000
26.97486 428.000
26.99481 430.000
27.01476 411.000
27.03471 392.000
27.05465 413.000
27.07460 414.000
27.09455 442.000
27.11449 414.000
27.13444 460.000
27.15439 425.000
27.17433 469.000
27.19428 433.000
27.21423 419.000
27.23417 425.000
27.25412 414.000
27.27407 436.000
27.29402 432.000
27.31396 394.000
27.33391 405.000
27.35386 431.000
27.37380 459.000
27.39375 447.000
27.41370 397.000
27.43364 387.000
27.45359 441.000
27.47354 437.000
27.49349 434.000
27.51343 444.000
27.53338 442.000
27.55333 415.000
27.57327 462.000
27.59322 452.000
27.61317 412.000
27.63311 435.000
27.65306 437.000
27.67301 460.000
27.69296 442.000
27.71290 453.000
27.73285 424.000
27.75280 406.000
27.77274 451.000
27.79269 446.000
27.81264 431.000
27.83258 447.000
27.85253 417.000
27.87248 428.000
27.89242 421.000
27.91237 447.000
27.93232 445.000
27.95227 411.000
27.97221 443.000
27.99216 404.000
28.01211 418.000
28.03205 446.000
28.05200 409.000
28.07195 456.000
28.09189 434.000
28.11184 432.000
28.13179 440.000
28.15174 444.000
28.17168 447.000
28.19163 447.000
28.21158 459.000
28.23152 456.000
28.25147 412.000
28.27142 438.000
28.29136 441.000
28.31131 438.000
28.33126 441.000
28.35120 453.000
28.37115 411.000
28.39110 415.000
28.41105 436.000
28.43099 428.000
28.45094 449.000
28.47089 440.000
28.49083 466.000
28.51078 443.000
28.53073 406.000
28.55067 432.000
28.57062 483.000
28.59057 482.000
28.61052 471.000
28.63046 469.000
28.65041 431.000
28.67036 456.000
28.69030 438.000
28.71025 448.000
28.73020 481.000
28.75014 458.000
28.77009 499.000
28.79004 426.000
28.80998 456.000
28.82993 429.000
28.84988 433.000
28.86983 431.000
28.88977 473.000
28.90972 468.000
28.92967 473.000
28.94961 434.000
28.96956 464.000
28.98951 455.000
29.00945 440.000
29.02940 441.000
29.04935 440.000
29.06930 433.000
29.08924 469.000
29.10919 426.000
29.12914 446.000
29.14908 437.000
29.16903 411.000
29.18898 457.000
29.20892 429.000
29.22887 428.000
29.24882 420.000
29.26877 447.000
29.28871 458.000
29.30866 443.000
29.32861 462.000
29.34855 456.000
29.36850 428.000
29.38845 432.000
29.40839 440.000
29.42834 467.000
29.44829 466.000
29.46823 460.000
29.48818 435.000
29.50813 491.000
29.52808 490.000
29.54802 463.000
29.56797 447.000
29.58792 453.000
29.60786 459.000
29.62781 454.000
29.64776 467.000
29.66770 475.000
29.68765 479.000
29.70760 485.000
29.72755 468.000
29.74749 525.000
29.76744 507.000
29.78739 517.000
29.80733 529.000
29.82728 605.000
29.84723 614.000
29.86717 694.000
29.88712 718.000
29.90707 768.000
29.92701 875.000
29.94696 811.000
29.96691 776.000
29.98686 732.000
30.00680 684.000
30.02675 678.000
30.04670 574.000
30.06664 523.000
30.08659 519.000
30.10654 502.000
30.12648 493.000
30.14643 481.000
30.16638 455.000
30.18633 460.000
30.20627 486.000
30.22622 469.000
30.24617 477.000
30.26611 452.000
30.28606 500.000
30.30601 448.000
30.32595 449.000
30.34590 468.000
30.36585 442.000
30.38579 464.000
30.40574 454.000
30.42569 485.000
30.44564 443.000
30.46558 455.000
30.48553 459.000
30.50548 471.000
30.52542 467.000
30.54537 504.000
30.56532 508.000
30.58526 482.000
30.60521 442.000
30.62516 428.000
30.64511 479.000
30.66505 419.000
30.68500 416.000
30.70495 467.000
30.72489 435.000
30.74484 475.000
30.76479 459.000
30.78473 450.000
30.80468 458.000
30.82463 431.000
30.84458 466.000
30.86452 432.000
30.88447 444.000
30.90442 455.000
30.92436 450.000
30.94431 456.000
30.96426 461.000
30.98420 429.000
31.00415 490.000
31.02410 425.000
31.04404 485.000
31.06399 473.000
31.08394 428.000
31.10389 433.000
31.12383 484.000
31.14378 470.000
31.16373 498.000
31.18367 428.000
31.20362 442.000
31.22357 412.000
31.24351 460.000
31.26346 462.000
31.28341 470.000
31.30336 473.000
31.32330 445.000
31.34325 500.000
31.36320 467.000
31.38314 488.000
31.40309 462.000
31.42304 467.000
31.44298 455.000
31.46293 464.000
31.48288 474.000
31.50282 454.000
31.52277 470.000
31.54272 479.000
31.56267 438.000
31.58261 440.000
31.60256 432.000
31.62251 502.000
31.64245 471.000
31.66240 450.000
31.68235 504.000
31.70229 503.000
31.72224 501.000
31.74219 547.000
31.76214 535.000
31.78208 542.000
31.80203 554.000
31.82198 573.000
31.84192 538.000
31.86187 510.000
31.88182 526.000
31.90176 500.000
31.92171 486.000
31.94166 532.000
31.96160 524.000
31.98155 498.000
32.00150 466.000
32.02145 475.000
32.04139 502.000
32.06134 446.000
32.08129 512.000
32.10123 493.000
32.12118 461.000
32.14113 496.000
32.16107 509.000
32.18102 459.000
32.20097 477.000
32.22092 519.000
32.24086 542.000
32.26081 477.000
32.28076 477.000
32.30070 508.000
32.32065 477.000
32.34060 537.000
32.36054 561.000
32.38049 540.000
32.40044 577.000
32.42039 584.000
32.44033 650.000
32.46028 645.000
32.48023 739.000
32.50017 749.000
32.52012 804.000
32.54007 729.000
32.56001 708.000
32.57996 648.000
32.59991 678.000
32.61985 617.000
32.63980 522.000
32.65975 540.000
32.67970 516.000
32.69964 470.000
32.71959 445.000
32.73954 444.000
32.75948 443.000
32.77943 477.000
32.79938 473.000
32.81932 474.000
32.83927 488.000
32.85922 457.000
32.87917 462.000
32.89911 457.000
32.91906 470.000
32.93901 442.000
32.95895 470.000
32.97890 464.000
32.99885 506.000
33.01879 453.000
33.03874 458.000
33.05869 470.000
33.07863 480.000
33.09858 484.000
33.11853 442.000
33.13848 451.000
33.15842 453.000
33.17837 450.000
33.19832 429.000
33.21826 440.000
33.23821 474.000
33.25816 460.000
33.27810 454.000
33.29805 508.000
33.31800 463.000
33.33795 477.000
33.35789 479.000
33.37784 474.000
33.39779 475.000
33.41773 494.000
33.43768 468.000
33.45763 447.000
33.47757 508.000
33.49752 476.000
33.51747 471.000
33.53741 448.000
33.55736 471.000
33.57731 496.000
33.59726 452.000
33.61720 464.000
33.63715 506.000
33.65710 495.000
33.67704 435.000
33.69699 485.000
33.71694 487.000
33.73688 501.000
33.75683 486.000
33.77678 493.000
33.79673 460.000
33.81667 459.000
33.83662 499.000
33.85657 447.000
33.87651 445.000
33.89646 469.000
33.91641 491.000
33.93635 496.000
33.95630 486.000
33.97625 486.000
33.99620 470.000
34.01614 491.000
34.03609 467.000
34.05604 454.000
34.07598 436.000
34.09593 445.000
34.11588 509.000
34.13582 469.000
34.15577 451.000
34.17572 456.000
34.19566 481.000
34.21561 503.000
34.23556 448.000
34.25551 473.000
34.27545 445.000
34.29540 520.000
34.31535 476.000
34.33529 486.000
34.35524 465.000
34.37519 450.000
34.39513 484.000
34.41508 482.000
34.43503 500.000
34.45498 515.000
34.47492 502.000
34.49487 524.000
34.51482 591.000
34.53476 542.000
34.55471 524.000
34.57466 556.000
34.59460 626.000
34.61455 645.000
34.63450 580.000
34.65444 616.000
34.67439 601.000
34.69434 708.000
34.71429 644.000
34.73423 616.000
34.75418 653.000
34.77413 650.000
34.79407 649.000
34.81402 636.000
34.83397 670.000
34.85391 640.000
34.87386 640.000
34.89381 609.000
34.91376 604.000
34.93370 598.000
34.95365 669.000
34.97360 687.000
34.99354 669.000
35.01349 681.000
35.03344 704.000
35.05338 726.000
35.07333 778.000
35.09328 898.000
35.11322 981.000
35.13317 1059.000
35.15312 1193.000
35.17307 1393.000
35.19301 1709.000
35.21296 1857.000
35.23291 2141.000
35.25285 2388.000
35.27280 2424.000
35.29275 2428.000
35.31269 2283.000
35.33264 2130.000
35.35259 2254.000
35.37254 2330.000
35.39248 2449.000
35.41243 2633.000
35.43238 2761.000
35.45232 3002.000
35.47227 3201.000
35.49222 3334.000
35.51216 3654.000
35.53211 4281.000
35.55206 4540.000
35.57201 3918.000
35.59195 3152.000
35.61190 2738.000
35.63185 2612.000
35.65179 2371.000
35.67174 1828.000
35.69169 1371.000
35.71163 1138.000
35.73158 962.000
35.75153 787.000
35.77147 778.000
35.79142 775.000
35.81137 682.000
35.83132 647.000
35.85126 648.000
35.87121 672.000
35.89116 614.000
35.91110 597.000
35.93105 538.000
35.95100 542.000
35.97094 539.000
35.99089 588.000
36.01084 526.000
36.03079 516.000
36.05073 527.000
36.07068 551.000
36.09063 494.000
36.11057 513.000
36.13052 493.000
36.15047 579.000
36.17041 493.000
36.19036 512.000
36.21031 529.000
36.23025 533.000
36.25020 511.000
36.27015 493.000
36.29010 524.000
36.31004 483.000
36.32999 504.000
36.34994 546.000
36.36988 511.000
36.38983 471.000
36.40978 480.000
36.42972 505.000
36.44967 488.000
36.46962 473.000
36.48957 549.000
36.50951 495.000
36.52946 507.000
36.54941 534.000
36.56935 490.000
36.58930 479.000
36.60925 500.000
36.62919 522.000
36.64914 477.000
36.66909 502.000
36.68903 481.000
36.70898 505.000
36.72893 511.000
36.74888 504.000
36.76882 514.000
36.78877 490.000
36.80872 507.000
36.82866 580.000
36.84861 598.000
36.86856 624.000
36.88850 620.000
36.90845 610.000
36.92840 595.000
36.94835 526.000
36.96829 541.000
36.98824 498.000
37.00819 567.000
37.02813 527.000
37.04808 463.000
37.06803 494.000
37.08797 492.000
37.10792 483.000
37.12787 512.000
37.14781 473.000
37.16776 475.000
37.18771 463.000
37.20766 452.000
37.22760 501.000
37.24755 452.000
37.26750 512.000
37.28744 467.000
37.30739 486.000
37.32734 495.000
37.34728 540.000
37.36723 474.000
37.38718 498.000
37.40713 488.000
37.42707 453.000
37.44702 441.000
37.46697 497.000
37.48691 490.000
37.50686 533.000
37.52681 484.000
37.54675 456.000
37.56670 493.000
37.58665 507.000
37.60660 467.000
37.62654 435.000
37.64649 463.000
37.66644 468.000
37.68638 482.000
37.70633 480.000
37.72628 461.000
37.74622 501.000
37.76617 490.000
37.78612 454.000
37.80606 507.000
37.82601 451.000
37.84596 489.000
37.86591 522.000
37.88585 517.000
37.90580 517.000
37.92575 474.000
37.94569 513.000
37.96564 482.000
37.98559 532.000
38.00553 550.000
38.02548 485.000
38.04543 543.000
38.06538 552.000
38.08532 561.000
38.10527 571.000
38.12522 572.000
38.14516 523.000
38.16511 543.000
38.18506 614.000
38.20500 552.000
38.22495 583.000
38.24490 586.000
38.26484 589.000
38.28479 673.000
38.30474 597.000
38.32469 672.000
38.34463 640.000
38.36458 683.000
38.38453 688.000
38.40447 762.000
38.42442 768.000
38.44437 736.000
38.46431 874.000
38.48426 868.000
38.50421 948.000
38.52416 981.000
38.54410 1111.000
38.56405 1264.000
38.58400 1414.000
38.60394 1616.000
38.62389 1879.000
38.64384 2159.000
38.66378 2536.000
38.68373 2926.000
38.70368 3384.000
38.72362 3630.000
38.74357 3828.000
38.76352 3692.000
38.78347 3392.000
38.80341 3020.000
38.82336 2934.000
38.84331 2681.000
38.86325 2499.000
38.88320 2158.000
38.90315 1898.000
38.92309 1713.000
38.94304 1488.000
38.96299 1314.000
38.98294 1195.000
39.00288 1192.000
39.02283 1045.000
39.04278 925.000
39.06272 911.000
39.08267 802.000
39.10262 747.000
39.12256 726.000
39.14251 769.000
39.16246 722.000
39.18241 755.000
39.20235 750.000
39.22230 704.000
39.24225 668.000
39.26219 671.000
39.28214 674.000
39.30209 641.000
39.32203 643.000
39.34198 626.000
39.36193 581.000
39.38187 581.000
39.40182 601.000
39.42177 580.000
39.44172 559.000
39.46166 558.000
39.48161 492.000
39.50156 539.000
39.52150 537.000
39.54145 481.000
39.56140 526.000
39.58134 461.000
39.60129 460.000
39.62124 489.000
39.64119 508.000
39.66113 474.000
39.68108 471.000
39.70103 484.000
39.72097 516.000
39.74092 440.000
39.76087 474.000
39.78081 452.000
39.80076 456.000
39.82071 469.000
39.84065 461.000
39.86060 463.000
39.88055 507.000
39.90050 477.000
39.92044 454.000
39.94039 464.000
39.96034 427.000
39.98028 423.000
40.00023 430.000
40.02018 434.000
40.04012 476.000
40.06007 444.000
40.08002 443.000
40.09997 444.000
40.11991 468.000
40.13986 473.000
40.15981 475.000
40.17975 468.000
40.19970 423.000
40.21965 451.000
40.23959 447.000
40.25954 435.000
40.27949 404.000
40.29943 419.000
40.31938 434.000
40.33933 412.000
40.35928 465.000
40.37922 432.000
40.39917 423.000
40.41912 422.000
40.43906 468.000
40.45901 449.000
40.47896 461.000
40.49890 433.000
40.51885 437.000
40.53880 468.000
40.55875 459.000
40.57869 430.000
40.59864 429.000
40.61859 402.000
40.63853 436.000
40.65848 416.000
40.67843 426.000
40.69837 444.000
40.71832 446.000
40.73827 426.000
40.75822 410.000
40.77816 449.000
40.79811 405.000
40.81806 458.000
40.83800 442.000
40.85795 422.000
40.87790 452.000
40.89784 412.000
40.91779 408.000
40.93774 410.000
40.95768 436.000
40.97763 465.000
40.99758 470.000
41.01753 458.000
41.03747 419.000
41.05742 481.000
41.07737 449.000
41.09731 415.000
41.11726 472.000
41.13721 419.000
41.15715 446.000
41.17710 467.000
41.19705 453.000
41.21700 446.000
41.23694 400.000
41.25689 455.000
41.27684 518.000
41.29678 432.000
41.31673 445.000
41.33668 444.000
41.35662 455.000
41.37657 463.000
41.39652 415.000
41.41646 463.000
41.43641 471.000
41.45636 448.000
41.47631 416.000
41.49625 475.000
41.51620 475.000
41.53615 414.000
41.55609 441.000
41.57604 403.000
41.59599 464.000
41.61593 478.000
41.63588 433.000
41.65583 425.000
41.67578 430.000
41.69572 420.000
41.71567 431.000
41.73562 412.000
41.75556 463.000
41.77551 461.000
41.79546 455.000
41.81540 471.000
41.83535 418.000
41.85530 402.000
41.87524 435.000
41.89519 431.000
41.91514 441.000
41.93509 449.000
41.95503 452.000
41.97498 396.000
41.99493 426.000
42.01487 425.000
42.03482 440.000
42.05477 440.000
42.07471 451.000
42.09466 441.000
42.11461 423.000
42.13456 428.000
42.15450 417.000
42.17445 424.000
42.19440 425.000
42.21434 460.000
42.23429 449.000
42.25424 465.000
42.27418 462.000
42.29413 435.000
42.31408 410.000
42.33403 452.000
42.35397 430.000
42.37392 444.000
42.39387 415.000
42.41381 467.000
42.43376 454.000
42.45371 461.000
42.47365 427.000
42.49360 417.000
42.51355 445.000
42.53349 425.000
42.55344 465.000
42.57339 455.000
42.59334 479.000
42.61328 439.000
42.63323 508.000
42.65318 434.000
42.67312 518.000
42.69307 495.000
42.71302 540.000
42.73296 543.000
42.75291 598.000
42.77286 659.000
42.79281 616.000
42.81275 712.000
42.83270 730.000
42.85265 806.000
42.87259 746.000
42.89254 774.000
42.91249 646.000
42.93243 684.000
42.95238 655.000
42.97233 618.000
42.99227 600.000
43.01222 529.000
43.03217 567.000
43.05212 503.000
43.07206 473.000
43.09201 467.000
43.11196 505.000
43.13190 487.000
43.15185 435.000
43.17180 481.000
43.19174 501.000
43.21169 511.000
43.23164 507.000
43.25159 486.000
43.27153 541.000
43.29148 495.000
43.31143 514.000
43.33137 482.000
43.35132 496.000
43.37127 459.000
43.39121 522.000
43.41116 488.000
43.43111 506.000
43.45105 530.000
43.47100 463.000
43.49095 500.000
43.51090 503.000
43.53084 454.000
43.55079 470.000
43.57074 479.000
43.59068 465.000
43.61063 464.000
43.63058 453.000
43.65052 433.000
43.67047 477.000
43.69042 396.000
43.71037 433.000
43.73031 399.000
43.75026 445.000
43.77021 447.000
43.79015 448.000
43.81010 436.000
43.83005 415.000
43.84999 449.000
43.86994 454.000
43.88989 439.000
43.90984 449.000
43.92978 408.000
43.94973 419.000
43.96968 418.000
43.98962 402.000
44.00957 388.000
44.02952 440.000
44.04946 402.000
44.06941 444.000
44.08936 417.000
44.10930 418.000
44.12925 435.000
44.14920 434.000
44.16915 421.000
44.18909 467.000
44.20904 407.000
44.22899 461.000
44.24893 401.000
44.26888 453.000
44.28883 429.000
44.30877 433.000
44.32872 437.000
44.34867 427.000
44.36862 422.000
44.38856 450.000
44.40851 452.000
44.42846 428.000
44.44840 441.000
44.46835 446.000
44.48830 419.000
44.50824 427.000
44.52819 439.000
44.54814 424.000
44.56808 414.000
44.58803 421.000
44.60798 461.000
44.62793 417.000
44.64787 418.000
44.66782 433.000
44.68777 418.000
44.70771 438.000
44.72766 430.000
44.74761 387.000
44.76755 452.000
44.78750 488.000
44.80745 462.000
44.82740 432.000
44.84734 386.000
44.86729 425.000
44.88724 433.000
44.90718 458.000
44.92713 429.000
44.94708 442.000
44.96702 463.000
44.98697 433.000
45.00692 482.000
45.02686 450.000
45.04681 453.000
45.06676 440.000
45.08671 418.000
45.10665 450.000
45.12660 447.000
45.14655 451.000
45.16649 453.000
45.18644 404.000
45.20639 433.000
45.22633 428.000
45.24628 407.000
45.26623 394.000
45.28618 389.000
45.30612 424.000
45.32607 435.000
45.34602 423.000
45.36596 404.000
45.38591 420.000
45.40586 457.000
45.42580 393.000
45.44575 449.000
45.46570 441.000
45.48565 432.000
45.50559 447.000
45.52554 451.000
45.54549 447.000
45.56543 451.000
45.58538 439.000
45.60533 450.000
45.62527 438.000
45.64522 444.000
45.66517 440.000
45.68511 424.000
45.70506 408.000
45.72501 430.000
45.74496 445.000
45.76490 432.000
45.78485 447.000
45.80480 438.000
45.82474 432.000
45.84469 451.000
45.86464 382.000
45.88458 406.000
45.90453 424.000
45.92448 472.000
45.94443 447.000
45.96437 463.000
45.98432 464.000
46.00427 452.000
46.02421 434.000
46.04416 431.000
46.06411 431.000
46.08405 433.000
46.10400 427.000
46.12395 473.000
46.14389 456.000
46.16384 460.000
46.18379 469.000
46.20374 449.000
46.22368 458.000
46.24363 528.000
46.26358 506.000
46.28352 508.000
46.30347 472.000
46.32342 460.000
46.34336 482.000
46.36331 459.000
46.38326 458.000
46.40321 461.000
46.42315 413.000
46.44310 459.000
46.46305 447.000
46.48299 436.000
46.50294 441.000
46.52289 431.000
46.54283 418.000
46.56278 443.000
46.58273 440.000
46.60267 436.000
46.62262 455.000
46.64257 461.000
46.66252 389.000
46.68246 393.000
46.70241 410.000
46.72236 399.000
46.74230 449.000
46.76225 426.000
46.78220 457.000
46.80214 464.000
46.82209 468.000
46.84204 403.000
46.86199 487.000
46.88193 459.000
46.90188 457.000
46.92183 428.000
46.94177 398.000
46.96172 479.000
46.98167 440.000
47.00161 430.000
47.02156 403.000
47.04151 455.000
47.06146 430.000
47.08140 430.000
47.10135 425.000
47.12130 441.000
47.14124 457.000
47.16119 460.000
47.18114 444.000
47.20108 432.000
47.22103 425.000
47.24098 413.000
47.26092 420.000
47.28087 415.000
47.30082 430.000
47.32077 422.000
47.34071 416.000
47.36066 382.000
47.38061 449.000
47.40055 408.000
47.42050 419.000
47.44045 433.000
47.46039 465.000
47.48034 434.000
47.50029 420.000
47.52024 404.000
47.54018 428.000
47.56013 393.000
47.58008 423.000
47.60002 437.000
47.61997 412.000
47.63992 458.000
47.65986 451.000
47.67981 464.000
47.69976 449.000
47.71970 435.000
47.73965 377.000
47.75960 429.000
47.77955 440.000
47.79949 429.000
47.81944 482.000
47.83939 413.000
47.85933 427.000
47.87928 432.000
47.89923 430.000
47.91917 455.000
47.93912 423.000
47.95907 495.000
47.97902 457.000
47.99896 448.000
48.01891 456.000
48.03886 452.000
48.05880 468.000
48.07875 458.000
48.09870 490.000
48.11864 466.000
48.13859 446.000
48.15854 496.000
48.17848 473.000
48.19843 433.000
48.21838 489.000
48.23833 524.000
48.25827 478.000
48.27822 530.000
48.29817 514.000
48.31811 487.000
48.33806 491.000
48.35801 566.000
48.37795 522.000
48.39790 564.000
48.41785 568.000
48.43780 627.000
48.45774 613.000
48.47769 695.000
48.49764 711.000
48.51758 783.000
48.53753 854.000
48.55748 834.000
48.57742 975.000
48.59737 1049.000
48.61732 1085.000
48.63726 1160.000
48.65721 1351.000
48.67716 1440.000
48.69711 1496.000
48.71705 1394.000
48.73700 1295.000
48.75695 1238.000
48.77689 1090.000
48.79684 1105.000
48.81679 1033.000
48.83673 1007.000
48.85668 877.000
48.87663 789.000
48.89658 737.000
48.91652 685.000
48.93647 594.000
48.95642 567.000
48.97636 553.000
48.99631 505.000
49.01626 490.000
49.03620 546.000
49.05615 490.000
49.07610 469.000
49.09605 474.000
49.11599 458.000
49.13594 457.000
49.15589 502.000
49.17583 451.000
49.19578 444.000
49.21573 452.000
49.23567 508.000
49.25562 448.000
49.27557 445.000
49.29551 462.000
49.31546 442.000
49.33541 439.000
49.35536 436.000
49.37530 473.000
49.39525 434.000
49.41520 459.000
49.43514 416.000
49.45509 459.000
49.47504 446.000
49.49498 424.000
49.51493 403.000
49.53488 479.000
49.55483 443.000
49.57477 433.000
49.59472 420.000
49.61467 458.000
49.63461 435.000
49.65456 457.000
49.67451 426.000
49.69445 424.000
49.71440 454.000
49.73435 428.000
49.75429 469.000
49.77424 461.000
49.79419 413.000
49.81414 403.000
49.83408 443.000
49.85403 394.000
49.87398 414.000
49.89392 440.000
49.91387 449.000
49.93382 462.000
49.95376 447.000
49.97371 419.000
49.99366 455.000
50.01361 438.000
50.03355 387.000
50.05350 425.000
50.07345 419.000
50.09339 438.000
50.11334 431.000
50.13329 437.000
50.15323 422.000
50.17318 485.000
50.19313 427.000
50.21307 447.000
50.23302 407.000
50.25297 414.000
50.27292 398.000
50.29286 439.000
50.31281 430.000
50.33276 429.000
50.35270 445.000
50.37265 406.000
50.39260 444.000
50.41254 427.000
50.43249 439.000
50.45244 452.000
50.47239 452.000
50.49233 426.000
50.51228 445.000
50.53223 414.000
50.55217 424.000
50.57212 438.000
50.59207 413.000
50.61201 465.000
50.63196 461.000
50.65191 425.000
50.67186 411.000
50.69180 410.000
50.71175 421.000
50.73170 399.000
50.75164 414.000
50.77159 430.000
50.79154 451.000
50.81148 441.000
50.83143 431.000
50.85138 405.000
50.87132 450.000
50.89127 458.000
50.91122 431.000
50.93117 397.000
50.95111 424.000
50.97106 448.000
50.99101 432.000
51.01095 421.000
51.03090 430.000
51.05085 407.000
51.07079 442.000
51.09074 407.000
51.11069 402.000
51.13064 448.000
51.15058 410.000
51.17053 449.000
51.19048 455.000
51.21042 400.000
51.23037 461.000
51.25032 401.000
51.27026 449.000
51.29021 462.000
51.31016 438.000
51.33010 448.000
51.35005 461.000
51.37000 465.000
51.38995 450.000
51.40989 466.000
51.42984 479.000
51.44979 443.000
51.46973 425.000
51.48968 440.000
51.50963 438.000
51.52957 451.000
51.54952 421.000
51.56947 435.000
51.58942 472.000
51.60936 412.000
51.62931 473.000
51.64926 455.000
51.66920 432.000
51.68915 410.000
51.70910 428.000
51.72904 439.000
51.74899 426.000
51.76894 413.000
51.78888 399.000
51.80883 414.000
51.82878 450.000
51.84873 410.000
51.86867 407.000
51.88862 437.000
51.90857 421.000
51.92851 436.000
51.94846 387.000
51.96841 467.000
51.98835 422.000
52.00830 384.000
52.02825 408.000
52.04820 423.000
52.06814 437.000
52.08809 419.000
52.10804 417.000
52.12798 429.000
52.14793 416.000
52.16788 440.000
52.18782 424.000
52.20777 441.000
52.22772 434.000
52.24767 446.000
52.26761 417.000
52.28756 394.000
52.30751 437.000
52.32745 441.000
52.34740 412.000
52.36735 452.000
52.38729 421.000
52.40724 443.000
52.42719 414.000
52.44713 419.000
52.46708 433.000
52.48703 400.000
52.50698 441.000
52.52692 428.000
52.54687 415.000
52.56682 448.000
52.58676 430.000
52.60671 441.000
52.62666 433.000
52.64660 429.000
52.66655 398.000
52.68650 418.000
52.70645 465.000
52.72639 443.000
52.74634 453.000
52.76629 405.000
52.78623 442.000
52.80618 448.000
52.82613 424.000
52.84607 417.000
52.86602 450.000
52.88597 432.000
52.90591 424.000
52.92586 455.000
52.94581 423.000
52.96576 430.000
52.98570 522.000
53.00565 432.000
53.02560 527.000
53.04554 460.000
53.06549 475.000
53.08544 507.000
53.10538 510.000
53.12533 533.000
53.14528 531.000
53.16523 573.000
53.18517 533.000
53.20512 556.000
53.22507 510.000
53.24501 511.000
53.26496 530.000
53.28491 519.000
53.30485 534.000
53.32480 495.000
53.34475 519.000
53.36469 553.000
53.38464 533.000
53.40459 530.000
53.42454 523.000
53.44448 589.000
53.46443 626.000
53.48438 695.000
53.50432 665.000
53.52427 643.000
53.54422 710.000
53.56416 620.000
53.58411 657.000
53.60406 656.000
53.62401 590.000
53.64395 584.000
53.66390 611.000
53.68385 561.000
53.70379 528.000
53.72374 556.000
53.74369 542.000
53.76363 506.000
53.78358 478.000
53.80353 493.000
53.82348 452.000
53.84342 457.000
53.86337 466.000
53.88332 402.000
53.90326 435.000
53.92321 420.000
53.94316 430.000
53.96310 407.000
53.98305 430.000
54.00300 457.000
54.02294 418.000
54.04289 422.000
54.06284 435.000
54.08279 458.000
54.10273 406.000
54.12268 420.000
54.14263 433.000
54.16257 451.000
54.18252 402.000
54.20247 409.000
54.22241 436.000
54.24236 389.000
54.26231 402.000
54.28226 450.000
54.30220 422.000
54.32215 427.000
54.34210 447.000
54.36204 411.000
54.38199 428.000
54.40194 444.000
54.42188 427.000
54.44183 408.000
54.46178 413.000
54.48172 438.000
54.50167 439.000
54.52162 399.000
54.54157 432.000
54.56151 395.000
54.58146 426.000
54.60141 435.000
54.62135 404.000
54.64130 405.000
54.66125 426.000
54.68119 433.000
54.70114 461.000
54.72109 468.000
54.74104 391.000
54.76098 394.000
54.78093 419.000
54.80088 440.000
54.82082 420.000
54.84077 445.000
54.86072 434.000
54.88066 386.000
54.90061 427.000
54.92056 436.000
54.94050 413.000
54.96045 457.000
54.98040 406.000
55.00035 443.000
55.02029 431.000
55.04024 438.000
55.06019 450.000
55.08013 412.000
55.10008 387.000
55.12003 422.000
55.13997 422.000
55.15992 400.000
55.17987 415.000
55.19982 400.000
55.21976 426.000
55.23971 412.000
55.25966 410.000
55.27960 397.000
55.29955 433.000
55.31950 409.000
55.33944 429.000
55.35939 423.000
55.37934 462.000
55.39929 445.000
55.41923 446.000
55.43918 452.000
55.45913 415.000
55.47907 410.000
55.49902 410.000
55.51897 417.000
55.53891 434.000
55.55886 448.000
55.57881 405.000
55.59875 426.000
55.61870 472.000
55.63865 440.000
55.65860 466.000
55.67854 415.000
55.69849 442.000
55.71844 445.000
55.73838 462.000
55.75833 410.000
55.77828 429.000
55.79822 426.000
55.81817 395.000
55.83812 408.000
55.85807 459.000
55.87801 409.000
55.89796 417.000
55.91791 406.000
55.93785 490.000
55.95780 430.000
55.97775 400.000
55.99769 429.000
56.01764 456.000
56.03759 424.000
56.05753 388.000
56.07748 420.000
56.09743 449.000
56.11738 429.000
56.13732 371.000
56.15727 454.000
56.17722 476.000
56.19716 442.000
56.21711 437.000
56.23706 474.000
56.25700 452.000
56.27695 445.000
56.29690 493.000
56.31685 454.000
56.33679 448.000
56.35674 462.000
56.37669 456.000
56.39663 496.000
56.41658 489.000
56.43653 476.000
56.45647 516.000
56.47642 516.000
56.49637 555.000
56.51631 569.000
56.53626 553.000
56.55621 633.000
56.57616 671.000
56.59610 684.000
56.61605 740.000
56.63600 733.000
56.65594 737.000
56.67589 733.000
56.69584 721.000
56.71578 711.000
56.73573 665.000
56.75568 674.000
56.77563 598.000
56.79557 611.000
56.81552 609.000
56.83547 601.000
56.85541 609.000
56.87536 595.000
56.89531 473.000
56.91525 492.000
56.93520 470.000
56.95515 478.000
56.97510 457.000
56.99504 464.000
57.01499 479.000
57.03494 455.000
57.05488 440.000
57.07483 465.000
57.09478 450.000
57.11472 466.000
57.13467 445.000
57.15462 447.000
57.17456 468.000
57.19451 438.000
57.21446 418.000
57.23441 446.000
57.25435 436.000
57.27430 462.000
57.29425 425.000
57.31419 450.000
57.33414 454.000
57.35409 468.000
57.37403 432.000
57.39398 465.000
57.41393 419.000
57.43388 421.000
57.45382 441.000
57.47377 388.000
57.49372 446.000
57.51366 443.000
57.53361 440.000
57.55356 417.000
57.57350 410.000
57.59345 424.000
57.61340 433.000
57.63334 417.000
57.65329 405.000
57.67324 452.000
57.69319 458.000
57.71313 433.000
57.73308 453.000
57.75303 410.000
57.77297 430.000
57.79292 425.000
57.81287 462.000
57.83281 458.000
57.85276 458.000
57.87271 498.000
57.89266 496.000
57.91260 493.000
57.93255 478.000
57.95250 476.000
57.97244 485.000
57.99239 497.000
58.01234 508.000
58.03228 476.000
58.05223 499.000
58.07218 505.000
58.09212 522.000
58.11207 560.000
58.13202 554.000
58.15197 635.000
58.17191 606.000
58.19186 619.000
58.21181 648.000
58.23175 764.000
58.25170 748.000
58.27165 837.000
58.29159 741.000
58.31154 830.000
58.33149 820.000
58.35144 752.000
58.37138 728.000
58.39133 713.000
58.41128 654.000
58.43122 616.000
58.45117 686.000
58.47112 654.000
58.49106 627.000
58.51101 578.000
58.53096 547.000
58.55090 538.000
58.57085 534.000
58.59080 513.000
58.61075 483.000
58.63069 481.000
58.65064 450.000
58.67059 425.000
58.69053 468.000
58.71048 461.000
58.73043 458.000
58.75037 414.000
58.77032 389.000
58.79027 418.000
58.81022 432.000
58.83016 444.000
58.85011 473.000
58.87006 440.000
58.89000 479.000
58.90995 453.000
58.92990 412.000
58.94984 474.000
58.96979 432.000
58.98974 492.000
59.00969 420.000
59.02963 406.000
59.04958 418.000
59.06953 443.000
59.08947 451.000
59.10942 442.000
59.12937 440.000
59.14931 441.000
59.16926 466.000
59.18921 452.000
59.20915 429.000
59.22910 454.000
59.24905 418.000
59.26900 433.000
59.28894 457.000
59.30889 408.000
59.32884 426.000
59.34878 426.000
59.36873 430.000
59.38868 457.000
59.40862 415.000
59.42857 447.000
59.44852 438.000
59.46847 422.000
59.48841 427.000
59.50836 449.000
59.52831 444.000
59.54825 436.000
59.56820 429.000
59.58815 437.000
59.60809 464.000
59.62804 436.000
59.64799 438.000
59.66793 427.000
59.68788 414.000
59.70783 430.000
59.72778 407.000
59.74772 446.000
59.76767 429.000
59.78762 400.000
59.80756 413.000
59.82751 464.000
59.84746 411.000
59.86740 464.000
59.88735 444.000
59.90730 427.000
59.92725 427.000
59.94719 435.000
59.96714 439.000
59.98709 400.000
60.00703 404.000
60.02698 453.000
60.04693 404.000
60.06687 458.000
60.08682 443.000
60.10677 422.000
60.12671 444.000
60.14666 407.000
60.16661 424.000
60.18656 419.000
60.20650 410.000
60.22645 405.000
60.24640 438.000
60.26634 412.000
60.28629 435.000
60.30624 413.000
60.32618 413.000
60.34613 454.000
60.36608 445.000
60.38603 469.000
60.40597 419.000
60.42592 452.000
60.44587 425.000
60.46581 434.000
60.48576 417.000
60.50571 422.000
60.52565 412.000
60.54560 389.000
60.56555 417.000
60.58550 450.000
60.60544 474.000
60.62539 465.000
60.64534 437.000
60.66528 442.000
60.68523 387.000
60.70518 441.000
60.72512 425.000
60.74507 441.000
60.76502 443.000
60.78496 456.000
60.80491 458.000
60.82486 414.000
60.84481 437.000
60.86475 471.000
60.88470 459.000
60.90465 446.000
60.92459 448.000
60.94454 511.000
60.96449 420.000
60.98443 474.000
61.00438 478.000
61.02433 464.000
61.04428 482.000
61.06422 496.000
61.08417 520.000
61.10412 475.000
61.12406 456.000
61.14401 451.000
61.16396 517.000
61.18390 485.000
61.20385 527.000
61.22380 502.000
61.24374 507.000
61.26369 503.000
61.28364 563.000
61.30359 567.000
61.32353 563.000
61.34348 552.000
61.36343 625.000
61.38337 606.000
61.40332 716.000
61.42327 688.000
61.44321 738.000
61.46316 807.000
61.48311 925.000
61.50306 1016.000
61.52300 1101.000
61.54295 1068.000
61.56290 1019.000
61.58284 956.000
61.60279 918.000
61.62274 816.000
61.64268 816.000
61.66263 873.000
61.68258 856.000
61.70252 863.000
61.72247 862.000
61.74242 805.000
61.76237 694.000
61.78231 682.000
61.80226 622.000
61.82221 630.000
61.84215 578.000
61.86210 548.000
61.88205 588.000
61.90199 606.000
61.92194 609.000
61.94189 547.000
61.96184 578.000
61.98178 528.000
62.00173 579.000
62.02168 615.000
62.04162 598.000
62.06157 626.000
62.08152 686.000
62.10146 704.000
62.12141 741.000
62.14136 789.000
62.16131 823.000
62.18125 860.000
62.20120 861.000
62.22115 919.000
62.24109 886.000
62.26104 790.000
62.28099 736.000
62.30093 683.000
62.32088 722.000
62.34083 680.000
62.36077 649.000
62.38072 676.000
62.40067 643.000
62.42062 607.000
62.44056 562.000
62.46051 532.000
62.48046 509.000
62.50040 532.000
62.52035 482.000
62.54030 465.000
62.56024 480.000
62.58019 481.000
62.60014 463.000
62.62009 488.000
62.64003 460.000
62.65998 456.000
62.67993 451.000
62.69987 451.000
62.71982 457.000
62.73977 452.000
62.75971 476.000
62.77966 469.000
62.79961 449.000
62.81955 403.000
62.83950 418.000
62.85945 442.000
62.87940 463.000
62.89934 470.000
62.91929 441.000
62.93924 439.000
62.95918 446.000
62.97913 424.000
62.99908 445.000
63.01902 461.000
63.03897 481.000
63.05892 446.000
63.07887 433.000
63.09881 402.000
63.11876 430.000
63.13871 410.000
63.15865 431.000
63.17860 414.000
63.19855 484.000
63.21849 432.000
63.23844 439.000
63.25839 438.000
63.27833 423.000
63.29828 472.000
63.31823 459.000
63.33818 449.000
63.35812 422.000
63.37807 424.000
63.39802 427.000
63.41796 418.000
63.43791 430.000
63.45786 408.000
63.47780 403.000
63.49775 449.000
63.51770 440.000
63.53765 410.000
63.55759 435.000
63.57754 419.000
63.59749 462.000
63.61743 439.000
63.63738 394.000
63.65733 444.000
63.67727 440.000
63.69722 457.000
63.71717 475.000
63.73712 450.000
63.75706 446.000
63.77701 434.000
63.79696 449.000
63.81690 440.000
63.83685 456.000
63.85680 467.000
63.87674 430.000
63.89669 476.000
63.91664 464.000
63.93658 458.000
63.95653 459.000
63.97648 435.000
63.99643 479.000
64.01637 480.000
64.03632 430.000
64.05627 434.000
64.07621 475.000
64.09616 469.000
64.11611 458.000
64.13605 441.000
64.15600 521.000
64.17595 466.000
64.19590 457.000
64.21584 461.000
64.23579 462.000
64.25574 490.000
64.27568 465.000
64.29563 443.000
64.31558 435.000
64.33552 471.000
64.35547 461.000
64.37542 490.000
64.39536 513.000
64.41531 468.000
64.43526 493.000
64.45521 498.000
64.47515 475.000
64.49510 445.000
64.51505 467.000
64.53499 447.000
64.55494 424.000
64.57489 425.000
64.59483 480.000
64.61478 488.000
64.63473 438.000
64.65468 439.000
64.67462 410.000
64.69457 449.000
64.71452 441.000
64.73446 414.000
64.75441 446.000
64.77436 411.000
64.79430 467.000
64.81425 422.000
64.83420 456.000
64.85414 406.000
64.87409 436.000
64.89404 422.000
64.91399 435.000
64.93393 459.000
64.95388 473.000
64.97383 435.000
64.99377 443.000
65.01372 490.000
65.03367 442.000
65.05361 429.000
65.07356 439.000
65.09351 477.000
65.11346 486.000
65.13340 460.000
65.15335 476.000
65.17330 464.000
65.19324 442.000
65.21319 475.000
65.23314 420.000
65.25308 456.000
65.27303 444.000
65.29298 472.000
65.31293 475.000
65.33287 459.000
65.35282 520.000
65.37277 465.000
65.39271 532.000
65.41266 517.000
65.43261 546.000
65.45255 511.000
65.47250 516.000
65.49245 503.000
65.51239 511.000
65.53234 508.000
65.55229 472.000
65.57224 502.000
65.59218 562.000
65.61213 542.000
65.63208 528.000
65.65202 580.000
65.67197 565.000
65.69192 610.000
65.71186 662.000
65.73181 641.000
65.75176 699.000
65.77171 709.000
65.79165 697.000
65.81160 702.000
65.83155 757.000
65.85149 769.000
65.87144 755.000
65.89139 740.000
65.91133 751.000
65.93128 758.000
65.95123 762.000
65.97117 723.000
65.99112 735.000
66.01107 721.000
66.03102 738.000
66.05096 787.000
66.07091 748.000
66.09086 747.000
66.11080 750.000
66.13075 833.000
66.15070 892.000
66.17064 959.000
66.19059 984.000
66.21054 914.000
66.23049 908.000
66.25043 867.000
66.27038 772.000
66.29033 802.000
66.31027 721.000
66.33022 721.000
66.35017 744.000
66.37011 713.000
66.39006 765.000
66.41001 734.000
66.42995 730.000
66.44990 673.000
66.46985 603.000
66.48980 625.000
66.50974 599.000
66.52969 594.000
66.54964 569.000
66.56958 531.000
66.58953 498.000
66.60948 512.000
66.62942 539.000
66.64937 548.000
66.66932 494.000
66.68927 492.000
66.70921 479.000
66.72916 460.000
66.74911 498.000
66.76905 489.000
66.78900 495.000
66.80895 511.000
66.82889 472.000
66.84884 460.000
66.86879 447.000
66.88874 449.000
66.90868 454.000
66.92863 475.000
66.94858 495.000
66.96852 459.000
66.98847 471.000
67.00842 493.000
67.02836 469.000
67.04831 430.000
67.06826 485.000
67.08820 458.000
67.10815 461.000
67.12810 436.000
67.14805 455.000
67.16799 446.000
67.18794 463.000
67.20789 437.000
67.22783 505.000
67.24778 469.000
67.26773 470.000
67.28767 448.000
67.30762 476.000
67.32757 501.000
67.34752 471.000
67.36746 487.000
67.38741 462.000
67.40736 438.000
67.42730 490.000
67.44725 452.000
67.46720 496.000
67.48714 466.000
67.50709 429.000
67.52704 462.000
67.54698 494.000
67.56693 477.000
67.58688 499.000
67.60683 510.000
67.62677 491.000
67.64672 501.000
67.66667 505.000
67.68661 504.000
67.70656 481.000
67.72651 527.000
67.74645 541.000
67.76640 519.000
67.78635 515.000
67.80630 574.000
67.82624 629.000
67.84619 654.000
67.86614 650.000
67.88608 680.000
67.90603 735.000
67.92598 738.000
67.94592 724.000
67.96587 697.000
67.98582 772.000
68.00576 742.000
68.02571 773.000
68.04566 815.000
68.06561 793.000
68.08555 852.000
68.10550 858.000
68.12545 906.000
68.14539 874.000
68.16534 812.000
68.18529 756.000
68.20523 698.000
68.22518 712.000
68.24513 662.000
68.26508 633.000
68.28502 698.000
68.30497 662.000
68.32492 627.000
68.34486 617.000
68.36481 563.000
68.38476 528.000
68.40470 521.000
68.42465 523.000
68.44460 489.000
68.46455 490.000
68.48449 489.000
68.50444 483.000
68.52439 440.000
68.54433 441.000
68.56428 440.000
68.58423 429.000
68.60417 484.000
68.62412 469.000
68.64407 460.000
68.66401 425.000
68.68396 442.000
68.70391 454.000
68.72386 430.000
68.74380 462.000
68.76375 412.000
68.78370 448.000
68.80364 457.000
68.82359 456.000
68.84354 434.000
68.86348 435.000
68.88343 439.000
68.90338 451.000
68.92333 467.000
68.94327 432.000
68.96322 413.000
68.98317 406.000
69.00311 480.000
69.02306 401.000
69.04301 454.000
69.06295 425.000
69.08290 457.000
69.10285 447.000
69.12279 456.000
69.14274 449.000
69.16269 455.000
69.18264 445.000
69.20258 428.000
69.22253 375.000
69.24248 400.000
69.26242 443.000
69.28237 389.000
69.30232 469.000
69.32226 426.000
69.34221 454.000
69.36216 423.000
69.38211 428.000
69.40205 455.000
69.42200 408.000
69.44195 383.000
69.46189 416.000
69.48184 437.000
69.50179 438.000
69.52173 422.000
69.54168 422.000
69.56163 451.000
69.58157 425.000
69.60152 472.000
69.62147 428.000
69.64142 473.000
69.66136 416.000
69.68131 411.000
69.70126 407.000
69.72120 446.000
69.74115 461.000
69.76110 408.000
69.78104 430.000
69.80099 408.000
69.82094 429.000
69.84089 418.000
69.86083 440.000
69.88078 391.000
69.90073 432.000
69.92067 429.000
69.94062 429.000
69.96057 447.000
69.98051 424.000
70.00046 428.000
70.02041 437.000
70.04035 373.000
70.06030 402.000
70.08025 437.000
70.10020 439.000
70.12014 394.000
70.14009 436.000
70.16004 403.000
70.17998 449.000
70.19993 449.000
70.21988 410.000
70.23982 426.000
70.25977 408.000
70.27972 433.000
70.29967 411.000
70.31961 433.000
70.33956 421.000
70.35951 453.000
70.37945 430.000
70.39940 419.000
70.41935 442.000
70.43929 423.000
70.45924 446.000
70.47919 438.000
70.49914 408.000
70.51908 434.000
70.53903 451.000
70.55898 452.000
70.57892 461.000
70.59887 427.000
70.61882 429.000
70.63876 470.000
70.65871 412.000
70.67866 433.000
70.69860 461.000
70.71855 402.000
70.73850 411.000
70.75845 448.000
70.77839 419.000
70.79834 446.000
70.81829 453.000
70.83823 429.000
70.85818 419.000
70.87813 418.000
70.89807 418.000
70.91802 399.000
70.93797 468.000
70.95792 396.000
70.97786 421.000
70.99781 428.000
71.01776 414.000
71.03770 436.000
71.05765 424.000
71.07760 413.000
71.09754 408.000
71.11749 421.000
71.13744 431.000
71.15738 410.000
71.17733 410.000
71.19728 425.000
71.21723 409.000
71.23717 420.000
71.25712 426.000
71.27707 446.000
71.29701 438.000
71.31696 400.000
71.33691 421.000
71.35685 407.000
71.37680 432.000
71.39675 444.000
71.41670 419.000
71.43664 427.000
71.45659 424.000
71.47654 414.000
71.49648 397.000
71.51643 420.000
71.53638 394.000
71.55632 421.000
71.57627 455.000
71.59622 384.000
71.61616 434.000
71.63611 436.000
71.65606 427.000
71.67601 451.000
71.69595 423.000
71.71590 496.000
71.73585 409.000
71.75579 422.000
71.77574 458.000
71.79569 431.000
71.81563 490.000
71.83558 464.000
71.85553 422.000
71.87548 429.000
71.89542 448.000
71.91537 426.000
71.93532 410.000
71.95526 449.000
71.97521 437.000
71.99516 405.000
72.01510 468.000
72.03505 459.000
72.05500 460.000
72.07495 427.000
72.09489 436.000
72.11484 401.000
72.13479 439.000
72.15473 478.000
72.17468 462.000
72.19463 459.000
72.21457 485.000
72.23452 505.000
72.25447 526.000
72.27441 536.000
72.29436 546.000
72.31431 598.000
72.33426 582.000
72.35420 600.000
72.37415 636.000
72.39410 617.000
72.41404 589.000
72.43399 618.000
72.45394 568.000
72.47388 571.000
72.49383 542.000
72.51378 558.000
72.53373 551.000
72.55367 573.000
72.57362 559.000
72.59357 503.000
72.61351 542.000
72.63346 506.000
72.65341 496.000
72.67335 451.000
72.69330 483.000
72.71325 498.000
72.73319 440.000
72.75314 456.000
72.77309 457.000
72.79304 445.000
72.81298 459.000
72.83293 465.000
72.85288 426.000
72.87282 426.000
72.89277 435.000
72.91272 476.000
72.93266 438.000
72.95261 467.000
72.97256 424.000
72.99251 461.000
73.01245 449.000
73.03240 442.000
73.05235 429.000
73.07229 458.000
73.09224 442.000
73.11219 460.000
73.13213 403.000
73.15208 447.000
73.17203 434.000
73.19197 437.000
73.21192 425.000
73.23187 434.000
73.25182 440.000
73.27176 481.000
73.29171 417.000
73.31166 428.000
73.33160 426.000
73.35155 474.000
73.37150 445.000
73.39144 442.000
73.41139 472.000
73.43134 481.000
73.45129 397.000
73.47123 482.000
73.49118 500.000
73.51113 511.000
73.53107 482.000
73.55102 550.000
73.57097 524.000
73.59091 526.000
73.61086 494.000
73.63081 507.000
73.65076 464.000
73.67070 442.000
73.69065 462.000
73.71060 518.000
73.73054 491.000
73.75049 483.000
73.77044 479.000
73.79038 487.000
73.81033 441.000
73.83028 471.000
73.85022 448.000
73.87017 426.000
73.89012 416.000
73.91007 418.000
73.93001 439.000
73.94996 411.000
73.96991 407.000
73.98985 460.000
74.00980 432.000
74.02975 437.000
74.04969 419.000
74.06964 462.000
74.08959 418.000
74.10954 426.000
74.12948 438.000
74.14943 417.000
74.16938 445.000
74.18932 431.000
74.20927 443.000
74.22922 456.000
74.24916 408.000
74.26911 441.000
74.28906 394.000
74.30900 440.000
74.32895 449.000
74.34890 442.000
74.36885 458.000
74.38879 466.000
74.40874 456.000
74.42869 440.000
74.44863 431.000
74.46858 443.000
74.48853 467.000
74.50847 506.000
74.52842 463.000
74.54837 471.000
74.56832 467.000
74.58826 478.000
74.60821 479.000
74.62816 465.000
74.64810 453.000
74.66805 478.000
74.68800 455.000
74.70794 521.000
74.72789 494.000
74.74784 463.000
74.76778 480.000
74.78773 457.000
74.80768 490.000
74.82763 512.000
74.84757 515.000
74.86752 511.000
74.88747 548.000
74.90741 516.000
74.92736 550.000
74.94731 578.000
74.96725 616.000
74.98720 662.000
75.00715 618.000
75.02710 610.000
75.04704 646.000
75.06699 582.000
75.08694 575.000
75.10688 551.000
75.12683 562.000
75.14678 611.000
75.16672 620.000
75.18667 629.000
75.20662 622.000
75.22657 658.000
75.24651 722.000
75.26646 609.000
75.28641 627.000
75.30635 564.000
75.32630 517.000
75.34625 578.000
75.36619 542.000
75.38614 622.000
75.40609 546.000
75.42603 525.000
75.44598 540.000
75.46593 533.000
75.48588 514.000
75.50582 513.000
75.52577 511.000
75.54572 472.000
75.56566 503.000
75.58561 456.000
75.60556 449.000
75.62550 497.000
75.64545 442.000
75.66540 449.000
75.68535 432.000
75.70529 454.000
75.72524 405.000
75.74519 427.000
75.76513 459.000
75.78508 418.000
75.80503 431.000
75.82497 405.000
75.84492 449.000
75.86487 439.000
75.88481 458.000
75.90476 425.000
75.92471 420.000
75.94466 445.000
75.96460 444.000
75.98455 396.000
76.00450 371.000
76.02444 411.000
76.04439 409.000
76.06434 431.000
76.08428 406.000
76.10423 383.000
76.12418 412.000
76.14413 425.000
76.16407 432.000
76.18402 373.000
76.20397 447.000
76.22391 429.000
76.24386 402.000
76.26381 451.000
76.28375 407.000
76.30370 433.000
76.32365 451.000
76.34359 445.000
76.36354 415.000
76.38349 408.000
76.40344 394.000
76.42338 430.000
76.44333 418.000
76.46328 438.000
76.48322 428.000
76.50317 470.000
76.52312 453.000
76.54306 409.000
76.56301 468.000
76.58296 426.000
76.60291 406.000
76.62285 410.000
76.64280 447.000
76.66275 440.000
76.68269 450.000
76.70264 395.000
76.72259 431.000
76.74253 420.000
76.76248 408.000
76.78243 444.000
76.80238 379.000
76.82232 432.000
76.84227 405.000
76.86222 422.000
76.88216 393.000
76.90211 360.000
76.92206 428.000
76.94200 439.000
76.96195 419.000
76.98190 442.000
77.00184 461.000
77.02179 404.000
77.04174 468.000
77.06169 424.000
77.08163 443.000
77.10158 392.000
77.12153 421.000
77.14147 441.000
77.16142 400.000
77.18137 390.000
77.20131 434.000
77.22126 442.000
77.24121 397.000
77.26116 428.000
77.28110 431.000
77.30105 408.000
77.32100 428.000
77.34094 433.000
77.36089 416.000
77.38084 420.000
77.40078 441.000
77.42073 408.000
77.44068 440.000
77.46062 424.000
77.48057 413.000
77.50052 439.000
77.52047 453.000
77.54041 417.000
77.56036 430.000
77.58031 433.000
77.60025 430.000
77.62020 446.000
77.64015 411.000
77.66009 461.000
77.68004 435.000
77.69999 440.000
77.71994 453.000
77.73988 453.000
77.75983 464.000
77.77978 424.000
77.79972 449.000
77.81967 446.000
77.83962 449.000
77.85956 428.000
77.87951 454.000
77.89946 465.000
77.91940 447.000
77.93935 395.000
77.95930 417.000
77.97925 451.000
77.99919 449.000
78.01914 438.000
78.03909 417.000
78.05903 440.000
78.07898 477.000
78.09893 446.000
78.11887 438.000
78.13882 437.000
78.15877 398.000
78.17872 449.000
78.19866 432.000
78.21861 409.000
78.23856 417.000
78.25850 449.000
78.27845 427.000
78.29840 368.000
78.31834 439.000
78.33829 427.000
78.35824 445.000
78.37819 403.000
78.39813 453.000
78.41808 457.000
78.43803 458.000
78.45797 455.000
78.47792 457.000
78.49787 433.000
78.51781 437.000
78.53776 451.000
78.55771 443.000
78.57765 448.000
78.59760 435.000
78.61755 423.000
78.63750 433.000
78.65744 441.000
78.67739 430.000
78.69734 434.000
78.71728 430.000
78.73723 447.000
78.75718 436.000
78.77712 416.000
78.79707 411.000
78.81702 452.000
78.83697 453.000
78.85691 440.000
78.87686 381.000
78.89681 433.000
78.91675 467.000
78.93670 396.000
78.95665 424.000
78.97659 439.000
78.99654 395.000
79.01649 408.000
79.03643 436.000
79.05638 382.000
79.07633 371.000
79.09628 423.000
79.11622 434.000
79.13617 414.000
79.15612 379.000
79.17606 405.000
79.19601 420.000
79.21596 445.000
79.23590 437.000
79.25585 448.000
79.27580 391.000
79.29575 416.000
79.31569 396.000
79.33564 409.000
79.35559 402.000
79.37553 406.000
79.39548 419.000
79.41543 398.000
79.43537 435.000
79.45532 406.000
79.47527 444.000
79.49521 421.000
79.51516 417.000
79.53511 427.000
79.55506 404.000
79.57500 433.000
79.59495 417.000
79.61490 414.000
79.63484 397.000
79.65479 440.000
79.67474 466.000
79.69468 418.000
79.71463 424.000
79.73458 439.000
79.75453 436.000
79.77447 422.000
79.79442 408.000
79.81437 428.000
79.83431 429.000
79.85426 459.000
79.87421 427.000
79.89415 415.000
79.91410 438.000
79.93405 407.000
79.95399 415.000
79.97394 400.000
79.99389 418.000
80.01384 421.000
80.03378 482.000
80.05373 420.000
80.07368 460.000
80.09362 464.000
80.11357 485.000
80.13352 491.000
80.15346 507.000
80.17341 495.000
80.19336 512.000
80.21331 473.000
80.23325 451.000
80.25320 435.000
80.27315 415.000
80.29309 439.000
80.31304 435.000
80.33299 436.000
80.35293 513.000
80.37288 453.000
80.39283 460.000
80.41278 499.000
80.43272 463.000
80.45267 458.000
80.47262 422.000
80.49256 424.000
80.51251 429.000
80.53246 408.000
80.55240 397.000
80.57235 441.000
80.59230 394.000
80.61224 431.000
80.63219 447.000
80.65214 425.000
80.67209 449.000
80.69203 393.000
80.71198 393.000
80.73193 426.000
80.75187 443.000
80.77182 405.000
80.79177 408.000
80.81171 453.000
80.83166 438.000
80.85161 436.000
80.87156 435.000
80.89150 433.000
80.91145 451.000
80.93140 435.000
80.95134 411.000
80.97129 390.000
80.99124 429.000
81.01118 414.000
81.03113 443.000
81.05108 414.000
81.07102 444.000
81.09097 403.000
81.11092 388.000
81.13087 436.000
81.15081 462.000
81.17076 409.000
81.19071 418.000
81.21065 424.000
81.23060 432.000
81.25055 395.000
81.27049 433.000
81.29044 417.000
81.31039 425.000
81.33034 438.000
81.35028 451.000
81.37023 398.000
81.39018 410.000
81.41012 425.000
81.43007 430.000
81.45002 423.000
81.46996 453.000
81.48991 446.000
81.50986 438.000
81.52980 430.000
81.54975 438.000
81.56970 413.000
81.58965 424.000
81.60959 415.000
81.62954 410.000
81.64949 463.000
81.66943 452.000
81.68938 440.000
81.70933 440.000
81.72927 402.000
81.74922 438.000
81.76917 447.000
81.78912 412.000
81.80906 422.000
81.82901 428.000
81.84896 417.000
81.86890 404.000
81.88885 439.000
81.90880 451.000
81.92874 465.000
81.94869 463.000
81.96864 420.000
81.98859 429.000
82.00853 448.000
82.02848 429.000
82.04843 483.000
82.06837 439.000
82.08832 447.000
82.10827 450.000
82.12821 474.000
82.14816 481.000
82.16811 462.000
82.18805 482.000
82.20800 475.000
82.22795 499.000
82.24790 505.000
82.26784 504.000
82.28779 535.000
82.30774 546.000
82.32768 510.000
82.34763 510.000
82.36758 490.000
82.38752 455.000
82.40747 468.000
82.42742 474.000
82.44737 550.000
82.46731 471.000
82.48726 473.000
82.50721 468.000
82.52715 501.000
82.54710 469.000
82.56705 477.000
82.58699 498.000
82.60694 456.000
82.62689 472.000
82.64683 453.000
82.66678 455.000
82.68673 453.000
82.70668 470.000
82.72662 428.000
82.74657 450.000
82.76652 463.000
82.78646 451.000
82.80641 460.000
82.82636 437.000
82.84630 451.000
82.86625 460.000
82.88620 472.000
82.90615 437.000
82.92609 448.000
82.94604 440.000
82.96599 507.000
82.98593 487.000
83.00588 520.000
83.02583 540.000
83.04577 538.000
83.06572 518.000
83.08567 531.000
83.10561 499.000
83.12556 507.000
83.14551 497.000
83.16546 454.000
83.18540 504.000
83.20535 496.000
83.22530 501.000
83.24524 488.000
83.26519 508.000
83.28514 498.000
83.30508 533.000
83.32503 470.000
83.34498 501.000
83.36493 495.000
83.38487 507.000
83.40482 518.000
83.42477 453.000
83.44471 520.000
83.46466 533.000
83.48461 557.000
83.50455 514.000
83.52450 513.000
83.54445 475.000
83.56440 504.000
83.58434 496.000
83.60429 490.000
83.62424 491.000
83.64418 509.000
83.66413 480.000
83.68408 482.000
83.70402 500.000
83.72397 500.000
83.74392 508.000
83.76386 459.000
83.78381 485.000
83.80376 490.000
83.82371 500.000
83.84365 463.000
83.86360 470.000
83.88355 478.000
83.90349 477.000
83.92344 435.000
83.94339 428.000
83.96333 421.000
83.98328 455.000
84.00323 437.000
84.02318 439.000
84.04312 454.000
84.06307 453.000
84.08302 434.000
84.10296 414.000
84.12291 474.000
84.14286 462.000
84.16280 435.000
84.18275 437.000
84.20270 414.000
84.22264 459.000
84.24259 424.000
84.26254 476.000
84.28249 413.000
84.30243 422.000
84.32238 423.000
84.34233 430.000
84.36227 402.000
84.38222 424.000
84.40217 397.000
84.42211 447.000
84.44206 471.000
84.46201 426.000
84.48196 466.000
84.50190 454.000
84.52185 436.000
84.54180 438.000
84.56174 423.000
84.58169 423.000
84.60164 421.000
84.62158 425.000
84.64153 444.000
84.66148 396.000
84.68142 399.000
84.70137 428.000
84.72132 433.000
84.74127 424.000
84.76121 422.000
84.78116 443.000
84.80111 467.000
84.82105 415.000
84.84100 397.000
84.86095 409.000
84.88089 407.000
84.90084 428.000
84.92079 462.000
84.94074 421.000
84.96068 437.000
84.98063 431.000
85.00058 471.000
85.02052 412.000
85.04047 421.000
85.06042 430.000
85.08036 407.000
85.10031 432.000
85.12026 474.000
85.14021 429.000
85.16015 420.000
85.18010 437.000
85.20005 381.000
85.21999 415.000
85.23994 425.000
85.25989 411.000
85.27983 416.000
85.29978 418.000
85.31973 438.000
85.33967 428.000
85.35962 438.000
85.37957 404.000
85.39952 450.000
85.41946 448.000
85.43941 427.000
85.45936 467.000
85.47930 423.000
85.49925 410.000
85.51920 399.000
85.53914 445.000
85.55909 408.000
85.57904 457.000
85.59899 449.000
85.61893 443.000
85.63888 403.000
85.65883 393.000
85.67877 439.000
85.69872 426.000
85.71867 387.000
85.73861 417.000
85.75856 441.000
85.77851 417.000
85.79845 422.000
85.81840 418.000
85.83835 409.000
85.85830 427.000
85.87824 363.000
85.89819 437.000
85.91814 437.000
85.93808 441.000
85.95803 480.000
85.97798 420.000
85.99792 426.000
86.01787 441.000
86.03782 401.000
86.05777 441.000
86.07771 461.000
86.09766 466.000
86.11761 439.000
86.13755 484.000
86.15750 446.000
86.17745 435.000
86.19739 460.000
86.21734 449.000
86.23729 458.000
86.25723 441.000
86.27718 470.000
86.29713 423.000
86.31708 433.000
86.33702 485.000
86.35697 422.000
86.37692 440.000
86.39686 440.000
86.41681 452.000
86.43676 478.000
86.45670 470.000
86.47665 462.000
86.49660 469.000
86.51655 436.000
86.53649 489.000
86.55644 444.000
86.57639 448.000
86.59633 421.000
86.61628 469.000
86.63623 451.000
86.65617 443.000
86.67612 449.000
86.69607 475.000
86.71602 447.000
86.73596 440.000
86.75591 421.000
86.77586 402.000
86.79580 436.000
86.81575 444.000
86.83570 449.000
86.85564 449.000
86.87559 412.000
86.89554 408.000
86.91548 428.000
86.93543 393.000
86.95538 433.000
86.97533 425.000
86.99527 426.000
87.01522 440.000
87.03517 468.000
87.05511 440.000
87.07506 424.000
87.09501 386.000
87.11495 456.000
87.13490 411.000
87.15485 451.000
87.17480 412.000
87.19474 402.000
87.21469 439.000
87.23464 405.000
87.25458 427.000
87.27453 418.000
87.29448 424.000
87.31442 428.000
87.33437 444.000
87.35432 424.000
87.37426 437.000
87.39421 451.000
87.41416 438.000
87.43411 459.000
87.45405 480.000
87.47400 396.000
87.49395 448.000
87.51389 416.000
87.53384 429.000
87.55379 435.000
87.57373 419.000
87.59368 444.000
87.61363 396.000
87.63358 412.000
87.65352 440.000
87.67347 402.000
87.69342 416.000
87.71336 446.000
87.73331 395.000
87.75326 405.000
87.77320 469.000
87.79315 408.000
87.81310 434.000
87.83304 387.000
87.85299 392.000
87.87294 416.000
87.89289 449.000
87.91283 399.000
87.93278 444.000
87.95273 404.000
87.97267 404.000
87.99262 392.000
88.01257 402.000
88.03251 413.000
88.05246 424.000
88.07241 426.000
88.09236 438.000
88.11230 426.000
88.13225 405.000
88.15220 405.000
88.17214 434.000
88.19209 405.000
88.21204 410.000
88.23198 414.000
88.25193 418.000
88.27188 435.000
88.29183 450.000
88.31177 446.000
88.33172 413.000
88.35167 404.000
88.37161 408.000
88.39156 437.000
88.41151 408.000
88.43145 406.000
88.45140 436.000
88.47135 405.000
88.49129 364.000
88.51124 426.000
88.53119 396.000
88.55114 417.000
88.57108 436.000
88.59103 399.000
88.61098 432.000
88.63092 413.000
88.65087 430.000
88.67082 449.000
88.69076 406.000
88.71071 412.000
88.73066 399.000
88.75061 420.000
88.77055 482.000
88.79050 452.000
88.81045 447.000
88.83039 404.000
88.85034 411.000
88.87029 513.000
88.89023 473.000
88.91018 466.000
88.93013 523.000
88.95007 484.000
88.97002 492.000
88.98997 501.000
89.00992 514.000
89.02986 523.000
89.04981 501.000
89.06976 486.000
89.08970 510.000
89.10965 517.000
89.12960 490.000
89.14954 485.000
89.16949 510.000
89.18944 487.000
89.20939 464.000
89.22933 457.000
89.24928 486.000
89.26923 471.000
89.28917 468.000
89.30912 474.000
89.32907 474.000
89.34901 458.000
89.36896 466.000
89.38891 489.000
89.40885 475.000
89.42880 494.000
89.44875 464.000
89.46870 436.000
89.48864 494.000
89.50859 484.000
89.52854 471.000
89.54848 458.000
89.56843 480.000
89.58838 417.000
89.60832 479.000
89.62827 452.000
89.64822 487.000
89.66817 458.000
89.68811 499.000
89.70806 464.000
89.72801 541.000
89.74795 483.000
89.76790 490.000
89.78785 513.000
89.80779 468.000
89.82774 465.000
89.84769 498.000
89.86764 476.000
89.88758 496.000
89.90753 470.000
89.92748 469.000
89.94742 514.000
89.96737 472.000
89.98732 470.000
90.00726 461.000
