10.00000 90.000
10.01995 90.000
10.03989 89.000
10.05984 104.000
10.07979 95.000
10.09973 96.000
10.11968 101.000
10.13963 91.000
10.15958 78.000
10.17952 84.000
10.19947 107.000
10.21942 95.000
10.23936 98.000
10.25931 69.000
10.27926 90.000
10.29920 91.000
10.31915 120.000
10.33910 90.000
10.35905 91.000
10.37899 100.000
10.39894 97.000
10.41889 94.000
10.43883 84.000
10.45878 97.000
10.47873 106.000
10.49867 85.000
10.51862 72.000
10.53857 97.000
10.55851 109.000
10.57846 93.000
10.59841 98.000
10.61836 104.000
10.63830 85.000
10.65825 112.000
10.67820 87.000
10.69814 93.000
10.71809 99.000
10.73804 90.000
10.75798 90.000
10.77793 95.000
10.79788 94.000
10.81783 80.000
10.83777 98.000
10.85772 98.000
10.87767 93.000
10.89761 104.000
10.91756 88.000
10.93751 88.000
10.95745 98.000
10.97740 86.000
10.99735 97.000
11.01730 103.000
11.03724 95.000
11.05719 101.000
11.07714 101.000
11.09708 83.000
11.11703 98.000
11.13698 81.000
11.15692 85.000
11.17687 88.000
11.19682 87.000
11.21676 85.000
11.23671 88.000
11.25666 82.000
11.27661 104.000
11.29655 91.000
11.31650 98.000
11.33645 88.000
11.35639 97.000
11.37634 91.000
11.39629 95.000
11.41623 82.000
11.43618 106.000
11.45613 93.000
11.47608 81.000
11.49602 88.000
11.51597 85.000
11.53592 87.000
11.55586 74.000
11.57581 93.000
11.59576 101.000
11.61570 81.000
11.63565 93.000
11.65560 85.000
11.67554 90.000
11.69549 92.000
11.71544 83.000
11.73539 78.000
11.75533 82.000
11.77528 94.000
11.79523 77.000
11.81517 97.000
11.83512 95.000
11.85507 75.000
11.87501 95.000
11.89496 74.000
11.91491 93.000
11.93486 80.000
11.95480 92.000
11.97475 86.000
11.99470 76.000
12.01464 92.000
12.03459 83.000
12.05454 90.000
12.07448 84.000
12.09443 86.000
12.11438 89.000
12.13432 89.000
12.15427 68.000
12.17422 101.000
12.19417 100.000
12.21411 90.000
12.23406 89.000
12.25401 76.000
12.27395 77.000
12.29390 86.000
12.31385 81.000
12.33379 88.000
12.35374 76.000
12.37369 94.000
12.39364 102.000
12.41358 85.000
12.43353 84.000
12.45348 72.000
12.47342 89.000
12.49337 81.000
12.51332 97.000
12.53326 85.000
12.55321 74.000
12.57316 83.000
12.59311 92.000
12.61305 85.000
12.63300 92.000
12.65295 91.000
12.67289 85.000
12.69284 81.000
12.71279 71.000
12.73273 78.000
12.75268 86.000
12.77263 89.000
12.79257 97.000
12.81252 92.000
12.83247 84.000
12.85242 70.000
12.87236 76.000
12.89231 106.000
12.91226 79.000
12.93220 76.000
12.95215 84.000
12.97210 87.000
12.99204 87.000
13.01199 68.000
13.03194 91.000
13.05189 94.000
13.07183 93.000
13.09178 86.000
13.11173 79.000
13.13167 99.000
13.15162 90.000
13.17157 90.000
13.19151 90.000
13.21146 94.000
13.23141 84.000
13.25135 84.000
13.27130 76.000
13.29125 72.000
13.31120 88.000
13.33114 86.000
13.35109 102.000
13.37104 99.000
13.39098 83.000
13.41093 92.000
13.43088 81.000
13.45082 83.000
13.47077 99.000
13.49072 74.000
13.51067 60.000
13.53061 90.000
13.55056 108.000
13.57051 93.000
13.59045 87.000
13.61040 97.000
13.63035 92.000
13.65029 79.000
13.67024 105.000
13.69019 81.000
13.71013 93.000
13.73008 95.000
13.75003 74.000
13.76998 94.000
13.78992 113.000
13.80987 80.000
13.82982 96.000
13.84976 91.000
13.86971 91.000
13.88966 93.000
13.90960 98.000
13.92955 93.000
13.94950 88.000
13.96945 110.000
13.98939 77.000
14.00934 96.000
14.02929 92.000
14.04923 86.000
14.06918 112.000
14.08913 88.000
14.10907 109.000
14.12902 88.000
14.14897 78.000
14.16892 91.000
14.18886 98.000
14.20881 105.000
14.22876 95.000
14.24870 87.000
14.26865 99.000
14.28860 97.000
14.30854 118.000
14.32849 98.000
14.34844 102.000
14.36838 115.000
14.38833 107.000
14.40828 103.000
14.42823 98.000
14.44817 116.000
14.46812 103.000
14.48807 122.000
14.50801 120.000
14.52796 127.000
14.54791 133.000
14.56785 115.000
14.58780 128.000
14.60775 147.000
14.62770 150.000
14.64764 165.000
14.66759 152.000
14.68754 150.000
14.70748 143.000
14.72743 139.000
14.74738 141.000
14.76732 161.000
14.78727 132.000
14.80722 138.000
14.82716 124.000
14.84711 127.000
14.86706 132.000
14.88701 125.000
14.90695 87.000
14.92690 107.000
14.94685 110.000
14.96679 91.000
14.98674 111.000
15.00669 109.000
15.02663 118.000
15.04658 87.000
15.06653 94.000
15.08648 102.000
15.10642 109.000
15.12637 100.000
15.14632 100.000
15.16626 98.000
15.18621 102.000
15.20616 96.000
15.22610 103.000
15.24605 103.000
15.26600 96.000
15.28594 95.000
15.30589 103.000
15.32584 107.000
15.34579 110.000
15.36573 101.000
15.38568 71.000
15.40563 112.000
15.42557 85.000
15.44552 96.000
15.46547 94.000
15.48541 113.000
15.50536 104.000
15.52531 77.000
15.54526 97.000
15.56520 102.000
15.58515 84.000
15.60510 102.000
15.62504 103.000
15.64499 82.000
15.66494 86.000
15.68488 93.000
15.70483 106.000
15.72478 90.000
15.74472 91.000
15.76467 108.000
15.78462 79.000
15.80457 100.000
15.82451 85.000
15.84446 89.000
15.86441 87.000
15.88435 88.000
15.90430 92.000
15.92425 84.000
15.94419 102.000
15.96414 105.000
15.98409 118.000
16.00404 97.000
16.02398 125.000
16.04393 87.000
16.06388 85.000
16.08382 100.000
16.10377 107.000
16.12372 78.000
16.14366 95.000
16.16361 88.000
16.18356 84.000
16.20351 96.000
16.22345 97.000
16.24340 99.000
16.26335 112.000
16.28329 100.000
16.30324 89.000
16.32319 109.000
16.34313 100.000
16.36308 85.000
16.38303 94.000
16.40297 101.000
16.42292 121.000
16.44287 96.000
16.46282 91.000
16.48276 97.000
16.50271 92.000
16.52266 87.000
16.54260 87.000
16.56255 100.000
16.58250 86.000
16.60244 81.000
16.62239 106.000
16.64234 93.000
16.66229 81.000
16.68223 104.000
16.70218 94.000
16.72213 85.000
16.74207 114.000
16.76202 115.000
16.78197 112.000
16.80191 102.000
16.82186 105.000
16.84181 93.000
16.86175 100.000
16.88170 98.000
16.90165 111.000
16.92160 96.000
16.94154 116.000
16.96149 120.000
16.98144 97.000
17.00138 114.000
17.02133 122.000
17.04128 106.000
17.06122 100.000
17.08117 128.000
17.10112 125.000
17.12107 135.000
17.14101 122.000
17.16096 113.000
17.18091 121.000
17.20085 115.000
17.22080 121.000
17.24075 115.000
17.26069 107.000
17.28064 124.000
17.30059 140.000
17.32053 123.000
17.34048 120.000
17.36043 116.000
17.38038 94.000
17.40032 101.000
17.42027 93.000
17.44022 108.000
17.46016 105.000
17.48011 118.000
17.50006 110.000
17.52000 116.000
17.53995 119.000
17.55990 121.000
17.57985 106.000
17.59979 99.000
17.61974 94.000
17.63969 99.000
17.65963 104.000
17.67958 88.000
17.69953 95.000
17.71947 109.000
17.73942 97.000
17.75937 85.000
17.77932 104.000
17.79926 91.000
17.81921 117.000
17.83916 107.000
17.85910 101.000
17.87905 96.000
17.89900 111.000
17.91894 119.000
17.93889 111.000
17.95884 94.000
17.97878 103.000
17.99873 118.000
18.01868 98.000
18.03863 116.000
18.05857 113.000
18.07852 122.000
18.09847 120.000
18.11841 109.000
18.13836 104.000
18.15831 107.000
18.17825 108.000
18.19820 104.000
18.21815 125.000
18.23810 119.000
18.25804 132.000
18.27799 130.000
18.29794 142.000
18.31788 173.000
18.33783 205.000
18.35778 232.000
18.37772 233.000
18.39767 236.000
18.41762 223.000
18.43756 203.000
18.45751 177.000
18.47746 153.000
18.49741 110.000
18.51735 104.000
18.53730 95.000
18.55725 101.000
18.57719 91.000
18.59714 111.000
18.61709 108.000
18.63703 117.000
18.65698 108.000
18.67693 111.000
18.69688 105.000
18.71682 113.000
18.73677 91.000
18.75672 104.000
18.77666 89.000
18.79661 107.000
18.81656 113.000
18.83650 107.000
18.85645 105.000
18.87640 95.000
18.89634 107.000
18.91629 83.000
18.93624 83.000
18.95619 110.000
18.97613 90.000
18.99608 92.000
19.01603 98.000
19.03597 90.000
19.05592 85.000
19.07587 99.000
19.09581 96.000
19.11576 87.000
19.13571 111.000
19.15566 96.000
19.17560 100.000
19.19555 83.000
19.21550 127.000
19.23544 104.000
19.25539 97.000
19.27534 92.000
19.29528 98.000
19.31523 103.000
19.33518 88.000
19.35513 95.000
19.37507 91.000
19.39502 83.000
19.41497 97.000
19.43491 92.000
19.45486 96.000
19.47481 106.000
19.49475 104.000
19.51470 86.000
19.53465 121.000
19.55459 107.000
19.57454 106.000
19.59449 105.000
19.61444 91.000
19.63438 106.000
19.65433 95.000
19.67428 97.000
19.69422 97.000
19.71417 98.000
19.73412 111.000
19.75406 95.000
19.77401 104.000
19.79396 116.000
19.81391 103.000
19.83385 119.000
19.85380 122.000
19.87375 94.000
19.89369 133.000
19.91364 123.000
19.93359 107.000
19.95353 131.000
19.97348 123.000
19.99343 127.000
20.01337 126.000
20.03332 106.000
20.05327 100.000
20.07322 90.000
20.09316 119.000
20.11311 85.000
20.13306 94.000
20.15300 110.000
20.17295 108.000
20.19290 102.000
20.21284 113.000
20.23279 107.000
20.25274 123.000
20.27269 113.000
20.29263 114.000
20.31258 104.000
20.33253 94.000
20.35247 104.000
20.37242 107.000
20.39237 114.000
20.41231 101.000
20.43226 128.000
20.45221 109.000
20.47215 121.000
20.49210 132.000
20.51205 118.000
20.53200 130.000
20.55194 116.000
20.57189 118.000
20.59184 132.000
20.61178 129.000
20.63173 120.000
20.65168 128.000
20.67162 111.000
20.69157 130.000
20.71152 112.000
20.73147 123.000
20.75141 88.000
20.77136 87.000
20.79131 108.000
20.81125 91.000
20.83120 116.000
20.85115 115.000
20.87109 104.000
20.89104 105.000
20.91099 147.000
20.93094 133.000
20.95088 101.000
20.97083 97.000
20.99078 95.000
21.01072 119.000
21.03067 102.000
21.05062 108.000
21.07056 83.000
21.09051 128.000
21.11046 99.000
21.13040 100.000
21.15035 115.000
21.17030 100.000
21.19025 110.000
21.21019 114.000
21.23014 125.000
21.25009 96.000
21.27003 89.000
21.28998 104.000
21.30993 100.000
21.32987 116.000
21.34982 87.000
21.36977 115.000
21.38972 103.000
21.40966 102.000
21.42961 94.000
21.44956 98.000
21.46950 105.000
21.48945 104.000
21.50940 96.000
21.52934 97.000
21.54929 102.000
21.56924 112.000
21.58918 115.000
21.60913 126.000
21.62908 102.000
21.64903 114.000
21.66897 98.000
21.68892 118.000
21.70887 102.000
21.72881 110.000
21.74876 121.000
21.76871 114.000
21.78865 99.000
21.80860 110.000
21.82855 105.000
21.84850 83.000
21.86844 112.000
21.88839 110.000
21.90834 108.000
21.92828 100.000
21.94823 102.000
21.96818 107.000
21.98812 125.000
22.00807 114.000
22.02802 110.000
22.04796 110.000
22.06791 117.000
22.08786 108.000
22.10781 98.000
22.12775 108.000
22.14770 122.000
22.16765 109.000
22.18759 104.000
22.20754 121.000
22.22749 108.000
22.24743 125.000
22.26738 122.000
22.28733 115.000
22.30728 122.000
22.32722 106.000
22.34717 122.000
22.36712 97.000
22.38706 105.000
22.40701 116.000
22.42696 114.000
22.44690 93.000
22.46685 114.000
22.48680 91.000
22.50675 110.000
22.52669 101.000
22.54664 105.000
22.56659 111.000
22.58653 116.000
22.60648 106.000
22.62643 122.000
22.64637 119.000
22.66632 117.000
22.68627 124.000
22.70621 115.000
22.72616 103.000
22.74611 117.000
22.76606 103.000
22.78600 104.000
22.80595 106.000
22.82590 113.000
22.84584 102.000
22.86579 108.000
22.88574 109.000
22.90568 93.000
22.92563 111.000
22.94558 124.000
22.96553 104.000
22.98547 104.000
23.00542 97.000
23.02537 96.000
23.04531 131.000
23.06526 112.000
23.08521 121.000
23.10515 101.000
23.12510 117.000
23.14505 102.000
23.16499 95.000
23.18494 88.000
23.20489 103.000
23.22484 116.000
23.24478 105.000
23.26473 107.000
23.28468 99.000
23.30462 92.000
23.32457 97.000
23.34452 113.000
23.36446 94.000
23.38441 106.000
23.40436 97.000
23.42431 89.000
23.44425 117.000
23.46420 108.000
23.48415 97.000
23.50409 90.000
23.52404 106.000
23.54399 117.000
23.56393 92.000
23.58388 98.000
23.60383 127.000
23.62377 90.000
23.64372 117.000
23.66367 118.000
23.68362 109.000
23.70356 96.000
23.72351 106.000
23.74346 109.000
23.76340 111.000
23.78335 98.000
23.80330 109.000
23.82324 99.000
23.84319 96.000
23.86314 118.000
23.88309 96.000
23.90303 92.000
23.92298 100.000
23.94293 93.000
23.96287 105.000
23.98282 117.000
24.00277 100.000
24.02271 112.000
24.04266 100.000
24.06261 119.000
24.08256 137.000
24.10250 123.000
24.12245 110.000
24.14240 105.000
24.16234 110.000
24.18229 128.000
24.20224 123.000
24.22218 124.000
24.24213 112.000
24.26208 116.000
24.28202 109.000
24.30197 117.000
24.32192 135.000
24.34187 94.000
24.36181 104.000
24.38176 108.000
24.40171 118.000
24.42165 99.000
24.44160 116.000
24.46155 123.000
24.48149 121.000
24.50144 114.000
24.52139 113.000
24.54134 125.000
24.56128 118.000
24.58123 103.000
24.60118 114.000
24.62112 86.000
24.64107 92.000
24.66102 98.000
24.68096 111.000
24.70091 115.000
24.72086 97.000
24.74080 108.000
24.76075 111.000
24.78070 122.000
24.80065 118.000
24.82059 116.000
24.84054 114.000
24.86049 107.000
24.88043 100.000
24.90038 120.000
24.92033 103.000
24.94027 112.000
24.96022 156.000
24.98017 122.000
25.00012 128.000
25.02006 123.000
25.04001 120.000
25.05996 122.000
25.07990 129.000
25.09985 122.000
25.11980 105.000
25.13974 123.000
25.15969 107.000
25.17964 108.000
25.19958 110.000
25.21953 109.000
25.23948 108.000
25.25943 102.000
25.27937 103.000
25.29932 130.000
25.31927 111.000
25.33921 130.000
25.35916 98.000
25.37911 128.000
25.39905 126.000
25.41900 130.000
25.43895 112.000
25.45890 120.000
25.47884 110.000
25.49879 111.000
25.51874 138.000
25.53868 99.000
25.55863 122.000
25.57858 129.000
25.59852 130.000
25.61847 127.000
25.63842 111.000
25.65837 135.000
25.67831 133.000
25.69826 139.000
25.71821 133.000
25.73815 119.000
25.75810 118.000
25.77805 96.000
25.79799 134.000
25.81794 113.000
25.83789 129.000
25.85783 137.000
25.87778 125.000
25.89773 118.000
25.91768 122.000
25.93762 134.000
25.95757 118.000
25.97752 131.000
25.99746 139.000
26.01741 133.000
26.03736 119.000
26.05730 121.000
26.07725 137.000
26.09720 118.000
26.11715 126.000
26.13709 147.000
26.15704 122.000
26.17699 137.000
26.19693 100.000
26.21688 117.000
26.23683 118.000
26.25677 113.000
26.27672 115.000
26.29667 121.000
26.31661 132.000
26.33656 117.000
26.35651 118.000
26.37646 140.000
26.39640 134.000
26.41635 108.000
26.43630 113.000
26.45624 141.000
26.47619 141.000
26.49614 128.000
26.51608 138.000
26.53603 117.000
26.55598 119.000
26.57593 126.000
26.59587 127.000
26.61582 126.000
26.63577 130.000
26.65571 123.000
26.67566 133.000
26.69561 122.000
26.71555 122.000
26.73550 120.000
26.75545 133.000
26.77539 132.000
26.79534 139.000
26.81529 129.000
26.83524 126.000
26.85518 114.000
26.87513 128.000
26.89508 124.000
26.91502 128.000
26.93497 133.000
26.95492 134.000
26.97486 120.000
26.99481 120.000
27.01476 146.000
27.03471 134.000
27.05465 113.000
27.07460 148.000
27.09455 137.000
27.11449 122.000
27.13444 134.000
27.15439 124.000
27.17433 130.000
27.19428 130.000
27.21423 142.000
27.23417 99.000
27.25412 133.000
27.27407 138.000
27.29402 135.000
27.31396 113.000
27.33391 120.000
27.35386 116.000
27.37380 138.000
27.39375 138.000
27.41370 129.000
27.43364 125.000
27.45359 133.000
27.47354 134.000
27.49349 134.000
27.51343 130.000
27.53338 142.000
27.55333 134.000
27.57327 130.000
27.59322 141.000
27.61317 153.000
27.63311 145.000
27.65306 129.000
27.67301 143.000
27.69296 137.000
27.71290 133.000
27.73285 149.000
27.75280 138.000
27.77274 143.000
27.79269 135.000
27.81264 133.000
27.83258 116.000
27.85253 129.000
27.87248 142.000
27.89242 138.000
27.91237 121.000
27.93232 144.000
27.95227 135.000
27.97221 130.000
27.99216 131.000
28.01211 124.000
28.03205 138.000
28.05200 129.000
28.07195 139.000
28.09189 121.000
28.11184 123.000
28.13179 118.000
28.15174 137.000
28.17168 126.000
28.19163 120.000
28.21158 129.000
28.23152 123.000
28.25147 134.000
28.27142 127.000
28.29136 121.000
28.31131 106.000
28.33126 160.000
28.35120 142.000
28.37115 148.000
28.39110 149.000
28.41105 141.000
28.43099 131.000
28.45094 150.000
28.47089 155.000
28.49083 137.000
28.51078 144.000
28.53073 129.000
28.55067 157.000
28.57062 141.000
28.59057 145.000
28.61052 150.000
28.63046 144.000
28.65041 148.000
28.67036 148.000
28.69030 148.000
28.71025 136.000
28.73020 151.000
28.75014 163.000
28.77009 151.000
28.79004 140.000
28.80998 125.000
28.82993 136.000
28.84988 152.000
28.86983 169.000
28.88977 144.000
28.90972 148.000
28.92967 137.000
28.94961 150.000
28.96956 152.000
28.98951 143.000
29.00945 145.000
29.02940 137.000
29.04935 162.000
29.06930 162.000
29.08924 164.000
29.10919 168.000
29.12914 148.000
29.14908 127.000
29.16903 136.000
29.18898 173.000
29.20892 169.000
29.22887 192.000
29.24882 159.000
29.26877 165.000
29.28871 174.000
29.30866 175.000
29.32861 185.000
29.34855 182.000
29.36850 203.000
29.38845 193.000
29.40839 191.000
29.42834 233.000
29.44829 204.000
29.46823 214.000
29.48818 201.000
29.50813 207.000
29.52808 217.000
29.54802 231.000
29.56797 204.000
29.58792 221.000
29.60786 215.000
29.62781 223.000
29.64776 210.000
29.66770 208.000
29.68765 201.000
29.70760 213.000
29.72755 237.000
29.74749 213.000
29.76744 239.000
29.78739 183.000
29.80733 201.000
29.82728 207.000
29.84723 209.000
29.86717 217.000
29.88712 235.000
29.90707 194.000
29.92701 255.000
29.94696 246.000
29.96691 237.000
29.98686 235.000
30.00680 226.000
30.02675 253.000
30.04670 259.000
30.06664 286.000
30.08659 280.000
30.10654 291.000
30.12648 294.000
30.14643 325.000
30.16638 340.000
30.18633 365.000
30.20627 413.000
30.22622 471.000
30.24617 523.000
30.26611 570.000
30.28606 588.000
30.30601 473.000
30.32595 441.000
30.34590 415.000
30.36585 352.000
30.38579 278.000
30.40574 241.000
30.42569 206.000
30.44564 214.000
30.46558 206.000
30.48553 186.000
30.50548 170.000
30.52542 154.000
30.54537 169.000
30.56532 153.000
30.58526 188.000
30.60521 161.000
30.62516 149.000
30.64511 144.000
30.66505 135.000
30.68500 144.000
30.70495 166.000
30.72489 153.000
30.74484 150.000
30.76479 135.000
30.78473 123.000
30.80468 158.000
30.82463 132.000
30.84458 142.000
30.86452 145.000
30.88447 150.000
30.90442 132.000
30.92436 134.000
30.94431 133.000
30.96426 146.000
30.98420 152.000
31.00415 144.000
31.02410 126.000
31.04404 158.000
31.06399 127.000
31.08394 149.000
31.10389 153.000
31.12383 141.000
31.14378 118.000
31.16373 151.000
31.18367 153.000
31.20362 145.000
31.22357 140.000
31.24351 150.000
31.26346 149.000
31.28341 141.000
31.30336 146.000
31.32330 137.000
31.34325 135.000
31.36320 146.000
31.38314 143.000
31.40309 147.000
31.42304 152.000
31.44298 159.000
31.46293 162.000
31.48288 132.000
31.50282 163.000
31.52277 131.000
31.54272 162.000
31.56267 162.000
31.58261 127.000
31.60256 150.000
31.62251 158.000
31.64245 129.000
31.66240 161.000
31.68235 160.000
31.70229 146.000
31.72224 135.000
31.74219 152.000
31.76214 141.000
31.78208 149.000
31.80203 136.000
31.82198 153.000
31.84192 134.000
31.86187 156.000
31.88182 129.000
31.90176 133.000
31.92171 136.000
31.94166 128.000
31.96160 134.000
31.98155 135.000
32.00150 148.000
32.02145 126.000
32.04139 125.000
32.06134 117.000
32.08129 134.000
32.10123 156.000
32.12118 126.000
32.14113 143.000
32.16107 126.000
32.18102 130.000
32.20097 128.000
32.22092 141.000
32.24086 143.000
32.26081 133.000
32.28076 112.000
32.30070 143.000
32.32065 148.000
32.34060 116.000
32.36054 122.000
32.38049 134.000
32.40044 143.000
32.42039 138.000
32.44033 135.000
32.46028 136.000
32.48023 132.000
32.50017 141.000
32.52012 127.000
32.54007 143.000
32.56001 127.000
32.57996 149.000
32.59991 127.000
32.61985 144.000
32.63980 149.000
32.65975 119.000
32.67970 134.000
32.69964 163.000
32.71959 109.000
32.73954 148.000
32.75948 146.000
32.77943 143.000
32.79938 163.000
32.81932 137.000
32.83927 127.000
32.85922 118.000
32.87917 136.000
32.89911 134.000
32.91906 159.000
32.93901 152.000
32.95895 157.000
32.97890 140.000
32.99885 162.000
33.01879 158.000
33.03874 131.000
33.05869 152.000
33.07863 146.000
33.09858 139.000
33.11853 158.000
33.13848 161.000
33.15842 157.000
33.17837 154.000
33.19832 156.000
33.21826 169.000
33.23821 163.000
33.25816 155.000
33.27810 147.000
33.29805 132.000
33.31800 132.000
33.33795 152.000
33.35789 147.000
33.37784 155.000
33.39779 144.000
33.41773 158.000
33.43768 137.000
33.45763 142.000
33.47757 147.000
33.49752 139.000
33.51747 151.000
33.53741 138.000
33.55736 155.000
33.57731 151.000
33.59726 176.000
33.61720 147.000
33.63715 140.000
33.65710 143.000
33.67704 168.000
33.69699 154.000
33.71694 142.000
33.73688 129.000
33.75683 142.000
33.77678 160.000
33.79673 150.000
33.81667 177.000
33.83662 154.000
33.85657 183.000
33.87651 184.000
33.89646 182.000
33.91641 205.000
33.93635 174.000
33.95630 179.000
33.97625 171.000
33.99620 194.000
34.01614 182.000
34.03609 190.000
34.05604 164.000
34.07598 183.000
34.09593 196.000
34.11588 181.000
34.13582 180.000
34.15577 174.000
34.17572 198.000
34.19566 165.000
34.21561 187.000
34.23556 169.000
34.25551 167.000
34.27545 164.000
34.29540 203.000
34.31535 194.000
34.33529 187.000
34.35524 229.000
34.37519 204.000
34.39513 225.000
34.41508 251.000
34.43503 257.000
34.45498 207.000
34.47492 236.000
34.49487 213.000
34.51482 218.000
34.53476 220.000
34.55471 219.000
34.57466 232.000
34.59460 226.000
34.61455 222.000
34.63450 242.000
34.65444 211.000
34.67439 214.000
34.69434 222.000
34.71429 236.000
34.73423 213.000
34.75418 225.000
34.77413 231.000
34.79407 250.000
34.81402 253.000
34.83397 233.000
34.85391 281.000
34.87386 296.000
34.89381 288.000
34.91376 317.000
34.93370 323.000
34.95365 324.000
34.97360 351.000
34.99354 350.000
35.01349 348.000
35.03344 396.000
35.05338 395.000
35.07333 440.000
35.09328 419.000
35.11322 438.000
35.13317 448.000
35.15312 491.000
35.17307 454.000
35.19301 493.000
35.21296 473.000
35.23291 468.000
35.25285 433.000
35.27280 488.000
35.29275 456.000
35.31269 464.000
35.33264 450.000
35.35259 491.000
35.37254 438.000
35.39248 478.000
35.41243 469.000
35.43238 542.000
35.45232 549.000
35.47227 604.000
35.49222 600.000
35.51216 664.000
35.53211 753.000
35.55206 795.000
35.57201 946.000
35.59195 1033.000
35.61190 1243.000
35.63185 1446.000
35.65179 1574.000
35.67174 1487.000
35.69169 1423.000
35.71163 1268.000
35.73158 1111.000
35.75153 1030.000
35.77147 859.000
35.79142 660.000
35.81137 538.000
35.83132 422.000
35.85126 385.000
35.87121 325.000
35.89116 280.000
35.91110 238.000
35.93105 253.000
35.95100 219.000
35.97094 214.000
35.99089 220.000
36.01084 235.000
36.03079 232.000
36.05073 231.000
36.07068 225.000
36.09063 224.000
36.11057 236.000
36.13052 219.000
36.15047 217.000
36.17041 234.000
36.19036 232.000
36.21031 251.000
36.23025 244.000
36.25020 272.000
36.27015 267.000
36.29010 293.000
36.31004 318.000
36.32999 295.000
36.34994 354.000
36.36988 394.000
36.38983 393.000
36.40978 403.000
36.42972 371.000
36.44967 391.000
36.46962 330.000
36.48957 318.000
36.50951 306.000
36.52946 327.000
36.54941 276.000
36.56935 253.000
36.58930 220.000
36.60925 232.000
36.62919 183.000
36.64914 201.000
36.66909 183.000
36.68903 221.000
36.70898 179.000
36.72893 183.000
36.74888 196.000
36.76882 198.000
36.78877 216.000
36.80872 200.000
36.82866 217.000
36.84861 194.000
36.86856 232.000
36.88850 233.000
36.90845 205.000
36.92840 221.000
36.94835 248.000
36.96829 247.000
36.98824 250.000
37.00819 265.000
37.02813 272.000
37.04808 308.000
37.06803 333.000
37.08797 320.000
37.10792 339.000
37.12787 378.000
37.14781 378.000
37.16776 442.000
37.18771 376.000
37.20766 427.000
37.22760 422.000
37.24755 474.000
37.26750 421.000
37.28744 397.000
37.30739 412.000
37.32734 406.000
37.34728 343.000
37.36723 338.000
37.38718 318.000
37.40713 318.000
37.42707 299.000
37.44702 273.000
37.46697 285.000
37.48691 318.000
37.50686 288.000
37.52681 316.000
37.54675 286.000
37.56670 274.000
37.58665 228.000
37.60660 282.000
37.62654 215.000
37.64649 250.000
37.66644 226.000
37.68638 233.000
37.70633 226.000
37.72628 205.000
37.74622 223.000
37.76617 217.000
37.78612 207.000
37.80606 173.000
37.82601 193.000
37.84596 203.000
37.86591 176.000
37.88585 176.000
37.90580 168.000
37.92575 192.000
37.94569 169.000
37.96564 188.000
37.98559 167.000
38.00553 146.000
38.02548 170.000
38.04543 155.000
38.06538 140.000
38.08532 141.000
38.10527 164.000
38.12522 135.000
38.14516 134.000
38.16511 132.000
38.18506 145.000
38.20500 132.000
38.22495 127.000
38.24490 137.000
38.26484 135.000
38.28479 142.000
38.30474 131.000
38.32469 129.000
38.34463 128.000
38.36458 117.000
38.38453 127.000
38.40447 149.000
38.42442 135.000
38.44437 139.000
38.46431 131.000
38.48426 109.000
38.50421 128.000
38.52416 134.000
38.54410 128.000
38.56405 121.000
38.58400 140.000
38.60394 109.000
38.62389 150.000
38.64384 121.000
38.66378 122.000
38.68373 119.000
38.70368 115.000
38.72362 144.000
38.74357 120.000
38.76352 127.000
38.78347 130.000
38.80341 119.000
38.82336 112.000
38.84331 120.000
38.86325 131.000
38.88320 140.000
38.90315 132.000
38.92309 130.000
38.94304 116.000
38.96299 115.000
38.98294 135.000
39.00288 138.000
39.02283 122.000
39.04278 117.000
39.06272 145.000
39.08267 126.000
39.10262 122.000
39.12256 148.000
39.14251 127.000
39.16246 122.000
39.18241 126.000
39.20235 101.000
39.22230 133.000
39.24225 133.000
39.26219 121.000
39.28214 133.000
39.30209 134.000
39.32203 96.000
39.34198 115.000
39.36193 112.000
39.38187 139.000
39.40182 116.000
39.42177 128.000
39.44172 131.000
39.46166 132.000
39.48161 118.000
39.50156 124.000
39.52150 123.000
39.54145 140.000
39.56140 120.000
39.58134 121.000
39.60129 123.000
39.62124 145.000
39.64119 143.000
39.66113 147.000
39.68108 129.000
39.70103 147.000
39.72097 124.000
39.74092 139.000
39.76087 140.000
39.78081 113.000
39.80076 135.000
39.82071 132.000
39.84065 133.000
39.86060 144.000
39.88055 136.000
39.90050 161.000
39.92044 128.000
39.94039 145.000
39.96034 139.000
39.98028 129.000
40.00023 141.000
40.02018 129.000
40.04012 121.000
40.06007 133.000
40.08002 138.000
40.09997 138.000
40.11991 145.000
40.13986 150.000
40.15981 153.000
40.17975 124.000
40.19970 147.000
40.21965 156.000
40.23959 113.000
40.25954 124.000
40.27949 135.000
40.29943 131.000
40.31938 132.000
40.33933 141.000
40.35928 148.000
40.37922 155.000
40.39917 146.000
40.41912 151.000
40.43906 162.000
40.45901 154.000
40.47896 149.000
40.49890 132.000
40.51885 142.000
40.53880 142.000
40.55875 160.000
40.57869 183.000
40.59864 156.000
40.61859 202.000
40.63853 180.000
40.65848 178.000
40.67843 172.000
40.69837 190.000
40.71832 199.000
40.73827 224.000
40.75822 183.000
40.77816 210.000
40.79811 195.000
40.81806 232.000
40.83800 246.000
40.85795 209.000
40.87790 247.000
40.89784 245.000
40.91779 275.000
40.93774 328.000
40.95768 313.000
40.97763 275.000
40.99758 330.000
41.01753 333.000
41.03747 336.000
41.05742 393.000
41.07737 407.000
41.09731 416.000
41.11726 412.000
41.13721 440.000
41.15715 430.000
41.17710 518.000
41.19705 484.000
41.21700 518.000
41.23694 527.000
41.25689 541.000
41.27684 533.000
41.29678 527.000
41.31673 541.000
41.33668 513.000
41.35662 550.000
41.37657 556.000
41.39652 549.000
41.41646 546.000
41.43641 513.000
41.45636 524.000
41.47631 544.000
41.49625 580.000
41.51620 533.000
41.53615 491.000
41.55609 560.000
41.57604 536.000
41.59599 523.000
41.61593 574.000
41.63588 558.000
41.65583 596.000
41.67578 568.000
41.69572 599.000
41.71567 638.000
41.73562 626.000
41.75556 686.000
41.77551 727.000
41.79546 762.000
41.81540 786.000
41.83535 818.000
41.85530 755.000
41.87524 785.000
41.89519 774.000
41.91514 674.000
41.93509 657.000
41.95503 603.000
41.97498 495.000
41.99493 454.000
42.01487 429.000
42.03482 388.000
42.05477 310.000
42.07471 253.000
42.09466 243.000
42.11461 231.000
42.13456 205.000
42.15450 191.000
42.17445 190.000
42.19440 192.000
42.21434 175.000
42.23429 185.000
42.25424 187.000
42.27418 193.000
42.29413 166.000
42.31408 167.000
42.33403 150.000
42.35397 150.000
42.37392 148.000
42.39387 163.000
42.41381 157.000
42.43376 168.000
42.45371 148.000
42.47365 139.000
42.49360 146.000
42.51355 138.000
42.53349 190.000
42.55344 133.000
42.57339 158.000
42.59334 152.000
42.61328 154.000
42.63323 176.000
42.65318 153.000
42.67312 132.000
42.69307 168.000
42.71302 159.000
42.73296 172.000
42.75291 153.000
42.77286 165.000
42.79281 175.000
42.81275 173.000
42.83270 193.000
42.85265 205.000
42.87259 208.000
42.89254 219.000
42.91249 224.000
42.93243 213.000
42.95238 224.000
42.97233 229.000
42.99227 239.000
43.01222 248.000
43.03217 286.000
43.05212 332.000
43.07206 336.000
43.09201 375.000
43.11196 391.000
43.13190 467.000
43.15185 489.000
43.17180 477.000
43.19174 526.000
43.21169 543.000
43.23164 568.000
43.25159 567.000
43.27153 577.000
43.29148 601.000
43.31143 565.000
43.33137 614.000
43.35132 555.000
43.37127 514.000
43.39121 475.000
43.41116 425.000
43.43111 337.000
43.45105 347.000
43.47100 322.000
43.49095 273.000
43.51090 244.000
43.53084 226.000
43.55079 210.000
43.57074 152.000
43.59068 161.000
43.61063 159.000
43.63058 162.000
43.65052 138.000
43.67047 160.000
43.69042 119.000
43.71037 140.000
43.73031 139.000
43.75026 122.000
43.77021 140.000
43.79015 120.000
43.81010 116.000
43.83005 149.000
43.84999 129.000
43.86994 131.000
43.88989 116.000
43.90984 130.000
43.92978 122.000
43.94973 120.000
43.96968 128.000
43.98962 133.000
44.00957 118.000
44.02952 123.000
44.04946 128.000
44.06941 113.000
44.08936 127.000
44.10930 152.000
44.12925 136.000
44.14920 130.000
44.16915 138.000
44.18909 118.000
44.20904 120.000
44.22899 123.000
44.24893 142.000
44.26888 127.000
44.28883 135.000
44.30877 134.000
44.32872 132.000
44.34867 123.000
44.36862 125.000
44.38856 110.000
44.40851 116.000
44.42846 111.000
44.44840 121.000
44.46835 127.000
44.48830 126.000
44.50824 129.000
44.52819 126.000
44.54814 119.000
44.56808 125.000
44.58803 132.000
44.60798 109.000
44.62793 134.000
44.64787 141.000
44.66782 122.000
44.68777 128.000
44.70771 130.000
44.72766 115.000
44.74761 134.000
44.76755 121.000
44.78750 136.000
44.80745 122.000
44.82740 116.000
44.84734 103.000
44.86729 97.000
44.88724 133.000
44.90718 116.000
44.92713 133.000
44.94708 145.000
44.96702 128.000
44.98697 146.000
45.00692 103.000
45.02686 144.000
45.04681 120.000
45.06676 137.000
45.08671 132.000
45.10665 132.000
45.12660 130.000
45.14655 113.000
45.16649 138.000
45.18644 130.000
45.20639 140.000
45.22633 144.000
45.24628 126.000
45.26623 119.000
45.28618 136.000
45.30612 134.000
45.32607 136.000
45.34602 149.000
45.36596 145.000
45.38591 142.000
45.40586 136.000
45.42580 143.000
45.44575 123.000
45.46570 127.000
45.48565 130.000
45.50559 144.000
45.52554 134.000
45.54549 164.000
45.56543 156.000
45.58538 142.000
45.60533 163.000
45.62527 146.000
45.64522 150.000
45.66517 172.000
45.68511 165.000
45.70506 192.000
45.72501 190.000
45.74496 199.000
45.76490 182.000
45.78485 175.000
45.80480 216.000
45.82474 193.000
45.84469 212.000
45.86464 175.000
45.88458 219.000
45.90453 179.000
45.92448 211.000
45.94443 217.000
45.96437 225.000
45.98432 236.000
46.00427 232.000
46.02421 215.000
46.04416 248.000
46.06411 210.000
46.08405 226.000
46.10400 229.000
46.12395 212.000
46.14389 208.000
46.16384 211.000
46.18379 200.000
46.20374 207.000
46.22368 203.000
46.24363 202.000
46.26358 188.000
46.28352 185.000
46.30347 191.000
46.32342 200.000
46.34336 191.000
46.36331 172.000
46.38326 190.000
46.40321 194.000
46.42315 162.000
46.44310 151.000
46.46305 162.000
46.48299 154.000
46.50294 152.000
46.52289 154.000
46.54283 151.000
46.56278 160.000
46.58273 143.000
46.60267 134.000
46.62262 157.000
46.64257 147.000
46.66252 144.000
46.68246 143.000
46.70241 128.000
46.72236 123.000
46.74230 154.000
46.76225 127.000
46.78220 126.000
46.80214 138.000
46.82209 119.000
46.84204 124.000
46.86199 138.000
46.88193 113.000
46.90188 134.000
46.92183 115.000
46.94177 119.000
46.96172 125.000
46.98167 113.000
47.00161 118.000
47.02156 114.000
47.04151 128.000
47.06146 135.000
47.08140 107.000
47.10135 123.000
47.12130 116.000
47.14124 133.000
47.16119 124.000
47.18114 119.000
47.20108 106.000
47.22103 115.000
47.24098 94.000
47.26092 129.000
47.28087 114.000
47.30082 120.000
47.32077 123.000
47.34071 90.000
47.36066 118.000
47.38061 136.000
47.40055 124.000
47.42050 135.000
47.44045 135.000
47.46039 134.000
47.48034 132.000
47.50029 138.000
47.52024 131.000
47.54018 125.000
47.56013 127.000
47.58008 129.000
47.60002 143.000
47.61997 130.000
47.63992 126.000
47.65986 116.000
47.67981 124.000
47.69976 145.000
47.71970 133.000
47.73965 136.000
47.75960 124.000
47.77955 144.000
47.79949 137.000
47.81944 125.000
47.83939 134.000
47.85933 115.000
47.87928 138.000
47.89923 136.000
47.91917 123.000
47.93912 159.000
47.95907 116.000
47.97902 105.000
47.99896 121.000
48.01891 134.000
48.03886 125.000
48.05880 102.000
48.07875 122.000
48.09870 131.000
48.11864 117.000
48.13859 112.000
48.15854 124.000
48.17848 130.000
48.19843 112.000
48.21838 112.000
48.23833 109.000
48.25827 124.000
48.27822 138.000
48.29817 141.000
48.31811 134.000
48.33806 107.000
48.35801 120.000
48.37795 119.000
48.39790 124.000
48.41785 103.000
48.43780 99.000
48.45774 109.000
48.47769 122.000
48.49764 113.000
48.51758 122.000
48.53753 115.000
48.55748 103.000
48.57742 114.000
48.59737 126.000
48.61732 124.000
48.63726 114.000
48.65721 110.000
48.67716 109.000
48.69711 103.000
48.71705 119.000
48.73700 118.000
48.75695 127.000
48.77689 104.000
48.79684 106.000
48.81679 95.000
48.83673 101.000
48.85668 103.000
48.87663 94.000
48.89658 107.000
48.91652 98.000
48.93647 110.000
48.95642 104.000
48.97636 99.000
48.99631 95.000
49.01626 120.000
49.03620 99.000
49.05615 112.000
49.07610 127.000
49.09605 90.000
49.11599 134.000
49.13594 97.000
49.15589 89.000
49.17583 114.000
49.19578 93.000
49.21573 104.000
49.23567 98.000
49.25562 103.000
49.27557 89.000
49.29551 93.000
49.31546 87.000
49.33541 111.000
49.35536 102.000
49.37530 100.000
49.39525 111.000
49.41520 115.000
49.43514 114.000
49.45509 123.000
49.47504 108.000
49.49498 97.000
49.51493 105.000
49.53488 107.000
49.55483 118.000
49.57477 116.000
49.59472 116.000
49.61467 90.000
49.63461 114.000
49.65456 94.000
49.67451 88.000
49.69445 102.000
49.71440 103.000
49.73435 99.000
49.75429 108.000
49.77424 91.000
49.79419 110.000
49.81414 124.000
49.83408 101.000
49.85403 99.000
49.87398 120.000
49.89392 122.000
49.91387 98.000
49.93382 99.000
49.95376 108.000
49.97371 111.000
49.99366 88.000
50.01361 108.000
50.03355 110.000
50.05350 95.000
50.07345 117.000
50.09339 108.000
50.11334 115.000
50.13329 109.000
50.15323 90.000
50.17318 119.000
50.19313 108.000
50.21307 118.000
50.23302 92.000
50.25297 120.000
50.27292 97.000
50.29286 111.000
50.31281 99.000
50.33276 111.000
50.35270 109.000
50.37265 110.000
50.39260 113.000
50.41254 106.000
50.43249 110.000
50.45244 111.000
50.47239 107.000
50.49233 101.000
50.51228 92.000
50.53223 116.000
50.55217 99.000
50.57212 109.000
50.59207 127.000
50.61201 125.000
50.63196 119.000
50.65191 132.000
50.67186 109.000
50.69180 96.000
50.71175 118.000
50.73170 111.000
50.75164 116.000
50.77159 108.000
50.79154 99.000
50.81148 115.000
50.83143 88.000
50.85138 118.000
50.87132 106.000
50.89127 95.000
50.91122 112.000
50.93117 108.000
50.95111 106.000
50.97106 94.000
50.99101 100.000
51.01095 108.000
51.03090 114.000
51.05085 103.000
51.07079 111.000
51.09074 104.000
51.11069 86.000
51.13064 113.000
51.15058 100.000
51.17053 112.000
51.19048 113.000
51.21042 108.000
51.23037 97.000
51.25032 96.000
51.27026 107.000
51.29021 81.000
51.31016 112.000
51.33010 97.000
51.35005 96.000
51.37000 106.000
51.38995 106.000
51.40989 119.000
51.42984 93.000
51.44979 112.000
51.46973 105.000
51.48968 106.000
51.50963 102.000
51.52957 97.000
51.54952 110.000
51.56947 116.000
51.58942 116.000
51.60936 107.000
51.62931 92.000
51.64926 107.000
51.66920 105.000
51.68915 113.000
51.70910 88.000
51.72904 95.000
51.74899 127.000
51.76894 110.000
51.78888 106.000
51.80883 107.000
51.82878 93.000
51.84873 114.000
51.86867 117.000
51.88862 101.000
51.90857 96.000
51.92851 106.000
51.94846 130.000
51.96841 108.000
51.98835 104.000
52.00830 114.000
52.02825 107.000
52.04820 115.000
52.06814 100.000
52.08809 114.000
52.10804 114.000
52.12798 90.000
52.14793 118.000
52.16788 105.000
52.18782 120.000
52.20777 97.000
52.22772 96.000
52.24767 115.000
52.26761 113.000
52.28756 95.000
52.30751 90.000
52.32745 106.000
52.34740 111.000
52.36735 98.000
52.38729 98.000
52.40724 90.000
52.42719 120.000
52.44713 104.000
52.46708 103.000
52.48703 107.000
52.50698 90.000
52.52692 87.000
52.54687 109.000
52.56682 111.000
52.58676 74.000
52.60671 110.000
52.62666 106.000
52.64660 100.000
52.66655 104.000
52.68650 106.000
52.70645 109.000
52.72639 102.000
52.74634 92.000
52.76629 101.000
52.78623 111.000
52.80618 112.000
52.82613 119.000
52.84607 94.000
52.86602 102.000
52.88597 100.000
52.90591 112.000
52.92586 111.000
52.94581 112.000
52.96576 111.000
52.98570 116.000
53.00565 86.000
53.02560 113.000
53.04554 116.000
53.06549 91.000
53.08544 115.000
53.10538 126.000
53.12533 110.000
53.14528 95.000
53.16523 114.000
53.18517 102.000
53.20512 98.000
53.22507 127.000
53.24501 104.000
53.26496 98.000
53.28491 115.000
53.30485 112.000
53.32480 114.000
53.34475 132.000
53.36469 110.000
53.38464 121.000
53.40459 119.000
53.42454 135.000
53.44448 130.000
53.46443 135.000
53.48438 141.000
53.50432 121.000
53.52427 151.000
53.54422 127.000
53.56416 135.000
53.58411 143.000
53.60406 159.000
53.62401 142.000
53.64395 149.000
53.66390 148.000
53.68385 199.000
53.70379 184.000
53.72374 203.000
53.74369 212.000
53.76363 238.000
53.78358 230.000
53.80353 230.000
53.82348 227.000
53.84342 174.000
53.86337 192.000
53.88332 194.000
53.90326 175.000
53.92321 191.000
53.94316 173.000
53.96310 165.000
53.98305 157.000
54.00300 137.000
54.02294 117.000
54.04289 120.000
54.06284 143.000
54.08279 122.000
54.10273 144.000
54.12268 126.000
54.14263 105.000
54.16257 101.000
54.18252 113.000
54.20247 126.000
54.22241 109.000
54.24236 95.000
54.26231 124.000
54.28226 93.000
54.30220 99.000
54.32215 120.000
54.34210 111.000
54.36204 93.000
54.38199 111.000
54.40194 95.000
54.42188 106.000
54.44183 96.000
54.46178 124.000
54.48172 103.000
54.50167 124.000
54.52162 131.000
54.54157 92.000
54.56151 106.000
54.58146 109.000
54.60141 108.000
54.62135 112.000
54.64130 113.000
54.66125 141.000
54.68119 132.000
54.70114 117.000
54.72109 115.000
54.74104 104.000
54.76098 117.000
54.78093 98.000
54.80088 125.000
54.82082 108.000
54.84077 114.000
54.86072 130.000
54.88066 120.000
54.90061 129.000
54.92056 112.000
54.94050 106.000
54.96045 106.000
54.98040 105.000
55.00035 120.000
55.02029 107.000
55.04024 123.000
55.06019 139.000
55.08013 102.000
55.10008 117.000
55.12003 96.000
55.13997 100.000
55.15992 110.000
55.17987 120.000
55.19982 127.000
55.21976 113.000
55.23971 107.000
55.25966 125.000
55.27960 88.000
55.29955 115.000
55.31950 105.000
55.33944 108.000
55.35939 108.000
55.37934 99.000
55.39929 128.000
55.41923 121.000
55.43918 108.000
55.45913 131.000
55.47907 113.000
55.49902 103.000
55.51897 110.000
55.53891 128.000
55.55886 109.000
55.57881 109.000
55.59875 94.000
55.61870 103.000
55.63865 108.000
55.65860 100.000
55.67854 127.000
55.69849 102.000
55.71844 113.000
55.73838 123.000
55.75833 129.000
55.77828 117.000
55.79822 112.000
55.81817 84.000
55.83812 96.000
55.85807 89.000
55.87801 118.000
55.89796 102.000
55.91791 110.000
55.93785 98.000
55.95780 111.000
55.97775 102.000
55.99769 106.000
56.01764 102.000
56.03759 104.000
56.05753 98.000
56.07748 110.000
56.09743 94.000
56.11738 98.000
56.13732 104.000
56.15727 127.000
56.17722 112.000
56.19716 111.000
56.21711 106.000
56.23706 94.000
56.25700 122.000
56.27695 94.000
56.29690 111.000
56.31685 103.000
56.33679 119.000
56.35674 116.000
56.37669 102.000
56.39663 103.000
56.41658 114.000
56.43653 122.000
56.45647 106.000
56.47642 95.000
56.49637 112.000
56.51631 109.000
56.53626 119.000
56.55621 117.000
56.57616 112.000
56.59610 114.000
56.61605 124.000
56.63600 121.000
56.65594 121.000
56.67589 115.000
56.69584 117.000
56.71578 113.000
56.73573 128.000
56.75568 120.000
56.77563 138.000
56.79557 120.000
56.81552 119.000
56.83547 129.000
56.85541 140.000
56.87536 130.000
56.89531 153.000
56.91525 147.000
56.93520 144.000
56.95515 160.000
56.97510 150.000
56.99504 155.000
57.01499 154.000
57.03494 195.000
57.05488 162.000
57.07483 198.000
57.09478 206.000
57.11472 206.000
57.13467 222.000
57.15462 241.000
57.17456 245.000
57.19451 271.000
57.21446 266.000
57.23441 311.000
57.25435 343.000
57.27430 355.000
57.29425 409.000
57.31419 414.000
57.33414 450.000
57.35409 463.000
57.37403 418.000
57.39398 367.000
57.41393 350.000
57.43388 365.000
57.45382 327.000
57.47377 379.000
57.49372 346.000
57.51366 289.000
57.53361 278.000
57.55356 259.000
57.57350 218.000
57.59345 226.000
57.61340 180.000
57.63334 188.000
57.65329 185.000
57.67324 164.000
57.69319 174.000
57.71313 166.000
57.73308 157.000
57.75303 167.000
57.77297 164.000
57.79292 147.000
57.81287 187.000
57.83281 175.000
57.85276 151.000
57.87271 166.000
57.89266 170.000
57.91260 155.000
57.93255 152.000
57.95250 155.000
57.97244 147.000
57.99239 167.000
58.01234 150.000
58.03228 135.000
58.05223 149.000
58.07218 159.000
58.09212 170.000
58.11207 149.000
58.13202 147.000
58.15197 150.000
58.17191 153.000
58.19186 149.000
58.21181 131.000
58.23175 135.000
58.25170 156.000
58.27165 140.000
58.29159 144.000
58.31154 147.000
58.33149 135.000
58.35144 151.000
58.37138 138.000
58.39133 141.000
58.41128 136.000
58.43122 139.000
58.45117 139.000
58.47112 123.000
58.49106 123.000
58.51101 103.000
58.53096 139.000
58.55090 120.000
58.57085 151.000
58.59080 105.000
58.61075 134.000
58.63069 153.000
58.65064 119.000
58.67059 121.000
58.69053 143.000
58.71048 121.000
58.73043 108.000
58.75037 102.000
58.77032 133.000
58.79027 127.000
58.81022 144.000
58.83016 136.000
58.85011 149.000
58.87006 111.000
58.89000 151.000
58.90995 103.000
58.92990 142.000
58.94984 139.000
58.96979 134.000
58.98974 148.000
59.00969 127.000
59.02963 121.000
59.04958 156.000
59.06953 148.000
59.08947 156.000
59.10942 145.000
59.12937 147.000
59.14931 144.000
59.16926 122.000
59.18921 157.000
59.20915 134.000
59.22910 139.000
59.24905 147.000
59.26900 153.000
59.28894 150.000
59.30889 135.000
59.32884 148.000
59.34878 152.000
59.36873 162.000
59.38868 139.000
59.40862 169.000
59.42857 140.000
59.44852 158.000
59.46847 155.000
59.48841 143.000
59.50836 155.000
59.52831 181.000
59.54825 172.000
59.56820 185.000
59.58815 183.000
59.60809 186.000
59.62804 203.000
59.64799 199.000
59.66793 212.000
59.68788 209.000
59.70783 210.000
59.72778 197.000
59.74772 198.000
59.76767 197.000
59.78762 196.000
59.80756 214.000
59.82751 192.000
59.84746 211.000
59.86740 183.000
59.88735 189.000
59.90730 187.000
59.92725 168.000
59.94719 159.000
59.96714 176.000
59.98709 143.000
60.00703 155.000
60.02698 164.000
60.04693 146.000
60.06687 136.000
60.08682 124.000
60.10677 117.000
60.12671 142.000
60.14666 117.000
60.16661 116.000
60.18656 142.000
60.20650 106.000
60.22645 131.000
60.24640 123.000
60.26634 121.000
60.28629 150.000
60.30624 117.000
60.32618 110.000
60.34613 89.000
60.36608 108.000
60.38603 99.000
60.40597 119.000
60.42592 127.000
60.44587 126.000
60.46581 143.000
60.48576 118.000
60.50571 121.000
60.52565 115.000
60.54560 109.000
60.56555 99.000
60.58550 133.000
60.60544 117.000
60.62539 110.000
60.64534 113.000
60.66528 115.000
60.68523 120.000
60.70518 134.000
60.72512 104.000
60.74507 106.000
60.76502 111.000
60.78496 126.000
60.80491 124.000
60.82486 120.000
60.84481 131.000
60.86475 124.000
60.88470 123.000
60.90465 121.000
60.92459 127.000
60.94454 118.000
60.96449 111.000
60.98443 130.000
61.00438 151.000
61.02433 133.000
61.04428 138.000
61.06422 139.000
61.08417 141.000
61.10412 129.000
61.12406 139.000
61.14401 142.000
61.16396 144.000
61.18390 158.000
61.20385 158.000
61.22380 181.000
61.24374 178.000
61.26369 198.000
61.28364 189.000
61.30359 211.000
61.32353 199.000
61.34348 203.000
61.36343 220.000
61.38337 260.000
61.40332 238.000
61.42327 302.000
61.44321 285.000
61.46316 325.000
61.48311 305.000
61.50306 324.000
61.52300 337.000
61.54295 391.000
61.56290 379.000
61.58284 412.000
61.60279 448.000
61.62274 417.000
61.64268 464.000
61.66263 448.000
61.68258 422.000
61.70252 430.000
61.72247 394.000
61.74242 383.000
61.76237 369.000
61.78231 374.000
61.80226 319.000
61.82221 331.000
61.84215 317.000
61.86210 261.000
61.88205 254.000
61.90199 245.000
61.92194 237.000
61.94189 219.000
61.96184 224.000
61.98178 225.000
62.00173 212.000
62.02168 187.000
62.04162 197.000
62.06157 220.000
62.08152 162.000
62.10146 180.000
62.12141 181.000
62.14136 211.000
62.16131 177.000
62.18125 165.000
62.20120 192.000
62.22115 178.000
62.24109 187.000
62.26104 179.000
62.28099 164.000
62.30093 186.000
62.32088 169.000
62.34083 171.000
62.36077 177.000
62.38072 164.000
62.40067 177.000
62.42062 162.000
62.44056 164.000
62.46051 201.000
62.48046 202.000
62.50040 186.000
62.52035 182.000
62.54030 197.000
62.56024 214.000
62.58019 241.000
62.60014 289.000
62.62009 244.000
62.64003 275.000
62.65998 300.000
62.67993 325.000
62.69987 321.000
62.71982 315.000
62.73977 371.000
62.75971 379.000
62.77966 367.000
62.79961 401.000
62.81955 420.000
62.83950 433.000
62.85945 442.000
62.87940 451.000
62.89934 543.000
62.91929 550.000
62.93924 655.000
62.95918 616.000
62.97913 673.000
62.99908 599.000
63.01902 617.000
63.03897 533.000
63.05892 511.000
63.07887 447.000
63.09881 401.000
63.11876 427.000
63.13871 430.000
63.15865 377.000
63.17860 331.000
63.19855 342.000
63.21849 264.000
63.23844 233.000
63.25839 217.000
63.27833 219.000
63.29828 184.000
63.31823 181.000
63.33818 179.000
63.35812 175.000
63.37807 148.000
63.39802 152.000
63.41796 137.000
63.43791 118.000
63.45786 131.000
63.47780 154.000
63.49775 144.000
63.51770 139.000
63.53765 136.000
63.55759 122.000
63.57754 117.000
63.59749 124.000
63.61743 118.000
63.63738 126.000
63.65733 151.000
63.67727 128.000
63.69722 125.000
63.71717 143.000
63.73712 131.000
63.75706 126.000
63.77701 113.000
63.79696 128.000
63.81690 111.000
63.83685 114.000
63.85680 131.000
63.87674 141.000
63.89669 118.000
63.91664 135.000
63.93658 143.000
63.95653 117.000
63.97648 115.000
63.99643 127.000
64.01637 123.000
64.03632 135.000
64.05627 131.000
64.07621 112.000
64.09616 122.000
64.11611 118.000
64.13605 120.000
64.15600 109.000
64.17595 125.000
64.19590 153.000
64.21584 133.000
64.23579 126.000
64.25574 104.000
64.27568 121.000
64.29563 116.000
64.31558 114.000
64.33552 130.000
64.35547 110.000
64.37542 110.000
64.39536 114.000
64.41531 122.000
64.43526 105.000
64.45521 140.000
64.47515 114.000
64.49510 110.000
64.51505 119.000
64.53499 132.000
64.55494 140.000
64.57489 155.000
64.59483 136.000
64.61478 125.000
64.63473 139.000
64.65468 140.000
64.67462 116.000
64.69457 137.000
64.71452 147.000
64.73446 138.000
64.75441 129.000
64.77436 138.000
64.79430 127.000
64.81425 126.000
64.83420 143.000
64.85414 143.000
64.87409 138.000
64.89404 133.000
64.91399 132.000
64.93393 159.000
64.95388 138.000
64.97383 121.000
64.99377 124.000
65.01372 128.000
65.03367 107.000
65.05361 150.000
65.07356 123.000
65.09351 147.000
65.11346 133.000
65.13340 134.000
65.15335 145.000
65.17330 145.000
65.19324 134.000
65.21319 134.000
65.23314 134.000
65.25308 153.000
65.27303 141.000
65.29298 152.000
65.31293 140.000
65.33287 126.000
65.35282 136.000
65.37277 123.000
65.39271 114.000
65.41266 144.000
65.43261 114.000
65.45255 108.000
65.47250 125.000
65.49245 132.000
65.51239 137.000
65.53234 113.000
65.55229 127.000
65.57224 106.000
65.59218 120.000
65.61213 107.000
65.63208 110.000
65.65202 101.000
65.67197 133.000
65.69192 117.000
65.71186 109.000
65.73181 148.000
65.75176 112.000
65.77171 133.000
65.79165 109.000
65.81160 128.000
65.83155 128.000
65.85149 114.000
65.87144 133.000
65.89139 121.000
65.91133 101.000
65.93128 90.000
65.95123 114.000
65.97117 131.000
65.99112 124.000
66.01107 112.000
66.03102 107.000
66.05096 110.000
66.07091 122.000
66.09086 132.000
66.11080 116.000
66.13075 103.000
66.15070 116.000
66.17064 116.000
66.19059 118.000
66.21054 114.000
66.23049 123.000
66.25043 119.000
66.27038 120.000
66.29033 117.000
66.31027 101.000
66.33022 111.000
66.35017 112.000
66.37011 105.000
66.39006 103.000
66.41001 110.000
66.42995 111.000
66.44990 110.000
66.46985 90.000
66.48980 115.000
66.50974 104.000
66.52969 96.000
66.54964 116.000
66.56958 109.000
66.58953 119.000
66.60948 109.000
66.62942 105.000
66.64937 99.000
66.66932 117.000
66.68927 95.000
66.70921 119.000
66.72916 98.000
66.74911 107.000
66.76905 119.000
66.78900 104.000
66.80895 92.000
66.82889 109.000
66.84884 91.000
66.86879 105.000
66.88874 114.000
66.90868 97.000
66.92863 103.000
66.94858 97.000
66.96852 73.000
66.98847 92.000
67.00842 90.000
67.02836 92.000
67.04831 98.000
67.06826 117.000
67.08820 117.000
67.10815 108.000
67.12810 113.000
67.14805 99.000
67.16799 99.000
67.18794 98.000
67.20789 113.000
67.22783 97.000
67.24778 101.000
67.26773 106.000
67.28767 90.000
67.30762 112.000
67.32757 75.000
67.34752 122.000
67.36746 86.000
67.38741 117.000
67.40736 119.000
67.42730 106.000
67.44725 114.000
67.46720 134.000
67.48714 78.000
67.50709 127.000
67.52704 111.000
67.54698 102.000
67.56693 82.000
67.58688 100.000
67.60683 118.000
67.62677 86.000
67.64672 96.000
67.66667 109.000
67.68661 91.000
67.70656 102.000
67.72651 100.000
67.74645 110.000
67.76640 111.000
67.78635 127.000
67.80630 114.000
67.82624 98.000
67.84619 92.000
67.86614 107.000
67.88608 101.000
67.90603 101.000
67.92598 101.000
67.94592 88.000
67.96587 99.000
67.98582 104.000
68.00576 82.000
68.02571 125.000
68.04566 108.000
68.06561 114.000
68.08555 115.000
68.10550 94.000
68.12545 114.000
68.14539 114.000
68.16534 94.000
68.18529 130.000
68.20523 109.000
68.22518 116.000
68.24513 107.000
68.26508 122.000
68.28502 121.000
68.30497 115.000
68.32492 112.000
68.34486 111.000
68.36481 91.000
68.38476 94.000
68.40470 104.000
68.42465 108.000
68.44460 100.000
68.46455 107.000
68.48449 93.000
68.50444 97.000
68.52439 97.000
68.54433 108.000
68.56428 106.000
68.58423 104.000
68.60417 89.000
68.62412 94.000
68.64407 112.000
68.66401 102.000
68.68396 111.000
68.70391 93.000
68.72386 98.000
68.74380 99.000
68.76375 109.000
68.78370 91.000
68.80364 95.000
68.82359 99.000
68.84354 113.000
68.86348 114.000
68.88343 106.000
68.90338 109.000
68.92333 93.000
68.94327 96.000
68.96322 83.000
68.98317 99.000
69.00311 99.000
69.02306 110.000
69.04301 108.000
69.06295 108.000
69.08290 88.000
69.10285 94.000
69.12279 113.000
69.14274 105.000
69.16269 98.000
69.18264 116.000
69.20258 92.000
69.22253 99.000
69.24248 106.000
69.26242 110.000
69.28237 113.000
69.30232 109.000
69.32226 100.000
69.34221 105.000
69.36216 107.000
69.38211 103.000
69.40205 108.000
69.42200 105.000
69.44195 104.000
69.46189 114.000
69.48184 112.000
69.50179 101.000
69.52173 96.000
69.54168 113.000
69.56163 95.000
69.58157 137.000
69.60152 116.000
69.62147 119.000
69.64142 120.000
69.66136 103.000
69.68131 97.000
69.70126 116.000
69.72120 107.000
69.74115 135.000
69.76110 111.000
69.78104 118.000
69.80099 120.000
69.82094 115.000
69.84089 95.000
69.86083 125.000
69.88078 99.000
69.90073 113.000
69.92067 126.000
69.94062 131.000
69.96057 104.000
69.98051 112.000
70.00046 114.000
70.02041 113.000
70.04035 116.000
70.06030 101.000
70.08025 121.000
70.10020 106.000
70.12014 119.000
70.14009 123.000
70.16004 118.000
70.17998 113.000
70.19993 102.000
70.21988 114.000
70.23982 107.000
70.25977 125.000
70.27972 110.000
70.29967 109.000
70.31961 119.000
70.33956 96.000
70.35951 112.000
70.37945 105.000
70.39940 111.000
70.41935 137.000
70.43929 109.000
70.45924 106.000
70.47919 113.000
70.49914 100.000
70.51908 102.000
70.53903 116.000
70.55898 109.000
70.57892 127.000
70.59887 109.000
70.61882 114.000
70.63876 122.000
70.65871 103.000
70.67866 94.000
70.69860 98.000
70.71855 120.000
70.73850 110.000
70.75845 124.000
70.77839 98.000
70.79834 111.000
70.81829 121.000
70.83823 111.000
70.85818 114.000
70.87813 124.000
70.89807 117.000
70.91802 111.000
70.93797 105.000
70.95792 123.000
70.97786 125.000
70.99781 118.000
71.01776 117.000
71.03770 111.000
71.05765 106.000
71.07760 136.000
71.09754 138.000
71.11749 126.000
71.13744 125.000
71.15738 142.000
71.17733 119.000
71.19728 130.000
71.21723 133.000
71.23717 117.000
71.25712 133.000
71.27707 125.000
71.29701 121.000
71.31696 140.000
71.33691 147.000
71.35685 142.000
71.37680 131.000
71.39675 159.000
71.41670 139.000
71.43664 161.000
71.45659 161.000
71.47654 157.000
71.49648 146.000
71.51643 150.000
71.53638 133.000
71.55632 128.000
71.57627 124.000
71.59622 135.000
71.61616 150.000
71.63611 145.000
71.65606 128.000
71.67601 129.000
71.69595 115.000
71.71590 127.000
71.73585 125.000
71.75579 111.000
71.77574 108.000
71.79569 113.000
71.81563 114.000
71.83558 135.000
71.85553 102.000
71.87548 107.000
71.89542 114.000
71.91537 114.000
71.93532 115.000
71.95526 106.000
71.97521 107.000
71.99516 107.000
72.01510 102.000
72.03505 120.000
72.05500 113.000
72.07495 95.000
72.09489 105.000
72.11484 110.000
72.13479 124.000
72.15473 108.000
72.17468 94.000
72.19463 119.000
72.21457 87.000
72.23452 125.000
72.25447 109.000
72.27441 121.000
72.29436 126.000
72.31431 97.000
72.33426 137.000
72.35420 117.000
72.37415 111.000
72.39410 114.000
72.41404 121.000
72.43399 133.000
72.45394 106.000
72.47388 116.000
72.49383 115.000
72.51378 153.000
72.53373 131.000
72.55367 150.000
72.57362 129.000
72.59357 149.000
72.61351 125.000
72.63346 153.000
72.65341 121.000
72.67335 144.000
72.69330 149.000
72.71325 160.000
72.73319 143.000
72.75314 122.000
72.77309 162.000
72.79304 150.000
72.81298 162.000
72.83293 161.000
72.85288 167.000
72.87282 177.000
72.89277 180.000
72.91272 176.000
72.93266 182.000
72.95261 162.000
72.97256 159.000
72.99251 154.000
73.01245 165.000
73.03240 170.000
73.05235 162.000
73.07229 145.000
73.09224 154.000
73.11219 146.000
73.13213 149.000
73.15208 153.000
73.17203 131.000
73.19197 163.000
73.21192 133.000
73.23187 150.000
73.25182 137.000
73.27176 156.000
73.29171 120.000
73.31166 117.000
73.33160 149.000
73.35155 132.000
73.37150 137.000
73.39144 142.000
73.41139 128.000
73.43134 120.000
73.45129 139.000
73.47123 127.000
73.49118 126.000
73.51113 131.000
73.53107 120.000
73.55102 130.000
73.57097 115.000
73.59091 132.000
73.61086 129.000
73.63081 129.000
73.65076 127.000
73.67070 129.000
73.69065 151.000
73.71060 166.000
73.73054 150.000
73.75049 144.000
73.77044 143.000
73.79038 145.000
73.81033 149.000
73.83028 119.000
73.85022 145.000
73.87017 140.000
73.89012 155.000
73.91007 164.000
73.93001 179.000
73.94996 144.000
73.96991 138.000
73.98985 140.000
74.00980 136.000
74.02975 133.000
74.04969 132.000
74.06964 141.000
74.08959 135.000
74.10954 136.000
74.12948 150.000
74.14943 155.000
74.16938 154.000
74.18932 158.000
74.20927 145.000
74.22922 157.000
74.24916 158.000
74.26911 142.000
74.28906 129.000
74.30900 155.000
74.32895 162.000
74.34890 171.000
74.36885 150.000
74.38879 156.000
74.40874 154.000
74.42869 168.000
74.44863 202.000
74.46858 193.000
74.48853 188.000
74.50847 207.000
74.52842 187.000
74.54837 185.000
74.56832 171.000
74.58826 205.000
74.60821 172.000
74.62816 180.000
74.64810 172.000
74.66805 182.000
74.68800 173.000
74.70794 153.000
74.72789 171.000
74.74784 125.000
74.76778 137.000
74.78773 150.000
74.80768 160.000
74.82763 144.000
74.84757 130.000
74.86752 123.000
74.88747 157.000
74.90741 114.000
74.92736 112.000
74.94731 125.000
74.96725 149.000
74.98720 124.000
75.00715 137.000
75.02710 124.000
75.04704 127.000
75.06699 120.000
75.08694 118.000
75.10688 115.000
75.12683 134.000
75.14678 110.000
75.16672 138.000
75.18667 146.000
75.20662 134.000
75.22657 137.000
75.24651 136.000
75.26646 135.000
75.28641 168.000
75.30635 143.000
75.32630 135.000
75.34625 140.000
75.36619 145.000
75.38614 166.000
75.40609 140.000
75.42603 145.000
75.44598 135.000
75.46593 159.000
75.48588 158.000
75.50582 156.000
75.52577 134.000
75.54572 152.000
75.56566 125.000
75.58561 134.000
75.60556 154.000
75.62550 107.000
75.64545 127.000
75.66540 135.000
75.68535 118.000
75.70529 122.000
75.72524 113.000
75.74519 120.000
75.76513 113.000
75.78508 111.000
75.80503 116.000
75.82497 114.000
75.84492 123.000
75.86487 119.000
75.88481 125.000
75.90476 105.000
75.92471 93.000
75.94466 121.000
75.96460 96.000
75.98455 114.000
76.00450 106.000
76.02444 110.000
76.04439 92.000
76.06434 95.000
76.08428 92.000
76.10423 85.000
76.12418 110.000
76.14413 104.000
76.16407 100.000
76.18402 94.000
76.20397 89.000
76.22391 127.000
76.24386 104.000
76.26381 98.000
76.28375 102.000
76.30370 111.000
76.32365 110.000
76.34359 105.000
76.36354 91.000
76.38349 102.000
76.40344 97.000
76.42338 124.000
76.44333 113.000
76.46328 105.000
76.48322 100.000
76.50317 109.000
76.52312 112.000
76.54306 109.000
76.56301 112.000
76.58296 132.000
76.60291 117.000
76.62285 115.000
76.64280 119.000
76.66275 116.000
76.68269 146.000
76.70264 129.000
76.72259 130.000
76.74253 137.000
76.76248 141.000
76.78243 131.000
76.80238 138.000
76.82232 127.000
76.84227 144.000
76.86222 133.000
76.88216 135.000
76.90211 145.000
76.92206 126.000
76.94200 121.000
76.96195 138.000
76.98190 134.000
77.00184 144.000
77.02179 155.000
77.04174 149.000
77.06169 136.000
77.08163 142.000
77.10158 140.000
77.12153 146.000
77.14147 169.000
77.16142 164.000
77.18137 140.000
77.20131 162.000
77.22126 191.000
77.24121 136.000
77.26116 169.000
77.28110 151.000
77.30105 144.000
77.32100 152.000
77.34094 150.000
77.36089 159.000
77.38084 150.000
77.40078 164.000
77.42073 183.000
77.44068 174.000
77.46062 142.000
77.48057 132.000
77.50052 169.000
77.52047 144.000
77.54041 148.000
77.56036 124.000
77.58031 142.000
77.60025 144.000
77.62020 122.000
77.64015 130.000
77.66009 126.000
77.68004 130.000
77.69999 131.000
77.71994 123.000
77.73988 121.000
77.75983 116.000
77.77978 108.000
77.79972 90.000
77.81967 123.000
77.83962 87.000
77.85956 107.000
77.87951 114.000
77.89946 111.000
77.91940 112.000
77.93935 104.000
77.95930 96.000
77.97925 106.000
77.99919 109.000
78.01914 101.000
78.03909 101.000
78.05903 107.000
78.07898 98.000
78.09893 97.000
78.11887 93.000
78.13882 104.000
78.15877 111.000
78.17872 97.000
78.19866 103.000
78.21861 98.000
78.23856 105.000
78.25850 99.000
78.27845 102.000
78.29840 105.000
78.31834 103.000
78.33829 111.000
78.35824 97.000
78.37819 112.000
78.39813 111.000
78.41808 102.000
78.43803 105.000
78.45797 92.000
78.47792 96.000
78.49787 107.000
78.51781 97.000
78.53776 104.000
78.55771 103.000
78.57765 89.000
78.59760 128.000
78.61755 75.000
78.63750 96.000
78.65744 82.000
78.67739 96.000
78.69734 114.000
78.71728 104.000
78.73723 93.000
78.75718 94.000
78.77712 113.000
78.79707 95.000
78.81702 97.000
78.83697 104.000
78.85691 101.000
78.87686 116.000
78.89681 119.000
78.91675 103.000
78.93670 101.000
78.95665 97.000
78.97659 109.000
78.99654 116.000
79.01649 107.000
79.03643 104.000
79.05638 106.000
79.07633 107.000
79.09628 124.000
79.11622 112.000
79.13617 112.000
79.15612 115.000
79.17606 133.000
79.19601 131.000
79.21596 114.000
79.23590 138.000
79.25585 144.000
79.27580 147.000
79.29575 123.000
79.31569 117.000
79.33564 123.000
79.35559 146.000
79.37553 150.000
79.39548 122.000
79.41543 144.000
79.43537 135.000
79.45532 150.000
79.47527 129.000
79.49521 153.000
79.51516 131.000
79.53511 175.000
79.55506 134.000
79.57500 143.000
79.59495 138.000
79.61490 128.000
79.63484 142.000
79.65479 125.000
79.67474 133.000
79.69468 134.000
79.71463 121.000
79.73458 129.000
79.75453 129.000
79.77447 118.000
79.79442 147.000
79.81437 123.000
79.83431 111.000
79.85426 115.000
79.87421 130.000
79.89415 130.000
79.91410 136.000
79.93405 116.000
79.95399 131.000
79.97394 125.000
79.99389 110.000
80.01384 118.000
80.03378 122.000
80.05373 111.000
80.07368 97.000
80.09362 127.000
80.11357 119.000
80.13352 126.000
80.15346 108.000
80.17341 116.000
80.19336 134.000
80.21331 109.000
80.23325 98.000
80.25320 115.000
80.27315 123.000
80.29309 107.000
80.31304 90.000
80.33299 108.000
80.35293 119.000
80.37288 105.000
80.39283 118.000
80.41278 125.000
80.43272 101.000
80.45267 105.000
80.47262 128.000
80.49256 110.000
80.51251 127.000
80.53246 92.000
80.55240 98.000
80.57235 100.000
80.59230 92.000
80.61224 88.000
80.63219 108.000
80.65214 102.000
80.67209 80.000
80.69203 106.000
80.71198 104.000
80.73193 101.000
80.75187 95.000
80.77182 95.000
80.79177 99.000
80.81171 112.000
80.83166 97.000
80.85161 97.000
80.87156 92.000
80.89150 95.000
80.91145 98.000
80.93140 99.000
80.95134 130.000
80.97129 76.000
80.99124 108.000
81.01118 89.000
81.03113 118.000
81.05108 105.000
81.07102 109.000
81.09097 101.000
81.11092 93.000
81.13087 111.000
81.15081 112.000
81.17076 98.000
81.19071 108.000
81.21065 107.000
81.23060 89.000
81.25055 96.000
81.27049 87.000
81.29044 116.000
81.31039 107.000
81.33034 105.000
81.35028 109.000
81.37023 101.000
81.39018 105.000
81.41012 95.000
81.43007 90.000
81.45002 96.000
81.46996 113.000
81.48991 89.000
81.50986 99.000
81.52980 90.000
81.54975 86.000
81.56970 116.000
81.58965 114.000
81.60959 101.000
81.62954 92.000
81.64949 101.000
81.66943 112.000
81.68938 95.000
81.70933 91.000
81.72927 91.000
81.74922 104.000
81.76917 90.000
81.78912 84.000
81.80906 101.000
81.82901 101.000
81.84896 88.000
81.86890 106.000
81.88885 90.000
81.90880 100.000
81.92874 78.000
81.94869 97.000
81.96864 96.000
81.98859 103.000
82.00853 105.000
82.02848 93.000
82.04843 104.000
82.06837 111.000
82.08832 92.000
82.10827 99.000
82.12821 91.000
82.14816 108.000
82.16811 96.000
82.18805 117.000
82.20800 82.000
82.22795 90.000
82.24790 103.000
82.26784 99.000
82.28779 107.000
82.30774 105.000
82.32768 97.000
82.34763 93.000
82.36758 95.000
82.38752 98.000
82.40747 82.000
82.42742 92.000
82.44737 70.000
82.46731 104.000
82.48726 105.000
82.50721 109.000
82.52715 98.000
82.54710 112.000
82.56705 77.000
82.58699 118.000
82.60694 94.000
82.62689 95.000
82.64683 116.000
82.66678 102.000
82.68673 102.000
82.70668 87.000
82.72662 94.000
82.74657 95.000
82.76652 80.000
82.78646 96.000
82.80641 115.000
82.82636 90.000
82.84630 103.000
82.86625 92.000
82.88620 87.000
82.90615 89.000
82.92609 108.000
82.94604 109.000
82.96599 97.000
82.98593 96.000
83.00588 102.000
83.02583 100.000
83.04577 98.000
83.06572 87.000
83.08567 88.000
83.10561 100.000
83.12556 101.000
83.14551 94.000
83.16546 92.000
83.18540 101.000
83.20535 94.000
83.22530 99.000
83.24524 106.000
83.26519 97.000
83.28514 81.000
83.30508 124.000
83.32503 82.000
83.34498 82.000
83.36493 105.000
83.38487 102.000
83.40482 84.000
83.42477 104.000
83.44471 91.000
83.46466 87.000
83.48461 93.000
83.50455 98.000
83.52450 90.000
83.54445 103.000
83.56440 93.000
83.58434 98.000
83.60429 98.000
83.62424 102.000
83.64418 103.000
83.66413 99.000
83.68408 87.000
83.70402 86.000
83.72397 97.000
83.74392 101.000
83.76386 87.000
83.78381 84.000
83.80376 108.000
83.82371 96.000
83.84365 95.000
83.86360 82.000
83.88355 105.000
83.90349 89.000
83.92344 85.000
83.94339 111.000
83.96333 97.000
83.98328 98.000
84.00323 85.000
84.02318 94.000
84.04312 100.000
84.06307 93.000
84.08302 88.000
84.10296 108.000
84.12291 87.000
84.14286 92.000
84.16280 74.000
84.18275 104.000
84.20270 96.000
84.22264 75.000
84.24259 107.000
84.26254 87.000
84.28249 88.000
84.30243 106.000
84.32238 89.000
84.34233 91.000
84.36227 87.000
84.38222 111.000
84.40217 97.000
84.42211 87.000
84.44206 93.000
84.46201 101.000
84.48196 108.000
84.50190 95.000
84.52185 96.000
84.54180 81.000
84.56174 91.000
84.58169 86.000
84.60164 84.000
84.62158 89.000
84.64153 102.000
84.66148 93.000
84.68142 104.000
84.70137 81.000
84.72132 99.000
84.74127 99.000
84.76121 93.000
84.78116 90.000
84.80111 83.000
84.82105 99.000
84.84100 97.000
84.86095 95.000
84.88089 108.000
84.90084 103.000
84.92079 94.000
84.94074 94.000
84.96068 119.000
84.98063 107.000
85.00058 81.000
85.02052 101.000
85.04047 98.000
85.06042 91.000
85.08036 73.000
85.10031 95.000
85.12026 98.000
85.14021 105.000
85.16015 93.000
85.18010 96.000
85.20005 89.000
85.21999 84.000
85.23994 118.000
85.25989 112.000
85.27983 91.000
85.29978 86.000
85.31973 99.000
85.33967 86.000
85.35962 101.000
85.37957 111.000
85.39952 81.000
85.41946 103.000
85.43941 106.000
85.45936 82.000
85.47930 110.000
85.49925 100.000
85.51920 102.000
85.53914 93.000
85.55909 86.000
85.57904 86.000
85.59899 95.000
85.61893 86.000
85.63888 93.000
85.65883 116.000
85.67877 96.000
85.69872 98.000
85.71867 96.000
85.73861 92.000
85.75856 85.000
85.77851 87.000
85.79845 88.000
85.81840 93.000
85.83835 100.000
85.85830 98.000
85.87824 90.000
85.89819 121.000
85.91814 105.000
85.93808 90.000
85.95803 78.000
85.97798 91.000
85.99792 85.000
86.01787 100.000
86.03782 90.000
86.05777 80.000
86.07771 104.000
86.09766 103.000
86.11761 96.000
86.13755 94.000
86.15750 95.000
86.17745 106.000
86.19739 98.000
86.21734 101.000
86.23729 88.000
86.25723 77.000
86.27718 94.000
86.29713 102.000
86.31708 87.000
86.33702 89.000
86.35697 75.000
86.37692 97.000
86.39686 84.000
86.41681 100.000
86.43676 100.000
86.45670 112.000
86.47665 92.000
86.49660 101.000
86.51655 101.000
86.53649 119.000
86.55644 78.000
86.57639 95.000
86.59633 114.000
86.61628 100.000
86.63623 94.000
86.65617 97.000
86.67612 106.000
86.69607 106.000
86.71602 120.000
86.73596 87.000
86.75591 103.000
86.77586 93.000
86.79580 89.000
86.81575 93.000
86.83570 99.000
86.85564 94.000
86.87559 93.000
86.89554 81.000
86.91548 94.000
86.93543 92.000
86.95538 108.000
86.97533 112.000
86.99527 101.000
87.01522 96.000
87.03517 104.000
87.05511 102.000
87.07506 106.000
87.09501 105.000
87.11495 98.000
87.13490 95.000
87.15485 93.000
87.17480 91.000
87.19474 101.000
87.21469 119.000
87.23464 123.000
87.25458 102.000
87.27453 91.000
87.29448 110.000
87.31442 142.000
87.33437 125.000
87.35432 114.000
87.37426 119.000
87.39421 115.000
87.41416 131.000
87.43411 113.000
87.45405 119.000
87.47400 130.000
87.49395 131.000
87.51389 132.000
87.53384 114.000
87.55379 103.000
87.57373 114.000
87.59368 100.000
87.61363 129.000
87.63358 121.000
87.65352 111.000
87.67347 132.000
87.69342 104.000
87.71336 111.000
87.73331 119.000
87.75326 112.000
87.77320 95.000
87.79315 124.000
87.81310 108.000
87.83304 109.000
87.85299 97.000
87.87294 84.000
87.89289 103.000
87.91283 102.000
87.93278 87.000
87.95273 78.000
87.97267 109.000
87.99262 109.000
88.01257 81.000
88.03251 91.000
88.05246 86.000
88.07241 92.000
88.09236 93.000
88.11230 86.000
88.13225 102.000
88.15220 90.000
88.17214 100.000
88.19209 103.000
88.21204 96.000
88.23198 105.000
88.25193 96.000
88.27188 97.000
88.29183 103.000
88.31177 83.000
88.33172 108.000
88.35167 92.000
88.37161 83.000
88.39156 104.000
88.41151 118.000
88.43145 73.000
88.45140 91.000
88.47135 102.000
88.49129 105.000
88.51124 90.000
88.53119 93.000
88.55114 90.000
88.57108 97.000
88.59103 101.000
88.61098 101.000
88.63092 107.000
88.65087 104.000
88.67082 92.000
88.69076 104.000
88.71071 107.000
88.73066 99.000
88.75061 77.000
88.77055 90.000
88.79050 106.000
88.81045 120.000
88.83039 96.000
88.85034 87.000
88.87029 104.000
88.89023 99.000
88.91018 99.000
88.93013 94.000
88.95007 100.000
88.97002 105.000
88.98997 91.000
89.00992 101.000
89.02986 91.000
89.04981 102.000
89.06976 100.000
89.08970 93.000
89.10965 95.000
89.12960 105.000
89.14954 113.000
89.16949 108.000
89.18944 110.000
89.20939 119.000
89.22933 101.000
89.24928 95.000
89.26923 107.000
89.28917 109.000
89.30912 93.000
89.32907 107.000
89.34901 95.000
89.36896 105.000
89.38891 104.000
89.40885 96.000
89.42880 104.000
89.44875 85.000
89.46870 94.000
89.48864 118.000
89.50859 93.000
89.52854 99.000
89.54848 111.000
89.56843 102.000
89.58838 104.000
89.60832 103.000
89.62827 95.000
89.64822 108.000
89.66817 103.000
89.68811 107.000
89.70806 104.000
89.72801 103.000
89.74795 108.000
89.76790 129.000
89.78785 93.000
89.80779 105.000
89.82774 135.000
89.84769 99.000
89.86764 113.000
89.88758 124.000
89.90753 136.000
89.92748 123.000
89.94742 132.000
89.96737 112.000
89.98732 114.000
90.00726 131.000
