10.00000 55.000
10.01995 49.000
10.03989 46.000
10.05984 54.000
10.07979 57.000
10.09973 50.000
10.11968 43.000
10.13963 54.000
10.15958 55.000
10.17952 64.000
10.19947 47.000
10.21942 57.000
10.23936 63.000
10.25931 60.000
10.27926 56.000
10.29920 31.000
10.31915 46.000
10.33910 41.000
10.35905 47.000
10.37899 60.000
10.39894 45.000
10.41889 50.000
10.43883 49.000
10.45878 73.000
10.47873 40.000
10.49867 44.000
10.51862 51.000
10.53857 46.000
10.55851 49.000
10.57846 53.000
10.59841 64.000
10.61836 52.000
10.63830 51.000
10.65825 60.000
10.67820 40.000
10.69814 45.000
10.71809 49.000
10.73804 61.000
10.75798 41.000
10.77793 41.000
10.79788 60.000
10.81783 44.000
10.83777 47.000
10.85772 48.000
10.87767 51.000
10.89761 46.000
10.91756 54.000
10.93751 49.000
10.95745 31.000
10.97740 60.000
10.99735 46.000
11.01730 48.000
11.03724 61.000
11.05719 58.000
11.07714 42.000
11.09708 52.000
11.11703 46.000
11.13698 42.000
11.15692 55.000
11.17687 40.000
11.19682 40.000
11.21676 39.000
11.23671 46.000
11.25666 47.000
11.27661 50.000
11.29655 42.000
11.31650 32.000
11.33645 40.000
11.35639 51.000
11.37634 40.000
11.39629 53.000
11.41623 48.000
11.43618 34.000
11.45613 50.000
11.47608 45.000
11.49602 50.000
11.51597 43.000
11.53592 47.000
11.55586 41.000
11.57581 45.000
11.59576 56.000
11.61570 40.000
11.63565 49.000
11.65560 40.000
11.67554 35.000
11.69549 53.000
11.71544 40.000
11.73539 40.000
11.75533 49.000
11.77528 46.000
11.79523 48.000
11.81517 40.000
11.83512 51.000
11.85507 47.000
11.87501 35.000
11.89496 50.000
11.91491 42.000
11.93486 40.000
11.95480 49.000
11.97475 45.000
11.99470 54.000
12.01464 42.000
12.03459 49.000
12.05454 46.000
12.07448 44.000
12.09443 56.000
12.11438 36.000
12.13432 55.000
12.15427 44.000
12.17422 45.000
12.19417 37.000
12.21411 55.000
12.23406 36.000
12.25401 35.000
12.27395 25.000
12.29390 43.000
12.31385 47.000
12.33379 37.000
12.35374 42.000
12.37369 49.000
12.39364 44.000
12.41358 46.000
12.43353 41.000
12.45348 35.000
12.47342 48.000
12.49337 45.000
12.51332 41.000
12.53326 43.000
12.55321 42.000
12.57316 62.000
12.59311 39.000
12.61305 43.000
12.63300 22.000
12.65295 35.000
12.67289 48.000
12.69284 35.000
12.71279 41.000
12.73273 46.000
12.75268 33.000
12.77263 37.000
12.79257 36.000
12.81252 48.000
12.83247 45.000
12.85242 33.000
12.87236 41.000
12.89231 40.000
12.91226 45.000
12.93220 55.000
12.95215 39.000
12.97210 52.000
12.99204 43.000
13.01199 41.000
13.03194 52.000
13.05189 49.000
13.07183 59.000
13.09178 62.000
13.11173 45.000
13.13167 51.000
13.15162 46.000
13.17157 42.000
13.19151 35.000
13.21146 48.000
13.23141 36.000
13.25135 40.000
13.27130 41.000
13.29125 46.000
13.31120 48.000
13.33114 40.000
13.35109 40.000
13.37104 35.000
13.39098 44.000
13.41093 53.000
13.43088 40.000
13.45082 34.000
13.47077 44.000
13.49072 39.000
13.51067 43.000
13.53061 41.000
13.55056 45.000
13.57051 39.000
13.59045 38.000
13.61040 34.000
13.63035 36.000
13.65029 32.000
13.67024 35.000
13.69019 40.000
13.71013 27.000
13.73008 31.000
13.75003 24.000
13.76998 36.000
13.78992 34.000
13.80987 40.000
13.82982 45.000
13.84976 40.000
13.86971 45.000
13.88966 36.000
13.90960 41.000
13.92955 32.000
13.94950 38.000
13.96945 38.000
13.98939 31.000
14.00934 37.000
14.02929 33.000
14.04923 41.000
14.06918 35.000
14.08913 30.000
14.10907 27.000
14.12902 35.000
14.14897 29.000
14.16892 29.000
14.18886 35.000
14.20881 32.000
14.22876 51.000
14.24870 37.000
14.26865 32.000
14.28860 29.000
14.30854 36.000
14.32849 37.000
14.34844 40.000
14.36838 37.000
14.38833 44.000
14.40828 44.000
14.42823 49.000
14.44817 41.000
14.46812 59.000
14.48807 73.000
14.50801 87.000
14.52796 108.000
14.54791 153.000
14.56785 128.000
14.58780 113.000
14.60775 81.000
14.62770 77.000
14.64764 46.000
14.66759 60.000
14.68754 41.000
14.70748 43.000
14.72743 43.000
14.74738 33.000
14.76732 43.000
14.78727 33.000
14.80722 37.000
14.82716 45.000
14.84711 33.000
14.86706 34.000
14.88701 29.000
14.90695 35.000
14.92690 44.000
14.94685 28.000
14.96679 29.000
14.98674 35.000
15.00669 28.000
15.02663 45.000
15.04658 26.000
15.06653 26.000
15.08648 45.000
15.10642 40.000
15.12637 39.000
15.14632 41.000
15.16626 30.000
15.18621 27.000
15.20616 28.000
15.22610 27.000
15.24605 39.000
15.26600 46.000
15.28594 41.000
15.30589 37.000
15.32584 36.000
15.34579 32.000
15.36573 33.000
15.38568 27.000
15.40563 35.000
15.42557 38.000
15.44552 39.000
15.46547 36.000
15.48541 35.000
15.50536 29.000
15.52531 38.000
15.54526 46.000
15.56520 41.000
15.58515 40.000
15.60510 45.000
15.62504 37.000
15.64499 33.000
15.66494 43.000
15.68488 48.000
15.70483 45.000
15.72478 42.000
15.74472 36.000
15.76467 51.000
15.78462 35.000
15.80457 50.000
15.82451 51.000
15.84446 45.000
15.86441 43.000
15.88435 30.000
15.90430 41.000
15.92425 31.000
15.94419 28.000
15.96414 42.000
15.98409 28.000
16.00404 28.000
16.02398 35.000
16.04393 28.000
16.06388 32.000
16.08382 40.000
16.10377 27.000
16.12372 42.000
16.14366 39.000
16.16361 34.000
16.18356 27.000
16.20351 22.000
16.22345 37.000
16.24340 26.000
16.26335 35.000
16.28329 37.000
16.30324 38.000
16.32319 42.000
16.34313 38.000
16.36308 50.000
16.38303 37.000
16.40297 39.000
16.42292 31.000
16.44287 40.000
16.46282 39.000
16.48276 28.000
16.50271 35.000
16.52266 31.000
16.54260 39.000
16.56255 27.000
16.58250 32.000
16.60244 34.000
16.62239 23.000
16.64234 35.000
16.66229 39.000
16.68223 33.000
16.70218 30.000
16.72213 29.000
16.74207 33.000
16.76202 37.000
16.78197 28.000
16.80191 36.000
16.82186 34.000
16.84181 33.000
16.86175 33.000
16.88170 41.000
16.90165 35.000
16.92160 42.000
16.94154 44.000
16.96149 37.000
16.98144 31.000
17.00138 46.000
17.02133 27.000
17.04128 38.000
17.06122 42.000
17.08117 34.000
17.10112 38.000
17.12107 40.000
17.14101 31.000
17.16096 30.000
17.18091 35.000
17.20085 33.000
17.22080 34.000
17.24075 40.000
17.26069 33.000
17.28064 33.000
17.30059 30.000
17.32053 25.000
17.34048 33.000
17.36043 25.000
17.38038 41.000
17.40032 35.000
17.42027 34.000
17.44022 39.000
17.46016 30.000
17.48011 39.000
17.50006 31.000
17.52000 32.000
17.53995 36.000
17.55990 33.000
17.57985 33.000
17.59979 29.000
17.61974 43.000
17.63969 39.000
17.65963 33.000
17.67958 33.000
17.69953 26.000
17.71947 52.000
17.73942 38.000
17.75937 21.000
17.77932 38.000
17.79926 34.000
17.81921 33.000
17.83916 43.000
17.85910 29.000
17.87905 38.000
17.89900 35.000
17.91894 35.000
17.93889 20.000
17.95884 24.000
17.97878 40.000
17.99873 34.000
18.01868 38.000
18.03863 31.000
18.05857 43.000
18.07852 34.000
18.09847 27.000
18.11841 26.000
18.13836 43.000
18.15831 25.000
18.17825 38.000
18.19820 28.000
18.21815 29.000
18.23810 32.000
18.25804 36.000
18.27799 36.000
18.29794 34.000
18.31788 33.000
18.33783 37.000
18.35778 45.000
18.37772 34.000
18.39767 32.000
18.41762 34.000
18.43756 32.000
18.45751 35.000
18.47746 30.000
18.49741 47.000
18.51735 36.000
18.53730 28.000
18.55725 24.000
18.57719 38.000
18.59714 39.000
18.61709 31.000
18.63703 37.000
18.65698 30.000
18.67693 45.000
18.69688 36.000
18.71682 43.000
18.73677 37.000
18.75672 39.000
18.77666 38.000
18.79661 27.000
18.81656 28.000
18.83650 47.000
18.85645 34.000
18.87640 37.000
18.89634 39.000
18.91629 28.000
18.93624 33.000
18.95619 26.000
18.97613 28.000
18.99608 39.000
19.01603 36.000
19.03597 33.000
19.05592 28.000
19.07587 23.000
19.09581 31.000
19.11576 35.000
19.13571 45.000
19.15566 34.000
19.17560 47.000
19.19555 51.000
19.21550 62.000
19.23544 72.000
19.25539 73.000
19.27534 65.000
19.29528 75.000
19.31523 56.000
19.33518 50.000
19.35513 44.000
19.37507 58.000
19.39502 61.000
19.41497 68.000
19.43491 69.000
19.45486 58.000
19.47481 62.000
19.49475 60.000
19.51470 43.000
19.53465 41.000
19.55459 54.000
19.57454 41.000
19.59449 47.000
19.61444 45.000
19.63438 64.000
19.65433 57.000
19.67428 62.000
19.69422 54.000
19.71417 58.000
19.73412 52.000
19.75406 62.000
19.77401 45.000
19.79396 52.000
19.81391 48.000
19.83385 64.000
19.85380 74.000
19.87375 83.000
19.89369 90.000
19.91364 83.000
19.93359 61.000
19.95353 69.000
19.97348 61.000
19.99343 45.000
20.01337 53.000
20.03332 39.000
20.05327 42.000
20.07322 32.000
20.09316 41.000
20.11311 38.000
20.13306 47.000
20.15300 49.000
20.17295 45.000
20.19290 31.000
20.21284 51.000
20.23279 40.000
20.25274 56.000
20.27269 54.000
20.29263 59.000
20.31258 47.000
20.33253 69.000
20.35247 73.000
20.37242 82.000
20.39237 107.000
20.41231 104.000
20.43226 117.000
20.45221 126.000
20.47215 160.000
20.49210 148.000
20.51205 169.000
20.53200 184.000
20.55194 196.000
20.57189 173.000
20.59184 136.000
20.61178 122.000
20.63173 108.000
20.65168 115.000
20.67162 100.000
20.69157 105.000
20.71152 103.000
20.73147 106.000
20.75141 106.000
20.77136 95.000
20.79131 75.000
20.81125 86.000
20.83120 93.000
20.85115 71.000
20.87109 73.000
20.89104 81.000
20.91099 80.000
20.93094 79.000
20.95088 69.000
20.97083 54.000
20.99078 47.000
21.01072 41.000
21.03067 56.000
21.05062 36.000
21.07056 32.000
21.09051 42.000
21.11046 42.000
21.13040 51.000
21.15035 39.000
21.17030 46.000
21.19025 31.000
21.21019 38.000
21.23014 43.000
21.25009 45.000
21.27003 35.000
21.28998 43.000
21.30993 42.000
21.32987 45.000
21.34982 40.000
21.36977 29.000
21.38972 43.000
21.40966 36.000
21.42961 43.000
21.44956 30.000
21.46950 48.000
21.48945 35.000
21.50940 42.000
21.52934 45.000
21.54929 42.000
21.56924 28.000
21.58918 37.000
21.60913 39.000
21.62908 34.000
21.64903 34.000
21.66897 36.000
21.68892 30.000
21.70887 49.000
21.72881 48.000
21.74876 48.000
21.76871 29.000
21.78865 30.000
21.80860 45.000
21.82855 40.000
21.84850 32.000
21.86844 48.000
21.88839 42.000
21.90834 33.000
21.92828 41.000
21.94823 45.000
21.96818 44.000
21.98812 57.000
22.00807 47.000
22.02802 55.000
22.04796 39.000
22.06791 54.000
22.08786 80.000
22.10781 74.000
22.12775 116.000
22.14770 135.000
22.16765 189.000
22.18759 271.000
22.20754 302.000
22.22749 249.000
22.24743 213.000
22.26738 170.000
22.28733 125.000
22.30728 116.000
22.32722 81.000
22.34717 67.000
22.36712 75.000
22.38706 61.000
22.40701 64.000
22.42696 50.000
22.44690 51.000
22.46685 42.000
22.48680 48.000
22.50675 52.000
22.52669 48.000
22.54664 53.000
22.56659 44.000
22.58653 48.000
22.60648 51.000
22.62643 61.000
22.64637 41.000
22.66632 43.000
22.68627 38.000
22.70621 58.000
22.72616 54.000
22.74611 49.000
22.76606 50.000
22.78600 47.000
22.80595 47.000
22.82590 40.000
22.84584 59.000
22.86579 66.000
22.88574 64.000
22.90568 88.000
22.92563 77.000
22.94558 87.000
22.96553 92.000
22.98547 86.000
23.00542 73.000
23.02537 78.000
23.04531 67.000
23.06526 70.000
23.08521 55.000
23.10515 58.000
23.12510 56.000
23.14505 49.000
23.16499 44.000
23.18494 41.000
23.20489 45.000
23.22484 39.000
23.24478 51.000
23.26473 50.000
23.28468 51.000
23.30462 56.000
23.32457 48.000
23.34452 53.000
23.36446 50.000
23.38441 41.000
23.40436 50.000
23.42431 41.000
23.44425 56.000
23.46420 56.000
23.48415 53.000
23.50409 64.000
23.52404 46.000
23.54399 51.000
23.56393 49.000
23.58388 50.000
23.60383 37.000
23.62377 46.000
23.64372 49.000
23.66367 60.000
23.68362 48.000
23.70356 48.000
23.72351 49.000
23.74346 46.000
23.76340 49.000
23.78335 39.000
23.80330 47.000
23.82324 64.000
23.84319 64.000
23.86314 54.000
23.88309 63.000
23.90303 57.000
23.92298 77.000
23.94293 80.000
23.96287 98.000
23.98282 133.000
24.00277 179.000
24.02271 264.000
24.04266 347.000
24.06261 338.000
24.08256 242.000
24.10250 204.000
24.12245 189.000
24.14240 136.000
24.16234 96.000
24.18229 88.000
24.20224 72.000
24.22218 77.000
24.24213 52.000
24.26208 43.000
24.28202 59.000
24.30197 47.000
24.32192 59.000
24.34187 47.000
24.36181 39.000
24.38176 55.000
24.40171 41.000
24.42165 52.000
24.44160 42.000
24.46155 43.000
24.48149 48.000
24.50144 37.000
24.52139 53.000
24.54134 63.000
24.56128 46.000
24.58123 51.000
24.60118 49.000
24.62112 55.000
24.64107 38.000
24.66102 52.000
24.68096 51.000
24.70091 47.000
24.72086 52.000
24.74080 44.000
24.76075 48.000
24.78070 60.000
24.80065 57.000
24.82059 51.000
24.84054 56.000
24.86049 57.000
24.88043 47.000
24.90038 57.000
24.92033 62.000
24.94027 50.000
24.96022 53.000
24.98017 54.000
25.00012 54.000
25.02006 50.000
25.04001 42.000
25.05996 51.000
25.07990 49.000
25.09985 51.000
25.11980 57.000
25.13974 54.000
25.15969 64.000
25.17964 54.000
25.19958 43.000
25.21953 57.000
25.23948 62.000
25.25943 66.000
25.27937 60.000
25.29932 63.000
25.31927 49.000
25.33921 49.000
25.35916 49.000
25.37911 54.000
25.39905 59.000
25.41900 49.000
25.43895 67.000
25.45890 51.000
25.47884 54.000
25.49879 53.000
25.51874 46.000
25.53868 49.000
25.55863 53.000
25.57858 66.000
25.59852 54.000
25.61847 43.000
25.63842 71.000
25.65837 62.000
25.67831 59.000
25.69826 60.000
25.71821 52.000
25.73815 48.000
25.75810 76.000
25.77805 73.000
25.79799 60.000
25.81794 72.000
25.83789 72.000
25.85783 79.000
25.87778 89.000
25.89773 77.000
25.91768 88.000
25.93762 94.000
25.95757 90.000
25.97752 127.000
25.99746 142.000
26.01741 158.000
26.03736 185.000
26.05730 143.000
26.07725 137.000
26.09720 156.000
26.11715 130.000
26.13709 94.000
26.15704 85.000
26.17699 69.000
26.19693 73.000
26.21688 85.000
26.23683 82.000
26.25677 54.000
26.27672 66.000
26.29667 76.000
26.31661 65.000
26.33656 75.000
26.35651 96.000
26.37646 83.000
26.39640 76.000
26.41635 91.000
26.43630 106.000
26.45624 122.000
26.47619 140.000
26.49614 132.000
26.51608 117.000
26.53603 103.000
26.55598 90.000
26.57593 107.000
26.59587 81.000
26.61582 76.000
26.63577 73.000
26.65571 67.000
26.67566 81.000
26.69561 55.000
26.71555 91.000
26.73550 82.000
26.75545 76.000
26.77539 97.000
26.79534 84.000
26.81529 100.000
26.83524 85.000
26.85518 123.000
26.87513 98.000
26.89508 124.000
26.91502 77.000
26.93497 83.000
26.95492 77.000
26.97486 78.000
26.99481 91.000
27.01476 75.000
27.03471 74.000
27.05465 71.000
27.07460 66.000
27.09455 66.000
27.11449 54.000
27.13444 70.000
27.15439 77.000
27.17433 68.000
27.19428 80.000
27.21423 86.000
27.23417 76.000
27.25412 85.000
27.27407 61.000
27.29402 85.000
27.31396 66.000
27.33391 70.000
27.35386 65.000
27.37380 78.000
27.39375 69.000
27.41370 74.000
27.43364 55.000
27.45359 68.000
27.47354 70.000
27.49349 64.000
27.51343 68.000
27.53338 74.000
27.55333 59.000
27.57327 88.000
27.59322 69.000
27.61317 76.000
27.63311 79.000
27.65306 65.000
27.67301 79.000
27.69296 75.000
27.71290 66.000
27.73285 70.000
27.75280 71.000
27.77274 79.000
27.79269 51.000
27.81264 66.000
27.83258 64.000
27.85253 79.000
27.87248 80.000
27.89242 81.000
27.91237 73.000
27.93232 76.000
27.95227 69.000
27.97221 60.000
27.99216 83.000
28.01211 72.000
28.03205 59.000
28.05200 68.000
28.07195 73.000
28.09189 70.000
28.11184 67.000
28.13179 76.000
28.15174 59.000
28.17168 74.000
28.19163 78.000
28.21158 67.000
28.23152 86.000
28.25147 68.000
28.27142 74.000
28.29136 78.000
28.31131 58.000
28.33126 63.000
28.35120 76.000
28.37115 65.000
28.39110 93.000
28.41105 87.000
28.43099 73.000
28.45094 76.000
28.47089 89.000
28.49083 79.000
28.51078 74.000
28.53073 90.000
28.55067 91.000
28.57062 90.000
28.59057 86.000
28.61052 67.000
28.63046 75.000
28.65041 96.000
28.67036 79.000
28.69030 55.000
28.71025 91.000
28.73020 92.000
28.75014 81.000
28.77009 71.000
28.79004 91.000
28.80998 87.000
28.82993 82.000
28.84988 74.000
28.86983 102.000
28.88977 88.000
28.90972 76.000
28.92967 87.000
28.94961 75.000
28.96956 76.000
28.98951 76.000
29.00945 88.000
29.02940 71.000
29.04935 80.000
29.06930 87.000
29.08924 95.000
29.10919 99.000
29.12914 90.000
29.14908 88.000
29.16903 81.000
29.18898 84.000
29.20892 73.000
29.22887 102.000
29.24882 109.000
29.26877 102.000
29.28871 103.000
29.30866 94.000
29.32861 107.000
29.34855 123.000
29.36850 152.000
29.38845 174.000
29.40839 170.000
29.42834 225.000
29.44829 289.000
29.46823 264.000
29.48818 237.000
29.50813 215.000
29.52808 207.000
29.54802 167.000
29.56797 192.000
29.58792 140.000
29.60786 131.000
29.62781 112.000
29.64776 83.000
29.66770 94.000
29.68765 85.000
29.70760 117.000
29.72755 107.000
29.74749 112.000
29.76744 90.000
29.78739 119.000
29.80733 106.000
29.82728 116.000
29.84723 101.000
29.86717 98.000
29.88712 100.000
29.90707 95.000
29.92701 86.000
29.94696 92.000
29.96691 100.000
29.98686 77.000
30.00680 82.000
30.02675 120.000
30.04670 82.000
30.06664 78.000
30.08659 101.000
30.10654 89.000
30.12648 104.000
30.14643 93.000
30.16638 93.000
30.18633 105.000
30.20627 101.000
30.22622 125.000
30.24617 123.000
30.26611 131.000
30.28606 181.000
30.30601 199.000
30.32595 237.000
30.34590 346.000
30.36585 429.000
30.38579 424.000
30.40574 400.000
30.42569 373.000
30.44564 324.000
30.46558 307.000
30.48553 262.000
30.50548 180.000
30.52542 144.000
30.54537 127.000
30.56532 112.000
30.58526 104.000
30.60521 108.000
30.62516 93.000
30.64511 101.000
30.66505 95.000
30.68500 89.000
30.70495 102.000
30.72489 108.000
30.74484 107.000
30.76479 87.000
30.78473 103.000
30.80468 91.000
30.82463 73.000
30.84458 71.000
30.86452 78.000
30.88447 95.000
30.90442 70.000
30.92436 85.000
30.94431 70.000
30.96426 78.000
30.98420 85.000
31.00415 75.000
31.02410 86.000
31.04404 60.000
31.06399 66.000
31.08394 68.000
31.10389 77.000
31.12383 84.000
31.14378 84.000
31.16373 66.000
31.18367 95.000
31.20362 79.000
31.22357 93.000
31.24351 88.000
31.26346 80.000
31.28341 65.000
31.30336 86.000
31.32330 96.000
31.34325 91.000
31.36320 92.000
31.38314 97.000
31.40309 104.000
31.42304 99.000
31.44298 116.000
31.46293 97.000
31.48288 103.000
31.50282 127.000
31.52277 114.000
31.54272 83.000
31.56267 117.000
31.58261 87.000
31.60256 77.000
31.62251 101.000
31.64245 89.000
31.66240 101.000
31.68235 98.000
31.70229 79.000
31.72224 71.000
31.74219 89.000
31.76214 91.000
31.78208 88.000
31.80203 80.000
31.82198 68.000
31.84192 93.000
31.86187 92.000
31.88182 81.000
31.90176 72.000
31.92171 88.000
31.94166 77.000
31.96160 68.000
31.98155 80.000
32.00150 77.000
32.02145 83.000
32.04139 73.000
32.06134 87.000
32.08129 72.000
32.10123 68.000
32.12118 77.000
32.14113 89.000
32.16107 83.000
32.18102 72.000
32.20097 87.000
32.22092 71.000
32.24086 88.000
32.26081 65.000
32.28076 78.000
32.30070 74.000
32.32065 90.000
32.34060 81.000
32.36054 91.000
32.38049 92.000
32.40044 79.000
32.42039 79.000
32.44033 105.000
32.46028 89.000
32.48023 75.000
32.50017 88.000
32.52012 75.000
32.54007 87.000
32.56001 90.000
32.57996 88.000
32.59991 71.000
32.61985 87.000
32.63980 70.000
32.65975 87.000
32.67970 91.000
32.69964 78.000
32.71959 93.000
32.73954 90.000
32.75948 90.000
32.77943 105.000
32.79938 97.000
32.81932 107.000
32.83927 97.000
32.85922 120.000
32.87917 132.000
32.89911 148.000
32.91906 164.000
32.93901 184.000
32.95895 186.000
32.97890 242.000
32.99885 378.000
33.01879 525.000
33.03874 879.000
33.05869 1087.000
33.07863 956.000
33.09858 713.000
33.11853 665.000
33.13848 715.000
33.15842 668.000
33.17837 466.000
33.19832 288.000
33.21826 239.000
33.23821 187.000
33.25816 174.000
33.27810 142.000
33.29805 128.000
33.31800 115.000
33.33795 96.000
33.35789 117.000
33.37784 82.000
33.39779 109.000
33.41773 117.000
33.43768 125.000
33.45763 104.000
33.47757 113.000
33.49752 102.000
33.51747 108.000
33.53741 121.000
33.55736 136.000
33.57731 144.000
33.59726 148.000
33.61720 183.000
33.63715 216.000
33.65710 238.000
33.67704 362.000
33.69699 462.000
33.71694 490.000
33.73688 471.000
33.75683 384.000
33.77678 393.000
33.79673 405.000
33.81667 375.000
33.83662 337.000
33.85657 302.000
33.87651 312.000
33.89646 270.000
33.91641 290.000
33.93635 280.000
33.95630 280.000
33.97625 273.000
33.99620 326.000
34.01614 415.000
34.03609 464.000
34.05604 535.000
34.07598 482.000
34.09593 385.000
34.11588 355.000
34.13582 401.000
34.15577 385.000
34.17572 290.000
34.19566 278.000
34.21561 240.000
34.23556 181.000
34.25551 187.000
34.27545 181.000
34.29540 162.000
34.31535 138.000
34.33529 143.000
34.35524 121.000
34.37519 127.000
34.39513 111.000
34.41508 89.000
34.43503 124.000
34.45498 104.000
34.47492 103.000
34.49487 99.000
34.51482 100.000
34.53476 116.000
34.55471 92.000
34.57466 121.000
34.59460 134.000
34.61455 162.000
34.63450 193.000
34.65444 217.000
34.67439 281.000
34.69434 240.000
34.71429 211.000
34.73423 220.000
34.75418 225.000
34.77413 199.000
34.79407 181.000
34.81402 143.000
34.83397 124.000
34.85391 121.000
34.87386 113.000
34.89381 110.000
34.91376 117.000
34.93370 101.000
34.95365 90.000
34.97360 161.000
34.99354 172.000
35.01349 190.000
35.03344 240.000
35.05338 248.000
35.07333 254.000
35.09328 212.000
35.11322 196.000
35.13317 198.000
35.15312 169.000
35.17307 172.000
35.19301 150.000
35.21296 139.000
35.23291 109.000
35.25285 98.000
35.27280 117.000
35.29275 120.000
35.31269 98.000
35.33264 112.000
35.35259 94.000
35.37254 129.000
35.39248 158.000
35.41243 148.000
35.43238 192.000
35.45232 213.000
35.47227 273.000
35.49222 416.000
35.51216 582.000
35.53211 704.000
35.55206 644.000
35.57201 498.000
35.59195 458.000
35.61190 467.000
35.63185 470.000
35.65179 345.000
35.67174 250.000
35.69169 186.000
35.71163 150.000
35.73158 144.000
35.75153 126.000
35.77147 122.000
35.79142 92.000
35.81137 89.000
35.83132 86.000
35.85126 75.000
35.87121 79.000
35.89116 90.000
35.91110 92.000
35.93105 78.000
35.95100 76.000
35.97094 59.000
35.99089 77.000
36.01084 71.000
36.03079 73.000
36.05073 55.000
36.07068 65.000
36.09063 55.000
36.11057 58.000
36.13052 59.000
36.15047 58.000
36.17041 61.000
36.19036 63.000
36.21031 58.000
36.23025 69.000
36.25020 44.000
36.27015 59.000
36.29010 61.000
36.31004 58.000
36.32999 55.000
36.34994 73.000
36.36988 68.000
36.38983 54.000
36.40978 74.000
36.42972 63.000
36.44967 67.000
36.46962 69.000
36.48957 84.000
36.50951 82.000
36.52946 102.000
36.54941 133.000
36.56935 144.000
36.58930 137.000
36.60925 133.000
36.62919 101.000
36.64914 110.000
36.66909 120.000
36.68903 118.000
36.70898 115.000
36.72893 95.000
36.74888 131.000
36.76882 135.000
36.78877 115.000
36.80872 101.000
36.82866 108.000
36.84861 95.000
36.86856 89.000
36.88850 84.000
36.90845 89.000
36.92840 66.000
36.94835 86.000
36.96829 70.000
36.98824 67.000
37.00819 61.000
37.02813 49.000
37.04808 60.000
37.06803 56.000
37.08797 60.000
37.10792 53.000
37.12787 53.000
37.14781 53.000
37.16776 53.000
37.18771 65.000
37.20766 48.000
37.22760 58.000
37.24755 51.000
37.26750 58.000
37.28744 72.000
37.30739 39.000
37.32734 53.000
37.34728 51.000
37.36723 64.000
37.38718 43.000
37.40713 63.000
37.42707 68.000
37.44702 52.000
37.46697 46.000
37.48691 60.000
37.50686 62.000
37.52681 46.000
37.54675 57.000
37.56670 61.000
37.58665 61.000
37.60660 49.000
37.62654 49.000
37.64649 59.000
37.66644 56.000
37.68638 58.000
37.70633 55.000
37.72628 73.000
37.74622 45.000
37.76617 54.000
37.78612 64.000
37.80606 67.000
37.82601 57.000
37.84596 56.000
37.86591 58.000
37.88585 49.000
37.90580 55.000
37.92575 63.000
37.94569 59.000
37.96564 69.000
37.98559 75.000
38.00553 53.000
38.02548 63.000
38.04543 64.000
38.06538 65.000
38.08532 63.000
38.10527 50.000
38.12522 58.000
38.14516 68.000
38.16511 70.000
38.18506 60.000
38.20500 45.000
38.22495 63.000
38.24490 46.000
38.26484 58.000
38.28479 53.000
38.30474 55.000
38.32469 46.000
38.34463 52.000
38.36458 51.000
38.38453 57.000
38.40447 63.000
38.42442 52.000
38.44437 52.000
38.46431 66.000
38.48426 55.000
38.50421 48.000
38.52416 54.000
38.54410 47.000
38.56405 65.000
38.58400 53.000
38.60394 50.000
38.62389 45.000
38.64384 48.000
38.66378 54.000
38.68373 43.000
38.70368 38.000
38.72362 60.000
38.74357 52.000
38.76352 46.000
38.78347 61.000
38.80341 54.000
38.82336 47.000
38.84331 53.000
38.86325 49.000
38.88320 38.000
38.90315 66.000
38.92309 60.000
38.94304 58.000
38.96299 51.000
38.98294 53.000
39.00288 50.000
39.02283 50.000
39.04278 56.000
39.06272 53.000
39.08267 63.000
39.10262 70.000
39.12256 67.000
39.14251 68.000
39.16246 71.000
39.18241 60.000
39.20235 90.000
39.22230 66.000
39.24225 64.000
39.26219 49.000
39.28214 63.000
39.30209 77.000
39.32203 60.000
39.34198 49.000
39.36193 69.000
39.38187 51.000
39.40182 58.000
39.42177 46.000
39.44172 57.000
39.46166 56.000
39.48161 52.000
39.50156 60.000
39.52150 55.000
39.54145 67.000
39.56140 54.000
39.58134 45.000
39.60129 62.000
39.62124 66.000
39.64119 62.000
39.66113 50.000
39.68108 46.000
39.70103 63.000
39.72097 59.000
39.74092 55.000
39.76087 57.000
39.78081 54.000
39.80076 63.000
39.82071 62.000
39.84065 60.000
39.86060 86.000
39.88055 84.000
39.90050 71.000
39.92044 84.000
39.94039 77.000
39.96034 44.000
39.98028 44.000
40.00023 73.000
40.02018 72.000
40.04012 50.000
40.06007 55.000
40.08002 59.000
40.09997 61.000
40.11991 59.000
40.13986 54.000
40.15981 63.000
40.17975 60.000
40.19970 72.000
40.21965 65.000
40.23959 46.000
40.25954 58.000
40.27949 62.000
40.29943 59.000
40.31938 54.000
40.33933 69.000
40.35928 70.000
40.37922 65.000
40.39917 64.000
40.41912 68.000
40.43906 61.000
40.45901 68.000
40.47896 75.000
40.49890 65.000
40.51885 61.000
40.53880 69.000
40.55875 67.000
40.57869 70.000
40.59864 76.000
40.61859 81.000
40.63853 74.000
40.65848 105.000
40.67843 79.000
40.69837 110.000
40.71832 147.000
40.73827 226.000
40.75822 236.000
40.77816 221.000
40.79811 188.000
40.81806 153.000
40.83800 183.000
40.85795 161.000
40.87790 165.000
40.89784 141.000
40.91779 96.000
40.93774 88.000
40.95768 89.000
40.97763 71.000
40.99758 71.000
41.01753 60.000
41.03747 70.000
41.05742 59.000
41.07737 69.000
41.09731 57.000
41.11726 56.000
41.13721 46.000
41.15715 53.000
41.17710 57.000
41.19705 61.000
41.21700 59.000
41.23694 59.000
41.25689 63.000
41.27684 49.000
41.29678 63.000
41.31673 76.000
41.33668 74.000
41.35662 54.000
41.37657 68.000
41.39652 75.000
41.41646 61.000
41.43641 80.000
41.45636 59.000
41.47631 70.000
41.49625 74.000
41.51620 86.000
41.53615 65.000
41.55609 62.000
41.57604 62.000
41.59599 60.000
41.61593 70.000
41.63588 68.000
41.65583 59.000
41.67578 42.000
41.69572 60.000
41.71567 67.000
41.73562 57.000
41.75556 49.000
41.77551 49.000
41.79546 49.000
41.81540 59.000
41.83535 58.000
41.85530 56.000
41.87524 44.000
41.89519 62.000
41.91514 52.000
41.93509 68.000
41.95503 54.000
41.97498 50.000
41.99493 62.000
42.01487 55.000
42.03482 52.000
42.05477 54.000
42.07471 55.000
42.09466 59.000
42.11461 68.000
42.13456 54.000
42.15450 49.000
42.17445 50.000
42.19440 35.000
42.21434 60.000
42.23429 58.000
42.25424 49.000
42.27418 59.000
42.29413 44.000
42.31408 47.000
42.33403 48.000
42.35397 68.000
42.37392 53.000
42.39387 58.000
42.41381 56.000
42.43376 74.000
42.45371 56.000
42.47365 57.000
42.49360 68.000
42.51355 55.000
42.53349 58.000
42.55344 57.000
42.57339 50.000
42.59334 56.000
42.61328 46.000
42.63323 56.000
42.65318 51.000
42.67312 79.000
42.69307 55.000
42.71302 52.000
42.73296 52.000
42.75291 55.000
42.77286 46.000
42.79281 51.000
42.81275 45.000
42.83270 63.000
42.85265 50.000
42.87259 47.000
42.89254 37.000
42.91249 49.000
42.93243 55.000
42.95238 55.000
42.97233 48.000
42.99227 43.000
43.01222 59.000
43.03217 55.000
43.05212 62.000
43.07206 45.000
43.09201 51.000
43.11196 48.000
43.13190 69.000
43.15185 48.000
43.17180 67.000
43.19174 65.000
43.21169 73.000
43.23164 51.000
43.25159 56.000
43.27153 55.000
43.29148 50.000
43.31143 65.000
43.33137 62.000
43.35132 56.000
43.37127 67.000
43.39121 82.000
43.41116 67.000
43.43111 61.000
43.45105 76.000
43.47100 56.000
43.49095 72.000
43.51090 57.000
43.53084 73.000
43.55079 68.000
43.57074 54.000
43.59068 67.000
43.61063 68.000
43.63058 76.000
43.65052 80.000
43.67047 94.000
43.69042 85.000
43.71037 96.000
43.73031 90.000
43.75026 88.000
43.77021 82.000
43.79015 74.000
43.81010 86.000
43.83005 90.000
43.84999 79.000
43.86994 91.000
43.88989 69.000
43.90984 61.000
43.92978 54.000
43.94973 59.000
43.96968 60.000
43.98962 66.000
44.00957 47.000
44.02952 56.000
44.04946 60.000
44.06941 67.000
44.08936 63.000
44.10930 55.000
44.12925 74.000
44.14920 59.000
44.16915 46.000
44.18909 49.000
44.20904 60.000
44.22899 71.000
44.24893 44.000
44.26888 47.000
44.28883 56.000
44.30877 51.000
44.32872 53.000
44.34867 46.000
44.36862 45.000
44.38856 52.000
44.40851 40.000
44.42846 40.000
44.44840 53.000
44.46835 36.000
44.48830 56.000
44.50824 52.000
44.52819 53.000
44.54814 49.000
44.56808 41.000
44.58803 46.000
44.60798 48.000
44.62793 43.000
44.64787 47.000
44.66782 41.000
44.68777 45.000
44.70771 46.000
44.72766 60.000
44.74761 41.000
44.76755 56.000
44.78750 43.000
44.80745 52.000
44.82740 53.000
44.84734 43.000
44.86729 53.000
44.88724 75.000
44.90718 74.000
44.92713 57.000
44.94708 60.000
44.96702 58.000
44.98697 61.000
45.00692 52.000
45.02686 78.000
45.04681 60.000
45.06676 48.000
45.08671 59.000
45.10665 62.000
45.12660 53.000
45.14655 71.000
45.16649 52.000
45.18644 55.000
45.20639 49.000
45.22633 50.000
45.24628 51.000
45.26623 51.000
45.28618 55.000
45.30612 47.000
45.32607 58.000
45.34602 64.000
45.36596 76.000
45.38591 98.000
45.40586 122.000
45.42580 118.000
45.44575 92.000
45.46570 81.000
45.48565 72.000
45.50559 75.000
45.52554 77.000
45.54549 71.000
45.56543 66.000
45.58538 67.000
45.60533 69.000
45.62527 45.000
45.64522 61.000
45.66517 66.000
45.68511 75.000
45.70506 91.000
45.72501 74.000
45.74496 116.000
45.76490 110.000
45.78485 115.000
45.80480 100.000
45.82474 92.000
45.84469 82.000
45.86464 86.000
45.88458 85.000
45.90453 84.000
45.92448 71.000
45.94443 57.000
45.96437 61.000
45.98432 59.000
46.00427 60.000
46.02421 72.000
46.04416 54.000
46.06411 39.000
46.08405 42.000
46.10400 58.000
46.12395 51.000
46.14389 58.000
46.16384 50.000
46.18379 49.000
46.20374 51.000
46.22368 71.000
46.24363 63.000
46.26358 58.000
46.28352 76.000
46.30347 77.000
46.32342 79.000
46.34336 121.000
46.36331 108.000
46.38326 113.000
46.40321 107.000
46.42315 109.000
46.44310 81.000
46.46305 100.000
46.48299 87.000
46.50294 71.000
46.52289 71.000
46.54283 74.000
46.56278 54.000
46.58273 60.000
46.60267 71.000
46.62262 51.000
46.64257 47.000
46.66252 32.000
46.68246 46.000
46.70241 42.000
46.72236 47.000
46.74230 40.000
46.76225 35.000
46.78220 39.000
46.80214 46.000
46.82209 50.000
46.84204 42.000
46.86199 33.000
46.88193 36.000
46.90188 36.000
46.92183 40.000
46.94177 49.000
46.96172 37.000
46.98167 35.000
47.00161 40.000
47.02156 39.000
47.04151 38.000
47.06146 27.000
47.08140 37.000
47.10135 42.000
47.12130 35.000
47.14124 41.000
47.16119 37.000
47.18114 55.000
47.20108 33.000
47.22103 39.000
47.24098 30.000
47.26092 33.000
47.28087 37.000
47.30082 45.000
47.32077 37.000
47.34071 40.000
47.36066 41.000
47.38061 24.000
47.40055 43.000
47.42050 40.000
47.44045 36.000
47.46039 47.000
47.48034 36.000
47.50029 38.000
47.52024 46.000
47.54018 39.000
47.56013 35.000
47.58008 40.000
47.60002 45.000
47.61997 39.000
47.63992 48.000
47.65986 41.000
47.67981 46.000
47.69976 31.000
47.71970 53.000
47.73965 31.000
47.75960 57.000
47.77955 45.000
47.79949 43.000
47.81944 43.000
47.83939 35.000
47.85933 38.000
47.87928 37.000
47.89923 42.000
47.91917 40.000
47.93912 32.000
47.95907 39.000
47.97902 43.000
47.99896 40.000
48.01891 48.000
48.03886 41.000
48.05880 45.000
48.07875 38.000
48.09870 44.000
48.11864 37.000
48.13859 50.000
48.15854 46.000
48.17848 37.000
48.19843 44.000
48.21838 44.000
48.23833 42.000
48.25827 44.000
48.27822 45.000
48.29817 42.000
48.31811 43.000
48.33806 53.000
48.35801 48.000
48.37795 60.000
48.39790 35.000
48.41785 41.000
48.43780 40.000
48.45774 50.000
48.47769 57.000
48.49764 48.000
48.51758 45.000
48.53753 49.000
48.55748 41.000
48.57742 42.000
48.59737 47.000
48.61732 43.000
48.63726 51.000
48.65721 39.000
48.67716 52.000
48.69711 56.000
48.71705 46.000
48.73700 46.000
48.75695 48.000
48.77689 46.000
48.79684 48.000
48.81679 45.000
48.83673 51.000
48.85668 50.000
48.87663 49.000
48.89658 46.000
48.91652 38.000
48.93647 51.000
48.95642 49.000
48.97636 49.000
48.99631 49.000
49.01626 57.000
49.03620 67.000
49.05615 53.000
49.07610 78.000
49.09605 68.000
49.11599 72.000
49.13594 82.000
49.15589 61.000
49.17583 65.000
49.19578 79.000
49.21573 80.000
49.23567 84.000
49.25562 102.000
49.27557 130.000
49.29551 132.000
49.31546 204.000
49.33541 243.000
49.35536 332.000
49.37530 335.000
49.39525 291.000
49.41520 207.000
49.43514 217.000
49.45509 183.000
49.47504 197.000
49.49498 200.000
49.51493 178.000
49.53488 155.000
49.55483 116.000
49.57477 88.000
49.59472 66.000
49.61467 73.000
49.63461 57.000
49.65456 51.000
49.67451 51.000
49.69445 36.000
49.71440 44.000
49.73435 50.000
49.75429 41.000
49.77424 43.000
49.79419 34.000
49.81414 36.000
49.83408 32.000
49.85403 36.000
49.87398 32.000
49.89392 44.000
49.91387 28.000
49.93382 17.000
49.95376 42.000
49.97371 26.000
49.99366 34.000
50.01361 41.000
50.03355 36.000
50.05350 33.000
50.07345 37.000
50.09339 40.000
50.11334 31.000
50.13329 43.000
50.15323 33.000
50.17318 45.000
50.19313 44.000
50.21307 38.000
50.23302 41.000
50.25297 39.000
50.27292 42.000
50.29286 38.000
50.31281 37.000
50.33276 36.000
50.35270 34.000
50.37265 29.000
50.39260 45.000
50.41254 38.000
50.43249 39.000
50.45244 34.000
50.47239 32.000
50.49233 40.000
50.51228 35.000
50.53223 34.000
50.55217 26.000
50.57212 35.000
50.59207 27.000
50.61201 36.000
50.63196 41.000
50.65191 32.000
50.67186 40.000
50.69180 42.000
50.71175 34.000
50.73170 53.000
50.75164 51.000
50.77159 45.000
50.79154 52.000
50.81148 51.000
50.83143 46.000
50.85138 47.000
50.87132 52.000
50.89127 53.000
50.91122 44.000
50.93117 60.000
50.95111 51.000
50.97106 51.000
50.99101 48.000
51.01095 73.000
51.03090 48.000
51.05085 58.000
51.07079 42.000
51.09074 55.000
51.11069 39.000
51.13064 40.000
51.15058 37.000
51.17053 40.000
51.19048 42.000
51.21042 41.000
51.23037 30.000
51.25032 30.000
51.27026 33.000
51.29021 29.000
51.31016 46.000
51.33010 46.000
51.35005 35.000
51.37000 31.000
51.38995 48.000
51.40989 34.000
51.42984 39.000
51.44979 50.000
51.46973 35.000
51.48968 31.000
51.50963 52.000
51.52957 46.000
51.54952 47.000
51.56947 35.000
51.58942 32.000
51.60936 29.000
51.62931 29.000
51.64926 35.000
51.66920 36.000
51.68915 37.000
51.70910 32.000
51.72904 35.000
51.74899 42.000
51.76894 39.000
51.78888 25.000
51.80883 35.000
51.82878 38.000
51.84873 29.000
51.86867 31.000
51.88862 31.000
51.90857 29.000
51.92851 33.000
51.94846 35.000
51.96841 30.000
51.98835 23.000
52.00830 28.000
52.02825 34.000
52.04820 37.000
52.06814 29.000
52.08809 29.000
52.10804 34.000
52.12798 32.000
52.14793 24.000
52.16788 28.000
52.18782 27.000
52.20777 37.000
52.22772 30.000
52.24767 40.000
52.26761 41.000
52.28756 32.000
52.30751 37.000
52.32745 22.000
52.34740 46.000
52.36735 37.000
52.38729 36.000
52.40724 37.000
52.42719 36.000
52.44713 41.000
52.46708 35.000
52.48703 40.000
52.50698 45.000
52.52692 37.000
52.54687 37.000
52.56682 41.000
52.58676 40.000
52.60671 38.000
52.62666 37.000
52.64660 37.000
52.66655 56.000
52.68650 55.000
52.70645 40.000
52.72639 40.000
52.74634 51.000
52.76629 63.000
52.78623 67.000
52.80618 76.000
52.82613 77.000
52.84607 90.000
52.86602 104.000
52.88597 129.000
52.90591 127.000
52.92586 172.000
52.94581 170.000
52.96576 149.000
52.98570 159.000
53.00565 123.000
53.02560 107.000
53.04554 128.000
53.06549 113.000
53.08544 106.000
53.10538 91.000
53.12533 89.000
53.14528 62.000
53.16523 62.000
53.18517 60.000
53.20512 60.000
53.22507 45.000
53.24501 42.000
53.26496 37.000
53.28491 44.000
53.30485 33.000
53.32480 44.000
53.34475 59.000
53.36469 44.000
53.38464 52.000
53.40459 47.000
53.42454 41.000
53.44448 44.000
53.46443 58.000
53.48438 46.000
53.50432 50.000
53.52427 54.000
53.54422 46.000
53.56416 45.000
53.58411 61.000
53.60406 63.000
53.62401 59.000
53.64395 74.000
53.66390 63.000
53.68385 61.000
53.70379 60.000
53.72374 78.000
53.74369 73.000
53.76363 90.000
53.78358 80.000
53.80353 88.000
53.82348 100.000
53.84342 112.000
53.86337 118.000
53.88332 122.000
53.90326 158.000
53.92321 282.000
53.94316 334.000
53.96310 404.000
53.98305 474.000
54.00300 351.000
54.02294 298.000
54.04289 256.000
54.06284 223.000
54.08279 247.000
54.10273 240.000
54.12268 273.000
54.14263 195.000
54.16257 163.000
54.18252 130.000
54.20247 95.000
54.22241 82.000
54.24236 80.000
54.26231 66.000
54.28226 48.000
54.30220 61.000
54.32215 45.000
54.34210 34.000
54.36204 50.000
54.38199 38.000
54.40194 45.000
54.42188 50.000
54.44183 43.000
54.46178 36.000
54.48172 52.000
54.50167 48.000
54.52162 49.000
54.54157 49.000
54.56151 49.000
54.58146 70.000
54.60141 75.000
54.62135 79.000
54.64130 91.000
54.66125 77.000
54.68119 73.000
54.70114 62.000
54.72109 65.000
54.74104 76.000
54.76098 74.000
54.78093 72.000
54.80088 72.000
54.82082 69.000
54.84077 66.000
54.86072 61.000
54.88066 65.000
54.90061 52.000
54.92056 55.000
54.94050 46.000
54.96045 61.000
54.98040 43.000
55.00035 47.000
55.02029 47.000
55.04024 51.000
55.06019 41.000
55.08013 38.000
55.10008 40.000
55.12003 39.000
55.13997 46.000
55.15992 39.000
55.17987 26.000
55.19982 32.000
55.21976 41.000
55.23971 38.000
55.25966 35.000
55.27960 36.000
55.29955 38.000
55.31950 41.000
55.33944 34.000
55.35939 32.000
55.37934 27.000
55.39929 24.000
55.41923 27.000
55.43918 33.000
55.45913 37.000
55.47907 31.000
55.49902 23.000
55.51897 41.000
55.53891 44.000
55.55886 38.000
55.57881 35.000
55.59875 40.000
55.61870 46.000
55.63865 45.000
55.65860 52.000
55.67854 42.000
55.69849 49.000
55.71844 48.000
55.73838 42.000
55.75833 52.000
55.77828 42.000
55.79822 43.000
55.81817 50.000
55.83812 45.000
55.85807 44.000
55.87801 39.000
55.89796 44.000
55.91791 39.000
55.93785 44.000
55.95780 38.000
55.97775 61.000
55.99769 45.000
56.01764 58.000
56.03759 57.000
56.05753 66.000
56.07748 46.000
56.09743 45.000
56.11738 58.000
56.13732 46.000
56.15727 47.000
56.17722 48.000
56.19716 50.000
56.21711 49.000
56.23706 33.000
56.25700 35.000
56.27695 41.000
56.29690 46.000
56.31685 33.000
56.33679 41.000
56.35674 34.000
56.37669 38.000
56.39663 41.000
56.41658 36.000
56.43653 41.000
56.45647 36.000
56.47642 26.000
56.49637 30.000
56.51631 32.000
56.53626 33.000
56.55621 38.000
56.57616 33.000
56.59610 28.000
56.61605 35.000
56.63600 21.000
56.65594 32.000
56.67589 33.000
56.69584 25.000
56.71578 26.000
56.73573 21.000
56.75568 38.000
56.77563 33.000
56.79557 32.000
56.81552 36.000
56.83547 33.000
56.85541 23.000
56.87536 45.000
56.89531 38.000
56.91525 40.000
56.93520 38.000
56.95515 33.000
56.97510 38.000
56.99504 37.000
57.01499 42.000
57.03494 34.000
57.05488 47.000
57.07483 50.000
57.09478 50.000
57.11472 41.000
57.13467 49.000
57.15462 57.000
57.17456 40.000
57.19451 50.000
57.21446 67.000
57.23441 42.000
57.25435 59.000
57.27430 40.000
57.29425 60.000
57.31419 62.000
57.33414 55.000
57.35409 72.000
57.37403 67.000
57.39398 68.000
57.41393 76.000
57.43388 84.000
57.45382 81.000
57.47377 87.000
57.49372 109.000
57.51366 110.000
57.53361 87.000
57.55356 84.000
57.57350 65.000
57.59345 74.000
57.61340 72.000
57.63334 69.000
57.65329 69.000
57.67324 56.000
57.69319 59.000
57.71313 59.000
57.73308 38.000
57.75303 39.000
57.77297 36.000
57.79292 46.000
57.81287 34.000
57.83281 27.000
57.85276 23.000
57.87271 30.000
57.89266 27.000
57.91260 31.000
57.93255 39.000
57.95250 31.000
57.97244 35.000
57.99239 35.000
58.01234 30.000
58.03228 33.000
58.05223 30.000
58.07218 36.000
58.09212 28.000
58.11207 29.000
58.13202 24.000
58.15197 25.000
58.17191 20.000
58.19186 41.000
58.21181 25.000
58.23175 34.000
58.25170 30.000
58.27165 31.000
58.29159 34.000
58.31154 25.000
58.33149 30.000
58.35144 37.000
58.37138 35.000
58.39133 27.000
58.41128 29.000
58.43122 31.000
58.45117 28.000
58.47112 26.000
58.49106 22.000
58.51101 33.000
58.53096 20.000
58.55090 25.000
58.57085 27.000
58.59080 31.000
58.61075 26.000
58.63069 22.000
58.65064 26.000
58.67059 24.000
58.69053 39.000
58.71048 22.000
58.73043 25.000
58.75037 27.000
58.77032 31.000
58.79027 26.000
58.81022 34.000
58.83016 41.000
58.85011 42.000
58.87006 40.000
58.89000 34.000
58.90995 25.000
58.92990 39.000
58.94984 17.000
58.96979 24.000
58.98974 25.000
59.00969 30.000
59.02963 21.000
59.04958 35.000
59.06953 28.000
59.08947 25.000
59.10942 38.000
59.12937 30.000
59.14931 41.000
59.16926 38.000
59.18921 45.000
59.20915 33.000
59.22910 35.000
59.24905 53.000
59.26900 32.000
59.28894 46.000
59.30889 25.000
59.32884 35.000
59.34878 27.000
59.36873 39.000
59.38868 35.000
59.40862 27.000
59.42857 35.000
59.44852 36.000
59.46847 39.000
59.48841 33.000
59.50836 35.000
59.52831 44.000
59.54825 32.000
59.56820 40.000
59.58815 39.000
59.60809 38.000
59.62804 38.000
59.64799 49.000
59.66793 32.000
59.68788 52.000
59.70783 46.000
59.72778 60.000
59.74772 60.000
59.76767 54.000
59.78762 62.000
59.80756 43.000
59.82751 52.000
59.84746 59.000
59.86740 50.000
59.88735 44.000
59.90730 55.000
59.92725 53.000
59.94719 52.000
59.96714 50.000
59.98709 45.000
60.00703 45.000
60.02698 51.000
60.04693 41.000
60.06687 58.000
60.08682 44.000
60.10677 42.000
60.12671 25.000
60.14666 50.000
60.16661 42.000
60.18656 47.000
60.20650 41.000
60.22645 35.000
60.24640 47.000
60.26634 50.000
60.28629 43.000
60.30624 44.000
60.32618 42.000
60.34613 44.000
60.36608 38.000
60.38603 44.000
60.40597 43.000
60.42592 57.000
60.44587 47.000
60.46581 63.000
60.48576 66.000
60.50571 62.000
60.52565 85.000
60.54560 84.000
60.56555 107.000
60.58550 141.000
60.60544 132.000
60.62539 141.000
60.64534 126.000
60.66528 121.000
60.68523 94.000
60.70518 103.000
60.72512 105.000
60.74507 118.000
60.76502 106.000
60.78496 145.000
60.80491 120.000
60.82486 97.000
60.84481 99.000
60.86475 85.000
60.88470 65.000
60.90465 68.000
60.92459 61.000
60.94454 77.000
60.96449 80.000
60.98443 69.000
61.00438 73.000
61.02433 69.000
61.04428 75.000
61.06422 63.000
61.08417 74.000
61.10412 49.000
61.12406 58.000
61.14401 59.000
61.16396 73.000
61.18390 74.000
61.20385 82.000
61.22380 67.000
61.24374 74.000
61.26369 80.000
61.28364 99.000
61.30359 79.000
61.32353 81.000
61.34348 77.000
61.36343 68.000
61.38337 93.000
61.40332 94.000
61.42327 75.000
61.44321 72.000
61.46316 86.000
61.48311 79.000
61.50306 87.000
61.52300 80.000
61.54295 65.000
61.56290 78.000
61.58284 73.000
61.60279 56.000
61.62274 65.000
61.64268 52.000
61.66263 62.000
61.68258 53.000
61.70252 65.000
61.72247 56.000
61.74242 59.000
61.76237 48.000
61.78231 50.000
61.80226 49.000
61.82221 41.000
61.84215 48.000
61.86210 48.000
61.88205 36.000
61.90199 39.000
61.92194 50.000
61.94189 43.000
61.96184 40.000
61.98178 50.000
62.00173 41.000
62.02168 48.000
62.04162 60.000
62.06157 67.000
62.08152 63.000
62.10146 92.000
62.12141 59.000
62.14136 66.000
62.16131 77.000
62.18125 97.000
62.20120 71.000
62.22115 98.000
62.24109 91.000
62.26104 121.000
62.28099 167.000
62.30093 177.000
62.32088 232.000
62.34083 246.000
62.36077 221.000
62.38072 204.000
62.40067 192.000
62.42062 139.000
62.44056 120.000
62.46051 134.000
62.48046 133.000
62.50040 174.000
62.52035 170.000
62.54030 142.000
62.56024 140.000
62.58019 103.000
62.60014 69.000
62.62009 83.000
62.64003 77.000
62.65998 62.000
62.67993 64.000
62.69987 48.000
62.71982 55.000
62.73977 50.000
62.75971 49.000
62.77966 38.000
62.79961 46.000
62.81955 44.000
62.83950 38.000
62.85945 41.000
62.87940 38.000
62.89934 41.000
62.91929 37.000
62.93924 43.000
62.95918 33.000
62.97913 27.000
62.99908 36.000
63.01902 30.000
63.03897 31.000
63.05892 29.000
63.07887 25.000
63.09881 34.000
63.11876 33.000
63.13871 28.000
63.15865 36.000
63.17860 27.000
63.19855 29.000
63.21849 30.000
63.23844 39.000
63.25839 30.000
63.27833 28.000
63.29828 34.000
63.31823 44.000
63.33818 36.000
63.35812 41.000
63.37807 39.000
63.39802 39.000
63.41796 34.000
63.43791 41.000
63.45786 40.000
63.47780 33.000
63.49775 38.000
63.51770 55.000
63.53765 46.000
63.55759 41.000
63.57754 48.000
63.59749 38.000
63.61743 47.000
63.63738 43.000
63.65733 53.000
63.67727 59.000
63.69722 46.000
63.71717 73.000
63.73712 70.000
63.75706 64.000
63.77701 99.000
63.79696 99.000
63.81690 108.000
63.83685 130.000
63.85680 164.000
63.87674 200.000
63.89669 263.000
63.91664 250.000
63.93658 292.000
63.95653 233.000
63.97648 197.000
63.99643 198.000
64.01637 227.000
64.03632 191.000
64.05627 219.000
64.07621 223.000
64.09616 187.000
64.11611 194.000
64.13605 175.000
64.15600 145.000
64.17595 110.000
64.19590 121.000
64.21584 88.000
64.23579 101.000
64.25574 65.000
64.27568 79.000
64.29563 73.000
64.31558 72.000
64.33552 62.000
64.35547 58.000
64.37542 58.000
64.39536 55.000
64.41531 56.000
64.43526 74.000
64.45521 56.000
64.47515 71.000
64.49510 72.000
64.51505 80.000
64.53499 93.000
64.55494 79.000
64.57489 67.000
64.59483 62.000
64.61478 67.000
64.63473 74.000
64.65468 57.000
64.67462 74.000
64.69457 56.000
64.71452 57.000
64.73446 65.000
64.75441 57.000
64.77436 53.000
64.79430 40.000
64.81425 42.000
64.83420 41.000
64.85414 53.000
64.87409 44.000
64.89404 42.000
64.91399 33.000
64.93393 33.000
64.95388 31.000
64.97383 38.000
64.99377 32.000
65.01372 34.000
65.03367 19.000
65.05361 47.000
65.07356 42.000
65.09351 48.000
65.11346 43.000
65.13340 38.000
65.15335 41.000
65.17330 52.000
65.19324 46.000
65.21319 49.000
65.23314 50.000
65.25308 61.000
65.27303 58.000
65.29298 67.000
65.31293 61.000
65.33287 65.000
65.35282 54.000
65.37277 43.000
65.39271 59.000
65.41266 59.000
65.43261 52.000
65.45255 57.000
65.47250 57.000
65.49245 39.000
65.51239 58.000
65.53234 58.000
65.55229 52.000
65.57224 68.000
65.59218 49.000
65.61213 58.000
65.63208 73.000
65.65202 65.000
65.67197 58.000
65.69192 58.000
65.71186 68.000
65.73181 79.000
65.75176 60.000
65.77171 65.000
65.79165 65.000
65.81160 74.000
65.83155 91.000
65.85149 56.000
65.87144 40.000
65.89139 54.000
65.91133 57.000
65.93128 46.000
65.95123 49.000
65.97117 53.000
65.99112 48.000
66.01107 48.000
66.03102 38.000
66.05096 55.000
66.07091 36.000
66.09086 49.000
66.11080 46.000
66.13075 46.000
66.15070 58.000
66.17064 42.000
66.19059 41.000
66.21054 58.000
66.23049 58.000
66.25043 54.000
66.27038 76.000
66.29033 69.000
66.31027 78.000
66.33022 58.000
66.35017 48.000
66.37011 48.000
66.39006 50.000
66.41001 57.000
66.42995 52.000
66.44990 56.000
66.46985 51.000
66.48980 54.000
66.50974 47.000
66.52969 38.000
66.54964 40.000
66.56958 51.000
66.58953 33.000
66.60948 42.000
66.62942 27.000
66.64937 33.000
66.66932 33.000
66.68927 32.000
66.70921 31.000
66.72916 32.000
66.74911 22.000
66.76905 26.000
66.78900 32.000
66.80895 26.000
66.82889 26.000
66.84884 49.000
66.86879 31.000
66.88874 32.000
66.90868 28.000
66.92863 46.000
66.94858 36.000
66.96852 32.000
66.98847 31.000
67.00842 42.000
67.02836 39.000
67.04831 33.000
67.06826 40.000
67.08820 38.000
67.10815 32.000
67.12810 35.000
67.14805 37.000
67.16799 47.000
67.18794 29.000
67.20789 31.000
67.22783 38.000
67.24778 29.000
67.26773 25.000
67.28767 34.000
67.30762 25.000
67.32757 29.000
67.34752 35.000
67.36746 33.000
67.38741 16.000
67.40736 20.000
67.42730 29.000
67.44725 30.000
67.46720 25.000
67.48714 26.000
67.50709 27.000
67.52704 27.000
67.54698 36.000
67.56693 27.000
67.58688 23.000
67.60683 32.000
67.62677 25.000
67.64672 35.000
67.66667 41.000
67.68661 36.000
67.70656 28.000
67.72651 25.000
67.74645 29.000
67.76640 24.000
67.78635 27.000
67.80630 24.000
67.82624 30.000
67.84619 32.000
67.86614 36.000
67.88608 17.000
67.90603 39.000
67.92598 26.000
67.94592 34.000
67.96587 27.000
67.98582 29.000
68.00576 29.000
68.02571 31.000
68.04566 33.000
68.06561 30.000
68.08555 28.000
68.10550 36.000
68.12545 22.000
68.14539 34.000
68.16534 32.000
68.18529 38.000
68.20523 39.000
68.22518 35.000
68.24513 32.000
68.26508 31.000
68.28502 31.000
68.30497 25.000
68.32492 24.000
68.34486 30.000
68.36481 36.000
68.38476 33.000
68.40470 33.000
68.42465 30.000
68.44460 30.000
68.46455 37.000
68.48449 27.000
68.50444 22.000
68.52439 28.000
68.54433 19.000
68.56428 31.000
68.58423 16.000
68.60417 27.000
68.62412 24.000
68.64407 20.000
68.66401 28.000
68.68396 30.000
68.70391 29.000
68.72386 22.000
68.74380 24.000
68.76375 22.000
68.78370 19.000
68.80364 20.000
68.82359 28.000
68.84354 22.000
68.86348 26.000
68.88343 31.000
68.90338 24.000
68.92333 28.000
68.94327 37.000
68.96322 27.000
68.98317 37.000
69.00311 23.000
69.02306 36.000
69.04301 20.000
69.06295 32.000
69.08290 24.000
69.10285 30.000
69.12279 26.000
69.14274 21.000
69.16269 26.000
69.18264 34.000
69.20258 32.000
69.22253 21.000
69.24248 33.000
69.26242 21.000
69.28237 31.000
69.30232 36.000
69.32226 42.000
69.34221 15.000
69.36216 21.000
69.38211 31.000
69.40205 30.000
69.42200 27.000
69.44195 21.000
69.46189 40.000
69.48184 41.000
69.50179 53.000
69.52173 55.000
69.54168 43.000
69.56163 43.000
69.58157 29.000
69.60152 29.000
69.62147 29.000
69.64142 29.000
69.66136 31.000
69.68131 38.000
69.70126 38.000
69.72120 45.000
69.74115 31.000
69.76110 28.000
69.78104 24.000
69.80099 21.000
69.82094 24.000
69.84089 30.000
69.86083 34.000
69.88078 30.000
69.90073 30.000
69.92067 26.000
69.94062 28.000
69.96057 32.000
69.98051 30.000
70.00046 42.000
70.02041 38.000
70.04035 23.000
70.06030 23.000
70.08025 22.000
70.10020 25.000
70.12014 31.000
70.14009 31.000
70.16004 29.000
70.17998 30.000
70.19993 25.000
70.21988 28.000
70.23982 26.000
70.25977 36.000
70.27972 26.000
70.29967 31.000
70.31961 33.000
70.33956 32.000
70.35951 34.000
70.37945 37.000
70.39940 46.000
70.41935 34.000
70.43929 34.000
70.45924 33.000
70.47919 35.000
70.49914 32.000
70.51908 34.000
70.53903 31.000
70.55898 33.000
70.57892 37.000
70.59887 28.000
70.61882 41.000
70.63876 32.000
70.65871 23.000
70.67866 43.000
70.69860 31.000
70.71855 23.000
70.73850 33.000
70.75845 26.000
70.77839 45.000
70.79834 27.000
70.81829 27.000
70.83823 31.000
70.85818 36.000
70.87813 18.000
70.89807 29.000
70.91802 26.000
70.93797 25.000
70.95792 25.000
70.97786 31.000
70.99781 35.000
71.01776 27.000
71.03770 30.000
71.05765 28.000
71.07760 34.000
71.09754 30.000
71.11749 34.000
71.13744 31.000
71.15738 19.000
71.17733 36.000
71.19728 35.000
71.21723 45.000
71.23717 27.000
71.25712 36.000
71.27707 26.000
71.29701 38.000
71.31696 28.000
71.33691 36.000
71.35685 36.000
71.37680 29.000
71.39675 29.000
71.41670 28.000
71.43664 33.000
71.45659 31.000
71.47654 40.000
71.49648 25.000
71.51643 30.000
71.53638 34.000
71.55632 31.000
71.57627 33.000
71.59622 24.000
71.61616 28.000
71.63611 41.000
71.65606 53.000
71.67601 40.000
71.69595 34.000
71.71590 48.000
71.73585 48.000
71.75579 70.000
71.77574 67.000
71.79569 69.000
71.81563 93.000
71.83558 97.000
71.85553 115.000
71.87548 115.000
71.89542 89.000
71.91537 74.000
71.93532 66.000
71.95526 68.000
71.97521 64.000
71.99516 66.000
72.01510 62.000
72.03505 67.000
72.05500 83.000
72.07495 78.000
72.09489 74.000
72.11484 66.000
72.13479 51.000
72.15473 64.000
72.17468 52.000
72.19463 57.000
72.21457 40.000
72.23452 27.000
72.25447 45.000
72.27441 33.000
72.29436 38.000
72.31431 32.000
72.33426 35.000
72.35420 38.000
72.37415 42.000
72.39410 43.000
72.41404 40.000
72.43399 34.000
72.45394 31.000
72.47388 36.000
72.49383 42.000
72.51378 27.000
72.53373 38.000
72.55367 31.000
72.57362 40.000
72.59357 37.000
72.61351 33.000
72.63346 35.000
72.65341 34.000
72.67335 30.000
72.69330 33.000
72.71325 24.000
72.73319 36.000
72.75314 25.000
72.77309 30.000
72.79304 29.000
72.81298 34.000
72.83293 41.000
72.85288 39.000
72.87282 40.000
72.89277 24.000
72.91272 35.000
72.93266 31.000
72.95261 20.000
72.97256 30.000
72.99251 38.000
73.01245 22.000
73.03240 34.000
73.05235 29.000
73.07229 35.000
73.09224 24.000
73.11219 31.000
73.13213 35.000
73.15208 26.000
73.17203 28.000
73.19197 23.000
73.21192 33.000
73.23187 19.000
73.25182 28.000
73.27176 33.000
73.29171 35.000
73.31166 39.000
73.33160 32.000
73.35155 32.000
73.37150 21.000
73.39144 21.000
73.41139 28.000
73.43134 33.000
73.45129 32.000
73.47123 31.000
73.49118 24.000
73.51113 30.000
73.53107 36.000
73.55102 24.000
73.57097 26.000
73.59091 32.000
73.61086 20.000
73.63081 31.000
73.65076 31.000
73.67070 18.000
73.69065 27.000
73.71060 26.000
73.73054 34.000
73.75049 24.000
73.77044 27.000
73.79038 31.000
73.81033 23.000
73.83028 28.000
73.85022 34.000
73.87017 33.000
73.89012 20.000
73.91007 28.000
73.93001 24.000
73.94996 28.000
73.96991 32.000
73.98985 32.000
74.00980 32.000
74.02975 30.000
74.04969 30.000
74.06964 21.000
74.08959 26.000
74.10954 25.000
74.12948 32.000
74.14943 27.000
74.16938 23.000
74.18932 26.000
74.20927 32.000
74.22922 24.000
74.24916 35.000
74.26911 29.000
74.28906 29.000
74.30900 35.000
74.32895 27.000
74.34890 20.000
74.36885 27.000
74.38879 23.000
74.40874 21.000
74.42869 23.000
74.44863 33.000
74.46858 33.000
74.48853 25.000
74.50847 34.000
74.52842 27.000
74.54837 31.000
74.56832 24.000
74.58826 19.000
74.60821 18.000
74.62816 25.000
74.64810 24.000
74.66805 24.000
74.68800 33.000
74.70794 14.000
74.72789 26.000
74.74784 29.000
74.76778 30.000
74.78773 29.000
74.80768 35.000
74.82763 34.000
74.84757 36.000
74.86752 33.000
74.88747 28.000
74.90741 32.000
74.92736 29.000
74.94731 31.000
74.96725 30.000
74.98720 29.000
75.00715 23.000
75.02710 39.000
75.04704 35.000
75.06699 37.000
75.08694 33.000
75.10688 28.000
75.12683 32.000
75.14678 29.000
75.16672 34.000
75.18667 36.000
75.20662 35.000
75.22657 25.000
75.24651 33.000
75.26646 37.000
75.28641 43.000
75.30635 44.000
75.32630 57.000
75.34625 56.000
75.36619 64.000
75.38614 58.000
75.40609 49.000
75.42603 49.000
75.44598 44.000
75.46593 43.000
75.48588 50.000
75.50582 30.000
75.52577 37.000
75.54572 41.000
75.56566 44.000
75.58561 52.000
75.60556 39.000
75.62550 45.000
75.64545 35.000
75.66540 39.000
75.68535 33.000
75.70529 33.000
75.72524 24.000
75.74519 36.000
75.76513 26.000
75.78508 35.000
75.80503 30.000
75.82497 18.000
75.84492 25.000
75.86487 27.000
75.88481 30.000
75.90476 33.000
75.92471 21.000
75.94466 35.000
75.96460 23.000
75.98455 21.000
76.00450 34.000
76.02444 27.000
76.04439 24.000
76.06434 24.000
76.08428 31.000
76.10423 25.000
76.12418 27.000
76.14413 23.000
76.16407 22.000
76.18402 24.000
76.20397 23.000
76.22391 20.000
76.24386 22.000
76.26381 23.000
76.28375 25.000
76.30370 30.000
76.32365 23.000
76.34359 17.000
76.36354 18.000
76.38349 26.000
76.40344 23.000
76.42338 20.000
76.44333 20.000
76.46328 27.000
76.48322 29.000
76.50317 17.000
76.52312 27.000
76.54306 22.000
76.56301 17.000
76.58296 30.000
76.60291 26.000
76.62285 32.000
76.64280 22.000
76.66275 25.000
76.68269 19.000
76.70264 22.000
76.72259 21.000
76.74253 19.000
76.76248 17.000
76.78243 26.000
76.80238 37.000
76.82232 20.000
76.84227 23.000
76.86222 24.000
76.88216 17.000
76.90211 18.000
76.92206 17.000
76.94200 24.000
76.96195 19.000
76.98190 22.000
77.00184 31.000
77.02179 32.000
77.04174 17.000
77.06169 28.000
77.08163 33.000
77.10158 27.000
77.12153 20.000
77.14147 20.000
77.16142 26.000
77.18137 23.000
77.20131 18.000
77.22126 25.000
77.24121 20.000
77.26116 26.000
77.28110 23.000
77.30105 19.000
77.32100 23.000
77.34094 24.000
77.36089 29.000
77.38084 23.000
77.40078 18.000
77.42073 27.000
77.44068 28.000
77.46062 30.000
77.48057 36.000
77.50052 47.000
77.52047 43.000
77.54041 39.000
77.56036 34.000
77.58031 36.000
77.60025 29.000
77.62020 46.000
77.64015 41.000
77.66009 40.000
77.68004 38.000
77.69999 35.000
77.71994 34.000
77.73988 41.000
77.75983 36.000
77.77978 32.000
77.79972 35.000
77.81967 41.000
77.83962 41.000
77.85956 23.000
77.87951 32.000
77.89946 38.000
77.91940 39.000
77.93935 28.000
77.95930 29.000
77.97925 23.000
77.99919 28.000
78.01914 30.000
78.03909 23.000
78.05903 20.000
78.07898 30.000
78.09893 21.000
78.11887 20.000
78.13882 27.000
78.15877 24.000
78.17872 23.000
78.19866 19.000
78.21861 22.000
78.23856 26.000
78.25850 17.000
78.27845 22.000
78.29840 16.000
78.31834 21.000
78.33829 31.000
78.35824 24.000
78.37819 26.000
78.39813 19.000
78.41808 29.000
78.43803 24.000
78.45797 22.000
78.47792 25.000
78.49787 16.000
78.51781 33.000
78.53776 25.000
78.55771 22.000
78.57765 30.000
78.59760 35.000
78.61755 22.000
78.63750 24.000
78.65744 33.000
78.67739 40.000
78.69734 34.000
78.71728 30.000
78.73723 38.000
78.75718 34.000
78.77712 21.000
78.79707 33.000
78.81702 30.000
78.83697 34.000
78.85691 31.000
78.87686 23.000
78.89681 26.000
78.91675 36.000
78.93670 29.000
78.95665 34.000
78.97659 22.000
78.99654 39.000
79.01649 35.000
79.03643 18.000
79.05638 27.000
79.07633 23.000
79.09628 18.000
79.11622 17.000
79.13617 24.000
79.15612 25.000
79.17606 23.000
79.19601 19.000
79.21596 14.000
79.23590 19.000
79.25585 23.000
79.27580 15.000
79.29575 17.000
79.31569 14.000
79.33564 16.000
79.35559 16.000
79.37553 8.000
79.39548 20.000
79.41543 23.000
79.43537 15.000
79.45532 27.000
79.47527 26.000
79.49521 22.000
79.51516 22.000
79.53511 18.000
79.55506 16.000
79.57500 23.000
79.59495 20.000
79.61490 18.000
79.63484 27.000
79.65479 25.000
79.67474 21.000
79.69468 20.000
79.71463 25.000
79.73458 22.000
79.75453 32.000
79.77447 32.000
79.79442 22.000
79.81437 21.000
79.83431 23.000
79.85426 30.000
79.87421 33.000
79.89415 31.000
79.91410 24.000
79.93405 35.000
79.95399 32.000
79.97394 24.000
79.99389 13.000
80.01384 27.000
80.03378 27.000
80.05373 25.000
80.07368 28.000
80.09362 19.000
80.11357 25.000
80.13352 22.000
80.15346 27.000
80.17341 24.000
80.19336 25.000
80.21331 29.000
80.23325 26.000
80.25320 19.000
80.27315 23.000
80.29309 16.000
80.31304 23.000
80.33299 27.000
80.35293 29.000
80.37288 24.000
80.39283 27.000
80.41278 30.000
80.43272 35.000
80.45267 34.000
80.47262 34.000
80.49256 32.000
80.51251 54.000
80.53246 56.000
80.55240 36.000
80.57235 38.000
80.59230 41.000
80.61224 55.000
80.63219 45.000
80.65214 61.000
80.67209 47.000
80.69203 29.000
80.71198 32.000
80.73193 35.000
80.75187 37.000
80.77182 46.000
80.79177 45.000
80.81171 34.000
80.83166 40.000
80.85161 36.000
80.87156 37.000
80.89150 31.000
80.91145 31.000
80.93140 31.000
80.95134 38.000
80.97129 27.000
80.99124 24.000
81.01118 13.000
81.03113 30.000
81.05108 33.000
81.07102 26.000
81.09097 25.000
81.11092 27.000
81.13087 27.000
81.15081 17.000
81.17076 18.000
81.19071 25.000
81.21065 25.000
81.23060 28.000
81.25055 26.000
81.27049 28.000
81.29044 24.000
81.31039 21.000
81.33034 23.000
81.35028 17.000
81.37023 16.000
81.39018 23.000
81.41012 17.000
81.43007 27.000
81.45002 26.000
81.46996 18.000
81.48991 25.000
81.50986 17.000
81.52980 19.000
81.54975 17.000
81.56970 24.000
81.58965 19.000
81.60959 24.000
81.62954 19.000
81.64949 27.000
81.66943 23.000
81.68938 27.000
81.70933 24.000
81.72927 9.000
81.74922 19.000
81.76917 24.000
81.78912 24.000
81.80906 18.000
81.82901 27.000
81.84896 21.000
81.86890 20.000
81.88885 28.000
81.90880 28.000
81.92874 21.000
81.94869 22.000
81.96864 29.000
81.98859 24.000
82.00853 13.000
82.02848 25.000
82.04843 22.000
82.06837 17.000
82.08832 29.000
82.10827 18.000
82.12821 27.000
82.14816 22.000
82.16811 12.000
82.18805 20.000
82.20800 27.000
82.22795 21.000
82.24790 26.000
82.26784 22.000
82.28779 20.000
82.30774 22.000
82.32768 17.000
82.34763 28.000
82.36758 18.000
82.38752 24.000
82.40747 22.000
82.42742 23.000
82.44737 23.000
82.46731 17.000
82.48726 24.000
82.50721 24.000
82.52715 17.000
82.54710 22.000
82.56705 21.000
82.58699 17.000
82.60694 30.000
82.62689 23.000
82.64683 25.000
82.66678 36.000
82.68673 29.000
82.70668 41.000
82.72662 31.000
82.74657 22.000
82.76652 42.000
82.78646 37.000
82.80641 47.000
82.82636 50.000
82.84630 56.000
82.86625 59.000
82.88620 58.000
82.90615 45.000
82.92609 43.000
82.94604 46.000
82.96599 35.000
82.98593 35.000
83.00588 28.000
83.02583 32.000
83.04577 29.000
83.06572 40.000
83.08567 33.000
83.10561 40.000
83.12556 34.000
83.14551 24.000
83.16546 29.000
83.18540 30.000
83.20535 37.000
83.22530 27.000
83.24524 32.000
83.26519 21.000
83.28514 33.000
83.30508 24.000
83.32503 22.000
83.34498 24.000
83.36493 29.000
83.38487 29.000
83.40482 26.000
83.42477 23.000
83.44471 26.000
83.46466 26.000
83.48461 16.000
83.50455 19.000
83.52450 21.000
83.54445 26.000
83.56440 23.000
83.58434 23.000
83.60429 26.000
83.62424 27.000
83.64418 22.000
83.66413 24.000
83.68408 28.000
83.70402 16.000
83.72397 22.000
83.74392 23.000
83.76386 19.000
83.78381 25.000
83.80376 28.000
83.82371 23.000
83.84365 30.000
83.86360 23.000
83.88355 28.000
83.90349 26.000
83.92344 26.000
83.94339 18.000
83.96333 29.000
83.98328 16.000
84.00323 19.000
84.02318 22.000
84.04312 21.000
84.06307 29.000
84.08302 26.000
84.10296 22.000
84.12291 15.000
84.14286 17.000
84.16280 28.000
84.18275 31.000
84.20270 27.000
84.22264 29.000
84.24259 23.000
84.26254 30.000
84.28249 28.000
84.30243 28.000
84.32238 28.000
84.34233 27.000
84.36227 23.000
84.38222 24.000
84.40217 34.000
84.42211 31.000
84.44206 19.000
84.46201 34.000
84.48196 29.000
84.50190 29.000
84.52185 33.000
84.54180 28.000
84.56174 31.000
84.58169 29.000
84.60164 30.000
84.62158 30.000
84.64153 25.000
84.66148 27.000
84.68142 33.000
84.70137 30.000
84.72132 44.000
84.74127 45.000
84.76121 38.000
84.78116 46.000
84.80111 54.000
84.82105 58.000
84.84100 62.000
84.86095 81.000
84.88089 68.000
84.90084 68.000
84.92079 62.000
84.94074 47.000
84.96068 75.000
84.98063 62.000
85.00058 56.000
85.02052 42.000
85.04047 50.000
85.06042 41.000
85.08036 47.000
85.10031 50.000
85.12026 49.000
85.14021 42.000
85.16015 45.000
85.18010 44.000
85.20005 35.000
85.21999 36.000
85.23994 48.000
85.25989 29.000
85.27983 31.000
85.29978 23.000
85.31973 37.000
85.33967 21.000
85.35962 22.000
85.37957 31.000
85.39952 26.000
85.41946 23.000
85.43941 21.000
85.45936 32.000
85.47930 24.000
85.49925 16.000
85.51920 25.000
85.53914 36.000
85.55909 32.000
85.57904 25.000
85.59899 24.000
85.61893 21.000
85.63888 27.000
85.65883 21.000
85.67877 28.000
85.69872 27.000
85.71867 22.000
85.73861 21.000
85.75856 21.000
85.77851 25.000
85.79845 30.000
85.81840 17.000
85.83835 20.000
85.85830 13.000
85.87824 27.000
85.89819 34.000
85.91814 34.000
85.93808 31.000
85.95803 25.000
85.97798 27.000
85.99792 28.000
86.01787 26.000
86.03782 28.000
86.05777 25.000
86.07771 24.000
86.09766 20.000
86.11761 29.000
86.13755 27.000
86.15750 22.000
86.17745 24.000
86.19739 26.000
86.21734 28.000
86.23729 27.000
86.25723 25.000
86.27718 16.000
86.29713 29.000
86.31708 11.000
86.33702 20.000
86.35697 16.000
86.37692 17.000
86.39686 17.000
86.41681 22.000
86.43676 26.000
86.45670 15.000
86.47665 30.000
86.49660 20.000
86.51655 28.000
86.53649 34.000
86.55644 25.000
86.57639 22.000
86.59633 13.000
86.61628 29.000
86.63623 39.000
86.65617 34.000
86.67612 29.000
86.69607 33.000
86.71602 28.000
86.73596 39.000
86.75591 28.000
86.77586 25.000
86.79580 29.000
86.81575 25.000
86.83570 35.000
86.85564 23.000
86.87559 26.000
86.89554 28.000
86.91548 29.000
86.93543 23.000
86.95538 17.000
86.97533 24.000
86.99527 32.000
87.01522 23.000
87.03517 26.000
87.05511 29.000
87.07506 23.000
87.09501 24.000
87.11495 15.000
87.13490 25.000
87.15485 24.000
87.17480 27.000
87.19474 30.000
87.21469 24.000
87.23464 10.000
87.25458 24.000
87.27453 20.000
87.29448 25.000
87.31442 15.000
87.33437 19.000
87.35432 22.000
87.37426 24.000
87.39421 22.000
87.41416 19.000
87.43411 29.000
87.45405 19.000
87.47400 41.000
87.49395 27.000
87.51389 25.000
87.53384 33.000
87.55379 28.000
87.57373 37.000
87.59368 30.000
87.61363 31.000
87.63358 31.000
87.65352 28.000
87.67347 21.000
87.69342 35.000
87.71336 32.000
87.73331 33.000
87.75326 33.000
87.77320 32.000
87.79315 42.000
87.81310 41.000
87.83304 40.000
87.85299 46.000
87.87294 45.000
87.89289 35.000
87.91283 30.000
87.93278 29.000
87.95273 27.000
87.97267 37.000
87.99262 20.000
88.01257 24.000
88.03251 31.000
88.05246 28.000
88.07241 31.000
88.09236 33.000
88.11230 27.000
88.13225 31.000
88.15220 24.000
88.17214 28.000
88.19209 39.000
88.21204 28.000
88.23198 42.000
88.25193 34.000
88.27188 21.000
88.29183 32.000
88.31177 33.000
88.33172 38.000
88.35167 41.000
88.37161 37.000
88.39156 35.000
88.41151 54.000
88.43145 51.000
88.45140 62.000
88.47135 75.000
88.49129 72.000
88.51124 61.000
88.53119 49.000
88.55114 42.000
88.57108 39.000
88.59103 63.000
88.61098 38.000
88.63092 28.000
88.65087 45.000
88.67082 40.000
88.69076 32.000
88.71071 47.000
88.73066 57.000
88.75061 49.000
88.77055 44.000
88.79050 47.000
88.81045 49.000
88.83039 32.000
88.85034 46.000
88.87029 36.000
88.89023 41.000
88.91018 36.000
88.93013 24.000
88.95007 24.000
88.97002 26.000
88.98997 20.000
89.00992 28.000
89.02986 30.000
89.04981 28.000
89.06976 24.000
89.08970 24.000
89.10965 20.000
89.12960 31.000
89.14954 24.000
89.16949 30.000
89.18944 29.000
89.20939 22.000
89.22933 25.000
89.24928 30.000
89.26923 29.000
89.28917 28.000
89.30912 22.000
89.32907 18.000
89.34901 20.000
89.36896 24.000
89.38891 21.000
89.40885 24.000
89.42880 29.000
89.44875 29.000
89.46870 25.000
89.48864 25.000
89.50859 30.000
89.52854 28.000
89.54848 26.000
89.56843 27.000
89.58838 16.000
89.60832 21.000
89.62827 26.000
89.64822 22.000
89.66817 34.000
89.68811 28.000
89.70806 32.000
89.72801 22.000
89.74795 26.000
89.76790 31.000
89.78785 22.000
89.80779 24.000
89.82774 22.000
89.84769 24.000
89.86764 18.000
89.88758 34.000
89.90753 43.000
89.92748 32.000
89.94742 34.000
89.96737 24.000
89.98732 25.000
90.00726 26.000
