10.00000 59.000
10.01995 47.000
10.03989 53.000
10.05984 52.000
10.07979 57.000
10.09973 55.000
10.11968 50.000
10.13963 51.000
10.15958 44.000
10.17952 54.000
10.19947 57.000
10.21942 49.000
10.23936 49.000
10.25931 55.000
10.27926 43.000
10.29920 59.000
10.31915 58.000
10.33910 37.000
10.35905 54.000
10.37899 64.000
10.39894 53.000
10.41889 53.000
10.43883 38.000
10.45878 57.000
10.47873 66.000
10.49867 60.000
10.51862 62.000
10.53857 61.000
10.55851 56.000
10.57846 56.000
10.59841 65.000
10.61836 50.000
10.63830 55.000
10.65825 39.000
10.67820 49.000
10.69814 67.000
10.71809 58.000
10.73804 55.000
10.75798 60.000
10.77793 55.000
10.79788 58.000
10.81783 61.000
10.83777 38.000
10.85772 54.000
10.87767 62.000
10.89761 58.000
10.91756 62.000
10.93751 40.000
10.95745 60.000
10.97740 61.000
10.99735 49.000
11.01730 60.000
11.03724 59.000
11.05719 42.000
11.07714 58.000
11.09708 53.000
11.11703 57.000
11.13698 51.000
11.15692 48.000
11.17687 49.000
11.19682 49.000
11.21676 60.000
11.23671 52.000
11.25666 54.000
11.27661 49.000
11.29655 37.000
11.31650 48.000
11.33645 73.000
11.35639 65.000
11.37634 36.000
11.39629 47.000
11.41623 55.000
11.43618 39.000
11.45613 50.000
11.47608 58.000
11.49602 62.000
11.51597 61.000
11.53592 55.000
11.55586 60.000
11.57581 55.000
11.59576 62.000
11.61570 63.000
11.63565 77.000
11.65560 52.000
11.67554 51.000
11.69549 69.000
11.71544 55.000
11.73539 56.000
11.75533 55.000
11.77528 55.000
11.79523 71.000
11.81517 58.000
11.83512 64.000
11.85507 56.000
11.87501 58.000
11.89496 51.000
11.91491 48.000
11.93486 56.000
11.95480 61.000
11.97475 53.000
11.99470 57.000
12.01464 68.000
12.03459 70.000
12.05454 61.000
12.07448 61.000
12.09443 60.000
12.11438 51.000
12.13432 76.000
12.15427 72.000
12.17422 79.000
12.19417 69.000
12.21411 71.000
12.23406 88.000
12.25401 60.000
12.27395 64.000
12.29390 70.000
12.31385 81.000
12.33379 93.000
12.35374 81.000
12.37369 80.000
12.39364 98.000
12.41358 73.000
12.43353 99.000
12.45348 93.000
12.47342 101.000
12.49337 118.000
12.51332 112.000
12.53326 141.000
12.55321 156.000
12.57316 165.000
12.59311 172.000
12.61305 190.000
12.63300 177.000
12.65295 224.000
12.67289 204.000
12.69284 214.000
12.71279 165.000
12.73273 150.000
12.75268 168.000
12.77263 158.000
12.79257 167.000
12.81252 149.000
12.83247 155.000
12.85242 127.000
12.87236 120.000
12.89231 118.000
12.91226 118.000
12.93220 124.000
12.95215 110.000
12.97210 107.000
12.99204 103.000
13.01199 118.000
13.03194 93.000
13.05189 96.000
13.07183 114.000
13.09178 116.000
13.11173 108.000
13.13167 101.000
13.15162 87.000
13.17157 89.000
13.19151 91.000
13.21146 80.000
13.23141 103.000
13.25135 117.000
13.27130 115.000
13.29125 93.000
13.31120 109.000
13.33114 95.000
13.35109 83.000
13.37104 104.000
13.39098 99.000
13.41093 100.000
13.43088 85.000
13.45082 108.000
13.47077 92.000
13.49072 102.000
13.51067 104.000
13.53061 109.000
13.55056 106.000
13.57051 95.000
13.59045 94.000
13.61040 110.000
13.63035 94.000
13.65029 106.000
13.67024 106.000
13.69019 117.000
13.71013 113.000
13.73008 124.000
13.75003 131.000
13.76998 115.000
13.78992 124.000
13.80987 104.000
13.82982 120.000
13.84976 115.000
13.86971 106.000
13.88966 136.000
13.90960 121.000
13.92955 127.000
13.94950 117.000
13.96945 120.000
13.98939 138.000
14.00934 128.000
14.02929 120.000
14.04923 129.000
14.06918 149.000
14.08913 128.000
14.10907 144.000
14.12902 120.000
14.14897 157.000
14.16892 147.000
14.18886 151.000
14.20881 154.000
14.22876 127.000
14.24870 133.000
14.26865 134.000
14.28860 147.000
14.30854 132.000
14.32849 142.000
14.34844 114.000
14.36838 140.000
14.38833 144.000
14.40828 148.000
14.42823 134.000
14.44817 131.000
14.46812 135.000
14.48807 127.000
14.50801 123.000
14.52796 117.000
14.54791 145.000
14.56785 144.000
14.58780 128.000
14.60775 153.000
14.62770 147.000
14.64764 135.000
14.66759 135.000
14.68754 141.000
14.70748 139.000
14.72743 141.000
14.74738 138.000
14.76732 141.000
14.78727 133.000
14.80722 120.000
14.82716 114.000
14.84711 146.000
14.86706 147.000
14.88701 164.000
14.90695 134.000
14.92690 161.000
14.94685 184.000
14.96679 156.000
14.98674 151.000
15.00669 188.000
15.02663 203.000
15.04658 181.000
15.06653 204.000
15.08648 187.000
15.10642 200.000
15.12637 209.000
15.14632 194.000
15.16626 199.000
15.18621 203.000
15.20616 224.000
15.22610 212.000
15.24605 257.000
15.26600 275.000
15.28594 232.000
15.30589 242.000
15.32584 262.000
15.34579 309.000
15.36573 304.000
15.38568 332.000
15.40563 344.000
15.42557 377.000
15.44552 371.000
15.46547 444.000
15.48541 503.000
15.50536 567.000
15.52531 685.000
15.54526 870.000
15.56520 1171.000
15.58515 1624.000
15.60510 2387.000
15.62504 3678.000
15.64499 5748.000
15.66494 8420.000
15.68488 10048.000
15.70483 10821.000
15.72478 10513.000
15.74472 9507.000
15.76467 8114.000
15.78462 6186.000
15.80457 4323.000
15.82451 2858.000
15.84446 1773.000
15.86441 1065.000
15.88435 730.000
15.90430 574.000
15.92425 412.000
15.94419 340.000
15.96414 302.000
15.98409 272.000
16.00404 257.000
16.02398 223.000
16.04393 195.000
16.06388 204.000
16.08382 203.000
16.10377 172.000
16.12372 158.000
16.14366 158.000
16.16361 122.000
16.18356 136.000
16.20351 134.000
16.22345 126.000
16.24340 136.000
16.26335 126.000
16.28329 128.000
16.30324 112.000
16.32319 108.000
16.34313 106.000
16.36308 120.000
16.38303 96.000
16.40297 124.000
16.42292 92.000
16.44287 91.000
16.46282 102.000
16.48276 70.000
16.50271 97.000
16.52266 88.000
16.54260 90.000
16.56255 83.000
16.58250 81.000
16.60244 84.000
16.62239 66.000
16.64234 75.000
16.66229 70.000
16.68223 71.000
16.70218 73.000
16.72213 68.000
16.74207 84.000
16.76202 86.000
16.78197 70.000
16.80191 60.000
16.82186 61.000
16.84181 61.000
16.86175 57.000
16.88170 52.000
16.90165 72.000
16.92160 51.000
16.94154 66.000
16.96149 62.000
16.98144 59.000
17.00138 69.000
17.02133 60.000
17.04128 62.000
17.06122 72.000
17.08117 70.000
17.10112 45.000
17.12107 62.000
17.14101 47.000
17.16096 56.000
17.18091 53.000
17.20085 72.000
17.22080 59.000
17.24075 51.000
17.26069 51.000
17.28064 65.000
17.30059 48.000
17.32053 61.000
17.34048 62.000
17.36043 60.000
17.38038 65.000
17.40032 53.000
17.42027 68.000
17.44022 59.000
17.46016 49.000
17.48011 47.000
17.50006 40.000
17.52000 45.000
17.53995 63.000
17.55990 42.000
17.57985 64.000
17.59979 53.000
17.61974 54.000
17.63969 56.000
17.65963 50.000
17.67958 55.000
17.69953 58.000
17.71947 51.000
17.73942 66.000
17.75937 59.000
17.77932 56.000
17.79926 51.000
17.81921 58.000
17.83916 51.000
17.85910 53.000
17.87905 39.000
17.89900 44.000
17.91894 54.000
17.93889 44.000
17.95884 46.000
17.97878 46.000
17.99873 45.000
18.01868 58.000
18.03863 48.000
18.05857 48.000
18.07852 56.000
18.09847 50.000
18.11841 67.000
18.13836 52.000
18.15831 69.000
18.17825 62.000
18.19820 62.000
18.21815 62.000
18.23810 98.000
18.25804 119.000
18.27799 121.000
18.29794 156.000
18.31788 160.000
18.33783 182.000
18.35778 136.000
18.37772 124.000
18.39767 123.000
18.41762 94.000
18.43756 63.000
18.45751 67.000
18.47746 47.000
18.49741 53.000
18.51735 63.000
18.53730 53.000
18.55725 64.000
18.57719 65.000
18.59714 64.000
18.61709 58.000
18.63703 55.000
18.65698 58.000
18.67693 47.000
18.69688 54.000
18.71682 58.000
18.73677 52.000
18.75672 50.000
18.77666 64.000
18.79661 59.000
18.81656 55.000
18.83650 63.000
18.85645 51.000
18.87640 44.000
18.89634 43.000
18.91629 38.000
18.93624 69.000
18.95619 49.000
18.97613 60.000
18.99608 56.000
19.01603 63.000
19.03597 46.000
19.05592 50.000
19.07587 53.000
19.09581 50.000
19.11576 52.000
19.13571 42.000
19.15566 59.000
19.17560 51.000
19.19555 46.000
19.21550 72.000
19.23544 50.000
19.25539 43.000
19.27534 47.000
19.29528 43.000
19.31523 44.000
19.33518 56.000
19.35513 39.000
19.37507 55.000
19.39502 47.000
19.41497 54.000
19.43491 38.000
19.45486 54.000
19.47481 51.000
19.49475 45.000
19.51470 57.000
19.53465 58.000
19.55459 52.000
19.57454 39.000
19.59449 50.000
19.61444 39.000
19.63438 48.000
19.65433 49.000
19.67428 57.000
19.69422 47.000
19.71417 48.000
19.73412 42.000
19.75406 44.000
19.77401 49.000
19.79396 47.000
19.81391 39.000
19.83385 56.000
19.85380 50.000
19.87375 59.000
19.89369 46.000
19.91364 50.000
19.93359 48.000
19.95353 42.000
19.97348 55.000
19.99343 49.000
20.01337 48.000
20.03332 42.000
20.05327 52.000
20.07322 54.000
20.09316 62.000
20.11311 54.000
20.13306 56.000
20.15300 49.000
20.17295 53.000
20.19290 57.000
20.21284 51.000
20.23279 49.000
20.25274 65.000
20.27269 50.000
20.29263 61.000
20.31258 62.000
20.33253 55.000
20.35247 58.000
20.37242 43.000
20.39237 48.000
20.41231 57.000
20.43226 52.000
20.45221 41.000
20.47215 52.000
20.49210 58.000
20.51205 53.000
20.53200 47.000
20.55194 49.000
20.57189 53.000
20.59184 46.000
20.61178 61.000
20.63173 51.000
20.65168 61.000
20.67162 55.000
20.69157 63.000
20.71152 55.000
20.73147 64.000
20.75141 55.000
20.77136 54.000
20.79131 52.000
20.81125 64.000
20.83120 46.000
20.85115 47.000
20.87109 41.000
20.89104 66.000
20.91099 48.000
20.93094 53.000
20.95088 64.000
20.97083 56.000
20.99078 51.000
21.01072 62.000
21.03067 61.000
21.05062 55.000
21.07056 58.000
21.09051 53.000
21.11046 67.000
21.13040 65.000
21.15035 55.000
21.17030 57.000
21.19025 61.000
21.21019 61.000
21.23014 65.000
21.25009 56.000
21.27003 57.000
21.28998 50.000
21.30993 56.000
21.32987 48.000
21.34982 51.000
21.36977 48.000
21.38972 47.000
21.40966 61.000
21.42961 44.000
21.44956 60.000
21.46950 46.000
21.48945 33.000
21.50940 46.000
21.52934 44.000
21.54929 57.000
21.56924 60.000
21.58918 39.000
21.60913 43.000
21.62908 56.000
21.64903 47.000
21.66897 68.000
21.68892 57.000
21.70887 57.000
21.72881 55.000
21.74876 47.000
21.76871 57.000
21.78865 69.000
21.80860 36.000
21.82855 57.000
21.84850 56.000
21.86844 51.000
21.88839 50.000
21.90834 57.000
21.92828 44.000
21.94823 50.000
21.96818 65.000
21.98812 42.000
22.00807 49.000
22.02802 66.000
22.04796 70.000
22.06791 56.000
22.08786 36.000
22.10781 72.000
22.12775 47.000
22.14770 59.000
22.16765 65.000
22.18759 49.000
22.20754 62.000
22.22749 34.000
22.24743 66.000
22.26738 54.000
22.28733 60.000
22.30728 53.000
22.32722 54.000
22.34717 58.000
22.36712 60.000
22.38706 51.000
22.40701 47.000
22.42696 63.000
22.44690 57.000
22.46685 61.000
22.48680 52.000
22.50675 54.000
22.52669 59.000
22.54664 68.000
22.56659 56.000
22.58653 33.000
22.60648 50.000
22.62643 55.000
22.64637 69.000
22.66632 62.000
22.68627 41.000
22.70621 60.000
22.72616 51.000
22.74611 55.000
22.76606 56.000
22.78600 57.000
22.80595 56.000
22.82590 59.000
22.84584 67.000
22.86579 50.000
22.88574 40.000
22.90568 52.000
22.92563 69.000
22.94558 44.000
22.96553 50.000
22.98547 47.000
23.00542 45.000
23.02537 47.000
23.04531 54.000
23.06526 65.000
23.08521 67.000
23.10515 58.000
23.12510 50.000
23.14505 53.000
23.16499 62.000
23.18494 55.000
23.20489 53.000
23.22484 50.000
23.24478 40.000
23.26473 60.000
23.28468 63.000
23.30462 43.000
23.32457 54.000
23.34452 49.000
23.36446 59.000
23.38441 64.000
23.40436 61.000
23.42431 66.000
23.44425 49.000
23.46420 56.000
23.48415 51.000
23.50409 49.000
23.52404 45.000
23.54399 40.000
23.56393 50.000
23.58388 66.000
23.60383 44.000
23.62377 47.000
23.64372 62.000
23.66367 62.000
23.68362 50.000
23.70356 42.000
23.72351 70.000
23.74346 35.000
23.76340 48.000
23.78335 53.000
23.80330 46.000
23.82324 53.000
23.84319 50.000
23.86314 44.000
23.88309 54.000
23.90303 54.000
23.92298 48.000
23.94293 56.000
23.96287 48.000
23.98282 61.000
24.00277 55.000
24.02271 55.000
24.04266 65.000
24.06261 52.000
24.08256 65.000
24.10250 68.000
24.12245 61.000
24.14240 63.000
24.16234 66.000
24.18229 54.000
24.20224 58.000
24.22218 71.000
24.24213 64.000
24.26208 44.000
24.28202 63.000
24.30197 55.000
24.32192 48.000
24.34187 62.000
24.36181 58.000
24.38176 47.000
24.40171 44.000
24.42165 81.000
24.44160 60.000
24.46155 41.000
24.48149 54.000
24.50144 54.000
24.52139 63.000
24.54134 54.000
24.56128 50.000
24.58123 56.000
24.60118 48.000
24.62112 49.000
24.64107 57.000
24.66102 52.000
24.68096 51.000
24.70091 56.000
24.72086 59.000
24.74080 58.000
24.76075 68.000
24.78070 53.000
24.80065 46.000
24.82059 53.000
24.84054 59.000
24.86049 72.000
24.88043 54.000
24.90038 66.000
24.92033 67.000
24.94027 70.000
24.96022 63.000
24.98017 51.000
25.00012 48.000
25.02006 61.000
25.04001 53.000
25.05996 62.000
25.07990 67.000
25.09985 40.000
25.11980 72.000
25.13974 58.000
25.15969 59.000
25.17964 60.000
25.19958 71.000
25.21953 53.000
25.23948 58.000
25.25943 55.000
25.27937 81.000
25.29932 74.000
25.31927 78.000
25.33921 74.000
25.35916 74.000
25.37911 70.000
25.39905 84.000
25.41900 64.000
25.43895 80.000
25.45890 100.000
25.47884 94.000
25.49879 75.000
25.51874 86.000
25.53868 86.000
25.55863 88.000
25.57858 56.000
25.59852 81.000
25.61847 76.000
25.63842 65.000
25.65837 79.000
25.67831 77.000
25.69826 74.000
25.71821 60.000
25.73815 61.000
25.75810 76.000
25.77805 69.000
25.79799 67.000
25.81794 75.000
25.83789 35.000
25.85783 76.000
25.87778 65.000
25.89773 62.000
25.91768 77.000
25.93762 62.000
25.95757 59.000
25.97752 76.000
25.99746 54.000
26.01741 55.000
26.03736 57.000
26.05730 64.000
26.07725 64.000
26.09720 68.000
26.11715 61.000
26.13709 58.000
26.15704 66.000
26.17699 66.000
26.19693 60.000
26.21688 65.000
26.23683 65.000
26.25677 62.000
26.27672 53.000
26.29667 70.000
26.31661 58.000
26.33656 51.000
26.35651 57.000
26.37646 77.000
26.39640 55.000
26.41635 65.000
26.43630 62.000
26.45624 52.000
26.47619 69.000
26.49614 61.000
26.51608 65.000
26.53603 63.000
26.55598 64.000
26.57593 62.000
26.59587 62.000
26.61582 77.000
26.63577 50.000
26.65571 66.000
26.67566 63.000
26.69561 44.000
26.71555 64.000
26.73550 52.000
26.75545 74.000
26.77539 54.000
26.79534 67.000
26.81529 69.000
26.83524 61.000
26.85518 61.000
26.87513 64.000
26.89508 53.000
26.91502 68.000
26.93497 59.000
26.95492 59.000
26.97486 43.000
26.99481 62.000
27.01476 60.000
27.03471 59.000
27.05465 56.000
27.07460 54.000
27.09455 61.000
27.11449 57.000
27.13444 70.000
27.15439 60.000
27.17433 61.000
27.19428 58.000
27.21423 54.000
27.23417 65.000
27.25412 69.000
27.27407 71.000
27.29402 64.000
27.31396 69.000
27.33391 63.000
27.35386 49.000
27.37380 77.000
27.39375 54.000
27.41370 50.000
27.43364 61.000
27.45359 52.000
27.47354 48.000
27.49349 50.000
27.51343 76.000
27.53338 67.000
27.55333 58.000
27.57327 57.000
27.59322 70.000
27.61317 66.000
27.63311 58.000
27.65306 51.000
27.67301 55.000
27.69296 61.000
27.71290 60.000
27.73285 63.000
27.75280 61.000
27.77274 54.000
27.79269 76.000
27.81264 54.000
27.83258 45.000
27.85253 75.000
27.87248 68.000
27.89242 58.000
27.91237 61.000
27.93232 60.000
27.95227 82.000
27.97221 55.000
27.99216 73.000
28.01211 67.000
28.03205 53.000
28.05200 61.000
28.07195 57.000
28.09189 58.000
28.11184 56.000
28.13179 57.000
28.15174 69.000
28.17168 62.000
28.19163 54.000
28.21158 56.000
28.23152 60.000
28.25147 64.000
28.27142 58.000
28.29136 57.000
28.31131 58.000
28.33126 65.000
28.35120 61.000
28.37115 76.000
28.39110 62.000
28.41105 63.000
28.43099 54.000
28.45094 69.000
28.47089 50.000
28.49083 57.000
28.51078 67.000
28.53073 73.000
28.55067 65.000
28.57062 65.000
28.59057 53.000
28.61052 57.000
28.63046 58.000
28.65041 73.000
28.67036 65.000
28.69030 55.000
28.71025 70.000
28.73020 58.000
28.75014 65.000
28.77009 67.000
28.79004 71.000
28.80998 56.000
28.82993 69.000
28.84988 57.000
28.86983 51.000
28.88977 65.000
28.90972 59.000
28.92967 63.000
28.94961 60.000
28.96956 65.000
28.98951 72.000
29.00945 68.000
29.02940 54.000
29.04935 64.000
29.06930 59.000
29.08924 74.000
29.10919 64.000
29.12914 56.000
29.14908 59.000
29.16903 69.000
29.18898 62.000
29.20892 63.000
29.22887 70.000
29.24882 60.000
29.26877 62.000
29.28871 67.000
29.30866 72.000
29.32861 77.000
29.34855 54.000
29.36850 64.000
29.38845 67.000
29.40839 73.000
29.42834 70.000
29.44829 54.000
29.46823 79.000
29.48818 63.000
29.50813 59.000
29.52808 58.000
29.54802 74.000
29.56797 55.000
29.58792 73.000
29.60786 79.000
29.62781 68.000
29.64776 64.000
29.66770 68.000
29.68765 58.000
29.70760 72.000
29.72755 68.000
29.74749 70.000
29.76744 80.000
29.78739 70.000
29.80733 76.000
29.82728 66.000
29.84723 78.000
29.86717 73.000
29.88712 63.000
29.90707 65.000
29.92701 55.000
29.94696 79.000
29.96691 97.000
29.98686 92.000
30.00680 89.000
30.02675 123.000
30.04670 133.000
30.06664 151.000
30.08659 193.000
30.10654 224.000
30.12648 207.000
30.14643 231.000
30.16638 230.000
30.18633 244.000
30.20627 210.000
30.22622 177.000
30.24617 152.000
30.26611 137.000
30.28606 125.000
30.30601 112.000
30.32595 101.000
30.34590 108.000
30.36585 78.000
30.38579 79.000
30.40574 80.000
30.42569 82.000
30.44564 84.000
30.46558 83.000
30.48553 78.000
30.50548 70.000
30.52542 77.000
30.54537 80.000
30.56532 76.000
30.58526 69.000
30.60521 81.000
30.62516 56.000
30.64511 77.000
30.66505 71.000
30.68500 67.000
30.70495 63.000
30.72489 72.000
30.74484 67.000
30.76479 78.000
30.78473 73.000
30.80468 66.000
30.82463 72.000
30.84458 69.000
30.86452 68.000
30.88447 61.000
30.90442 69.000
30.92436 80.000
30.94431 86.000
30.96426 87.000
30.98420 78.000
31.00415 74.000
31.02410 75.000
31.04404 72.000
31.06399 88.000
31.08394 80.000
31.10389 64.000
31.12383 73.000
31.14378 78.000
31.16373 74.000
31.18367 82.000
31.20362 76.000
31.22357 75.000
31.24351 84.000
31.26346 79.000
31.28341 92.000
31.30336 87.000
31.32330 80.000
31.34325 84.000
31.36320 72.000
31.38314 83.000
31.40309 77.000
31.42304 91.000
31.44298 103.000
31.46293 80.000
31.48288 118.000
31.50282 112.000
31.52277 135.000
31.54272 152.000
31.56267 181.000
31.58261 266.000
31.60256 337.000
31.62251 407.000
31.64245 511.000
31.66240 525.000
31.68235 526.000
31.70229 576.000
31.72224 572.000
31.74219 570.000
31.76214 564.000
31.78208 601.000
31.80203 542.000
31.82198 559.000
31.84192 474.000
31.86187 426.000
31.88182 351.000
31.90176 307.000
31.92171 263.000
31.94166 224.000
31.96160 167.000
31.98155 146.000
32.00150 133.000
32.02145 119.000
32.04139 119.000
32.06134 100.000
32.08129 86.000
32.10123 81.000
32.12118 99.000
32.14113 73.000
32.16107 73.000
32.18102 63.000
32.20097 59.000
32.22092 62.000
32.24086 73.000
32.26081 64.000
32.28076 67.000
32.30070 54.000
32.32065 66.000
32.34060 68.000
32.36054 62.000
32.38049 68.000
32.40044 76.000
32.42039 56.000
32.44033 50.000
32.46028 75.000
32.48023 70.000
32.50017 72.000
32.52012 59.000
32.54007 68.000
32.56001 82.000
32.57996 68.000
32.59991 64.000
32.61985 54.000
32.63980 59.000
32.65975 59.000
32.67970 62.000
32.69964 74.000
32.71959 58.000
32.73954 72.000
32.75948 63.000
32.77943 63.000
32.79938 62.000
32.81932 57.000
32.83927 59.000
32.85922 66.000
32.87917 68.000
32.89911 52.000
32.91906 52.000
32.93901 41.000
32.95895 77.000
32.97890 68.000
32.99885 66.000
33.01879 76.000
33.03874 71.000
33.05869 56.000
33.07863 83.000
33.09858 62.000
33.11853 60.000
33.13848 66.000
33.15842 64.000
33.17837 60.000
33.19832 60.000
33.21826 56.000
33.23821 67.000
33.25816 66.000
33.27810 72.000
33.29805 63.000
33.31800 66.000
33.33795 54.000
33.35789 54.000
33.37784 57.000
33.39779 55.000
33.41773 62.000
33.43768 55.000
33.45763 72.000
33.47757 48.000
33.49752 65.000
33.51747 45.000
33.53741 72.000
33.55736 55.000
33.57731 45.000
33.59726 56.000
33.61720 61.000
33.63715 55.000
33.65710 60.000
33.67704 71.000
33.69699 60.000
33.71694 58.000
33.73688 63.000
33.75683 61.000
33.77678 57.000
33.79673 67.000
33.81667 65.000
33.83662 51.000
33.85657 80.000
33.87651 63.000
33.89646 59.000
33.91641 52.000
33.93635 75.000
33.95630 79.000
33.97625 57.000
33.99620 73.000
34.01614 63.000
34.03609 58.000
34.05604 57.000
34.07598 59.000
34.09593 63.000
34.11588 62.000
34.13582 72.000
34.15577 82.000
34.17572 64.000
34.19566 70.000
34.21561 75.000
34.23556 67.000
34.25551 76.000
34.27545 64.000
34.29540 65.000
34.31535 76.000
34.33529 81.000
34.35524 70.000
34.37519 66.000
34.39513 63.000
34.41508 81.000
34.43503 62.000
34.45498 82.000
34.47492 78.000
34.49487 81.000
34.51482 60.000
34.53476 81.000
34.55471 71.000
34.57466 73.000
34.59460 70.000
34.61455 67.000
34.63450 69.000
34.65444 84.000
34.67439 67.000
34.69434 66.000
34.71429 69.000
34.73423 84.000
34.75418 72.000
34.77413 73.000
34.79407 81.000
34.81402 79.000
34.83397 87.000
34.85391 80.000
34.87386 83.000
34.89381 79.000
34.91376 78.000
34.93370 76.000
34.95365 68.000
34.97360 92.000
34.99354 76.000
35.01349 61.000
35.03344 66.000
35.05338 67.000
35.07333 77.000
35.09328 75.000
35.11322 72.000
35.13317 76.000
35.15312 98.000
35.17307 101.000
35.19301 90.000
35.21296 100.000
35.23291 101.000
35.25285 133.000
35.27280 144.000
35.29275 145.000
35.31269 168.000
35.33264 189.000
35.35259 214.000
35.37254 232.000
35.39248 277.000
35.41243 343.000
35.43238 367.000
35.45232 401.000
35.47227 437.000
35.49222 482.000
35.51216 545.000
35.53211 525.000
35.55206 474.000
35.57201 416.000
35.59195 438.000
35.61190 376.000
35.63185 358.000
35.65179 347.000
35.67174 295.000
35.69169 250.000
35.71163 193.000
35.73158 239.000
35.75153 263.000
35.77147 287.000
35.79142 317.000
35.81137 406.000
35.83132 549.000
35.85126 793.000
35.87121 955.000
35.89116 1022.000
35.91110 1011.000
35.93105 1016.000
35.95100 926.000
35.97094 855.000
35.99089 708.000
36.01084 597.000
36.03079 488.000
36.05073 382.000
36.07068 300.000
36.09063 210.000
36.11057 152.000
36.13052 136.000
36.15047 106.000
36.17041 106.000
36.19036 88.000
36.21031 106.000
36.23025 98.000
36.25020 72.000
36.27015 97.000
36.29010 94.000
36.31004 80.000
36.32999 78.000
36.34994 83.000
36.36988 82.000
36.38983 74.000
36.40978 79.000
36.42972 78.000
36.44967 73.000
36.46962 93.000
36.48957 76.000
36.50951 67.000
36.52946 77.000
36.54941 78.000
36.56935 77.000
36.58930 94.000
36.60925 82.000
36.62919 76.000
36.64914 78.000
36.66909 81.000
36.68903 117.000
36.70898 88.000
36.72893 120.000
36.74888 140.000
36.76882 154.000
36.78877 166.000
36.80872 173.000
36.82866 148.000
36.84861 180.000
36.86856 141.000
36.88850 139.000
36.90845 120.000
36.92840 122.000
36.94835 115.000
36.96829 104.000
36.98824 99.000
37.00819 93.000
37.02813 103.000
37.04808 103.000
37.06803 101.000
37.08797 113.000
37.10792 98.000
37.12787 111.000
37.14781 113.000
37.16776 107.000
37.18771 95.000
37.20766 98.000
37.22760 91.000
37.24755 79.000
37.26750 89.000
37.28744 96.000
37.30739 88.000
37.32734 90.000
37.34728 83.000
37.36723 90.000
37.38718 83.000
37.40713 85.000
37.42707 60.000
37.44702 69.000
37.46697 73.000
37.48691 66.000
37.50686 72.000
37.52681 81.000
37.54675 83.000
37.56670 75.000
37.58665 80.000
37.60660 75.000
37.62654 78.000
37.64649 82.000
37.66644 96.000
37.68638 72.000
37.70633 74.000
37.72628 72.000
37.74622 79.000
37.76617 73.000
37.78612 83.000
37.80606 72.000
37.82601 83.000
37.84596 72.000
37.86591 82.000
37.88585 87.000
37.90580 88.000
37.92575 77.000
37.94569 90.000
37.96564 95.000
37.98559 89.000
38.00553 86.000
38.02548 84.000
38.04543 103.000
38.06538 92.000
38.08532 77.000
38.10527 92.000
38.12522 95.000
38.14516 75.000
38.16511 72.000
38.18506 100.000
38.20500 98.000
38.22495 101.000
38.24490 88.000
38.26484 104.000
38.28479 99.000
38.30474 97.000
38.32469 83.000
38.34463 110.000
38.36458 84.000
38.38453 90.000
38.40447 87.000
38.42442 86.000
38.44437 83.000
38.46431 98.000
38.48426 110.000
38.50421 115.000
38.52416 98.000
38.54410 101.000
38.56405 104.000
38.58400 91.000
38.60394 95.000
38.62389 104.000
38.64384 95.000
38.66378 80.000
38.68373 99.000
38.70368 95.000
38.72362 107.000
38.74357 108.000
38.76352 104.000
38.78347 96.000
38.80341 124.000
38.82336 105.000
38.84331 115.000
38.86325 108.000
38.88320 111.000
38.90315 105.000
38.92309 113.000
38.94304 108.000
38.96299 109.000
38.98294 130.000
39.00288 148.000
39.02283 130.000
39.04278 153.000
39.06272 155.000
39.08267 147.000
39.10262 156.000
39.12256 208.000
39.14251 192.000
39.16246 212.000
39.18241 226.000
39.20235 252.000
39.22230 273.000
39.24225 334.000
39.26219 444.000
39.28214 491.000
39.30209 655.000
39.32203 897.000
39.34198 1080.000
39.36193 1450.000
39.38187 1716.000
39.40182 1857.000
39.42177 1803.000
39.44172 1620.000
39.46166 1490.000
39.48161 1448.000
39.50156 1291.000
39.52150 1065.000
39.54145 888.000
39.56140 716.000
39.58134 519.000
39.60129 451.000
39.62124 342.000
39.64119 258.000
39.66113 278.000
39.68108 181.000
39.70103 165.000
39.72097 159.000
39.74092 170.000
39.76087 125.000
39.78081 154.000
39.80076 109.000
39.82071 110.000
39.84065 98.000
39.86060 105.000
39.88055 97.000
39.90050 117.000
39.92044 97.000
39.94039 96.000
39.96034 80.000
39.98028 88.000
40.00023 105.000
40.02018 81.000
40.04012 93.000
40.06007 83.000
40.08002 81.000
40.09997 83.000
40.11991 77.000
40.13986 54.000
40.15981 63.000
40.17975 81.000
40.19970 64.000
40.21965 79.000
40.23959 58.000
40.25954 64.000
40.27949 66.000
40.29943 91.000
40.31938 75.000
40.33933 64.000
40.35928 76.000
40.37922 67.000
40.39917 60.000
40.41912 65.000
40.43906 66.000
40.45901 77.000
40.47896 50.000
40.49890 70.000
40.51885 58.000
40.53880 63.000
40.55875 64.000
40.57869 69.000
40.59864 67.000
40.61859 57.000
40.63853 73.000
40.65848 67.000
40.67843 71.000
40.69837 65.000
40.71832 61.000
40.73827 59.000
40.75822 58.000
40.77816 76.000
40.79811 58.000
40.81806 57.000
40.83800 66.000
40.85795 68.000
40.87790 61.000
40.89784 62.000
40.91779 56.000
40.93774 64.000
40.95768 49.000
40.97763 61.000
40.99758 67.000
41.01753 55.000
41.03747 63.000
41.05742 58.000
41.07737 62.000
41.09731 63.000
41.11726 60.000
41.13721 64.000
41.15715 61.000
41.17710 61.000
41.19705 67.000
41.21700 59.000
41.23694 76.000
41.25689 59.000
41.27684 57.000
41.29678 65.000
41.31673 50.000
41.33668 62.000
41.35662 67.000
41.37657 52.000
41.39652 62.000
41.41646 60.000
41.43641 74.000
41.45636 56.000
41.47631 70.000
41.49625 68.000
41.51620 57.000
41.53615 58.000
41.55609 73.000
41.57604 58.000
41.59599 63.000
41.61593 51.000
41.63588 81.000
41.65583 67.000
41.67578 78.000
41.69572 57.000
41.71567 71.000
41.73562 59.000
41.75556 72.000
41.77551 76.000
41.79546 80.000
41.81540 81.000
41.83535 51.000
41.85530 59.000
41.87524 61.000
41.89519 71.000
41.91514 59.000
41.93509 64.000
41.95503 66.000
41.97498 70.000
41.99493 53.000
42.01487 53.000
42.03482 58.000
42.05477 59.000
42.07471 70.000
42.09466 64.000
42.11461 63.000
42.13456 52.000
42.15450 67.000
42.17445 54.000
42.19440 67.000
42.21434 62.000
42.23429 53.000
42.25424 64.000
42.27418 60.000
42.29413 63.000
42.31408 65.000
42.33403 74.000
42.35397 56.000
42.37392 70.000
42.39387 70.000
42.41381 76.000
42.43376 55.000
42.45371 64.000
42.47365 72.000
42.49360 61.000
42.51355 57.000
42.53349 67.000
42.55344 60.000
42.57339 63.000
42.59334 49.000
42.61328 61.000
42.63323 60.000
42.65318 72.000
42.67312 76.000
42.69307 77.000
42.71302 67.000
42.73296 60.000
42.75291 70.000
42.77286 62.000
42.79281 88.000
42.81275 77.000
42.83270 65.000
42.85265 91.000
42.87259 75.000
42.89254 88.000
42.91249 98.000
42.93243 98.000
42.95238 109.000
42.97233 106.000
42.99227 126.000
43.01222 138.000
43.03217 121.000
43.05212 135.000
43.07206 129.000
43.09201 161.000
43.11196 154.000
43.13190 184.000
43.15185 170.000
43.17180 184.000
43.19174 181.000
43.21169 205.000
43.23164 233.000
43.25159 221.000
43.27153 228.000
43.29148 254.000
43.31143 277.000
43.33137 303.000
43.35132 341.000
43.37127 403.000
43.39121 471.000
43.41116 594.000
43.43111 642.000
43.45105 721.000
43.47100 726.000
43.49095 667.000
43.51090 603.000
43.53084 556.000
43.55079 520.000
43.57074 442.000
43.59068 424.000
43.61063 350.000
43.63058 294.000
43.65052 245.000
43.67047 203.000
43.69042 165.000
43.71037 166.000
43.73031 126.000
43.75026 123.000
43.77021 114.000
43.79015 97.000
43.81010 112.000
43.83005 95.000
43.84999 81.000
43.86994 87.000
43.88989 79.000
43.90984 99.000
43.92978 74.000
43.94973 81.000
43.96968 74.000
43.98962 72.000
44.00957 86.000
44.02952 75.000
44.04946 73.000
44.06941 66.000
44.08936 61.000
44.10930 74.000
44.12925 58.000
44.14920 69.000
44.16915 64.000
44.18909 65.000
44.20904 56.000
44.22899 78.000
44.24893 69.000
44.26888 74.000
44.28883 65.000
44.30877 79.000
44.32872 65.000
44.34867 74.000
44.36862 64.000
44.38856 80.000
44.40851 80.000
44.42846 58.000
44.44840 72.000
44.46835 65.000
44.48830 55.000
44.50824 58.000
44.52819 82.000
44.54814 67.000
44.56808 64.000
44.58803 77.000
44.60798 60.000
44.62793 62.000
44.64787 81.000
44.66782 66.000
44.68777 54.000
44.70771 64.000
44.72766 67.000
44.74761 62.000
44.76755 64.000
44.78750 62.000
44.80745 75.000
44.82740 65.000
44.84734 74.000
44.86729 65.000
44.88724 68.000
44.90718 62.000
44.92713 59.000
44.94708 56.000
44.96702 72.000
44.98697 51.000
45.00692 63.000
45.02686 65.000
45.04681 71.000
45.06676 69.000
45.08671 73.000
45.10665 76.000
45.12660 61.000
45.14655 69.000
45.16649 90.000
45.18644 77.000
45.20639 69.000
45.22633 58.000
45.24628 62.000
45.26623 58.000
45.28618 55.000
45.30612 71.000
45.32607 51.000
45.34602 61.000
45.36596 62.000
45.38591 52.000
45.40586 73.000
45.42580 63.000
45.44575 59.000
45.46570 55.000
45.48565 72.000
45.50559 62.000
45.52554 65.000
45.54549 58.000
45.56543 66.000
45.58538 63.000
45.60533 75.000
45.62527 68.000
45.64522 46.000
45.66517 65.000
45.68511 62.000
45.70506 64.000
45.72501 59.000
45.74496 60.000
45.76490 64.000
45.78485 57.000
45.80480 61.000
45.82474 61.000
45.84469 58.000
45.86464 65.000
45.88458 66.000
45.90453 63.000
45.92448 48.000
45.94443 68.000
45.96437 53.000
45.98432 66.000
46.00427 60.000
46.02421 66.000
46.04416 76.000
46.06411 77.000
46.08405 61.000
46.10400 60.000
46.12395 63.000
46.14389 67.000
46.16384 67.000
46.18379 62.000
46.20374 60.000
46.22368 58.000
46.24363 57.000
46.26358 68.000
46.28352 52.000
46.30347 58.000
46.32342 62.000
46.34336 60.000
46.36331 72.000
46.38326 76.000
46.40321 65.000
46.42315 73.000
46.44310 67.000
46.46305 73.000
46.48299 61.000
46.50294 70.000
46.52289 74.000
46.54283 73.000
46.56278 57.000
46.58273 61.000
46.60267 57.000
46.62262 73.000
46.64257 61.000
46.66252 70.000
46.68246 81.000
46.70241 62.000
46.72236 71.000
46.74230 62.000
46.76225 69.000
46.78220 79.000
46.80214 59.000
46.82209 57.000
46.84204 61.000
46.86199 72.000
46.88193 54.000
46.90188 48.000
46.92183 71.000
46.94177 61.000
46.96172 70.000
46.98167 80.000
47.00161 78.000
47.02156 72.000
47.04151 58.000
47.06146 71.000
47.08140 61.000
47.10135 62.000
47.12130 62.000
47.14124 72.000
47.16119 61.000
47.18114 60.000
47.20108 73.000
47.22103 58.000
47.24098 64.000
47.26092 70.000
47.28087 68.000
47.30082 77.000
47.32077 75.000
47.34071 65.000
47.36066 90.000
47.38061 78.000
47.40055 62.000
47.42050 61.000
47.44045 60.000
47.46039 68.000
47.48034 62.000
47.50029 70.000
47.52024 75.000
47.54018 78.000
47.56013 83.000
47.58008 73.000
47.60002 78.000
47.61997 69.000
47.63992 77.000
47.65986 63.000
47.67981 70.000
47.69976 66.000
47.71970 78.000
47.73965 77.000
47.75960 84.000
47.77955 86.000
47.79949 67.000
47.81944 78.000
47.83939 107.000
47.85933 84.000
47.87928 92.000
47.89923 77.000
47.91917 90.000
47.93912 110.000
47.95907 78.000
47.97902 91.000
47.99896 69.000
48.01891 91.000
48.03886 89.000
48.05880 99.000
48.07875 109.000
48.09870 87.000
48.11864 112.000
48.13859 107.000
48.15854 123.000
48.17848 120.000
48.19843 102.000
48.21838 135.000
48.23833 137.000
48.25827 145.000
48.27822 135.000
48.29817 166.000
48.31811 156.000
48.33806 157.000
48.35801 190.000
48.37795 220.000
48.39790 200.000
48.41785 238.000
48.43780 243.000
48.45774 331.000
48.47769 357.000
48.49764 449.000
48.51758 529.000
48.53753 653.000
48.55748 782.000
48.57742 849.000
48.59737 963.000
48.61732 1165.000
48.63726 1220.000
48.65721 1293.000
48.67716 1388.000
48.69711 1251.000
48.71705 1231.000
48.73700 1170.000
48.75695 1038.000
48.77689 1011.000
48.79684 887.000
48.81679 847.000
48.83673 680.000
48.85668 641.000
48.87663 510.000
48.89658 432.000
48.91652 342.000
48.93647 283.000
48.95642 289.000
48.97636 246.000
48.99631 219.000
49.01626 194.000
49.03620 172.000
49.05615 169.000
49.07610 138.000
49.09605 132.000
49.11599 134.000
49.13594 105.000
49.15589 111.000
49.17583 104.000
49.19578 108.000
49.21573 110.000
49.23567 84.000
49.25562 103.000
49.27557 98.000
49.29551 95.000
49.31546 80.000
49.33541 100.000
49.35536 98.000
49.37530 94.000
49.39525 86.000
49.41520 84.000
49.43514 91.000
49.45509 57.000
49.47504 95.000
49.49498 91.000
49.51493 107.000
49.53488 83.000
49.55483 69.000
49.57477 66.000
49.59472 79.000
49.61467 89.000
49.63461 62.000
49.65456 69.000
49.67451 68.000
49.69445 80.000
49.71440 70.000
49.73435 68.000
49.75429 85.000
49.77424 72.000
49.79419 61.000
49.81414 69.000
49.83408 63.000
49.85403 65.000
49.87398 47.000
49.89392 71.000
49.91387 66.000
49.93382 59.000
49.95376 60.000
49.97371 71.000
49.99366 75.000
50.01361 76.000
50.03355 70.000
50.05350 67.000
50.07345 69.000
50.09339 54.000
50.11334 69.000
50.13329 49.000
50.15323 73.000
50.17318 67.000
50.19313 69.000
50.21307 58.000
50.23302 60.000
50.25297 64.000
50.27292 48.000
50.29286 61.000
50.31281 59.000
50.33276 72.000
50.35270 59.000
50.37265 57.000
50.39260 65.000
50.41254 70.000
50.43249 58.000
50.45244 45.000
50.47239 71.000
50.49233 51.000
50.51228 53.000
50.53223 68.000
50.55217 59.000
50.57212 60.000
50.59207 56.000
50.61201 62.000
50.63196 55.000
50.65191 57.000
50.67186 63.000
50.69180 53.000
50.71175 57.000
50.73170 62.000
50.75164 59.000
50.77159 57.000
50.79154 56.000
50.81148 48.000
50.83143 69.000
50.85138 54.000
50.87132 60.000
50.89127 58.000
50.91122 75.000
50.93117 56.000
50.95111 61.000
50.97106 77.000
50.99101 66.000
51.01095 68.000
51.03090 73.000
51.05085 60.000
51.07079 61.000
51.09074 51.000
51.11069 70.000
51.13064 58.000
51.15058 59.000
51.17053 56.000
51.19048 51.000
51.21042 60.000
51.23037 57.000
51.25032 49.000
51.27026 64.000
51.29021 72.000
51.31016 71.000
51.33010 59.000
51.35005 69.000
51.37000 45.000
51.38995 61.000
51.40989 56.000
51.42984 51.000
51.44979 56.000
51.46973 59.000
51.48968 67.000
51.50963 48.000
51.52957 43.000
51.54952 56.000
51.56947 59.000
51.58942 45.000
51.60936 63.000
51.62931 50.000
51.64926 50.000
51.66920 69.000
51.68915 51.000
51.70910 65.000
51.72904 67.000
51.74899 40.000
51.76894 43.000
51.78888 48.000
51.80883 67.000
51.82878 49.000
51.84873 56.000
51.86867 54.000
51.88862 53.000
51.90857 59.000
51.92851 58.000
51.94846 68.000
51.96841 52.000
51.98835 59.000
52.00830 53.000
52.02825 61.000
52.04820 61.000
52.06814 66.000
52.08809 51.000
52.10804 59.000
52.12798 49.000
52.14793 57.000
52.16788 46.000
52.18782 59.000
52.20777 44.000
52.22772 56.000
52.24767 67.000
52.26761 55.000
52.28756 58.000
52.30751 52.000
52.32745 44.000
52.34740 52.000
52.36735 40.000
52.38729 54.000
52.40724 47.000
52.42719 54.000
52.44713 75.000
52.46708 55.000
52.48703 60.000
52.50698 46.000
52.52692 58.000
52.54687 60.000
52.56682 61.000
52.58676 51.000
52.60671 52.000
52.62666 50.000
52.64660 58.000
52.66655 61.000
52.68650 67.000
52.70645 55.000
52.72639 42.000
52.74634 54.000
52.76629 47.000
52.78623 64.000
52.80618 61.000
52.82613 63.000
52.84607 58.000
52.86602 59.000
52.88597 63.000
52.90591 54.000
52.92586 51.000
52.94581 56.000
52.96576 55.000
52.98570 49.000
53.00565 50.000
53.02560 61.000
53.04554 50.000
53.06549 50.000
53.08544 40.000
53.10538 46.000
53.12533 60.000
53.14528 65.000
53.16523 59.000
53.18517 55.000
53.20512 61.000
53.22507 43.000
53.24501 56.000
53.26496 62.000
53.28491 61.000
53.30485 65.000
53.32480 87.000
53.34475 59.000
53.36469 62.000
53.38464 64.000
53.40459 79.000
53.42454 55.000
53.44448 69.000
53.46443 74.000
53.48438 82.000
53.50432 77.000
53.52427 83.000
53.54422 77.000
53.56416 96.000
53.58411 95.000
53.60406 77.000
53.62401 86.000
53.64395 75.000
53.66390 79.000
53.68385 87.000
53.70379 64.000
53.72374 67.000
53.74369 71.000
53.76363 67.000
53.78358 82.000
53.80353 51.000
53.82348 65.000
53.84342 71.000
53.86337 52.000
53.88332 61.000
53.90326 58.000
53.92321 56.000
53.94316 54.000
53.96310 49.000
53.98305 59.000
54.00300 62.000
54.02294 49.000
54.04289 61.000
54.06284 45.000
54.08279 48.000
54.10273 44.000
54.12268 40.000
54.14263 44.000
54.16257 54.000
54.18252 70.000
54.20247 40.000
54.22241 43.000
54.24236 51.000
54.26231 51.000
54.28226 49.000
54.30220 52.000
54.32215 43.000
54.34210 44.000
54.36204 57.000
54.38199 54.000
54.40194 67.000
54.42188 53.000
54.44183 52.000
54.46178 45.000
54.48172 55.000
54.50167 48.000
54.52162 45.000
54.54157 52.000
54.56151 54.000
54.58146 53.000
54.60141 43.000
54.62135 52.000
54.64130 43.000
54.66125 52.000
54.68119 48.000
54.70114 50.000
54.72109 68.000
54.74104 61.000
54.76098 58.000
54.78093 50.000
54.80088 56.000
54.82082 40.000
54.84077 44.000
54.86072 47.000
54.88066 64.000
54.90061 53.000
54.92056 46.000
54.94050 58.000
54.96045 48.000
54.98040 65.000
55.00035 44.000
55.02029 45.000
55.04024 48.000
55.06019 61.000
55.08013 59.000
55.10008 49.000
55.12003 60.000
55.13997 52.000
55.15992 51.000
55.17987 39.000
55.19982 47.000
55.21976 43.000
55.23971 58.000
55.25966 49.000
55.27960 46.000
55.29955 48.000
55.31950 42.000
55.33944 60.000
55.35939 45.000
55.37934 48.000
55.39929 50.000
55.41923 63.000
55.43918 49.000
55.45913 50.000
55.47907 50.000
55.49902 53.000
55.51897 41.000
55.53891 45.000
55.55886 53.000
55.57881 60.000
55.59875 49.000
55.61870 51.000
55.63865 61.000
55.65860 38.000
55.67854 60.000
55.69849 63.000
55.71844 49.000
55.73838 57.000
55.75833 38.000
55.77828 55.000
55.79822 45.000
55.81817 55.000
55.83812 45.000
55.85807 41.000
55.87801 55.000
55.89796 51.000
55.91791 52.000
55.93785 48.000
55.95780 51.000
55.97775 48.000
55.99769 60.000
56.01764 50.000
56.03759 40.000
56.05753 69.000
56.07748 45.000
56.09743 56.000
56.11738 30.000
56.13732 44.000
56.15727 52.000
56.17722 50.000
56.19716 64.000
56.21711 45.000
56.23706 65.000
56.25700 51.000
56.27695 53.000
56.29690 49.000
56.31685 55.000
56.33679 56.000
56.35674 50.000
56.37669 48.000
56.39663 55.000
56.41658 49.000
56.43653 66.000
56.45647 66.000
56.47642 47.000
56.49637 64.000
56.51631 53.000
56.53626 63.000
56.55621 68.000
56.57616 48.000
56.59610 67.000
56.61605 69.000
56.63600 64.000
56.65594 55.000
56.67589 77.000
56.69584 66.000
56.71578 65.000
56.73573 84.000
56.75568 77.000
56.77563 69.000
56.79557 85.000
56.81552 75.000
56.83547 89.000
56.85541 93.000
56.87536 85.000
56.89531 106.000
56.91525 107.000
56.93520 124.000
56.95515 102.000
56.97510 116.000
56.99504 123.000
57.01499 145.000
57.03494 138.000
57.05488 140.000
57.07483 115.000
57.09478 164.000
57.11472 117.000
57.13467 141.000
57.15462 129.000
57.17456 128.000
57.19451 120.000
57.21446 114.000
57.23441 101.000
57.25435 106.000
57.27430 108.000
57.29425 104.000
57.31419 99.000
57.33414 92.000
57.35409 81.000
57.37403 72.000
57.39398 73.000
57.41393 70.000
57.43388 68.000
57.45382 62.000
57.47377 61.000
57.49372 65.000
57.51366 62.000
57.53361 71.000
57.55356 53.000
57.57350 68.000
57.59345 55.000
57.61340 52.000
57.63334 59.000
57.65329 41.000
57.67324 46.000
57.69319 58.000
57.71313 45.000
57.73308 59.000
57.75303 63.000
57.77297 73.000
57.79292 60.000
57.81287 56.000
57.83281 61.000
57.85276 60.000
57.87271 53.000
57.89266 41.000
57.91260 44.000
57.93255 47.000
57.95250 47.000
57.97244 47.000
57.99239 65.000
58.01234 54.000
58.03228 53.000
58.05223 59.000
58.07218 61.000
58.09212 42.000
58.11207 53.000
58.13202 63.000
58.15197 45.000
58.17191 61.000
58.19186 44.000
58.21181 51.000
58.23175 37.000
58.25170 60.000
58.27165 58.000
58.29159 48.000
58.31154 54.000
58.33149 57.000
58.35144 46.000
58.37138 52.000
58.39133 68.000
58.41128 49.000
58.43122 47.000
58.45117 64.000
58.47112 64.000
58.49106 58.000
58.51101 57.000
58.53096 66.000
58.55090 54.000
58.57085 51.000
58.59080 51.000
58.61075 41.000
58.63069 69.000
58.65064 54.000
58.67059 54.000
58.69053 54.000
58.71048 51.000
58.73043 60.000
58.75037 51.000
58.77032 50.000
58.79027 50.000
58.81022 44.000
58.83016 57.000
58.85011 52.000
58.87006 72.000
58.89000 53.000
58.90995 45.000
58.92990 56.000
58.94984 51.000
58.96979 68.000
58.98974 68.000
59.00969 64.000
59.02963 65.000
59.04958 55.000
59.06953 55.000
59.08947 62.000
59.10942 42.000
59.12937 32.000
59.14931 63.000
59.16926 62.000
59.18921 50.000
59.20915 59.000
59.22910 73.000
59.24905 53.000
59.26900 45.000
59.28894 54.000
59.30889 70.000
59.32884 50.000
59.34878 62.000
59.36873 58.000
59.38868 42.000
59.40862 49.000
59.42857 50.000
59.44852 74.000
59.46847 50.000
59.48841 61.000
59.50836 56.000
59.52831 52.000
59.54825 54.000
59.56820 57.000
59.58815 54.000
59.60809 58.000
59.62804 50.000
59.64799 53.000
59.66793 46.000
59.68788 62.000
59.70783 56.000
59.72778 62.000
59.74772 62.000
59.76767 60.000
59.78762 54.000
59.80756 63.000
59.82751 58.000
59.84746 51.000
59.86740 47.000
59.88735 64.000
59.90730 61.000
59.92725 54.000
59.94719 56.000
59.96714 50.000
59.98709 63.000
60.00703 67.000
60.02698 57.000
60.04693 62.000
60.06687 51.000
60.08682 64.000
60.10677 51.000
60.12671 47.000
60.14666 51.000
60.16661 55.000
60.18656 56.000
60.20650 49.000
60.22645 54.000
60.24640 64.000
60.26634 55.000
60.28629 55.000
60.30624 50.000
60.32618 41.000
60.34613 57.000
60.36608 52.000
60.38603 61.000
60.40597 44.000
60.42592 54.000
60.44587 52.000
60.46581 50.000
60.48576 57.000
60.50571 47.000
60.52565 64.000
60.54560 64.000
60.56555 76.000
60.58550 40.000
60.60544 62.000
60.62539 56.000
60.64534 66.000
60.66528 69.000
60.68523 68.000
60.70518 54.000
60.72512 66.000
60.74507 70.000
60.76502 55.000
60.78496 58.000
60.80491 75.000
60.82486 70.000
60.84481 71.000
60.86475 53.000
60.88470 69.000
60.90465 63.000
60.92459 71.000
60.94454 64.000
60.96449 62.000
60.98443 53.000
61.00438 69.000
61.02433 64.000
61.04428 61.000
61.06422 64.000
61.08417 69.000
61.10412 69.000
61.12406 66.000
61.14401 77.000
61.16396 70.000
61.18390 68.000
61.20385 75.000
61.22380 68.000
61.24374 93.000
61.26369 109.000
61.28364 90.000
61.30359 87.000
61.32353 85.000
61.34348 75.000
61.36343 120.000
61.38337 122.000
61.40332 121.000
61.42327 156.000
61.44321 164.000
61.46316 173.000
61.48311 176.000
61.50306 183.000
61.52300 243.000
61.54295 276.000
61.56290 281.000
61.58284 294.000
61.60279 310.000
61.62274 350.000
61.64268 367.000
61.66263 406.000
61.68258 407.000
61.70252 431.000
61.72247 467.000
61.74242 457.000
61.76237 462.000
61.78231 501.000
61.80226 453.000
61.82221 440.000
61.84215 444.000
61.86210 383.000
61.88205 370.000
61.90199 342.000
61.92194 347.000
61.94189 343.000
61.96184 277.000
61.98178 302.000
62.00173 282.000
62.02168 249.000
62.04162 233.000
62.06157 205.000
62.08152 180.000
62.10146 184.000
62.12141 163.000
62.14136 153.000
62.16131 121.000
62.18125 132.000
62.20120 110.000
62.22115 117.000
62.24109 108.000
62.26104 91.000
62.28099 123.000
62.30093 111.000
62.32088 112.000
62.34083 116.000
62.36077 106.000
62.38072 100.000
62.40067 119.000
62.42062 119.000
62.44056 128.000
62.46051 123.000
62.48046 138.000
62.50040 115.000
62.52035 142.000
62.54030 133.000
62.56024 150.000
62.58019 143.000
62.60014 149.000
62.62009 164.000
62.64003 145.000
62.65998 181.000
62.67993 186.000
62.69987 209.000
62.71982 144.000
62.73977 171.000
62.75971 136.000
62.77966 185.000
62.79961 143.000
62.81955 142.000
62.83950 134.000
62.85945 114.000
62.87940 135.000
62.89934 142.000
62.91929 122.000
62.93924 112.000
62.95918 99.000
62.97913 85.000
62.99908 112.000
63.01902 91.000
63.03897 91.000
63.05892 92.000
63.07887 74.000
63.09881 78.000
63.11876 77.000
63.13871 61.000
63.15865 69.000
63.17860 80.000
63.19855 62.000
63.21849 53.000
63.23844 80.000
63.25839 52.000
63.27833 56.000
63.29828 57.000
63.31823 77.000
63.33818 74.000
63.35812 74.000
63.37807 73.000
63.39802 73.000
63.41796 63.000
63.43791 72.000
63.45786 51.000
63.47780 74.000
63.49775 52.000
63.51770 67.000
63.53765 59.000
63.55759 75.000
63.57754 58.000
63.59749 57.000
63.61743 87.000
63.63738 63.000
63.65733 59.000
63.67727 63.000
63.69722 75.000
63.71717 74.000
63.73712 66.000
63.75706 67.000
63.77701 67.000
63.79696 74.000
63.81690 60.000
63.83685 63.000
63.85680 74.000
63.87674 61.000
63.89669 71.000
63.91664 54.000
63.93658 48.000
63.95653 59.000
63.97648 62.000
63.99643 74.000
64.01637 82.000
64.03632 61.000
64.05627 84.000
64.07621 66.000
64.09616 64.000
64.11611 92.000
64.13605 74.000
64.15600 99.000
64.17595 85.000
64.19590 92.000
64.21584 94.000
64.23579 112.000
64.25574 100.000
64.27568 128.000
64.29563 160.000
64.31558 143.000
64.33552 170.000
64.35547 223.000
64.37542 255.000
64.39536 293.000
64.41531 349.000
64.43526 428.000
64.45521 451.000
64.47515 451.000
64.49510 494.000
64.51505 467.000
64.53499 437.000
64.55494 470.000
64.57489 422.000
64.59483 450.000
64.61478 427.000
64.63473 388.000
64.65468 373.000
64.67462 360.000
64.69457 301.000
64.71452 267.000
64.73446 274.000
64.75441 231.000
64.77436 252.000
64.79430 181.000
64.81425 158.000
64.83420 142.000
64.85414 119.000
64.87409 128.000
64.89404 123.000
64.91399 114.000
64.93393 84.000
64.95388 97.000
64.97383 85.000
64.99377 69.000
65.01372 78.000
65.03367 72.000
65.05361 72.000
65.07356 56.000
65.09351 65.000
65.11346 79.000
65.13340 79.000
65.15335 62.000
65.17330 62.000
65.19324 76.000
65.21319 70.000
65.23314 59.000
65.25308 63.000
65.27303 59.000
65.29298 72.000
65.31293 73.000
65.33287 57.000
65.35282 66.000
65.37277 69.000
65.39271 54.000
65.41266 61.000
65.43261 56.000
65.45255 67.000
65.47250 61.000
65.49245 70.000
65.51239 56.000
65.53234 60.000
65.55229 62.000
65.57224 60.000
65.59218 72.000
65.61213 77.000
65.63208 56.000
65.65202 67.000
65.67197 56.000
65.69192 71.000
65.71186 77.000
65.73181 80.000
65.75176 60.000
65.77171 64.000
65.79165 65.000
65.81160 68.000
65.83155 81.000
65.85149 72.000
65.87144 57.000
65.89139 71.000
65.91133 86.000
65.93128 87.000
65.95123 80.000
65.97117 105.000
65.99112 80.000
66.01107 89.000
66.03102 90.000
66.05096 83.000
66.07091 86.000
66.09086 83.000
66.11080 93.000
66.13075 98.000
66.15070 106.000
66.17064 100.000
66.19059 112.000
66.21054 103.000
66.23049 113.000
66.25043 95.000
66.27038 117.000
66.29033 121.000
66.31027 119.000
66.33022 122.000
66.35017 105.000
66.37011 127.000
66.39006 108.000
66.41001 110.000
66.42995 115.000
66.44990 134.000
66.46985 117.000
66.48980 101.000
66.50974 120.000
66.52969 102.000
66.54964 127.000
66.56958 110.000
66.58953 107.000
66.60948 130.000
66.62942 145.000
66.64937 132.000
66.66932 147.000
66.68927 183.000
66.70921 197.000
66.72916 205.000
66.74911 256.000
66.76905 301.000
66.78900 290.000
66.80895 326.000
66.82889 343.000
66.84884 384.000
66.86879 322.000
66.88874 322.000
66.90868 346.000
66.92863 313.000
66.94858 328.000
66.96852 285.000
66.98847 272.000
67.00842 307.000
67.02836 246.000
67.04831 247.000
67.06826 215.000
67.08820 181.000
67.10815 187.000
67.12810 163.000
67.14805 131.000
67.16799 128.000
67.18794 121.000
67.20789 105.000
67.22783 99.000
67.24778 115.000
67.26773 75.000
67.28767 61.000
67.30762 61.000
67.32757 62.000
67.34752 66.000
67.36746 64.000
67.38741 58.000
67.40736 61.000
67.42730 72.000
67.44725 56.000
67.46720 54.000
67.48714 58.000
67.50709 61.000
67.52704 61.000
67.54698 47.000
67.56693 56.000
67.58688 53.000
67.60683 62.000
67.62677 52.000
67.64672 62.000
67.66667 56.000
67.68661 50.000
67.70656 56.000
67.72651 52.000
67.74645 48.000
67.76640 64.000
67.78635 43.000
67.80630 59.000
67.82624 55.000
67.84619 44.000
67.86614 55.000
67.88608 50.000
67.90603 60.000
67.92598 52.000
67.94592 53.000
67.96587 46.000
67.98582 44.000
68.00576 49.000
68.02571 52.000
68.04566 53.000
68.06561 62.000
68.08555 51.000
68.10550 59.000
68.12545 56.000
68.14539 59.000
68.16534 53.000
68.18529 49.000
68.20523 44.000
68.22518 36.000
68.24513 49.000
68.26508 42.000
68.28502 43.000
68.30497 37.000
68.32492 49.000
68.34486 59.000
68.36481 53.000
68.38476 48.000
68.40470 51.000
68.42465 53.000
68.44460 48.000
68.46455 51.000
68.48449 54.000
68.50444 50.000
68.52439 40.000
68.54433 49.000
68.56428 58.000
68.58423 50.000
68.60417 47.000
68.62412 45.000
68.64407 56.000
68.66401 49.000
68.68396 54.000
68.70391 45.000
68.72386 49.000
68.74380 42.000
68.76375 53.000
68.78370 47.000
68.80364 42.000
68.82359 47.000
68.84354 44.000
68.86348 46.000
68.88343 51.000
68.90338 41.000
68.92333 28.000
68.94327 45.000
68.96322 41.000
68.98317 61.000
69.00311 58.000
69.02306 54.000
69.04301 41.000
69.06295 62.000
69.08290 59.000
69.10285 46.000
69.12279 43.000
69.14274 54.000
69.16269 54.000
69.18264 67.000
69.20258 48.000
69.22253 42.000
69.24248 55.000
69.26242 52.000
69.28237 50.000
69.30232 70.000
69.32226 63.000
69.34221 45.000
69.36216 53.000
69.38211 43.000
69.40205 55.000
69.42200 47.000
69.44195 48.000
69.46189 55.000
69.48184 70.000
69.50179 59.000
69.52173 55.000
69.54168 63.000
69.56163 57.000
69.58157 34.000
69.60152 38.000
69.62147 61.000
69.64142 56.000
69.66136 37.000
69.68131 67.000
69.70126 48.000
69.72120 54.000
69.74115 46.000
69.76110 48.000
69.78104 50.000
69.80099 51.000
69.82094 42.000
69.84089 45.000
69.86083 52.000
69.88078 49.000
69.90073 41.000
69.92067 52.000
69.94062 68.000
69.96057 50.000
69.98051 43.000
70.00046 47.000
70.02041 42.000
70.04035 38.000
70.06030 46.000
70.08025 44.000
70.10020 49.000
70.12014 59.000
70.14009 59.000
70.16004 44.000
70.17998 50.000
70.19993 55.000
70.21988 41.000
70.23982 59.000
70.25977 53.000
70.27972 52.000
70.29967 53.000
70.31961 52.000
70.33956 45.000
70.35951 53.000
70.37945 61.000
70.39940 50.000
70.41935 32.000
70.43929 41.000
70.45924 47.000
70.47919 61.000
70.49914 57.000
70.51908 46.000
70.53903 55.000
70.55898 54.000
70.57892 46.000
70.59887 48.000
70.61882 54.000
70.63876 46.000
70.65871 45.000
70.67866 58.000
70.69860 50.000
70.71855 42.000
70.73850 49.000
70.75845 52.000
70.77839 59.000
70.79834 53.000
70.81829 64.000
70.83823 43.000
70.85818 55.000
70.87813 57.000
70.89807 57.000
70.91802 40.000
70.93797 53.000
70.95792 59.000
70.97786 39.000
70.99781 43.000
71.01776 55.000
71.03770 65.000
71.05765 54.000
71.07760 56.000
71.09754 52.000
71.11749 61.000
71.13744 49.000
71.15738 63.000
71.17733 64.000
71.19728 60.000
71.21723 56.000
71.23717 49.000
71.25712 55.000
71.27707 53.000
71.29701 45.000
71.31696 48.000
71.33691 46.000
71.35685 46.000
71.37680 63.000
71.39675 49.000
71.41670 49.000
71.43664 55.000
71.45659 38.000
71.47654 51.000
71.49648 53.000
71.51643 44.000
71.53638 39.000
71.55632 57.000
71.57627 58.000
71.59622 49.000
71.61616 46.000
71.63611 39.000
71.65606 44.000
71.67601 45.000
71.69595 34.000
71.71590 61.000
71.73585 30.000
71.75579 41.000
71.77574 45.000
71.79569 55.000
71.81563 43.000
71.83558 47.000
71.85553 52.000
71.87548 37.000
71.89542 49.000
71.91537 60.000
71.93532 34.000
71.95526 46.000
71.97521 50.000
71.99516 45.000
72.01510 47.000
72.03505 53.000
72.05500 37.000
72.07495 60.000
72.09489 47.000
72.11484 57.000
72.13479 46.000
72.15473 53.000
72.17468 49.000
72.19463 44.000
72.21457 45.000
72.23452 41.000
72.25447 48.000
72.27441 49.000
72.29436 40.000
72.31431 45.000
72.33426 58.000
72.35420 35.000
72.37415 57.000
72.39410 42.000
72.41404 51.000
72.43399 60.000
72.45394 41.000
72.47388 42.000
72.49383 54.000
72.51378 55.000
72.53373 48.000
72.55367 56.000
72.57362 51.000
72.59357 49.000
72.61351 48.000
72.63346 37.000
72.65341 49.000
72.67335 57.000
72.69330 53.000
72.71325 54.000
72.73319 55.000
72.75314 56.000
72.77309 63.000
72.79304 47.000
72.81298 60.000
72.83293 43.000
72.85288 49.000
72.87282 50.000
72.89277 54.000
72.91272 44.000
72.93266 47.000
72.95261 37.000
72.97256 46.000
72.99251 48.000
73.01245 60.000
73.03240 67.000
73.05235 51.000
73.07229 63.000
73.09224 48.000
73.11219 62.000
73.13213 48.000
73.15208 54.000
73.17203 49.000
73.19197 56.000
73.21192 49.000
73.23187 63.000
73.25182 48.000
73.27176 63.000
73.29171 57.000
73.31166 54.000
73.33160 51.000
73.35155 59.000
73.37150 77.000
73.39144 52.000
73.41139 54.000
73.43134 79.000
73.45129 72.000
73.47123 83.000
73.49118 112.000
73.51113 93.000
73.53107 117.000
73.55102 114.000
73.57097 111.000
73.59091 129.000
73.61086 137.000
73.63081 161.000
73.65076 181.000
73.67070 171.000
73.69065 164.000
73.71060 150.000
73.73054 150.000
73.75049 150.000
73.77044 139.000
73.79038 156.000
73.81033 150.000
73.83028 138.000
73.85022 150.000
73.87017 129.000
73.89012 137.000
73.91007 126.000
73.93001 126.000
73.94996 118.000
73.96991 101.000
73.98985 96.000
74.00980 99.000
74.02975 115.000
74.04969 100.000
74.06964 107.000
74.08959 86.000
74.10954 82.000
74.12948 58.000
74.14943 76.000
74.16938 82.000
74.18932 75.000
74.20927 78.000
74.22922 69.000
74.24916 88.000
74.26911 66.000
74.28906 63.000
74.30900 61.000
74.32895 68.000
74.34890 63.000
74.36885 69.000
74.38879 54.000
74.40874 71.000
74.42869 71.000
74.44863 55.000
74.46858 64.000
74.48853 48.000
74.50847 51.000
74.52842 56.000
74.54837 51.000
74.56832 37.000
74.58826 50.000
74.60821 55.000
74.62816 52.000
74.64810 41.000
74.66805 38.000
74.68800 50.000
74.70794 38.000
74.72789 35.000
74.74784 40.000
74.76778 54.000
74.78773 56.000
74.80768 40.000
74.82763 64.000
74.84757 55.000
74.86752 53.000
74.88747 64.000
74.90741 62.000
74.92736 57.000
74.94731 56.000
74.96725 59.000
74.98720 63.000
75.00715 56.000
75.02710 62.000
75.04704 56.000
75.06699 35.000
75.08694 59.000
75.10688 59.000
75.12683 66.000
75.14678 59.000
75.16672 52.000
75.18667 48.000
75.20662 61.000
75.22657 68.000
75.24651 41.000
75.26646 53.000
75.28641 52.000
75.30635 50.000
75.32630 46.000
75.34625 51.000
75.36619 55.000
75.38614 46.000
75.40609 56.000
75.42603 51.000
75.44598 57.000
75.46593 66.000
75.48588 65.000
75.50582 50.000
75.52577 54.000
75.54572 52.000
75.56566 49.000
75.58561 55.000
75.60556 51.000
75.62550 55.000
75.64545 59.000
75.66540 58.000
75.68535 52.000
75.70529 55.000
75.72524 49.000
75.74519 42.000
75.76513 50.000
75.78508 64.000
75.80503 49.000
75.82497 64.000
75.84492 51.000
75.86487 73.000
75.88481 61.000
75.90476 68.000
75.92471 73.000
75.94466 73.000
75.96460 84.000
75.98455 87.000
76.00450 94.000
76.02444 81.000
76.04439 73.000
76.06434 99.000
76.08428 106.000
76.10423 99.000
76.12418 86.000
76.14413 98.000
76.16407 96.000
76.18402 85.000
76.20397 88.000
76.22391 79.000
76.24386 95.000
76.26381 83.000
76.28375 66.000
76.30370 89.000
76.32365 90.000
76.34359 69.000
76.36354 79.000
76.38349 73.000
76.40344 80.000
76.42338 66.000
76.44333 68.000
76.46328 64.000
76.48322 71.000
76.50317 57.000
76.52312 61.000
76.54306 59.000
76.56301 43.000
76.58296 68.000
76.60291 47.000
76.62285 48.000
76.64280 50.000
76.66275 52.000
76.68269 54.000
76.70264 49.000
76.72259 45.000
76.74253 61.000
76.76248 58.000
76.78243 60.000
76.80238 54.000
76.82232 60.000
76.84227 45.000
76.86222 59.000
76.88216 45.000
76.90211 53.000
76.92206 56.000
76.94200 69.000
76.96195 58.000
76.98190 66.000
77.00184 56.000
77.02179 53.000
77.04174 46.000
77.06169 48.000
77.08163 52.000
77.10158 66.000
77.12153 59.000
77.14147 62.000
77.16142 72.000
77.18137 53.000
77.20131 50.000
77.22126 60.000
77.24121 65.000
77.26116 68.000
77.28110 57.000
77.30105 63.000
77.32100 64.000
77.34094 81.000
77.36089 68.000
77.38084 89.000
77.40078 101.000
77.42073 93.000
77.44068 109.000
77.46062 106.000
77.48057 92.000
77.50052 114.000
77.52047 124.000
77.54041 101.000
77.56036 114.000
77.58031 121.000
77.60025 108.000
77.62020 130.000
77.64015 155.000
77.66009 134.000
77.68004 139.000
77.69999 127.000
77.71994 139.000
77.73988 167.000
77.75983 154.000
77.77978 142.000
77.79972 148.000
77.81967 171.000
77.83962 127.000
77.85956 163.000
77.87951 159.000
77.89946 152.000
77.91940 151.000
77.93935 168.000
77.95930 146.000
77.97925 148.000
77.99919 144.000
78.01914 171.000
78.03909 155.000
78.05903 140.000
78.07898 150.000
78.09893 166.000
78.11887 170.000
78.13882 179.000
78.15877 163.000
78.17872 189.000
78.19866 170.000
78.21861 188.000
78.23856 192.000
78.25850 183.000
78.27845 149.000
78.29840 149.000
78.31834 174.000
78.33829 162.000
78.35824 160.000
78.37819 148.000
78.39813 153.000
78.41808 153.000
78.43803 122.000
78.45797 129.000
78.47792 140.000
78.49787 97.000
78.51781 125.000
78.53776 129.000
78.55771 112.000
78.57765 101.000
78.59760 95.000
78.61755 100.000
78.63750 97.000
78.65744 74.000
78.67739 81.000
78.69734 74.000
78.71728 73.000
78.73723 74.000
78.75718 55.000
78.77712 64.000
78.79707 65.000
78.81702 54.000
78.83697 65.000
78.85691 63.000
78.87686 62.000
78.89681 59.000
78.91675 38.000
78.93670 57.000
78.95665 47.000
78.97659 52.000
78.99654 57.000
79.01649 42.000
79.03643 50.000
79.05638 55.000
79.07633 59.000
79.09628 54.000
79.11622 68.000
79.13617 49.000
79.15612 55.000
79.17606 65.000
79.19601 46.000
79.21596 47.000
79.23590 50.000
79.25585 41.000
79.27580 60.000
79.29575 66.000
79.31569 58.000
79.33564 41.000
79.35559 65.000
79.37553 51.000
79.39548 47.000
79.41543 37.000
79.43537 49.000
79.45532 49.000
79.47527 43.000
79.49521 39.000
79.51516 53.000
79.53511 56.000
79.55506 42.000
79.57500 52.000
79.59495 44.000
79.61490 39.000
79.63484 45.000
79.65479 47.000
79.67474 49.000
79.69468 53.000
79.71463 55.000
79.73458 44.000
79.75453 46.000
79.77447 49.000
79.79442 55.000
79.81437 52.000
79.83431 52.000
79.85426 35.000
79.87421 56.000
79.89415 56.000
79.91410 49.000
79.93405 40.000
79.95399 50.000
79.97394 49.000
79.99389 46.000
80.01384 54.000
80.03378 57.000
80.05373 57.000
80.07368 50.000
80.09362 58.000
80.11357 52.000
80.13352 46.000
80.15346 49.000
80.17341 46.000
80.19336 33.000
80.21331 53.000
80.23325 45.000
80.25320 46.000
80.27315 48.000
80.29309 42.000
80.31304 38.000
80.33299 39.000
80.35293 40.000
80.37288 41.000
80.39283 43.000
80.41278 55.000
80.43272 53.000
80.45267 63.000
80.47262 55.000
80.49256 48.000
80.51251 59.000
80.53246 47.000
80.55240 38.000
80.57235 54.000
80.59230 46.000
80.61224 44.000
80.63219 47.000
80.65214 44.000
80.67209 57.000
80.69203 45.000
80.71198 32.000
80.73193 49.000
80.75187 63.000
80.77182 49.000
80.79177 56.000
80.81171 48.000
80.83166 59.000
80.85161 50.000
80.87156 67.000
80.89150 65.000
80.91145 70.000
80.93140 61.000
80.95134 59.000
80.97129 64.000
80.99124 69.000
81.01118 60.000
81.03113 65.000
81.05108 61.000
81.07102 63.000
81.09097 59.000
81.11092 56.000
81.13087 62.000
81.15081 57.000
81.17076 58.000
81.19071 74.000
81.21065 59.000
81.23060 71.000
81.25055 57.000
81.27049 68.000
81.29044 61.000
81.31039 50.000
81.33034 39.000
81.35028 50.000
81.37023 60.000
81.39018 56.000
81.41012 64.000
81.43007 51.000
81.45002 46.000
81.46996 50.000
81.48991 53.000
81.50986 52.000
81.52980 32.000
81.54975 51.000
81.56970 31.000
81.58965 40.000
81.60959 54.000
81.62954 52.000
81.64949 45.000
81.66943 44.000
81.68938 45.000
81.70933 54.000
81.72927 55.000
81.74922 40.000
81.76917 46.000
81.78912 51.000
81.80906 42.000
81.82901 53.000
81.84896 47.000
81.86890 38.000
81.88885 42.000
81.90880 42.000
81.92874 60.000
81.94869 46.000
81.96864 44.000
81.98859 58.000
82.00853 33.000
82.02848 49.000
82.04843 45.000
82.06837 57.000
82.08832 62.000
82.10827 48.000
82.12821 53.000
82.14816 36.000
82.16811 39.000
82.18805 41.000
82.20800 52.000
82.22795 57.000
82.24790 36.000
82.26784 40.000
82.28779 45.000
82.30774 43.000
82.32768 40.000
82.34763 46.000
82.36758 47.000
82.38752 53.000
82.40747 49.000
82.42742 59.000
82.44737 49.000
82.46731 42.000
82.48726 68.000
82.50721 45.000
82.52715 50.000
82.54710 50.000
82.56705 55.000
82.58699 26.000
82.60694 40.000
82.62689 49.000
82.64683 49.000
82.66678 27.000
82.68673 40.000
82.70668 40.000
82.72662 34.000
82.74657 48.000
82.76652 41.000
82.78646 58.000
82.80641 45.000
82.82636 52.000
82.84630 42.000
82.86625 42.000
82.88620 46.000
82.90615 41.000
82.92609 50.000
82.94604 49.000
82.96599 46.000
82.98593 43.000
83.00588 36.000
83.02583 40.000
83.04577 43.000
83.06572 41.000
83.08567 65.000
83.10561 56.000
83.12556 40.000
83.14551 59.000
83.16546 40.000
83.18540 53.000
83.20535 45.000
83.22530 39.000
83.24524 49.000
83.26519 37.000
83.28514 37.000
83.30508 48.000
83.32503 54.000
83.34498 40.000
83.36493 46.000
83.38487 48.000
83.40482 45.000
83.42477 42.000
83.44471 54.000
83.46466 58.000
83.48461 49.000
83.50455 58.000
83.52450 37.000
83.54445 49.000
83.56440 34.000
83.58434 46.000
83.60429 47.000
83.62424 41.000
83.64418 42.000
83.66413 45.000
83.68408 38.000
83.70402 41.000
83.72397 42.000
83.74392 55.000
83.76386 44.000
83.78381 37.000
83.80376 54.000
83.82371 64.000
83.84365 48.000
83.86360 43.000
83.88355 55.000
83.90349 46.000
83.92344 49.000
83.94339 61.000
83.96333 56.000
83.98328 57.000
84.00323 66.000
84.02318 40.000
84.04312 62.000
84.06307 49.000
84.08302 55.000
84.10296 57.000
84.12291 59.000
84.14286 41.000
84.16280 49.000
84.18275 56.000
84.20270 58.000
84.22264 70.000
84.24259 65.000
84.26254 71.000
84.28249 66.000
84.30243 52.000
84.32238 73.000
84.34233 54.000
84.36227 83.000
84.38222 61.000
84.40217 78.000
84.42211 64.000
84.44206 78.000
84.46201 84.000
84.48196 87.000
84.50190 91.000
84.52185 110.000
84.54180 96.000
84.56174 107.000
84.58169 125.000
84.60164 113.000
84.62158 128.000
84.64153 115.000
84.66148 146.000
84.68142 156.000
84.70137 148.000
84.72132 158.000
84.74127 156.000
84.76121 161.000
84.78116 142.000
84.80111 157.000
84.82105 151.000
84.84100 149.000
84.86095 136.000
84.88089 130.000
84.90084 153.000
84.92079 136.000
84.94074 132.000
84.96068 129.000
84.98063 130.000
85.00058 130.000
85.02052 125.000
85.04047 104.000
85.06042 98.000
85.08036 115.000
85.10031 99.000
85.12026 93.000
85.14021 79.000
85.16015 82.000
85.18010 73.000
85.20005 74.000
85.21999 63.000
85.23994 97.000
85.25989 58.000
85.27983 56.000
85.29978 60.000
85.31973 63.000
85.33967 77.000
85.35962 65.000
85.37957 58.000
85.39952 42.000
85.41946 51.000
85.43941 49.000
85.45936 43.000
85.47930 53.000
85.49925 51.000
85.51920 44.000
85.53914 52.000
85.55909 49.000
85.57904 52.000
85.59899 63.000
85.61893 54.000
85.63888 54.000
85.65883 57.000
85.67877 48.000
85.69872 51.000
85.71867 60.000
85.73861 63.000
85.75856 58.000
85.77851 67.000
85.79845 61.000
85.81840 65.000
85.83835 64.000
85.85830 66.000
85.87824 45.000
85.89819 71.000
85.91814 68.000
85.93808 54.000
85.95803 65.000
85.97798 63.000
85.99792 66.000
86.01787 72.000
86.03782 49.000
86.05777 67.000
86.07771 59.000
86.09766 60.000
86.11761 64.000
86.13755 56.000
86.15750 62.000
86.17745 56.000
86.19739 60.000
86.21734 57.000
86.23729 69.000
86.25723 58.000
86.27718 69.000
86.29713 55.000
86.31708 65.000
86.33702 56.000
86.35697 58.000
86.37692 52.000
86.39686 57.000
86.41681 55.000
86.43676 60.000
86.45670 58.000
86.47665 73.000
86.49660 46.000
86.51655 49.000
86.53649 70.000
86.55644 61.000
86.57639 72.000
86.59633 71.000
86.61628 64.000
86.63623 63.000
86.65617 69.000
86.67612 68.000
86.69607 64.000
86.71602 57.000
86.73596 54.000
86.75591 58.000
86.77586 61.000
86.79580 59.000
86.81575 56.000
86.83570 61.000
86.85564 52.000
86.87559 65.000
86.89554 72.000
86.91548 75.000
86.93543 77.000
86.95538 62.000
86.97533 63.000
86.99527 54.000
87.01522 57.000
87.03517 74.000
87.05511 71.000
87.07506 81.000
87.09501 53.000
87.11495 52.000
87.13490 75.000
87.15485 73.000
87.17480 69.000
87.19474 63.000
87.21469 50.000
87.23464 74.000
87.25458 58.000
87.27453 77.000
87.29448 62.000
87.31442 56.000
87.33437 58.000
87.35432 71.000
87.37426 54.000
87.39421 58.000
87.41416 40.000
87.43411 53.000
87.45405 62.000
87.47400 50.000
87.49395 39.000
87.51389 53.000
87.53384 51.000
87.55379 52.000
87.57373 43.000
87.59368 43.000
87.61363 57.000
87.63358 58.000
87.65352 52.000
87.67347 48.000
87.69342 50.000
87.71336 57.000
87.73331 46.000
87.75326 62.000
87.77320 43.000
87.79315 35.000
87.81310 42.000
87.83304 44.000
87.85299 45.000
87.87294 49.000
87.89289 55.000
87.91283 44.000
87.93278 57.000
87.95273 43.000
87.97267 43.000
87.99262 37.000
88.01257 43.000
88.03251 46.000
88.05246 45.000
88.07241 42.000
88.09236 46.000
88.11230 53.000
88.13225 49.000
88.15220 37.000
88.17214 46.000
88.19209 43.000
88.21204 53.000
88.23198 44.000
88.25193 48.000
88.27188 36.000
88.29183 46.000
88.31177 38.000
88.33172 54.000
88.35167 49.000
88.37161 48.000
88.39156 48.000
88.41151 63.000
88.43145 43.000
88.45140 54.000
88.47135 50.000
88.49129 44.000
88.51124 52.000
88.53119 48.000
88.55114 47.000
88.57108 50.000
88.59103 38.000
88.61098 52.000
88.63092 50.000
88.65087 26.000
88.67082 44.000
88.69076 45.000
88.71071 50.000
88.73066 49.000
88.75061 33.000
88.77055 42.000
88.79050 54.000
88.81045 32.000
88.83039 49.000
88.85034 40.000
88.87029 42.000
88.89023 51.000
88.91018 42.000
88.93013 46.000
88.95007 49.000
88.97002 42.000
88.98997 49.000
89.00992 39.000
89.02986 57.000
89.04981 48.000
89.06976 44.000
89.08970 48.000
89.10965 31.000
89.12960 43.000
89.14954 41.000
89.16949 36.000
89.18944 43.000
89.20939 52.000
89.22933 53.000
89.24928 52.000
89.26923 40.000
89.28917 50.000
89.30912 50.000
89.32907 49.000
89.34901 42.000
89.36896 56.000
89.38891 62.000
89.40885 40.000
89.42880 58.000
89.44875 65.000
89.46870 64.000
89.48864 59.000
89.50859 68.000
89.52854 62.000
89.54848 59.000
89.56843 49.000
89.58838 42.000
89.60832 46.000
89.62827 55.000
89.64822 56.000
89.66817 50.000
89.68811 69.000
89.70806 52.000
89.72801 57.000
89.74795 74.000
89.76790 71.000
89.78785 60.000
89.80779 80.000
89.82774 81.000
89.84769 79.000
89.86764 51.000
89.88758 60.000
89.90753 73.000
89.92748 55.000
89.94742 64.000
89.96737 55.000
89.98732 65.000
90.00726 51.000
