10.00000 172.000
10.01995 154.000
10.03989 156.000
10.05984 160.000
10.07979 170.000
10.09973 156.000
10.11968 164.000
10.13963 167.000
10.15958 180.000
10.17952 177.000
10.19947 156.000
10.21942 157.000
10.23936 175.000
10.25931 169.000
10.27926 167.000
10.29920 175.000
10.31915 194.000
10.33910 164.000
10.35905 167.000
10.37899 170.000
10.39894 191.000
10.41889 185.000
10.43883 161.000
10.45878 183.000
10.47873 184.000
10.49867 193.000
10.51862 175.000
10.53857 174.000
10.55851 159.000
10.57846 147.000
10.59841 163.000
10.61836 179.000
10.63830 197.000
10.65825 176.000
10.67820 208.000
10.69814 173.000
10.71809 180.000
10.73804 180.000
10.75798 168.000
10.77793 186.000
10.79788 174.000
10.81783 174.000
10.83777 168.000
10.85772 176.000
10.87767 180.000
10.89761 167.000
10.91756 163.000
10.93751 178.000
10.95745 171.000
10.97740 146.000
10.99735 180.000
11.01730 190.000
11.03724 172.000
11.05719 205.000
11.07714 183.000
11.09708 178.000
11.11703 168.000
11.13698 181.000
11.15692 170.000
11.17687 191.000
11.19682 199.000
11.21676 166.000
11.23671 158.000
11.25666 175.000
11.27661 178.000
11.29655 183.000
11.31650 184.000
11.33645 166.000
11.35639 169.000
11.37634 180.000
11.39629 189.000
11.41623 182.000
11.43618 176.000
11.45613 163.000
11.47608 190.000
11.49602 181.000
11.51597 186.000
11.53592 165.000
11.55586 181.000
11.57581 175.000
11.59576 191.000
11.61570 166.000
11.63565 206.000
11.65560 176.000
11.67554 213.000
11.69549 197.000
11.71544 197.000
11.73539 176.000
11.75533 175.000
11.77528 199.000
11.79523 183.000
11.81517 162.000
11.83512 195.000
11.85507 176.000
11.87501 197.000
11.89496 189.000
11.91491 175.000
11.93486 189.000
11.95480 183.000
11.97475 201.000
11.99470 198.000
12.01464 198.000
12.03459 183.000
12.05454 193.000
12.07448 166.000
12.09443 215.000
12.11438 204.000
12.13432 202.000
12.15427 192.000
12.17422 184.000
12.19417 185.000
12.21411 183.000
12.23406 181.000
12.25401 186.000
12.27395 157.000
12.29390 168.000
12.31385 204.000
12.33379 205.000
12.35374 178.000
12.37369 173.000
12.39364 188.000
12.41358 201.000
12.43353 162.000
12.45348 191.000
12.47342 187.000
12.49337 170.000
12.51332 175.000
12.53326 189.000
12.55321 176.000
12.57316 179.000
12.59311 200.000
12.61305 188.000
12.63300 204.000
12.65295 206.000
12.67289 165.000
12.69284 177.000
12.71279 190.000
12.73273 207.000
12.75268 201.000
12.77263 209.000
12.79257 189.000
12.81252 177.000
12.83247 217.000
12.85242 194.000
12.87236 217.000
12.89231 183.000
12.91226 191.000
12.93220 186.000
12.95215 164.000
12.97210 185.000
12.99204 217.000
13.01199 171.000
13.03194 187.000
13.05189 191.000
13.07183 189.000
13.09178 194.000
13.11173 212.000
13.13167 174.000
13.15162 202.000
13.17157 203.000
13.19151 174.000
13.21146 193.000
13.23141 186.000
13.25135 194.000
13.27130 196.000
13.29125 180.000
13.31120 200.000
13.33114 187.000
13.35109 210.000
13.37104 190.000
13.39098 211.000
13.41093 200.000
13.43088 190.000
13.45082 181.000
13.47077 189.000
13.49072 178.000
13.51067 198.000
13.53061 195.000
13.55056 180.000
13.57051 213.000
13.59045 177.000
13.61040 198.000
13.63035 190.000
13.65029 189.000
13.67024 194.000
13.69019 188.000
13.71013 197.000
13.73008 193.000
13.75003 197.000
13.76998 180.000
13.78992 203.000
13.80987 213.000
13.82982 203.000
13.84976 227.000
13.86971 190.000
13.88966 201.000
13.90960 220.000
13.92955 173.000
13.94950 212.000
13.96945 195.000
13.98939 206.000
14.00934 211.000
14.02929 193.000
14.04923 218.000
14.06918 180.000
14.08913 193.000
14.10907 193.000
14.12902 203.000
14.14897 174.000
14.16892 216.000
14.18886 236.000
14.20881 180.000
14.22876 188.000
14.24870 218.000
14.26865 183.000
14.28860 178.000
14.30854 198.000
14.32849 218.000
14.34844 230.000
14.36838 209.000
14.38833 186.000
14.40828 202.000
14.42823 230.000
14.44817 196.000
14.46812 214.000
14.48807 210.000
14.50801 223.000
14.52796 187.000
14.54791 216.000
14.56785 215.000
14.58780 204.000
14.60775 195.000
14.62770 186.000
14.64764 202.000
14.66759 205.000
14.68754 189.000
14.70748 211.000
14.72743 193.000
14.74738 186.000
14.76732 193.000
14.78727 220.000
14.80722 224.000
14.82716 207.000
14.84711 211.000
14.86706 232.000
14.88701 203.000
14.90695 200.000
14.92690 224.000
14.94685 176.000
14.96679 223.000
14.98674 205.000
15.00669 191.000
15.02663 211.000
15.04658 203.000
15.06653 195.000
15.08648 180.000
15.10642 204.000
15.12637 215.000
15.14632 229.000
15.16626 211.000
15.18621 206.000
15.20616 175.000
15.22610 215.000
15.24605 207.000
15.26600 185.000
15.28594 228.000
15.30589 203.000
15.32584 200.000
15.34579 232.000
15.36573 199.000
15.38568 235.000
15.40563 197.000
15.42557 193.000
15.44552 213.000
15.46547 180.000
15.48541 214.000
15.50536 201.000
15.52531 215.000
15.54526 225.000
15.56520 213.000
15.58515 256.000
15.60510 225.000
15.62504 235.000
15.64499 221.000
15.66494 241.000
15.68488 188.000
15.70483 187.000
15.72478 238.000
15.74472 214.000
15.76467 214.000
15.78462 213.000
15.80457 219.000
15.82451 237.000
15.84446 210.000
15.86441 201.000
15.88435 204.000
15.90430 222.000
15.92425 213.000
15.94419 205.000
15.96414 256.000
15.98409 204.000
16.00404 219.000
16.02398 205.000
16.04393 225.000
16.06388 202.000
16.08382 239.000
16.10377 208.000
16.12372 200.000
16.14366 214.000
16.16361 236.000
16.18356 233.000
16.20351 237.000
16.22345 195.000
16.24340 206.000
16.26335 202.000
16.28329 233.000
16.30324 209.000
16.32319 227.000
16.34313 234.000
16.36308 238.000
16.38303 228.000
16.40297 243.000
16.42292 240.000
16.44287 233.000
16.46282 223.000
16.48276 239.000
16.50271 224.000
16.52266 204.000
16.54260 242.000
16.56255 232.000
16.58250 249.000
16.60244 265.000
16.62239 232.000
16.64234 255.000
16.66229 282.000
16.68223 255.000
16.70218 247.000
16.72213 211.000
16.74207 241.000
16.76202 245.000
16.78197 243.000
16.80191 248.000
16.82186 248.000
16.84181 212.000
16.86175 259.000
16.88170 215.000
16.90165 230.000
16.92160 230.000
16.94154 230.000
16.96149 213.000
16.98144 241.000
17.00138 215.000
17.02133 216.000
17.04128 233.000
17.06122 236.000
17.08117 252.000
17.10112 223.000
17.12107 247.000
17.14101 244.000
17.16096 209.000
17.18091 231.000
17.20085 247.000
17.22080 250.000
17.24075 250.000
17.26069 239.000
17.28064 239.000
17.30059 239.000
17.32053 255.000
17.34048 220.000
17.36043 243.000
17.38038 209.000
17.40032 194.000
17.42027 234.000
17.44022 216.000
17.46016 229.000
17.48011 224.000
17.50006 237.000
17.52000 218.000
17.53995 222.000
17.55990 233.000
17.57985 220.000
17.59979 253.000
17.61974 237.000
17.63969 268.000
17.65963 245.000
17.67958 228.000
17.69953 220.000
17.71947 231.000
17.73942 208.000
17.75937 204.000
17.77932 259.000
17.79926 214.000
17.81921 230.000
17.83916 233.000
17.85910 243.000
17.87905 241.000
17.89900 237.000
17.91894 241.000
17.93889 226.000
17.95884 244.000
17.97878 248.000
17.99873 249.000
18.01868 246.000
18.03863 239.000
18.05857 244.000
18.07852 231.000
18.09847 249.000
18.11841 250.000
18.13836 267.000
18.15831 290.000
18.17825 312.000
18.19820 314.000
18.21815 344.000
18.23810 327.000
18.25804 345.000
18.27799 324.000
18.29794 326.000
18.31788 302.000
18.33783 280.000
18.35778 227.000
18.37772 250.000
18.39767 240.000
18.41762 240.000
18.43756 238.000
18.45751 236.000
18.47746 238.000
18.49741 259.000
18.51735 235.000
18.53730 220.000
18.55725 246.000
18.57719 238.000
18.59714 256.000
18.61709 210.000
18.63703 243.000
18.65698 229.000
18.67693 244.000
18.69688 233.000
18.71682 217.000
18.73677 288.000
18.75672 245.000
18.77666 256.000
18.79661 259.000
18.81656 208.000
18.83650 258.000
18.85645 257.000
18.87640 257.000
18.89634 247.000
18.91629 245.000
18.93624 238.000
18.95619 212.000
18.97613 250.000
18.99608 247.000
19.01603 232.000
19.03597 240.000
19.05592 242.000
19.07587 250.000
19.09581 250.000
19.11576 228.000
19.13571 234.000
19.15566 246.000
19.17560 242.000
19.19555 256.000
19.21550 271.000
19.23544 231.000
19.25539 224.000
19.27534 243.000
19.29528 265.000
19.31523 238.000
19.33518 257.000
19.35513 240.000
19.37507 237.000
19.39502 232.000
19.41497 244.000
19.43491 233.000
19.45486 225.000
19.47481 254.000
19.49475 218.000
19.51470 264.000
19.53465 274.000
19.55459 228.000
19.57454 261.000
19.59449 234.000
19.61444 250.000
19.63438 240.000
19.65433 232.000
19.67428 244.000
19.69422 248.000
19.71417 263.000
19.73412 263.000
19.75406 253.000
19.77401 258.000
19.79396 251.000
19.81391 250.000
19.83385 249.000
19.85380 250.000
19.87375 234.000
19.89369 226.000
19.91364 263.000
19.93359 250.000
19.95353 259.000
19.97348 256.000
19.99343 242.000
20.01337 255.000
20.03332 287.000
20.05327 257.000
20.07322 269.000
20.09316 263.000
20.11311 271.000
20.13306 274.000
20.15300 302.000
20.17295 258.000
20.19290 289.000
20.21284 282.000
20.23279 308.000
20.25274 328.000
20.27269 337.000
20.29263 343.000
20.31258 384.000
20.33253 368.000
20.35247 460.000
20.37242 466.000
20.39237 460.000
20.41231 546.000
20.43226 566.000
20.45221 593.000
20.47215 641.000
20.49210 696.000
20.51205 731.000
20.53200 793.000
20.55194 829.000
20.57189 884.000
20.59184 986.000
20.61178 1002.000
20.63173 945.000
20.65168 993.000
20.67162 865.000
20.69157 797.000
20.71152 725.000
20.73147 719.000
20.75141 629.000
20.77136 530.000
20.79131 508.000
20.81125 501.000
20.83120 437.000
20.85115 421.000
20.87109 342.000
20.89104 394.000
20.91099 318.000
20.93094 333.000
20.95088 362.000
20.97083 294.000
20.99078 292.000
21.01072 306.000
21.03067 291.000
21.05062 267.000
21.07056 269.000
21.09051 291.000
21.11046 260.000
21.13040 235.000
21.15035 256.000
21.17030 274.000
21.19025 250.000
21.21019 256.000
21.23014 271.000
21.25009 270.000
21.27003 237.000
21.28998 271.000
21.30993 261.000
21.32987 265.000
21.34982 282.000
21.36977 249.000
21.38972 268.000
21.40966 266.000
21.42961 232.000
21.44956 242.000
21.46950 267.000
21.48945 266.000
21.50940 251.000
21.52934 235.000
21.54929 267.000
21.56924 244.000
21.58918 267.000
21.60913 245.000
21.62908 290.000
21.64903 272.000
21.66897 250.000
21.68892 272.000
21.70887 255.000
21.72881 299.000
21.74876 246.000
21.76871 251.000
21.78865 247.000
21.80860 256.000
21.82855 248.000
21.84850 282.000
21.86844 241.000
21.88839 240.000
21.90834 252.000
21.92828 278.000
21.94823 255.000
21.96818 246.000
21.98812 272.000
22.00807 282.000
22.02802 271.000
22.04796 235.000
22.06791 262.000
22.08786 282.000
22.10781 248.000
22.12775 262.000
22.14770 254.000
22.16765 248.000
22.18759 233.000
22.20754 267.000
22.22749 262.000
22.24743 253.000
22.26738 248.000
22.28733 267.000
22.30728 278.000
22.32722 292.000
22.34717 259.000
22.36712 260.000
22.38706 244.000
22.40701 268.000
22.42696 279.000
22.44690 248.000
22.46685 261.000
22.48680 272.000
22.50675 264.000
22.52669 262.000
22.54664 255.000
22.56659 264.000
22.58653 259.000
22.60648 234.000
22.62643 277.000
22.64637 276.000
22.66632 257.000
22.68627 265.000
22.70621 257.000
22.72616 261.000
22.74611 262.000
22.76606 265.000
22.78600 263.000
22.80595 261.000
22.82590 255.000
22.84584 280.000
22.86579 273.000
22.88574 283.000
22.90568 292.000
22.92563 290.000
22.94558 283.000
22.96553 264.000
22.98547 261.000
23.00542 290.000
23.02537 269.000
23.04531 287.000
23.06526 291.000
23.08521 267.000
23.10515 283.000
23.12510 301.000
23.14505 271.000
23.16499 268.000
23.18494 288.000
23.20489 262.000
23.22484 282.000
23.24478 265.000
23.26473 245.000
23.28468 245.000
23.30462 270.000
23.32457 249.000
23.34452 278.000
23.36446 277.000
23.38441 279.000
23.40436 265.000
23.42431 261.000
23.44425 253.000
23.46420 272.000
23.48415 268.000
23.50409 269.000
23.52404 244.000
23.54399 262.000
23.56393 284.000
23.58388 257.000
23.60383 279.000
23.62377 289.000
23.64372 284.000
23.66367 283.000
23.68362 260.000
23.70356 270.000
23.72351 307.000
23.74346 274.000
23.76340 254.000
23.78335 279.000
23.80330 257.000
23.82324 282.000
23.84319 296.000
23.86314 265.000
23.88309 260.000
23.90303 292.000
23.92298 264.000
23.94293 256.000
23.96287 268.000
23.98282 295.000
24.00277 299.000
24.02271 299.000
24.04266 266.000
24.06261 301.000
24.08256 256.000
24.10250 255.000
24.12245 250.000
24.14240 288.000
24.16234 282.000
24.18229 257.000
24.20224 301.000
24.22218 286.000
24.24213 285.000
24.26208 281.000
24.28202 269.000
24.30197 289.000
24.32192 285.000
24.34187 273.000
24.36181 288.000
24.38176 264.000
24.40171 308.000
24.42165 290.000
24.44160 282.000
24.46155 280.000
24.48149 266.000
24.50144 274.000
24.52139 281.000
24.54134 291.000
24.56128 280.000
24.58123 317.000
24.60118 338.000
24.62112 275.000
24.64107 312.000
24.66102 315.000
24.68096 321.000
24.70091 297.000
24.72086 313.000
24.74080 300.000
24.76075 282.000
24.78070 296.000
24.80065 312.000
24.82059 290.000
24.84054 317.000
24.86049 317.000
24.88043 293.000
24.90038 288.000
24.92033 284.000
24.94027 275.000
24.96022 263.000
24.98017 251.000
25.00012 338.000
25.02006 290.000
25.04001 273.000
25.05996 292.000
25.07990 295.000
25.09985 309.000
25.11980 298.000
25.13974 269.000
25.15969 277.000
25.17964 300.000
25.19958 295.000
25.21953 282.000
25.23948 260.000
25.25943 316.000
25.27937 316.000
25.29932 311.000
25.31927 311.000
25.33921 312.000
25.35916 271.000
25.37911 292.000
25.39905 314.000
25.41900 291.000
25.43895 272.000
25.45890 295.000
25.47884 292.000
25.49879 294.000
25.51874 288.000
25.53868 272.000
25.55863 271.000
25.57858 282.000
25.59852 281.000
25.61847 281.000
25.63842 321.000
25.65837 303.000
25.67831 283.000
25.69826 288.000
25.71821 285.000
25.73815 312.000
25.75810 314.000
25.77805 295.000
25.79799 323.000
25.81794 310.000
25.83789 335.000
25.85783 293.000
25.87778 268.000
25.89773 309.000
25.91768 303.000
25.93762 292.000
25.95757 306.000
25.97752 283.000
25.99746 320.000
26.01741 317.000
26.03736 333.000
26.05730 340.000
26.07725 329.000
26.09720 312.000
26.11715 312.000
26.13709 340.000
26.15704 292.000
26.17699 313.000
26.19693 303.000
26.21688 314.000
26.23683 323.000
26.25677 328.000
26.27672 329.000
26.29667 335.000
26.31661 266.000
26.33656 325.000
26.35651 301.000
26.37646 294.000
26.39640 320.000
26.41635 324.000
26.43630 270.000
26.45624 316.000
26.47619 314.000
26.49614 299.000
26.51608 292.000
26.53603 300.000
26.55598 281.000
26.57593 297.000
26.59587 318.000
26.61582 317.000
26.63577 330.000
26.65571 313.000
26.67566 279.000
26.69561 272.000
26.71555 324.000
26.73550 345.000
26.75545 335.000
26.77539 310.000
26.79534 275.000
26.81529 318.000
26.83524 303.000
26.85518 308.000
26.87513 321.000
26.89508 308.000
26.91502 333.000
26.93497 341.000
26.95492 313.000
26.97486 331.000
26.99481 329.000
27.01476 293.000
27.03471 324.000
27.05465 301.000
27.07460 294.000
27.09455 358.000
27.11449 309.000
27.13444 316.000
27.15439 338.000
27.17433 313.000
27.19428 292.000
27.21423 271.000
27.23417 330.000
27.25412 324.000
27.27407 315.000
27.29402 298.000
27.31396 324.000
27.33391 318.000
27.35386 343.000
27.37380 309.000
27.39375 320.000
27.41370 328.000
27.43364 310.000
27.45359 325.000
27.47354 318.000
27.49349 316.000
27.51343 337.000
27.53338 318.000
27.55333 338.000
27.57327 344.000
27.59322 324.000
27.61317 324.000
27.63311 336.000
27.65306 300.000
27.67301 360.000
27.69296 310.000
27.71290 298.000
27.73285 341.000
27.75280 309.000
27.77274 328.000
27.79269 323.000
27.81264 329.000
27.83258 329.000
27.85253 309.000
27.87248 307.000
27.89242 360.000
27.91237 303.000
27.93232 346.000
27.95227 354.000
27.97221 300.000
27.99216 299.000
28.01211 341.000
28.03205 310.000
28.05200 308.000
28.07195 319.000
28.09189 349.000
28.11184 308.000
28.13179 336.000
28.15174 348.000
28.17168 354.000
28.19163 321.000
28.21158 352.000
28.23152 330.000
28.25147 346.000
28.27142 319.000
28.29136 322.000
28.31131 317.000
28.33126 318.000
28.35120 305.000
28.37115 326.000
28.39110 337.000
28.41105 322.000
28.43099 320.000
28.45094 333.000
28.47089 306.000
28.49083 309.000
28.51078 350.000
28.53073 357.000
28.55067 318.000
28.57062 331.000
28.59057 320.000
28.61052 318.000
28.63046 324.000
28.65041 353.000
28.67036 310.000
28.69030 349.000
28.71025 347.000
28.73020 344.000
28.75014 318.000
28.77009 353.000
28.79004 372.000
28.80998 340.000
28.82993 343.000
28.84988 333.000
28.86983 330.000
28.88977 355.000
28.90972 337.000
28.92967 349.000
28.94961 364.000
28.96956 365.000
28.98951 373.000
29.00945 369.000
29.02940 353.000
29.04935 360.000
29.06930 378.000
29.08924 379.000
29.10919 354.000
29.12914 366.000
29.14908 359.000
29.16903 397.000
29.18898 395.000
29.20892 438.000
29.22887 403.000
29.24882 427.000
29.26877 437.000
29.28871 418.000
29.30866 398.000
29.32861 396.000
29.34855 362.000
29.36850 390.000
29.38845 375.000
29.40839 381.000
29.42834 398.000
29.44829 375.000
29.46823 360.000
29.48818 378.000
29.50813 337.000
29.52808 347.000
29.54802 340.000
29.56797 358.000
29.58792 365.000
29.60786 359.000
29.62781 337.000
29.64776 349.000
29.66770 353.000
29.68765 364.000
29.70760 365.000
29.72755 372.000
29.74749 336.000
29.76744 365.000
29.78739 344.000
29.80733 364.000
29.82728 384.000
29.84723 355.000
29.86717 400.000
29.88712 392.000
29.90707 356.000
29.92701 404.000
29.94696 406.000
29.96691 415.000
29.98686 387.000
30.00680 424.000
30.02675 439.000
30.04670 499.000
30.06664 551.000
30.08659 617.000
30.10654 675.000
30.12648 718.000
30.14643 686.000
30.16638 607.000
30.18633 515.000
30.20627 508.000
30.22622 470.000
30.24617 372.000
30.26611 399.000
30.28606 348.000
30.30601 347.000
30.32595 331.000
30.34590 341.000
30.36585 326.000
30.38579 385.000
30.40574 358.000
30.42569 392.000
30.44564 354.000
30.46558 334.000
30.48553 358.000
30.50548 373.000
30.52542 364.000
30.54537 348.000
30.56532 337.000
30.58526 310.000
30.60521 325.000
30.62516 356.000
30.64511 363.000
30.66505 354.000
30.68500 311.000
30.70495 335.000
30.72489 339.000
30.74484 352.000
30.76479 323.000
30.78473 341.000
30.80468 363.000
30.82463 342.000
30.84458 337.000
30.86452 336.000
30.88447 303.000
30.90442 363.000
30.92436 327.000
30.94431 324.000
30.96426 369.000
30.98420 364.000
31.00415 339.000
31.02410 331.000
31.04404 319.000
31.06399 333.000
31.08394 336.000
31.10389 321.000
31.12383 337.000
31.14378 337.000
31.16373 325.000
31.18367 346.000
31.20362 315.000
31.22357 303.000
31.24351 320.000
31.26346 319.000
31.28341 322.000
31.30336 349.000
31.32330 331.000
31.34325 319.000
31.36320 321.000
31.38314 316.000
31.40309 311.000
31.42304 320.000
31.44298 329.000
31.46293 311.000
31.48288 305.000
31.50282 338.000
31.52277 321.000
31.54272 319.000
31.56267 335.000
31.58261 334.000
31.60256 303.000
31.62251 300.000
31.64245 282.000
31.66240 331.000
31.68235 324.000
31.70229 333.000
31.72224 339.000
31.74219 360.000
31.76214 308.000
31.78208 298.000
31.80203 330.000
31.82198 341.000
31.84192 345.000
31.86187 309.000
31.88182 333.000
31.90176 369.000
31.92171 344.000
31.94166 371.000
31.96160 327.000
31.98155 355.000
32.00150 338.000
32.02145 325.000
32.04139 367.000
32.06134 330.000
32.08129 322.000
32.10123 345.000
32.12118 341.000
32.14113 332.000
32.16107 355.000
32.18102 314.000
32.20097 353.000
32.22092 301.000
32.24086 341.000
32.26081 366.000
32.28076 398.000
32.30070 374.000
32.32065 381.000
32.34060 390.000
32.36054 397.000
32.38049 379.000
32.40044 366.000
32.42039 341.000
32.44033 366.000
32.46028 371.000
32.48023 366.000
32.50017 344.000
32.52012 350.000
32.54007 345.000
32.56001 331.000
32.57996 346.000
32.59991 330.000
32.61985 372.000
32.63980 325.000
32.65975 332.000
32.67970 332.000
32.69964 344.000
32.71959 330.000
32.73954 325.000
32.75948 327.000
32.77943 326.000
32.79938 313.000
32.81932 347.000
32.83927 364.000
32.85922 340.000
32.87917 350.000
32.89911 372.000
32.91906 356.000
32.93901 331.000
32.95895 341.000
32.97890 326.000
32.99885 334.000
33.01879 333.000
33.03874 355.000
33.05869 327.000
33.07863 365.000
33.09858 345.000
33.11853 379.000
33.13848 365.000
33.15842 366.000
33.17837 360.000
33.19832 367.000
33.21826 372.000
33.23821 368.000
33.25816 384.000
33.27810 351.000
33.29805 389.000
33.31800 378.000
33.33795 384.000
33.35789 368.000
33.37784 399.000
33.39779 377.000
33.41773 339.000
33.43768 379.000
33.45763 388.000
33.47757 345.000
33.49752 351.000
33.51747 422.000
33.53741 393.000
33.55736 405.000
33.57731 400.000
33.59726 406.000
33.61720 457.000
33.63715 480.000
33.65710 498.000
33.67704 464.000
33.69699 502.000
33.71694 471.000
33.73688 522.000
33.75683 552.000
33.77678 574.000
33.79673 599.000
33.81667 600.000
33.83662 625.000
33.85657 662.000
33.87651 656.000
33.89646 781.000
33.91641 742.000
33.93635 873.000
33.95630 869.000
33.97625 916.000
33.99620 1018.000
34.01614 1013.000
34.03609 1028.000
34.05604 1095.000
34.07598 1083.000
34.09593 1072.000
34.11588 1083.000
34.13582 1084.000
34.15577 1049.000
34.17572 958.000
34.19566 946.000
34.21561 933.000
34.23556 940.000
34.25551 839.000
34.27545 808.000
34.29540 726.000
34.31535 709.000
34.33529 649.000
34.35524 646.000
34.37519 606.000
34.39513 583.000
34.41508 533.000
34.43503 528.000
34.45498 545.000
34.47492 505.000
34.49487 515.000
34.51482 489.000
34.53476 491.000
34.55471 455.000
34.57466 482.000
34.59460 432.000
34.61455 418.000
34.63450 440.000
34.65444 462.000
34.67439 476.000
34.69434 444.000
34.71429 432.000
34.73423 420.000
34.75418 457.000
34.77413 413.000
34.79407 424.000
34.81402 423.000
34.83397 405.000
34.85391 411.000
34.87386 429.000
34.89381 421.000
34.91376 478.000
34.93370 438.000
34.95365 430.000
34.97360 448.000
34.99354 472.000
35.01349 453.000
35.03344 554.000
35.05338 505.000
35.07333 486.000
35.09328 499.000
35.11322 536.000
35.13317 585.000
35.15312 545.000
35.17307 637.000
35.19301 662.000
35.21296 714.000
35.23291 863.000
35.25285 916.000
35.27280 974.000
35.29275 1144.000
35.31269 1074.000
35.33264 1248.000
35.35259 1251.000
35.37254 1311.000
35.39248 1264.000
35.41243 1334.000
35.43238 1504.000
35.45232 1698.000
35.47227 1824.000
35.49222 1962.000
35.51216 1882.000
35.53211 1678.000
35.55206 1523.000
35.57201 1396.000
35.59195 1270.000
35.61190 1192.000
35.63185 909.000
35.65179 782.000
35.67174 706.000
35.69169 647.000
35.71163 622.000
35.73158 603.000
35.75153 526.000
35.77147 547.000
35.79142 524.000
35.81137 501.000
35.83132 483.000
35.85126 480.000
35.87121 489.000
35.89116 456.000
35.91110 476.000
35.93105 446.000
35.95100 488.000
35.97094 442.000
35.99089 467.000
36.01084 458.000
36.03079 472.000
36.05073 492.000
36.07068 459.000
36.09063 490.000
36.11057 508.000
36.13052 434.000
36.15047 490.000
36.17041 451.000
36.19036 531.000
36.21031 516.000
36.23025 479.000
36.25020 508.000
36.27015 470.000
36.29010 479.000
36.31004 496.000
36.32999 521.000
36.34994 481.000
36.36988 494.000
36.38983 554.000
36.40978 550.000
36.42972 538.000
36.44967 512.000
36.46962 531.000
36.48957 556.000
36.50951 491.000
36.52946 524.000
36.54941 557.000
36.56935 530.000
36.58930 533.000
36.60925 531.000
36.62919 526.000
36.64914 540.000
36.66909 564.000
36.68903 540.000
36.70898 567.000
36.72893 579.000
36.74888 575.000
36.76882 653.000
36.78877 600.000
36.80872 599.000
36.82866 635.000
36.84861 629.000
36.86856 655.000
36.88850 689.000
36.90845 669.000
36.92840 731.000
36.94835 651.000
36.96829 655.000
36.98824 620.000
37.00819 609.000
37.02813 550.000
37.04808 575.000
37.06803 594.000
37.08797 595.000
37.10792 541.000
37.12787 518.000
37.14781 492.000
37.16776 475.000
37.18771 434.000
37.20766 453.000
37.22760 383.000
37.24755 391.000
37.26750 389.000
37.28744 403.000
37.30739 384.000
37.32734 371.000
37.34728 341.000
37.36723 361.000
37.38718 296.000
37.40713 384.000
37.42707 354.000
37.44702 329.000
37.46697 340.000
37.48691 341.000
37.50686 336.000
37.52681 340.000
37.54675 314.000
37.56670 317.000
37.58665 356.000
37.60660 308.000
37.62654 311.000
37.64649 321.000
37.66644 371.000
37.68638 332.000
37.70633 349.000
37.72628 354.000
37.74622 345.000
37.76617 339.000
37.78612 365.000
37.80606 312.000
37.82601 310.000
37.84596 346.000
37.86591 310.000
37.88585 350.000
37.90580 346.000
37.92575 345.000
37.94569 348.000
37.96564 334.000
37.98559 368.000
38.00553 330.000
38.02548 397.000
38.04543 386.000
38.06538 364.000
38.08532 387.000
38.10527 363.000
38.12522 378.000
38.14516 416.000
38.16511 402.000
38.18506 410.000
38.20500 433.000
38.22495 394.000
38.24490 431.000
38.26484 453.000
38.28479 452.000
38.30474 508.000
38.32469 472.000
38.34463 567.000
38.36458 571.000
38.38453 585.000
38.40447 658.000
38.42442 661.000
38.44437 754.000
38.46431 786.000
38.48426 788.000
38.50421 770.000
38.52416 839.000
38.54410 818.000
38.56405 777.000
38.58400 799.000
38.60394 760.000
38.62389 735.000
38.64384 693.000
38.66378 691.000
38.68373 669.000
38.70368 651.000
38.72362 655.000
38.74357 629.000
38.76352 594.000
38.78347 568.000
38.80341 588.000
38.82336 586.000
38.84331 599.000
38.86325 566.000
38.88320 582.000
38.90315 582.000
38.92309 493.000
38.94304 488.000
38.96299 464.000
38.98294 437.000
39.00288 429.000
39.02283 427.000
39.04278 445.000
39.06272 410.000
39.08267 398.000
39.10262 421.000
39.12256 410.000
39.14251 380.000
39.16246 414.000
39.18241 388.000
39.20235 382.000
39.22230 372.000
39.24225 351.000
39.26219 352.000
39.28214 349.000
39.30209 337.000
39.32203 357.000
39.34198 364.000
39.36193 356.000
39.38187 350.000
39.40182 350.000
39.42177 327.000
39.44172 320.000
39.46166 349.000
39.48161 351.000
39.50156 348.000
39.52150 331.000
39.54145 357.000
39.56140 326.000
39.58134 334.000
39.60129 329.000
39.62124 326.000
39.64119 358.000
39.66113 306.000
39.68108 343.000
39.70103 300.000
39.72097 357.000
39.74092 337.000
39.76087 340.000
39.78081 325.000
39.80076 332.000
39.82071 333.000
39.84065 334.000
39.86060 337.000
39.88055 319.000
39.90050 324.000
39.92044 359.000
39.94039 355.000
39.96034 351.000
39.98028 326.000
40.00023 363.000
40.02018 355.000
40.04012 303.000
40.06007 327.000
40.08002 362.000
40.09997 329.000
40.11991 327.000
40.13986 364.000
40.15981 337.000
40.17975 346.000
40.19970 329.000
40.21965 362.000
40.23959 351.000
40.25954 353.000
40.27949 354.000
40.29943 304.000
40.31938 352.000
40.33933 354.000
40.35928 365.000
40.37922 312.000
40.39917 307.000
40.41912 338.000
40.43906 341.000
40.45901 333.000
40.47896 347.000
40.49890 336.000
40.51885 363.000
40.53880 327.000
40.55875 351.000
40.57869 369.000
40.59864 327.000
40.61859 321.000
40.63853 325.000
40.65848 343.000
40.67843 363.000
40.69837 364.000
40.71832 382.000
40.73827 368.000
40.75822 346.000
40.77816 351.000
40.79811 381.000
40.81806 341.000
40.83800 345.000
40.85795 372.000
40.87790 377.000
40.89784 343.000
40.91779 377.000
40.93774 351.000
40.95768 313.000
40.97763 389.000
40.99758 360.000
41.01753 386.000
41.03747 384.000
41.05742 361.000
41.07737 382.000
41.09731 355.000
41.11726 345.000
41.13721 371.000
41.15715 358.000
41.17710 348.000
41.19705 386.000
41.21700 341.000
41.23694 368.000
41.25689 407.000
41.27684 374.000
41.29678 396.000
41.31673 394.000
41.33668 351.000
41.35662 355.000
41.37657 377.000
41.39652 367.000
41.41646 380.000
41.43641 391.000
41.45636 391.000
41.47631 395.000
41.49625 403.000
41.51620 414.000
41.53615 392.000
41.55609 423.000
41.57604 406.000
41.59599 439.000
41.61593 405.000
41.63588 406.000
41.65583 452.000
41.67578 440.000
41.69572 451.000
41.71567 422.000
41.73562 468.000
41.75556 467.000
41.77551 458.000
41.79546 464.000
41.81540 452.000
41.83535 479.000
41.85530 478.000
41.87524 428.000
41.89519 461.000
41.91514 480.000
41.93509 470.000
41.95503 484.000
41.97498 431.000
41.99493 461.000
42.01487 482.000
42.03482 450.000
42.05477 468.000
42.07471 449.000
42.09466 454.000
42.11461 435.000
42.13456 478.000
42.15450 443.000
42.17445 434.000
42.19440 453.000
42.21434 463.000
42.23429 465.000
42.25424 437.000
42.27418 464.000
42.29413 472.000
42.31408 452.000
42.33403 503.000
42.35397 429.000
42.37392 456.000
42.39387 496.000
42.41381 480.000
42.43376 452.000
42.45371 478.000
42.47365 478.000
42.49360 470.000
42.51355 486.000
42.53349 476.000
42.55344 495.000
42.57339 532.000
42.59334 510.000
42.61328 539.000
42.63323 477.000
42.65318 547.000
42.67312 551.000
42.69307 630.000
42.71302 595.000
42.73296 594.000
42.75291 597.000
42.77286 589.000
42.79281 571.000
42.81275 701.000
42.83270 668.000
42.85265 617.000
42.87259 596.000
42.89254 613.000
42.91249 638.000
42.93243 650.000
42.95238 701.000
42.97233 666.000
42.99227 692.000
43.01222 710.000
43.03217 651.000
43.05212 696.000
43.07206 677.000
43.09201 662.000
43.11196 686.000
43.13190 707.000
43.15185 758.000
43.17180 643.000
43.19174 702.000
43.21169 672.000
43.23164 582.000
43.25159 575.000
43.27153 512.000
43.29148 542.000
43.31143 474.000
43.33137 476.000
43.35132 431.000
43.37127 412.000
43.39121 373.000
43.41116 378.000
43.43111 376.000
43.45105 343.000
43.47100 358.000
43.49095 354.000
43.51090 329.000
43.53084 331.000
43.55079 311.000
43.57074 338.000
43.59068 310.000
43.61063 325.000
43.63058 304.000
43.65052 309.000
43.67047 327.000
43.69042 311.000
43.71037 311.000
43.73031 302.000
43.75026 315.000
43.77021 323.000
43.79015 334.000
43.81010 310.000
43.83005 306.000
43.84999 304.000
43.86994 307.000
43.88989 326.000
43.90984 299.000
43.92978 316.000
43.94973 261.000
43.96968 338.000
43.98962 298.000
44.00957 328.000
44.02952 274.000
44.04946 326.000
44.06941 316.000
44.08936 273.000
44.10930 313.000
44.12925 302.000
44.14920 302.000
44.16915 329.000
44.18909 290.000
44.20904 335.000
44.22899 295.000
44.24893 296.000
44.26888 321.000
44.28883 280.000
44.30877 280.000
44.32872 305.000
44.34867 324.000
44.36862 347.000
44.38856 264.000
44.40851 273.000
44.42846 291.000
44.44840 308.000
44.46835 316.000
44.48830 296.000
44.50824 319.000
44.52819 272.000
44.54814 318.000
44.56808 304.000
44.58803 305.000
44.60798 319.000
44.62793 296.000
44.64787 284.000
44.66782 293.000
44.68777 268.000
44.70771 322.000
44.72766 294.000
44.74761 300.000
44.76755 301.000
44.78750 308.000
44.80745 317.000
44.82740 290.000
44.84734 299.000
44.86729 302.000
44.88724 288.000
44.90718 275.000
44.92713 315.000
44.94708 312.000
44.96702 325.000
44.98697 314.000
45.00692 285.000
45.02686 302.000
45.04681 300.000
45.06676 303.000
45.08671 251.000
45.10665 304.000
45.12660 307.000
45.14655 314.000
45.16649 307.000
45.18644 297.000
45.20639 314.000
45.22633 318.000
45.24628 279.000
45.26623 311.000
45.28618 332.000
45.30612 310.000
45.32607 293.000
45.34602 322.000
45.36596 290.000
45.38591 292.000
45.40586 311.000
45.42580 317.000
45.44575 326.000
45.46570 274.000
45.48565 296.000
45.50559 284.000
45.52554 312.000
45.54549 311.000
45.56543 258.000
45.58538 323.000
45.60533 313.000
45.62527 344.000
45.64522 286.000
45.66517 317.000
45.68511 307.000
45.70506 280.000
45.72501 304.000
45.74496 277.000
45.76490 305.000
45.78485 327.000
45.80480 325.000
45.82474 319.000
45.84469 311.000
45.86464 306.000
45.88458 279.000
45.90453 280.000
45.92448 285.000
45.94443 291.000
45.96437 282.000
45.98432 314.000
46.00427 299.000
46.02421 320.000
46.04416 260.000
46.06411 310.000
46.08405 300.000
46.10400 281.000
46.12395 282.000
46.14389 307.000
46.16384 308.000
46.18379 306.000
46.20374 290.000
46.22368 302.000
46.24363 269.000
46.26358 283.000
46.28352 297.000
46.30347 303.000
46.32342 260.000
46.34336 287.000
46.36331 301.000
46.38326 304.000
46.40321 297.000
46.42315 259.000
46.44310 274.000
46.46305 305.000
46.48299 316.000
46.50294 295.000
46.52289 293.000
46.54283 295.000
46.56278 283.000
46.58273 261.000
46.60267 252.000
46.62262 286.000
46.64257 281.000
46.66252 269.000
46.68246 298.000
46.70241 288.000
46.72236 257.000
46.74230 276.000
46.76225 270.000
46.78220 285.000
46.80214 280.000
46.82209 310.000
46.84204 295.000
46.86199 271.000
46.88193 283.000
46.90188 264.000
46.92183 273.000
46.94177 267.000
46.96172 284.000
46.98167 263.000
47.00161 293.000
47.02156 286.000
47.04151 292.000
47.06146 304.000
47.08140 286.000
47.10135 282.000
47.12130 251.000
47.14124 294.000
47.16119 274.000
47.18114 310.000
47.20108 306.000
47.22103 314.000
47.24098 312.000
47.26092 282.000
47.28087 286.000
47.30082 301.000
47.32077 261.000
47.34071 279.000
47.36066 292.000
47.38061 306.000
47.40055 283.000
47.42050 285.000
47.44045 294.000
47.46039 300.000
47.48034 305.000
47.50029 299.000
47.52024 303.000
47.54018 293.000
47.56013 287.000
47.58008 285.000
47.60002 288.000
47.61997 295.000
47.63992 262.000
47.65986 281.000
47.67981 283.000
47.69976 325.000
47.71970 297.000
47.73965 301.000
47.75960 310.000
47.77955 301.000
47.79949 291.000
47.81944 329.000
47.83939 283.000
47.85933 296.000
47.87928 346.000
47.89923 325.000
47.91917 337.000
47.93912 333.000
47.95907 314.000
47.97902 326.000
47.99896 340.000
48.01891 299.000
48.03886 337.000
48.05880 318.000
48.07875 314.000
48.09870 358.000
48.11864 329.000
48.13859 340.000
48.15854 336.000
48.17848 331.000
48.19843 288.000
48.21838 314.000
48.23833 361.000
48.25827 313.000
48.27822 325.000
48.29817 334.000
48.31811 346.000
48.33806 336.000
48.35801 319.000
48.37795 333.000
48.39790 357.000
48.41785 344.000
48.43780 349.000
48.45774 349.000
48.47769 377.000
48.49764 418.000
48.51758 362.000
48.53753 388.000
48.55748 400.000
48.57742 377.000
48.59737 425.000
48.61732 438.000
48.63726 431.000
48.65721 437.000
48.67716 418.000
48.69711 470.000
48.71705 470.000
48.73700 432.000
48.75695 473.000
48.77689 453.000
48.79684 442.000
48.81679 410.000
48.83673 466.000
48.85668 443.000
48.87663 409.000
48.89658 399.000
48.91652 402.000
48.93647 388.000
48.95642 369.000
48.97636 380.000
48.99631 382.000
49.01626 370.000
49.03620 372.000
49.05615 391.000
49.07610 350.000
49.09605 360.000
49.11599 333.000
49.13594 346.000
49.15589 345.000
49.17583 375.000
49.19578 362.000
49.21573 318.000
49.23567 332.000
49.25562 318.000
49.27557 360.000
49.29551 319.000
49.31546 340.000
49.33541 351.000
49.35536 317.000
49.37530 346.000
49.39525 346.000
49.41520 331.000
49.43514 315.000
49.45509 318.000
49.47504 296.000
49.49498 314.000
49.51493 288.000
49.53488 330.000
49.55483 309.000
49.57477 331.000
49.59472 315.000
49.61467 305.000
49.63461 281.000
49.65456 309.000
49.67451 305.000
49.69445 324.000
49.71440 308.000
49.73435 284.000
49.75429 288.000
49.77424 289.000
49.79419 264.000
49.81414 284.000
49.83408 295.000
49.85403 295.000
49.87398 302.000
49.89392 283.000
49.91387 282.000
49.93382 282.000
49.95376 294.000
49.97371 273.000
49.99366 282.000
50.01361 291.000
50.03355 240.000
50.05350 261.000
50.07345 254.000
50.09339 277.000
50.11334 259.000
50.13329 280.000
50.15323 306.000
50.17318 265.000
50.19313 288.000
50.21307 271.000
50.23302 290.000
50.25297 252.000
50.27292 283.000
50.29286 275.000
50.31281 268.000
50.33276 266.000
50.35270 293.000
50.37265 265.000
50.39260 268.000
50.41254 292.000
50.43249 277.000
50.45244 277.000
50.47239 287.000
50.49233 255.000
50.51228 259.000
50.53223 267.000
50.55217 263.000
50.57212 314.000
50.59207 268.000
50.61201 247.000
50.63196 270.000
50.65191 276.000
50.67186 262.000
50.69180 282.000
50.71175 273.000
50.73170 271.000
50.75164 253.000
50.77159 254.000
50.79154 279.000
50.81148 289.000
50.83143 286.000
50.85138 257.000
50.87132 260.000
50.89127 298.000
50.91122 262.000
50.93117 298.000
50.95111 260.000
50.97106 280.000
50.99101 289.000
51.01095 269.000
51.03090 296.000
51.05085 316.000
51.07079 256.000
51.09074 281.000
51.11069 263.000
51.13064 295.000
51.15058 252.000
51.17053 266.000
51.19048 273.000
51.21042 284.000
51.23037 290.000
51.25032 277.000
51.27026 290.000
51.29021 277.000
51.31016 290.000
51.33010 290.000
51.35005 255.000
51.37000 300.000
51.38995 278.000
51.40989 264.000
51.42984 248.000
51.44979 292.000
51.46973 262.000
51.48968 271.000
51.50963 238.000
51.52957 280.000
51.54952 232.000
51.56947 264.000
51.58942 284.000
51.60936 272.000
51.62931 282.000
51.64926 251.000
51.66920 269.000
51.68915 289.000
51.70910 300.000
51.72904 280.000
51.74899 285.000
51.76894 299.000
51.78888 282.000
51.80883 251.000
51.82878 276.000
51.84873 250.000
51.86867 292.000
51.88862 309.000
51.90857 256.000
51.92851 297.000
51.94846 277.000
51.96841 308.000
51.98835 268.000
52.00830 268.000
52.02825 286.000
52.04820 263.000
52.06814 256.000
52.08809 287.000
52.10804 297.000
52.12798 274.000
52.14793 291.000
52.16788 276.000
52.18782 265.000
52.20777 258.000
52.22772 284.000
52.24767 288.000
52.26761 281.000
52.28756 296.000
52.30751 268.000
52.32745 265.000
52.34740 270.000
52.36735 288.000
52.38729 320.000
52.40724 266.000
52.42719 283.000
52.44713 269.000
52.46708 250.000
52.48703 282.000
52.50698 269.000
52.52692 273.000
52.54687 265.000
52.56682 277.000
52.58676 261.000
52.60671 258.000
52.62666 333.000
52.64660 261.000
52.66655 250.000
52.68650 297.000
52.70645 273.000
52.72639 258.000
52.74634 295.000
52.76629 305.000
52.78623 295.000
52.80618 280.000
52.82613 266.000
52.84607 271.000
52.86602 292.000
52.88597 280.000
52.90591 294.000
52.92586 288.000
52.94581 292.000
52.96576 302.000
52.98570 311.000
53.00565 274.000
53.02560 273.000
53.04554 300.000
53.06549 268.000
53.08544 301.000
53.10538 316.000
53.12533 292.000
53.14528 294.000
53.16523 309.000
53.18517 277.000
53.20512 333.000
53.22507 310.000
53.24501 325.000
53.26496 316.000
53.28491 326.000
53.30485 307.000
53.32480 295.000
53.34475 327.000
53.36469 338.000
53.38464 312.000
53.40459 293.000
53.42454 337.000
53.44448 307.000
53.46443 318.000
53.48438 305.000
53.50432 325.000
53.52427 318.000
53.54422 349.000
53.56416 337.000
53.58411 341.000
53.60406 382.000
53.62401 429.000
53.64395 390.000
53.66390 368.000
53.68385 337.000
53.70379 312.000
53.72374 354.000
53.74369 335.000
53.76363 358.000
53.78358 391.000
53.80353 329.000
53.82348 300.000
53.84342 312.000
53.86337 326.000
53.88332 280.000
53.90326 289.000
53.92321 322.000
53.94316 311.000
53.96310 281.000
53.98305 305.000
54.00300 313.000
54.02294 295.000
54.04289 248.000
54.06284 313.000
54.08279 304.000
54.10273 297.000
54.12268 317.000
54.14263 274.000
54.16257 293.000
54.18252 282.000
54.20247 277.000
54.22241 271.000
54.24236 267.000
54.26231 300.000
54.28226 254.000
54.30220 286.000
54.32215 271.000
54.34210 278.000
54.36204 269.000
54.38199 270.000
54.40194 288.000
54.42188 295.000
54.44183 327.000
54.46178 286.000
54.48172 288.000
54.50167 266.000
54.52162 267.000
54.54157 269.000
54.56151 280.000
54.58146 254.000
54.60141 269.000
54.62135 279.000
54.64130 281.000
54.66125 273.000
54.68119 290.000
54.70114 291.000
54.72109 287.000
54.74104 291.000
54.76098 292.000
54.78093 273.000
54.80088 283.000
54.82082 263.000
54.84077 255.000
54.86072 245.000
54.88066 257.000
54.90061 278.000
54.92056 259.000
54.94050 280.000
54.96045 258.000
54.98040 278.000
55.00035 235.000
55.02029 278.000
55.04024 262.000
55.06019 251.000
55.08013 299.000
55.10008 289.000
55.12003 271.000
55.13997 285.000
55.15992 295.000
55.17987 269.000
55.19982 291.000
55.21976 245.000
55.23971 263.000
55.25966 273.000
55.27960 276.000
55.29955 261.000
55.31950 289.000
55.33944 258.000
55.35939 268.000
55.37934 281.000
55.39929 287.000
55.41923 283.000
55.43918 254.000
55.45913 253.000
55.47907 289.000
55.49902 254.000
55.51897 280.000
55.53891 278.000
55.55886 287.000
55.57881 270.000
55.59875 321.000
55.61870 283.000
55.63865 292.000
55.65860 278.000
55.67854 265.000
55.69849 262.000
55.71844 269.000
55.73838 306.000
55.75833 265.000
55.77828 281.000
55.79822 269.000
55.81817 315.000
55.83812 284.000
55.85807 277.000
55.87801 268.000
55.89796 279.000
55.91791 256.000
55.93785 267.000
55.95780 267.000
55.97775 317.000
55.99769 269.000
56.01764 242.000
56.03759 299.000
56.05753 300.000
56.07748 287.000
56.09743 265.000
56.11738 282.000
56.13732 274.000
56.15727 315.000
56.17722 280.000
56.19716 307.000
56.21711 267.000
56.23706 270.000
56.25700 258.000
56.27695 324.000
56.29690 272.000
56.31685 249.000
56.33679 298.000
56.35674 301.000
56.37669 286.000
56.39663 286.000
56.41658 271.000
56.43653 253.000
56.45647 253.000
56.47642 314.000
56.49637 294.000
56.51631 297.000
56.53626 312.000
56.55621 301.000
56.57616 286.000
56.59610 305.000
56.61605 275.000
56.63600 270.000
56.65594 256.000
56.67589 263.000
56.69584 303.000
56.71578 306.000
56.73573 309.000
56.75568 287.000
56.77563 302.000
56.79557 296.000
56.81552 275.000
56.83547 300.000
56.85541 280.000
56.87536 303.000
56.89531 307.000
56.91525 325.000
56.93520 304.000
56.95515 312.000
56.97510 286.000
56.99504 313.000
57.01499 314.000
57.03494 315.000
57.05488 336.000
57.07483 370.000
57.09478 368.000
57.11472 465.000
57.13467 520.000
57.15462 557.000
57.17456 615.000
57.19451 572.000
57.21446 543.000
57.23441 442.000
57.25435 454.000
57.27430 441.000
57.29425 464.000
57.31419 437.000
57.33414 413.000
57.35409 441.000
57.37403 353.000
57.39398 364.000
57.41393 348.000
57.43388 306.000
57.45382 341.000
57.47377 318.000
57.49372 298.000
57.51366 316.000
57.53361 299.000
57.55356 307.000
57.57350 286.000
57.59345 280.000
57.61340 323.000
57.63334 302.000
57.65329 288.000
57.67324 301.000
57.69319 319.000
57.71313 290.000
57.73308 301.000
57.75303 299.000
57.77297 307.000
57.79292 295.000
57.81287 288.000
57.83281 312.000
57.85276 302.000
57.87271 327.000
57.89266 277.000
57.91260 301.000
57.93255 317.000
57.95250 353.000
57.97244 331.000
57.99239 317.000
58.01234 311.000
58.03228 352.000
58.05223 364.000
58.07218 363.000
58.09212 391.000
58.11207 386.000
58.13202 426.000
58.15197 376.000
58.17191 361.000
58.19186 368.000
58.21181 352.000
58.23175 364.000
58.25170 350.000
58.27165 338.000
58.29159 349.000
58.31154 323.000
58.33149 325.000
58.35144 317.000
58.37138 304.000
58.39133 313.000
58.41128 312.000
58.43122 311.000
58.45117 333.000
58.47112 295.000
58.49106 280.000
58.51101 309.000
58.53096 292.000
58.55090 279.000
58.57085 305.000
58.59080 317.000
58.61075 277.000
58.63069 285.000
58.65064 306.000
58.67059 325.000
58.69053 307.000
58.71048 291.000
58.73043 273.000
58.75037 271.000
58.77032 290.000
58.79027 307.000
58.81022 273.000
58.83016 280.000
58.85011 282.000
58.87006 285.000
58.89000 260.000
58.90995 296.000
58.92990 260.000
58.94984 271.000
58.96979 298.000
58.98974 312.000
59.00969 273.000
59.02963 304.000
59.04958 282.000
59.06953 280.000
59.08947 329.000
59.10942 285.000
59.12937 293.000
59.14931 294.000
59.16926 308.000
59.18921 304.000
59.20915 299.000
59.22910 308.000
59.24905 289.000
59.26900 270.000
59.28894 308.000
59.30889 294.000
59.32884 305.000
59.34878 317.000
59.36873 335.000
59.38868 298.000
59.40862 316.000
59.42857 316.000
59.44852 272.000
59.46847 284.000
59.48841 288.000
59.50836 268.000
59.52831 309.000
59.54825 276.000
59.56820 298.000
59.58815 305.000
59.60809 324.000
59.62804 294.000
59.64799 314.000
59.66793 305.000
59.68788 340.000
59.70783 294.000
59.72778 316.000
59.74772 338.000
59.76767 306.000
59.78762 287.000
59.80756 310.000
59.82751 321.000
59.84746 315.000
59.86740 300.000
59.88735 306.000
59.90730 347.000
59.92725 327.000
59.94719 321.000
59.96714 331.000
59.98709 294.000
60.00703 312.000
60.02698 296.000
60.04693 281.000
60.06687 299.000
60.08682 305.000
60.10677 291.000
60.12671 298.000
60.14666 310.000
60.16661 308.000
60.18656 307.000
60.20650 326.000
60.22645 311.000
60.24640 325.000
60.26634 292.000
60.28629 308.000
60.30624 309.000
60.32618 315.000
60.34613 302.000
60.36608 308.000
60.38603 319.000
60.40597 337.000
60.42592 280.000
60.44587 334.000
60.46581 313.000
60.48576 315.000
60.50571 305.000
60.52565 329.000
60.54560 354.000
60.56555 355.000
60.58550 343.000
60.60544 329.000
60.62539 342.000
60.64534 326.000
60.66528 329.000
60.68523 340.000
60.70518 312.000
60.72512 338.000
60.74507 319.000
60.76502 358.000
60.78496 343.000
60.80491 355.000
60.82486 390.000
60.84481 370.000
60.86475 386.000
60.88470 382.000
60.90465 393.000
60.92459 388.000
60.94454 391.000
60.96449 401.000
60.98443 400.000
61.00438 438.000
61.02433 441.000
61.04428 441.000
61.06422 435.000
61.08417 446.000
61.10412 417.000
61.12406 454.000
61.14401 455.000
61.16396 501.000
61.18390 477.000
61.20385 487.000
61.22380 504.000
61.24374 508.000
61.26369 468.000
61.28364 508.000
61.30359 551.000
61.32353 518.000
61.34348 577.000
61.36343 629.000
61.38337 563.000
61.40332 568.000
61.42327 585.000
61.44321 540.000
61.46316 535.000
61.48311 533.000
61.50306 558.000
61.52300 492.000
61.54295 517.000
61.56290 529.000
61.58284 507.000
61.60279 485.000
61.62274 538.000
61.64268 473.000
61.66263 491.000
61.68258 434.000
61.70252 446.000
61.72247 415.000
61.74242 447.000
61.76237 432.000
61.78231 426.000
61.80226 447.000
61.82221 431.000
61.84215 389.000
61.86210 449.000
61.88205 411.000
61.90199 434.000
61.92194 425.000
61.94189 425.000
61.96184 415.000
61.98178 386.000
62.00173 392.000
62.02168 384.000
62.04162 423.000
62.06157 389.000
62.08152 450.000
62.10146 441.000
62.12141 390.000
62.14136 470.000
62.16131 456.000
62.18125 452.000
62.20120 431.000
62.22115 439.000
62.24109 436.000
62.26104 447.000
62.28099 466.000
62.30093 472.000
62.32088 468.000
62.34083 471.000
62.36077 468.000
62.38072 462.000
62.40067 469.000
62.42062 439.000
62.44056 501.000
62.46051 446.000
62.48046 489.000
62.50040 462.000
62.52035 472.000
62.54030 464.000
62.56024 436.000
62.58019 498.000
62.60014 503.000
62.62009 479.000
62.64003 475.000
62.65998 471.000
62.67993 503.000
62.69987 490.000
62.71982 532.000
62.73977 506.000
62.75971 630.000
62.77966 707.000
62.79961 725.000
62.81955 664.000
62.83950 633.000
62.85945 583.000
62.87940 550.000
62.89934 475.000
62.91929 488.000
62.93924 560.000
62.95918 500.000
62.97913 500.000
62.99908 523.000
63.01902 496.000
63.03897 462.000
63.05892 381.000
63.07887 393.000
63.09881 368.000
63.11876 352.000
63.13871 326.000
63.15865 307.000
63.17860 315.000
63.19855 303.000
63.21849 281.000
63.23844 317.000
63.25839 273.000
63.27833 290.000
63.29828 289.000
63.31823 308.000
63.33818 299.000
63.35812 275.000
63.37807 289.000
63.39802 287.000
63.41796 321.000
63.43791 303.000
63.45786 321.000
63.47780 280.000
63.49775 295.000
63.51770 259.000
63.53765 284.000
63.55759 292.000
63.57754 304.000
63.59749 249.000
63.61743 282.000
63.63738 328.000
63.65733 289.000
63.67727 272.000
63.69722 254.000
63.71717 320.000
63.73712 285.000
63.75706 279.000
63.77701 296.000
63.79696 266.000
63.81690 293.000
63.83685 262.000
63.85680 316.000
63.87674 292.000
63.89669 288.000
63.91664 310.000
63.93658 296.000
63.95653 291.000
63.97648 241.000
63.99643 253.000
64.01637 261.000
64.03632 290.000
64.05627 283.000
64.07621 279.000
64.09616 273.000
64.11611 266.000
64.13605 302.000
64.15600 288.000
64.17595 279.000
64.19590 280.000
64.21584 262.000
64.23579 283.000
64.25574 316.000
64.27568 283.000
64.29563 296.000
64.31558 305.000
64.33552 299.000
64.35547 290.000
64.37542 296.000
64.39536 259.000
64.41531 245.000
64.43526 272.000
64.45521 271.000
64.47515 250.000
64.49510 273.000
64.51505 284.000
64.53499 283.000
64.55494 271.000
64.57489 286.000
64.59483 314.000
64.61478 276.000
64.63473 267.000
64.65468 256.000
64.67462 284.000
64.69457 281.000
64.71452 248.000
64.73446 276.000
64.75441 284.000
64.77436 308.000
64.79430 293.000
64.81425 292.000
64.83420 257.000
64.85414 304.000
64.87409 292.000
64.89404 295.000
64.91399 304.000
64.93393 289.000
64.95388 308.000
64.97383 295.000
64.99377 318.000
65.01372 282.000
65.03367 298.000
65.05361 278.000
65.07356 306.000
65.09351 290.000
65.11346 294.000
65.13340 311.000
65.15335 332.000
65.17330 289.000
65.19324 311.000
65.21319 290.000
65.23314 314.000
65.25308 334.000
65.27303 323.000
65.29298 321.000
65.31293 334.000
65.33287 336.000
65.35282 340.000
65.37277 371.000
65.39271 338.000
65.41266 324.000
65.43261 351.000
65.45255 376.000
65.47250 345.000
65.49245 331.000
65.51239 353.000
65.53234 381.000
65.55229 369.000
65.57224 354.000
65.59218 370.000
65.61213 357.000
65.63208 388.000
65.65202 364.000
65.67197 339.000
65.69192 396.000
65.71186 345.000
65.73181 373.000
65.75176 352.000
65.77171 320.000
65.79165 319.000
65.81160 344.000
65.83155 330.000
65.85149 320.000
65.87144 329.000
65.89139 313.000
65.91133 325.000
65.93128 360.000
65.95123 329.000
65.97117 336.000
65.99112 363.000
66.01107 303.000
66.03102 381.000
66.05096 306.000
66.07091 333.000
66.09086 352.000
66.11080 324.000
66.13075 362.000
66.15070 374.000
66.17064 361.000
66.19059 380.000
66.21054 383.000
66.23049 367.000
66.25043 349.000
66.27038 313.000
66.29033 320.000
66.31027 334.000
66.33022 357.000
66.35017 323.000
66.37011 321.000
66.39006 341.000
66.41001 323.000
66.42995 299.000
66.44990 341.000
66.46985 289.000
66.48980 323.000
66.50974 295.000
66.52969 295.000
66.54964 298.000
66.56958 320.000
66.58953 272.000
66.60948 277.000
66.62942 284.000
66.64937 305.000
66.66932 288.000
66.68927 269.000
66.70921 257.000
66.72916 284.000
66.74911 268.000
66.76905 256.000
66.78900 314.000
66.80895 305.000
66.82889 280.000
66.84884 282.000
66.86879 262.000
66.88874 312.000
66.90868 291.000
66.92863 304.000
66.94858 268.000
66.96852 276.000
66.98847 258.000
67.00842 268.000
67.02836 269.000
67.04831 268.000
67.06826 271.000
67.08820 268.000
67.10815 268.000
67.12810 309.000
67.14805 299.000
67.16799 260.000
67.18794 249.000
67.20789 306.000
67.22783 295.000
67.24778 272.000
67.26773 268.000
67.28767 280.000
67.30762 298.000
67.32757 302.000
67.34752 294.000
67.36746 288.000
67.38741 269.000
67.40736 289.000
67.42730 270.000
67.44725 271.000
67.46720 268.000
67.48714 297.000
67.50709 281.000
67.52704 325.000
67.54698 327.000
67.56693 339.000
67.58688 314.000
67.60683 323.000
67.62677 306.000
67.64672 296.000
67.66667 327.000
67.68661 308.000
67.70656 325.000
67.72651 322.000
67.74645 306.000
67.76640 339.000
67.78635 358.000
67.80630 367.000
67.82624 374.000
67.84619 336.000
67.86614 367.000
67.88608 332.000
67.90603 368.000
67.92598 319.000
67.94592 337.000
67.96587 348.000
67.98582 336.000
68.00576 303.000
68.02571 337.000
68.04566 373.000
68.06561 313.000
68.08555 301.000
68.10550 340.000
68.12545 307.000
68.14539 287.000
68.16534 325.000
68.18529 304.000
68.20523 328.000
68.22518 304.000
68.24513 315.000
68.26508 306.000
68.28502 293.000
68.30497 326.000
68.32492 285.000
68.34486 280.000
68.36481 285.000
68.38476 279.000
68.40470 282.000
68.42465 282.000
68.44460 301.000
68.46455 274.000
68.48449 288.000
68.50444 277.000
68.52439 266.000
68.54433 275.000
68.56428 259.000
68.58423 269.000
68.60417 288.000
68.62412 275.000
68.64407 247.000
68.66401 286.000
68.68396 285.000
68.70391 275.000
68.72386 321.000
68.74380 280.000
68.76375 249.000
68.78370 266.000
68.80364 271.000
68.82359 290.000
68.84354 285.000
68.86348 271.000
68.88343 254.000
68.90338 257.000
68.92333 290.000
68.94327 286.000
68.96322 259.000
68.98317 290.000
69.00311 255.000
69.02306 309.000
69.04301 223.000
69.06295 282.000
69.08290 302.000
69.10285 257.000
69.12279 267.000
69.14274 252.000
69.16269 264.000
69.18264 244.000
69.20258 259.000
69.22253 257.000
69.24248 255.000
69.26242 258.000
69.28237 316.000
69.30232 255.000
69.32226 276.000
69.34221 276.000
69.36216 262.000
69.38211 252.000
69.40205 286.000
69.42200 249.000
69.44195 264.000
69.46189 258.000
69.48184 248.000
69.50179 262.000
69.52173 285.000
69.54168 227.000
69.56163 273.000
69.58157 242.000
69.60152 280.000
69.62147 252.000
69.64142 269.000
69.66136 253.000
69.68131 263.000
69.70126 253.000
69.72120 248.000
69.74115 272.000
69.76110 296.000
69.78104 250.000
69.80099 280.000
69.82094 287.000
69.84089 245.000
69.86083 267.000
69.88078 279.000
69.90073 259.000
69.92067 274.000
69.94062 264.000
69.96057 261.000
69.98051 265.000
70.00046 219.000
70.02041 245.000
70.04035 265.000
70.06030 259.000
70.08025 272.000
70.10020 243.000
70.12014 289.000
70.14009 260.000
70.16004 247.000
70.17998 243.000
70.19993 241.000
70.21988 290.000
70.23982 244.000
70.25977 255.000
70.27972 283.000
70.29967 267.000
70.31961 268.000
70.33956 239.000
70.35951 265.000
70.37945 255.000
70.39940 284.000
70.41935 248.000
70.43929 236.000
70.45924 264.000
70.47919 290.000
70.49914 271.000
70.51908 274.000
70.53903 271.000
70.55898 268.000
70.57892 263.000
70.59887 273.000
70.61882 255.000
70.63876 268.000
70.65871 278.000
70.67866 273.000
70.69860 253.000
70.71855 229.000
70.73850 237.000
70.75845 254.000
70.77839 306.000
70.79834 276.000
70.81829 274.000
70.83823 271.000
70.85818 279.000
70.87813 268.000
70.89807 284.000
70.91802 285.000
70.93797 281.000
70.95792 290.000
70.97786 277.000
70.99781 281.000
71.01776 279.000
71.03770 290.000
71.05765 316.000
71.07760 266.000
71.09754 292.000
71.11749 270.000
71.13744 253.000
71.15738 281.000
71.17733 294.000
71.19728 299.000
71.21723 284.000
71.23717 311.000
71.25712 307.000
71.27707 289.000
71.29701 283.000
71.31696 307.000
71.33691 311.000
71.35685 319.000
71.37680 281.000
71.39675 278.000
71.41670 300.000
71.43664 276.000
71.45659 266.000
71.47654 301.000
71.49648 326.000
71.51643 314.000
71.53638 301.000
71.55632 311.000
71.57627 293.000
71.59622 290.000
71.61616 306.000
71.63611 287.000
71.65606 284.000
71.67601 285.000
71.69595 277.000
71.71590 270.000
71.73585 297.000
71.75579 260.000
71.77574 275.000
71.79569 249.000
71.81563 289.000
71.83558 278.000
71.85553 290.000
71.87548 314.000
71.89542 283.000
71.91537 302.000
71.93532 281.000
71.95526 289.000
71.97521 281.000
71.99516 295.000
72.01510 289.000
72.03505 325.000
72.05500 324.000
72.07495 304.000
72.09489 302.000
72.11484 290.000
72.13479 297.000
72.15473 306.000
72.17468 305.000
72.19463 296.000
72.21457 316.000
72.23452 288.000
72.25447 322.000
72.27441 307.000
72.29436 321.000
72.31431 349.000
72.33426 287.000
72.35420 336.000
72.37415 284.000
72.39410 310.000
72.41404 326.000
72.43399 299.000
72.45394 302.000
72.47388 309.000
72.49383 305.000
72.51378 307.000
72.53373 314.000
72.55367 289.000
72.57362 282.000
72.59357 323.000
72.61351 284.000
72.63346 290.000
72.65341 280.000
72.67335 287.000
72.69330 270.000
72.71325 301.000
72.73319 277.000
72.75314 280.000
72.77309 276.000
72.79304 275.000
72.81298 294.000
72.83293 293.000
72.85288 248.000
72.87282 277.000
72.89277 317.000
72.91272 291.000
72.93266 263.000
72.95261 296.000
72.97256 298.000
72.99251 280.000
73.01245 267.000
73.03240 249.000
73.05235 257.000
73.07229 284.000
73.09224 289.000
73.11219 307.000
73.13213 297.000
73.15208 288.000
73.17203 254.000
73.19197 276.000
73.21192 262.000
73.23187 277.000
73.25182 269.000
73.27176 280.000
73.29171 283.000
73.31166 266.000
73.33160 273.000
73.35155 262.000
73.37150 269.000
73.39144 263.000
73.41139 250.000
73.43134 296.000
73.45129 293.000
73.47123 298.000
73.49118 294.000
73.51113 293.000
73.53107 282.000
73.55102 253.000
73.57097 245.000
73.59091 285.000
73.61086 264.000
73.63081 271.000
73.65076 305.000
73.67070 276.000
73.69065 308.000
73.71060 327.000
73.73054 265.000
73.75049 268.000
73.77044 283.000
73.79038 290.000
73.81033 266.000
73.83028 263.000
73.85022 274.000
73.87017 269.000
73.89012 300.000
73.91007 248.000
73.93001 313.000
73.94996 281.000
73.96991 267.000
73.98985 282.000
74.00980 257.000
74.02975 290.000
74.04969 266.000
74.06964 298.000
74.08959 278.000
74.10954 329.000
74.12948 307.000
74.14943 282.000
74.16938 301.000
74.18932 285.000
74.20927 291.000
74.22922 326.000
74.24916 305.000
74.26911 327.000
74.28906 328.000
74.30900 347.000
74.32895 325.000
74.34890 332.000
74.36885 345.000
74.38879 346.000
74.40874 328.000
74.42869 320.000
74.44863 330.000
74.46858 329.000
74.48853 344.000
74.50847 330.000
74.52842 338.000
74.54837 363.000
74.56832 334.000
74.58826 332.000
74.60821 364.000
74.62816 322.000
74.64810 336.000
74.66805 331.000
74.68800 322.000
74.70794 325.000
74.72789 344.000
74.74784 369.000
74.76778 359.000
74.78773 320.000
74.80768 353.000
74.82763 377.000
74.84757 331.000
74.86752 405.000
74.88747 352.000
74.90741 365.000
74.92736 355.000
74.94731 361.000
74.96725 333.000
74.98720 328.000
75.00715 359.000
75.02710 362.000
75.04704 389.000
75.06699 358.000
75.08694 358.000
75.10688 338.000
75.12683 337.000
75.14678 340.000
75.16672 354.000
75.18667 327.000
75.20662 362.000
75.22657 297.000
75.24651 344.000
75.26646 316.000
75.28641 295.000
75.30635 355.000
75.32630 353.000
75.34625 334.000
75.36619 323.000
75.38614 328.000
75.40609 352.000
75.42603 328.000
75.44598 311.000
75.46593 320.000
75.48588 274.000
75.50582 286.000
75.52577 309.000
75.54572 324.000
75.56566 305.000
75.58561 313.000
75.60556 312.000
75.62550 315.000
75.64545 288.000
75.66540 330.000
75.68535 272.000
75.70529 306.000
75.72524 263.000
75.74519 261.000
75.76513 306.000
75.78508 273.000
75.80503 251.000
75.82497 284.000
75.84492 257.000
75.86487 259.000
75.88481 302.000
75.90476 290.000
75.92471 290.000
75.94466 279.000
75.96460 309.000
75.98455 272.000
76.00450 260.000
76.02444 296.000
76.04439 284.000
76.06434 251.000
76.08428 276.000
76.10423 259.000
76.12418 267.000
76.14413 252.000
76.16407 277.000
76.18402 249.000
76.20397 277.000
76.22391 266.000
76.24386 280.000
76.26381 298.000
76.28375 288.000
76.30370 287.000
76.32365 297.000
76.34359 292.000
76.36354 254.000
76.38349 275.000
76.40344 260.000
76.42338 270.000
76.44333 239.000
76.46328 266.000
76.48322 257.000
76.50317 254.000
76.52312 265.000
76.54306 311.000
76.56301 284.000
76.58296 268.000
76.60291 256.000
76.62285 264.000
76.64280 255.000
76.66275 244.000
76.68269 263.000
76.70264 279.000
76.72259 305.000
76.74253 276.000
76.76248 261.000
76.78243 288.000
76.80238 288.000
76.82232 299.000
76.84227 257.000
76.86222 284.000
76.88216 266.000
76.90211 247.000
76.92206 252.000
76.94200 290.000
76.96195 274.000
76.98190 279.000
77.00184 260.000
77.02179 261.000
77.04174 261.000
77.06169 285.000
77.08163 274.000
77.10158 269.000
77.12153 297.000
77.14147 245.000
77.16142 246.000
77.18137 261.000
77.20131 262.000
77.22126 262.000
77.24121 264.000
77.26116 256.000
77.28110 248.000
77.30105 279.000
77.32100 248.000
77.34094 253.000
77.36089 256.000
77.38084 262.000
77.40078 263.000
77.42073 298.000
77.44068 260.000
77.46062 264.000
77.48057 265.000
77.50052 266.000
77.52047 288.000
77.54041 289.000
77.56036 272.000
77.58031 254.000
77.60025 291.000
77.62020 278.000
77.64015 280.000
77.66009 268.000
77.68004 270.000
77.69999 246.000
77.71994 286.000
77.73988 288.000
77.75983 259.000
77.77978 269.000
77.79972 239.000
77.81967 285.000
77.83962 279.000
77.85956 268.000
77.87951 304.000
77.89946 278.000
77.91940 258.000
77.93935 287.000
77.95930 295.000
77.97925 280.000
77.99919 269.000
78.01914 247.000
78.03909 300.000
78.05903 270.000
78.07898 283.000
78.09893 249.000
78.11887 270.000
78.13882 281.000
78.15877 276.000
78.17872 282.000
78.19866 265.000
78.21861 246.000
78.23856 297.000
78.25850 274.000
78.27845 261.000
78.29840 279.000
78.31834 295.000
78.33829 266.000
78.35824 317.000
78.37819 272.000
78.39813 293.000
78.41808 276.000
78.43803 289.000
78.45797 296.000
78.47792 299.000
78.49787 295.000
78.51781 269.000
78.53776 294.000
78.55771 266.000
78.57765 291.000
78.59760 320.000
78.61755 288.000
78.63750 290.000
78.65744 271.000
78.67739 294.000
78.69734 304.000
78.71728 305.000
78.73723 293.000
78.75718 285.000
78.77712 280.000
78.79707 295.000
78.81702 285.000
78.83697 300.000
78.85691 302.000
78.87686 283.000
78.89681 317.000
78.91675 286.000
78.93670 297.000
78.95665 307.000
78.97659 284.000
78.99654 318.000
79.01649 269.000
79.03643 273.000
79.05638 277.000
79.07633 285.000
79.09628 296.000
79.11622 288.000
79.13617 286.000
79.15612 290.000
79.17606 283.000
79.19601 285.000
79.21596 303.000
79.23590 301.000
79.25585 301.000
79.27580 263.000
79.29575 265.000
79.31569 258.000
79.33564 284.000
79.35559 282.000
79.37553 278.000
79.39548 286.000
79.41543 242.000
79.43537 278.000
79.45532 297.000
79.47527 293.000
79.49521 261.000
79.51516 260.000
79.53511 277.000
79.55506 298.000
79.57500 275.000
79.59495 257.000
79.61490 263.000
79.63484 274.000
79.65479 295.000
79.67474 250.000
79.69468 281.000
79.71463 259.000
79.73458 273.000
79.75453 253.000
79.77447 302.000
79.79442 266.000
79.81437 290.000
79.83431 270.000
79.85426 251.000
79.87421 274.000
79.89415 269.000
79.91410 250.000
79.93405 267.000
79.95399 293.000
79.97394 245.000
79.99389 285.000
80.01384 291.000
80.03378 280.000
80.05373 265.000
80.07368 272.000
80.09362 270.000
80.11357 270.000
80.13352 286.000
80.15346 259.000
80.17341 252.000
80.19336 266.000
80.21331 244.000
80.23325 270.000
80.25320 288.000
80.27315 281.000
80.29309 273.000
80.31304 285.000
80.33299 256.000
80.35293 271.000
80.37288 254.000
80.39283 231.000
80.41278 242.000
80.43272 243.000
80.45267 310.000
80.47262 293.000
80.49256 305.000
80.51251 240.000
80.53246 273.000
80.55240 267.000
80.57235 278.000
80.59230 272.000
80.61224 267.000
80.63219 261.000
80.65214 263.000
80.67209 254.000
80.69203 260.000
80.71198 278.000
80.73193 270.000
80.75187 256.000
80.77182 254.000
80.79177 251.000
80.81171 247.000
80.83166 268.000
80.85161 238.000
80.87156 241.000
80.89150 259.000
80.91145 229.000
80.93140 260.000
80.95134 250.000
80.97129 271.000
80.99124 273.000
81.01118 273.000
81.03113 255.000
81.05108 254.000
81.07102 256.000
81.09097 259.000
81.11092 257.000
81.13087 262.000
81.15081 275.000
81.17076 254.000
81.19071 269.000
81.21065 293.000
81.23060 290.000
81.25055 255.000
81.27049 252.000
81.29044 254.000
81.31039 269.000
81.33034 288.000
81.35028 245.000
81.37023 290.000
81.39018 271.000
81.41012 232.000
81.43007 252.000
81.45002 277.000
81.46996 241.000
81.48991 294.000
81.50986 252.000
81.52980 285.000
81.54975 247.000
81.56970 296.000
81.58965 286.000
81.60959 234.000
81.62954 265.000
81.64949 265.000
81.66943 255.000
81.68938 261.000
81.70933 266.000
81.72927 296.000
81.74922 287.000
81.76917 241.000
81.78912 245.000
81.80906 264.000
81.82901 291.000
81.84896 308.000
81.86890 274.000
81.88885 310.000
81.90880 251.000
81.92874 304.000
81.94869 274.000
81.96864 283.000
81.98859 296.000
82.00853 260.000
82.02848 264.000
82.04843 279.000
82.06837 266.000
82.08832 273.000
82.10827 304.000
82.12821 288.000
82.14816 289.000
82.16811 292.000
82.18805 280.000
82.20800 271.000
82.22795 321.000
82.24790 281.000
82.26784 283.000
82.28779 288.000
82.30774 301.000
82.32768 306.000
82.34763 276.000
82.36758 310.000
82.38752 302.000
82.40747 311.000
82.42742 309.000
82.44737 276.000
82.46731 296.000
82.48726 294.000
82.50721 316.000
82.52715 323.000
82.54710 297.000
82.56705 300.000
82.58699 289.000
82.60694 297.000
82.62689 288.000
82.64683 298.000
82.66678 292.000
82.68673 326.000
82.70668 292.000
82.72662 328.000
82.74657 274.000
82.76652 321.000
82.78646 323.000
82.80641 306.000
82.82636 272.000
82.84630 269.000
82.86625 276.000
82.88620 287.000
82.90615 247.000
82.92609 270.000
82.94604 271.000
82.96599 281.000
82.98593 278.000
83.00588 267.000
83.02583 275.000
83.04577 288.000
83.06572 297.000
83.08567 268.000
83.10561 282.000
83.12556 267.000
83.14551 282.000
83.16546 298.000
83.18540 280.000
83.20535 254.000
83.22530 289.000
83.24524 272.000
83.26519 266.000
83.28514 266.000
83.30508 263.000
83.32503 268.000
83.34498 237.000
83.36493 271.000
83.38487 272.000
83.40482 277.000
83.42477 305.000
83.44471 316.000
83.46466 284.000
83.48461 279.000
83.50455 265.000
83.52450 276.000
83.54445 267.000
83.56440 284.000
83.58434 276.000
83.60429 260.000
83.62424 277.000
83.64418 274.000
83.66413 294.000
83.68408 263.000
83.70402 284.000
83.72397 260.000
83.74392 252.000
83.76386 272.000
83.78381 276.000
83.80376 272.000
83.82371 264.000
83.84365 246.000
83.86360 268.000
83.88355 269.000
83.90349 266.000
83.92344 275.000
83.94339 285.000
83.96333 249.000
83.98328 282.000
84.00323 280.000
84.02318 283.000
84.04312 212.000
84.06307 258.000
84.08302 258.000
84.10296 268.000
84.12291 253.000
84.14286 281.000
84.16280 274.000
84.18275 278.000
84.20270 255.000
84.22264 244.000
84.24259 248.000
84.26254 246.000
84.28249 239.000
84.30243 242.000
84.32238 273.000
84.34233 232.000
84.36227 229.000
84.38222 270.000
84.40217 242.000
84.42211 240.000
84.44206 267.000
84.46201 264.000
84.48196 252.000
84.50190 269.000
84.52185 271.000
84.54180 260.000
84.56174 277.000
84.58169 230.000
84.60164 258.000
84.62158 262.000
84.64153 239.000
84.66148 251.000
84.68142 263.000
84.70137 249.000
84.72132 281.000
84.74127 259.000
84.76121 263.000
84.78116 264.000
84.80111 216.000
84.82105 244.000
84.84100 276.000
84.86095 242.000
84.88089 253.000
84.90084 290.000
84.92079 227.000
84.94074 244.000
84.96068 237.000
84.98063 249.000
85.00058 232.000
85.02052 283.000
85.04047 223.000
85.06042 236.000
85.08036 255.000
85.10031 243.000
85.12026 273.000
85.14021 263.000
85.16015 255.000
85.18010 262.000
85.20005 276.000
85.21999 276.000
85.23994 260.000
85.25989 251.000
85.27983 241.000
85.29978 253.000
85.31973 234.000
85.33967 239.000
85.35962 258.000
85.37957 235.000
85.39952 265.000
85.41946 239.000
85.43941 235.000
85.45936 249.000
85.47930 235.000
85.49925 259.000
85.51920 257.000
85.53914 249.000
85.55909 245.000
85.57904 249.000
85.59899 262.000
85.61893 260.000
85.63888 251.000
85.65883 248.000
85.67877 228.000
85.69872 253.000
85.71867 262.000
85.73861 282.000
85.75856 261.000
85.77851 268.000
85.79845 253.000
85.81840 239.000
85.83835 254.000
85.85830 275.000
85.87824 275.000
85.89819 279.000
85.91814 261.000
85.93808 234.000
85.95803 267.000
85.97798 264.000
85.99792 237.000
86.01787 278.000
86.03782 275.000
86.05777 277.000
86.07771 267.000
86.09766 233.000
86.11761 270.000
86.13755 276.000
86.15750 250.000
86.17745 243.000
86.19739 252.000
86.21734 238.000
86.23729 293.000
86.25723 251.000
86.27718 278.000
86.29713 258.000
86.31708 259.000
86.33702 268.000
86.35697 271.000
86.37692 247.000
86.39686 263.000
86.41681 288.000
86.43676 267.000
86.45670 249.000
86.47665 271.000
86.49660 288.000
86.51655 248.000
86.53649 212.000
86.55644 261.000
86.57639 255.000
86.59633 272.000
86.61628 324.000
86.63623 295.000
86.65617 255.000
86.67612 260.000
86.69607 249.000
86.71602 264.000
86.73596 263.000
86.75591 258.000
86.77586 258.000
86.79580 266.000
86.81575 254.000
86.83570 242.000
86.85564 230.000
86.87559 240.000
86.89554 266.000
86.91548 254.000
86.93543 265.000
86.95538 274.000
86.97533 264.000
86.99527 267.000
87.01522 264.000
87.03517 305.000
87.05511 306.000
87.07506 259.000
87.09501 288.000
87.11495 268.000
87.13490 306.000
87.15485 257.000
87.17480 256.000
87.19474 287.000
87.21469 277.000
87.23464 280.000
87.25458 274.000
87.27453 279.000
87.29448 256.000
87.31442 265.000
87.33437 262.000
87.35432 259.000
87.37426 268.000
87.39421 273.000
87.41416 275.000
87.43411 264.000
87.45405 282.000
87.47400 269.000
87.49395 262.000
87.51389 265.000
87.53384 280.000
87.55379 291.000
87.57373 270.000
87.59368 266.000
87.61363 261.000
87.63358 265.000
87.65352 252.000
87.67347 283.000
87.69342 250.000
87.71336 290.000
87.73331 254.000
87.75326 229.000
87.77320 239.000
87.79315 269.000
87.81310 263.000
87.83304 267.000
87.85299 291.000
87.87294 257.000
87.89289 239.000
87.91283 265.000
87.93278 255.000
87.95273 271.000
87.97267 258.000
87.99262 262.000
88.01257 262.000
88.03251 246.000
88.05246 275.000
88.07241 292.000
88.09236 240.000
88.11230 269.000
88.13225 267.000
88.15220 251.000
88.17214 253.000
88.19209 275.000
88.21204 250.000
88.23198 245.000
88.25193 265.000
88.27188 295.000
88.29183 292.000
88.31177 240.000
88.33172 271.000
88.35167 260.000
88.37161 232.000
88.39156 265.000
88.41151 254.000
88.43145 269.000
88.45140 255.000
88.47135 245.000
88.49129 229.000
88.51124 259.000
88.53119 246.000
88.55114 248.000
88.57108 236.000
88.59103 264.000
88.61098 232.000
88.63092 251.000
88.65087 254.000
88.67082 269.000
88.69076 237.000
88.71071 271.000
88.73066 263.000
88.75061 260.000
88.77055 253.000
88.79050 281.000
88.81045 254.000
88.83039 248.000
88.85034 295.000
88.87029 224.000
88.89023 247.000
88.91018 249.000
88.93013 270.000
88.95007 268.000
88.97002 253.000
88.98997 262.000
89.00992 245.000
89.02986 242.000
89.04981 267.000
89.06976 255.000
89.08970 281.000
89.10965 276.000
89.12960 247.000
89.14954 278.000
89.16949 281.000
89.18944 301.000
89.20939 298.000
89.22933 278.000
89.24928 282.000
89.26923 251.000
89.28917 238.000
89.30912 261.000
89.32907 279.000
89.34901 267.000
89.36896 263.000
89.38891 266.000
89.40885 296.000
89.42880 283.000
89.44875 266.000
89.46870 262.000
89.48864 281.000
89.50859 257.000
89.52854 271.000
89.54848 257.000
89.56843 282.000
89.58838 257.000
89.60832 262.000
89.62827 276.000
89.64822 296.000
89.66817 279.000
89.68811 242.000
89.70806 269.000
89.72801 258.000
89.74795 273.000
89.76790 245.000
89.78785 276.000
89.80779 267.000
89.82774 275.000
89.84769 256.000
89.86764 263.000
89.88758 283.000
89.90753 284.000
89.92748 302.000
89.94742 289.000
89.96737 288.000
89.98732 302.000
90.00726 283.000
