10.00000 204.000
10.01995 218.000
10.03989 228.000
10.05984 222.000
10.07979 227.000
10.09973 259.000
10.11968 222.000
10.13963 230.000
10.15958 223.000
10.17952 231.000
10.19947 228.000
10.21942 213.000
10.23936 249.000
10.25931 225.000
10.27926 223.000
10.29920 229.000
10.31915 236.000
10.33910 250.000
10.35905 237.000
10.37899 258.000
10.39894 240.000
10.41889 233.000
10.43883 224.000
10.45878 235.000
10.47873 243.000
10.49867 242.000
10.51862 229.000
10.53857 246.000
10.55851 241.000
10.57846 225.000
10.59841 210.000
10.61836 233.000
10.63830 223.000
10.65825 235.000
10.67820 231.000
10.69814 244.000
10.71809 231.000
10.73804 218.000
10.75798 216.000
10.77793 211.000
10.79788 250.000
10.81783 242.000
10.83777 256.000
10.85772 226.000
10.87767 219.000
10.89761 229.000
10.91756 211.000
10.93751 237.000
10.95745 247.000
10.97740 227.000
10.99735 251.000
11.01730 224.000
11.03724 235.000
11.05719 210.000
11.07714 212.000
11.09708 223.000
11.11703 235.000
11.13698 218.000
11.15692 233.000
11.17687 234.000
11.19682 242.000
11.21676 233.000
11.23671 221.000
11.25666 237.000
11.27661 238.000
11.29655 231.000
11.31650 248.000
11.33645 240.000
11.35639 239.000
11.37634 200.000
11.39629 247.000
11.41623 226.000
11.43618 217.000
11.45613 239.000
11.47608 239.000
11.49602 217.000
11.51597 207.000
11.53592 241.000
11.55586 240.000
11.57581 250.000
11.59576 235.000
11.61570 240.000
11.63565 248.000
11.65560 228.000
11.67554 229.000
11.69549 213.000
11.71544 222.000
11.73539 236.000
11.75533 229.000
11.77528 216.000
11.79523 223.000
11.81517 247.000
11.83512 242.000
11.85507 236.000
11.87501 224.000
11.89496 236.000
11.91491 254.000
11.93486 249.000
11.95480 233.000
11.97475 235.000
11.99470 218.000
12.01464 233.000
12.03459 228.000
12.05454 237.000
12.07448 232.000
12.09443 243.000
12.11438 226.000
12.13432 250.000
12.15427 233.000
12.17422 241.000
12.19417 260.000
12.21411 240.000
12.23406 238.000
12.25401 220.000
12.27395 227.000
12.29390 213.000
12.31385 279.000
12.33379 247.000
12.35374 237.000
12.37369 235.000
12.39364 242.000
12.41358 253.000
12.43353 241.000
12.45348 251.000
12.47342 259.000
12.49337 248.000
12.51332 283.000
12.53326 261.000
12.55321 297.000
12.57316 288.000
12.59311 291.000
12.61305 279.000
12.63300 280.000
12.65295 287.000
12.67289 279.000
12.69284 264.000
12.71279 306.000
12.73273 285.000
12.75268 260.000
12.77263 286.000
12.79257 279.000
12.81252 286.000
12.83247 263.000
12.85242 254.000
12.87236 268.000
12.89231 237.000
12.91226 239.000
12.93220 249.000
12.95215 245.000
12.97210 235.000
12.99204 246.000
13.01199 262.000
13.03194 283.000
13.05189 229.000
13.07183 259.000
13.09178 242.000
13.11173 253.000
13.13167 241.000
13.15162 269.000
13.17157 282.000
13.19151 246.000
13.21146 245.000
13.23141 270.000
13.25135 257.000
13.27130 270.000
13.29125 262.000
13.31120 222.000
13.33114 245.000
13.35109 241.000
13.37104 270.000
13.39098 256.000
13.41093 269.000
13.43088 249.000
13.45082 261.000
13.47077 273.000
13.49072 246.000
13.51067 252.000
13.53061 244.000
13.55056 268.000
13.57051 258.000
13.59045 241.000
13.61040 250.000
13.63035 270.000
13.65029 225.000
13.67024 278.000
13.69019 241.000
13.71013 260.000
13.73008 256.000
13.75003 256.000
13.76998 260.000
13.78992 246.000
13.80987 234.000
13.82982 239.000
13.84976 241.000
13.86971 243.000
13.88966 278.000
13.90960 250.000
13.92955 253.000
13.94950 254.000
13.96945 222.000
13.98939 217.000
14.00934 249.000
14.02929 249.000
14.04923 256.000
14.06918 281.000
14.08913 262.000
14.10907 243.000
14.12902 280.000
14.14897 240.000
14.16892 247.000
14.18886 239.000
14.20881 235.000
14.22876 222.000
14.24870 234.000
14.26865 239.000
14.28860 245.000
14.30854 246.000
14.32849 264.000
14.34844 247.000
14.36838 259.000
14.38833 244.000
14.40828 239.000
14.42823 254.000
14.44817 282.000
14.46812 271.000
14.48807 274.000
14.50801 230.000
14.52796 276.000
14.54791 251.000
14.56785 279.000
14.58780 229.000
14.60775 268.000
14.62770 276.000
14.64764 250.000
14.66759 300.000
14.68754 276.000
14.70748 257.000
14.72743 280.000
14.74738 273.000
14.76732 258.000
14.78727 260.000
14.80722 250.000
14.82716 248.000
14.84711 261.000
14.86706 254.000
14.88701 274.000
14.90695 260.000
14.92690 242.000
14.94685 257.000
14.96679 293.000
14.98674 294.000
15.00669 307.000
15.02663 275.000
15.04658 285.000
15.06653 270.000
15.08648 286.000
15.10642 264.000
15.12637 264.000
15.14632 270.000
15.16626 290.000
15.18621 287.000
15.20616 309.000
15.22610 297.000
15.24605 307.000
15.26600 280.000
15.28594 319.000
15.30589 329.000
15.32584 315.000
15.34579 316.000
15.36573 334.000
15.38568 358.000
15.40563 385.000
15.42557 397.000
15.44552 404.000
15.46547 440.000
15.48541 506.000
15.50536 590.000
15.52531 735.000
15.54526 973.000
15.56520 1303.000
15.58515 1912.000
15.60510 2920.000
15.62504 4292.000
15.64499 6135.000
15.66494 7076.000
15.68488 6509.000
15.70483 4665.000
15.72478 2874.000
15.74472 1487.000
15.76467 916.000
15.78462 683.000
15.80457 466.000
15.82451 445.000
15.84446 371.000
15.86441 352.000
15.88435 350.000
15.90430 332.000
15.92425 311.000
15.94419 285.000
15.96414 309.000
15.98409 275.000
16.00404 260.000
16.02398 265.000
16.04393 277.000
16.06388 267.000
16.08382 263.000
16.10377 262.000
16.12372 281.000
16.14366 253.000
16.16361 264.000
16.18356 236.000
16.20351 254.000
16.22345 231.000
16.24340 256.000
16.26335 248.000
16.28329 271.000
16.30324 259.000
16.32319 244.000
16.34313 275.000
16.36308 277.000
16.38303 249.000
16.40297 222.000
16.42292 235.000
16.44287 224.000
16.46282 239.000
16.48276 258.000
16.50271 239.000
16.52266 246.000
16.54260 223.000
16.56255 248.000
16.58250 247.000
16.60244 213.000
16.62239 258.000
16.64234 248.000
16.66229 236.000
16.68223 244.000
16.70218 242.000
16.72213 239.000
16.74207 288.000
16.76202 230.000
16.78197 218.000
16.80191 249.000
16.82186 239.000
16.84181 229.000
16.86175 267.000
16.88170 246.000
16.90165 238.000
16.92160 235.000
16.94154 248.000
16.96149 265.000
16.98144 267.000
17.00138 233.000
17.02133 273.000
17.04128 240.000
17.06122 236.000
17.08117 259.000
17.10112 210.000
17.12107 217.000
17.14101 246.000
17.16096 229.000
17.18091 224.000
17.20085 263.000
17.22080 226.000
17.24075 227.000
17.26069 251.000
17.28064 243.000
17.30059 234.000
17.32053 242.000
17.34048 245.000
17.36043 255.000
17.38038 225.000
17.40032 227.000
17.42027 231.000
17.44022 235.000
17.46016 225.000
17.48011 268.000
17.50006 210.000
17.52000 257.000
17.53995 218.000
17.55990 235.000
17.57985 248.000
17.59979 265.000
17.61974 244.000
17.63969 245.000
17.65963 199.000
17.67958 271.000
17.69953 225.000
17.71947 225.000
17.73942 244.000
17.75937 228.000
17.77932 266.000
17.79926 222.000
17.81921 244.000
17.83916 248.000
17.85910 256.000
17.87905 228.000
17.89900 226.000
17.91894 246.000
17.93889 222.000
17.95884 243.000
17.97878 250.000
17.99873 252.000
18.01868 237.000
18.03863 255.000
18.05857 249.000
18.07852 212.000
18.09847 228.000
18.11841 244.000
18.13836 235.000
18.15831 233.000
18.17825 276.000
18.19820 250.000
18.21815 253.000
18.23810 265.000
18.25804 245.000
18.27799 255.000
18.29794 274.000
18.31788 247.000
18.33783 264.000
18.35778 314.000
18.37772 346.000
18.39767 428.000
18.41762 324.000
18.43756 382.000
18.45751 371.000
18.47746 325.000
18.49741 302.000
18.51735 255.000
18.53730 241.000
18.55725 267.000
18.57719 252.000
18.59714 247.000
18.61709 222.000
18.63703 249.000
18.65698 234.000
18.67693 198.000
18.69688 233.000
18.71682 247.000
18.73677 243.000
18.75672 263.000
18.77666 229.000
18.79661 254.000
18.81656 233.000
18.83650 249.000
18.85645 229.000
18.87640 220.000
18.89634 247.000
18.91629 261.000
18.93624 244.000
18.95619 226.000
18.97613 217.000
18.99608 208.000
19.01603 236.000
19.03597 238.000
19.05592 235.000
19.07587 274.000
19.09581 239.000
19.11576 259.000
19.13571 215.000
19.15566 250.000
19.17560 269.000
19.19555 252.000
19.21550 233.000
19.23544 208.000
19.25539 234.000
19.27534 243.000
19.29528 239.000
19.31523 252.000
19.33518 238.000
19.35513 238.000
19.37507 228.000
19.39502 232.000
19.41497 219.000
19.43491 251.000
19.45486 248.000
19.47481 250.000
19.49475 228.000
19.51470 266.000
19.53465 225.000
19.55459 231.000
19.57454 228.000
19.59449 250.000
19.61444 264.000
19.63438 237.000
19.65433 211.000
19.67428 243.000
19.69422 234.000
19.71417 252.000
19.73412 221.000
19.75406 228.000
19.77401 263.000
19.79396 238.000
19.81391 232.000
19.83385 227.000
19.85380 259.000
19.87375 247.000
19.89369 271.000
19.91364 249.000
19.93359 255.000
19.95353 233.000
19.97348 233.000
19.99343 230.000
20.01337 258.000
20.03332 233.000
20.05327 240.000
20.07322 240.000
20.09316 262.000
20.11311 271.000
20.13306 239.000
20.15300 237.000
20.17295 240.000
20.19290 271.000
20.21284 236.000
20.23279 226.000
20.25274 264.000
20.27269 267.000
20.29263 235.000
20.31258 229.000
20.33253 252.000
20.35247 248.000
20.37242 220.000
20.39237 244.000
20.41231 222.000
20.43226 267.000
20.45221 252.000
20.47215 253.000
20.49210 262.000
20.51205 229.000
20.53200 277.000
20.55194 258.000
20.57189 290.000
20.59184 251.000
20.61178 240.000
20.63173 241.000
20.65168 250.000
20.67162 278.000
20.69157 241.000
20.71152 248.000
20.73147 263.000
20.75141 244.000
20.77136 288.000
20.79131 249.000
20.81125 226.000
20.83120 269.000
20.85115 269.000
20.87109 284.000
20.89104 255.000
20.91099 257.000
20.93094 254.000
20.95088 241.000
20.97083 269.000
20.99078 265.000
21.01072 253.000
21.03067 274.000
21.05062 257.000
21.07056 222.000
21.09051 246.000
21.11046 211.000
21.13040 237.000
21.15035 250.000
21.17030 269.000
21.19025 255.000
21.21019 247.000
21.23014 285.000
21.25009 247.000
21.27003 234.000
21.28998 256.000
21.30993 250.000
21.32987 279.000
21.34982 255.000
21.36977 246.000
21.38972 236.000
21.40966 256.000
21.42961 250.000
21.44956 243.000
21.46950 259.000
21.48945 292.000
21.50940 243.000
21.52934 266.000
21.54929 253.000
21.56924 237.000
21.58918 223.000
21.60913 232.000
21.62908 224.000
21.64903 274.000
21.66897 265.000
21.68892 232.000
21.70887 254.000
21.72881 271.000
21.74876 280.000
21.76871 266.000
21.78865 249.000
21.80860 221.000
21.82855 236.000
21.84850 271.000
21.86844 247.000
21.88839 230.000
21.90834 251.000
21.92828 257.000
21.94823 258.000
21.96818 239.000
21.98812 261.000
22.00807 272.000
22.02802 277.000
22.04796 265.000
22.06791 248.000
22.08786 271.000
22.10781 268.000
22.12775 260.000
22.14770 260.000
22.16765 244.000
22.18759 249.000
22.20754 249.000
22.22749 257.000
22.24743 224.000
22.26738 241.000
22.28733 256.000
22.30728 259.000
22.32722 251.000
22.34717 269.000
22.36712 266.000
22.38706 246.000
22.40701 262.000
22.42696 230.000
22.44690 235.000
22.46685 258.000
22.48680 261.000
22.50675 236.000
22.52669 262.000
22.54664 261.000
22.56659 248.000
22.58653 276.000
22.60648 246.000
22.62643 255.000
22.64637 253.000
22.66632 246.000
22.68627 256.000
22.70621 268.000
22.72616 280.000
22.74611 241.000
22.76606 250.000
22.78600 226.000
22.80595 239.000
22.82590 233.000
22.84584 243.000
22.86579 252.000
22.88574 268.000
22.90568 239.000
22.92563 245.000
22.94558 225.000
22.96553 229.000
22.98547 256.000
23.00542 247.000
23.02537 236.000
23.04531 284.000
23.06526 232.000
23.08521 260.000
23.10515 307.000
23.12510 259.000
23.14505 232.000
23.16499 270.000
23.18494 292.000
23.20489 257.000
23.22484 269.000
23.24478 269.000
23.26473 257.000
23.28468 290.000
23.30462 242.000
23.32457 276.000
23.34452 248.000
23.36446 244.000
23.38441 251.000
23.40436 273.000
23.42431 231.000
23.44425 264.000
23.46420 273.000
23.48415 254.000
23.50409 263.000
23.52404 266.000
23.54399 232.000
23.56393 262.000
23.58388 270.000
23.60383 226.000
23.62377 251.000
23.64372 248.000
23.66367 244.000
23.68362 295.000
23.70356 261.000
23.72351 243.000
23.74346 256.000
23.76340 269.000
23.78335 218.000
23.80330 234.000
23.82324 238.000
23.84319 267.000
23.86314 253.000
23.88309 244.000
23.90303 253.000
23.92298 269.000
23.94293 267.000
23.96287 251.000
23.98282 294.000
24.00277 292.000
24.02271 269.000
24.04266 286.000
24.06261 246.000
24.08256 276.000
24.10250 274.000
24.12245 294.000
24.14240 278.000
24.16234 265.000
24.18229 267.000
24.20224 261.000
24.22218 283.000
24.24213 281.000
24.26208 276.000
24.28202 283.000
24.30197 265.000
24.32192 304.000
24.34187 238.000
24.36181 279.000
24.38176 252.000
24.40171 276.000
24.42165 270.000
24.44160 263.000
24.46155 269.000
24.48149 282.000
24.50144 283.000
24.52139 251.000
24.54134 267.000
24.56128 277.000
24.58123 267.000
24.60118 281.000
24.62112 268.000
24.64107 278.000
24.66102 296.000
24.68096 253.000
24.70091 278.000
24.72086 293.000
24.74080 272.000
24.76075 268.000
24.78070 276.000
24.80065 256.000
24.82059 289.000
24.84054 275.000
24.86049 274.000
24.88043 262.000
24.90038 273.000
24.92033 252.000
24.94027 285.000
24.96022 230.000
24.98017 302.000
25.00012 249.000
25.02006 291.000
25.04001 265.000
25.05996 264.000
25.07990 278.000
25.09985 240.000
25.11980 250.000
25.13974 262.000
25.15969 311.000
25.17964 272.000
25.19958 283.000
25.21953 283.000
25.23948 295.000
25.25943 287.000
25.27937 269.000
25.29932 269.000
25.31927 289.000
25.33921 273.000
25.35916 271.000
25.37911 261.000
25.39905 262.000
25.41900 278.000
25.43895 309.000
25.45890 285.000
25.47884 279.000
25.49879 281.000
25.51874 278.000
25.53868 279.000
25.55863 281.000
25.57858 308.000
25.59852 257.000
25.61847 290.000
25.63842 271.000
25.65837 290.000
25.67831 293.000
25.69826 288.000
25.71821 279.000
25.73815 299.000
25.75810 295.000
25.77805 264.000
25.79799 281.000
25.81794 294.000
25.83789 273.000
25.85783 289.000
25.87778 252.000
25.89773 254.000
25.91768 303.000
25.93762 307.000
25.95757 285.000
25.97752 308.000
25.99746 306.000
26.01741 263.000
26.03736 303.000
26.05730 266.000
26.07725 274.000
26.09720 278.000
26.11715 277.000
26.13709 290.000
26.15704 275.000
26.17699 271.000
26.19693 291.000
26.21688 283.000
26.23683 284.000
26.25677 312.000
26.27672 277.000
26.29667 243.000
26.31661 306.000
26.33656 280.000
26.35651 298.000
26.37646 309.000
26.39640 314.000
26.41635 289.000
26.43630 264.000
26.45624 294.000
26.47619 300.000
26.49614 306.000
26.51608 273.000
26.53603 270.000
26.55598 254.000
26.57593 287.000
26.59587 299.000
26.61582 285.000
26.63577 297.000
26.65571 271.000
26.67566 337.000
26.69561 301.000
26.71555 293.000
26.73550 259.000
26.75545 305.000
26.77539 271.000
26.79534 284.000
26.81529 260.000
26.83524 280.000
26.85518 270.000
26.87513 258.000
26.89508 283.000
26.91502 316.000
26.93497 286.000
26.95492 312.000
26.97486 321.000
26.99481 297.000
27.01476 285.000
27.03471 352.000
27.05465 318.000
27.07460 283.000
27.09455 286.000
27.11449 325.000
27.13444 272.000
27.15439 327.000
27.17433 280.000
27.19428 300.000
27.21423 289.000
27.23417 305.000
27.25412 311.000
27.27407 299.000
27.29402 289.000
27.31396 314.000
27.33391 281.000
27.35386 284.000
27.37380 263.000
27.39375 262.000
27.41370 288.000
27.43364 294.000
27.45359 289.000
27.47354 311.000
27.49349 294.000
27.51343 306.000
27.53338 295.000
27.55333 280.000
27.57327 284.000
27.59322 279.000
27.61317 299.000
27.63311 289.000
27.65306 302.000
27.67301 293.000
27.69296 288.000
27.71290 317.000
27.73285 266.000
27.75280 280.000
27.77274 276.000
27.79269 300.000
27.81264 287.000
27.83258 330.000
27.85253 294.000
27.87248 289.000
27.89242 302.000
27.91237 312.000
27.93232 307.000
27.95227 287.000
27.97221 312.000
27.99216 311.000
28.01211 300.000
28.03205 274.000
28.05200 302.000
28.07195 291.000
28.09189 321.000
28.11184 298.000
28.13179 313.000
28.15174 284.000
28.17168 328.000
28.19163 318.000
28.21158 283.000
28.23152 313.000
28.25147 338.000
28.27142 292.000
28.29136 272.000
28.31131 299.000
28.33126 306.000
28.35120 304.000
28.37115 300.000
28.39110 299.000
28.41105 295.000
28.43099 321.000
28.45094 303.000
28.47089 302.000
28.49083 292.000
28.51078 301.000
28.53073 275.000
28.55067 312.000
28.57062 282.000
28.59057 287.000
28.61052 301.000
28.63046 300.000
28.65041 300.000
28.67036 284.000
28.69030 296.000
28.71025 275.000
28.73020 299.000
28.75014 263.000
28.77009 277.000
28.79004 304.000
28.80998 307.000
28.82993 319.000
28.84988 326.000
28.86983 307.000
28.88977 312.000
28.90972 296.000
28.92967 281.000
28.94961 309.000
28.96956 299.000
28.98951 309.000
29.00945 287.000
29.02940 329.000
29.04935 288.000
29.06930 308.000
29.08924 313.000
29.10919 313.000
29.12914 294.000
29.14908 314.000
29.16903 326.000
29.18898 322.000
29.20892 281.000
29.22887 296.000
29.24882 306.000
29.26877 319.000
29.28871 326.000
29.30866 296.000
29.32861 276.000
29.34855 303.000
29.36850 299.000
29.38845 284.000
29.40839 297.000
29.42834 295.000
29.44829 311.000
29.46823 333.000
29.48818 312.000
29.50813 316.000
29.52808 312.000
29.54802 306.000
29.56797 315.000
29.58792 273.000
29.60786 308.000
29.62781 268.000
29.64776 304.000
29.66770 327.000
29.68765 317.000
29.70760 341.000
29.72755 283.000
29.74749 326.000
29.76744 269.000
29.78739 300.000
29.80733 300.000
29.82728 293.000
29.84723 323.000
29.86717 304.000
29.88712 308.000
29.90707 352.000
29.92701 302.000
29.94696 303.000
29.96691 293.000
29.98686 299.000
30.00680 363.000
30.02675 323.000
30.04670 318.000
30.06664 300.000
30.08659 329.000
30.10654 314.000
30.12648 328.000
30.14643 327.000
30.16638 324.000
30.18633 387.000
30.20627 396.000
30.22622 396.000
30.24617 446.000
30.26611 446.000
30.28606 489.000
30.30601 527.000
30.32595 478.000
30.34590 442.000
30.36585 458.000
30.38579 412.000
30.40574 392.000
30.42569 388.000
30.44564 370.000
30.46558 355.000
30.48553 325.000
30.50548 332.000
30.52542 339.000
30.54537 290.000
30.56532 306.000
30.58526 311.000
30.60521 318.000
30.62516 342.000
30.64511 301.000
30.66505 350.000
30.68500 325.000
30.70495 337.000
30.72489 327.000
30.74484 299.000
30.76479 300.000
30.78473 314.000
30.80468 297.000
30.82463 305.000
30.84458 325.000
30.86452 312.000
30.88447 300.000
30.90442 302.000
30.92436 329.000
30.94431 332.000
30.96426 316.000
30.98420 306.000
31.00415 291.000
31.02410 337.000
31.04404 306.000
31.06399 318.000
31.08394 324.000
31.10389 313.000
31.12383 324.000
31.14378 341.000
31.16373 328.000
31.18367 312.000
31.20362 300.000
31.22357 315.000
31.24351 311.000
31.26346 322.000
31.28341 296.000
31.30336 324.000
31.32330 333.000
31.34325 321.000
31.36320 315.000
31.38314 297.000
31.40309 361.000
31.42304 339.000
31.44298 331.000
31.46293 334.000
31.48288 389.000
31.50282 359.000
31.52277 408.000
31.54272 405.000
31.56267 467.000
31.58261 530.000
31.60256 613.000
31.62251 729.000
31.64245 771.000
31.66240 774.000
31.68235 699.000
31.70229 646.000
31.72224 604.000
31.74219 538.000
31.76214 474.000
31.78208 405.000
31.80203 384.000
31.82198 365.000
31.84192 341.000
31.86187 346.000
31.88182 354.000
31.90176 338.000
31.92171 299.000
31.94166 299.000
31.96160 327.000
31.98155 313.000
32.00150 315.000
32.02145 327.000
32.04139 321.000
32.06134 293.000
32.08129 294.000
32.10123 319.000
32.12118 317.000
32.14113 352.000
32.16107 340.000
32.18102 326.000
32.20097 308.000
32.22092 274.000
32.24086 286.000
32.26081 324.000
32.28076 362.000
32.30070 321.000
32.32065 310.000
32.34060 315.000
32.36054 291.000
32.38049 348.000
32.40044 293.000
32.42039 372.000
32.44033 345.000
32.46028 361.000
32.48023 420.000
32.50017 452.000
32.52012 490.000
32.54007 471.000
32.56001 403.000
32.57996 430.000
32.59991 394.000
32.61985 375.000
32.63980 338.000
32.65975 304.000
32.67970 327.000
32.69964 334.000
32.71959 280.000
32.73954 314.000
32.75948 287.000
32.77943 301.000
32.79938 269.000
32.81932 302.000
32.83927 294.000
32.85922 318.000
32.87917 314.000
32.89911 322.000
32.91906 304.000
32.93901 288.000
32.95895 287.000
32.97890 313.000
32.99885 295.000
33.01879 272.000
33.03874 342.000
33.05869 299.000
33.07863 308.000
33.09858 295.000
33.11853 312.000
33.13848 337.000
33.15842 303.000
33.17837 307.000
33.19832 287.000
33.21826 327.000
33.23821 308.000
33.25816 311.000
33.27810 322.000
33.29805 294.000
33.31800 268.000
33.33795 292.000
33.35789 236.000
33.37784 316.000
33.39779 289.000
33.41773 288.000
33.43768 303.000
33.45763 274.000
33.47757 313.000
33.49752 310.000
33.51747 302.000
33.53741 277.000
33.55736 299.000
33.57731 297.000
33.59726 307.000
33.61720 335.000
33.63715 287.000
33.65710 335.000
33.67704 322.000
33.69699 316.000
33.71694 289.000
33.73688 329.000
33.75683 299.000
33.77678 315.000
33.79673 302.000
33.81667 318.000
33.83662 315.000
33.85657 296.000
33.87651 296.000
33.89646 299.000
33.91641 313.000
33.93635 318.000
33.95630 279.000
33.97625 291.000
33.99620 247.000
34.01614 319.000
34.03609 314.000
34.05604 276.000
34.07598 307.000
34.09593 329.000
34.11588 297.000
34.13582 300.000
34.15577 308.000
34.17572 318.000
34.19566 288.000
34.21561 315.000
34.23556 297.000
34.25551 299.000
34.27545 316.000
34.29540 303.000
34.31535 308.000
34.33529 301.000
34.35524 294.000
34.37519 300.000
34.39513 310.000
34.41508 308.000
34.43503 304.000
34.45498 306.000
34.47492 312.000
34.49487 337.000
34.51482 319.000
34.53476 318.000
34.55471 321.000
34.57466 310.000
34.59460 350.000
34.61455 315.000
34.63450 286.000
34.65444 342.000
34.67439 326.000
34.69434 332.000
34.71429 314.000
34.73423 302.000
34.75418 313.000
34.77413 334.000
34.79407 328.000
34.81402 345.000
34.83397 289.000
34.85391 338.000
34.87386 373.000
34.89381 324.000
34.91376 360.000
34.93370 357.000
34.95365 346.000
34.97360 371.000
34.99354 333.000
35.01349 376.000
35.03344 334.000
35.05338 366.000
35.07333 371.000
35.09328 424.000
35.11322 396.000
35.13317 374.000
35.15312 394.000
35.17307 401.000
35.19301 379.000
35.21296 413.000
35.23291 418.000
35.25285 431.000
35.27280 467.000
35.29275 491.000
35.31269 469.000
35.33264 546.000
35.35259 564.000
35.37254 674.000
35.39248 859.000
35.41243 996.000
35.43238 1233.000
35.45232 1296.000
35.47227 1333.000
35.49222 1594.000
35.51216 1951.000
35.53211 2214.000
35.55206 2070.000
35.57201 1833.000
35.59195 1716.000
35.61190 1631.000
35.63185 1687.000
35.65179 1570.000
35.67174 1369.000
35.69169 1186.000
35.71163 1073.000
35.73158 1037.000
35.75153 965.000
35.77147 913.000
35.79142 874.000
35.81137 984.000
35.83132 1011.000
35.85126 1070.000
35.87121 1108.000
35.89116 1010.000
35.91110 928.000
35.93105 832.000
35.95100 715.000
35.97094 660.000
35.99089 585.000
36.01084 495.000
36.03079 474.000
36.05073 391.000
36.07068 404.000
36.09063 363.000
36.11057 374.000
36.13052 355.000
36.15047 365.000
36.17041 303.000
36.19036 325.000
36.21031 319.000
36.23025 346.000
36.25020 307.000
36.27015 360.000
36.29010 370.000
36.31004 332.000
36.32999 343.000
36.34994 324.000
36.36988 365.000
36.38983 312.000
36.40978 322.000
36.42972 339.000
36.44967 320.000
36.46962 314.000
36.48957 307.000
36.50951 315.000
36.52946 312.000
36.54941 332.000
36.56935 313.000
36.58930 319.000
36.60925 310.000
36.62919 300.000
36.64914 298.000
36.66909 333.000
36.68903 340.000
36.70898 389.000
36.72893 331.000
36.74888 362.000
36.76882 371.000
36.78877 361.000
36.80872 391.000
36.82866 379.000
36.84861 348.000
36.86856 368.000
36.88850 365.000
36.90845 363.000
36.92840 300.000
36.94835 308.000
36.96829 310.000
36.98824 321.000
37.00819 344.000
37.02813 314.000
37.04808 304.000
37.06803 309.000
37.08797 322.000
37.10792 305.000
37.12787 330.000
37.14781 269.000
37.16776 349.000
37.18771 299.000
37.20766 374.000
37.22760 328.000
37.24755 333.000
37.26750 338.000
37.28744 356.000
37.30739 397.000
37.32734 358.000
37.34728 387.000
37.36723 381.000
37.38718 397.000
37.40713 385.000
37.42707 375.000
37.44702 380.000
37.46697 349.000
37.48691 380.000
37.50686 358.000
37.52681 317.000
37.54675 320.000
37.56670 368.000
37.58665 353.000
37.60660 369.000
37.62654 349.000
37.64649 320.000
37.66644 330.000
37.68638 370.000
37.70633 325.000
37.72628 340.000
37.74622 331.000
37.76617 314.000
37.78612 322.000
37.80606 344.000
37.82601 323.000
37.84596 313.000
37.86591 348.000
37.88585 276.000
37.90580 320.000
37.92575 330.000
37.94569 286.000
37.96564 336.000
37.98559 345.000
38.00553 333.000
38.02548 332.000
38.04543 362.000
38.06538 360.000
38.08532 310.000
38.10527 339.000
38.12522 338.000
38.14516 359.000
38.16511 373.000
38.18506 370.000
38.20500 368.000
38.22495 377.000
38.24490 362.000
38.26484 354.000
38.28479 372.000
38.30474 376.000
38.32469 406.000
38.34463 371.000
38.36458 388.000
38.38453 388.000
38.40447 406.000
38.42442 388.000
38.44437 429.000
38.46431 457.000
38.48426 447.000
38.50421 508.000
38.52416 506.000
38.54410 532.000
38.56405 602.000
38.58400 604.000
38.60394 742.000
38.62389 848.000
38.64384 1010.000
38.66378 1222.000
38.68373 1595.000
38.70368 1740.000
38.72362 1992.000
38.74357 1973.000
38.76352 1773.000
38.78347 1625.000
38.80341 1559.000
38.82336 1542.000
38.84331 1417.000
38.86325 1294.000
38.88320 1065.000
38.90315 1029.000
38.92309 932.000
38.94304 833.000
38.96299 750.000
38.98294 679.000
39.00288 644.000
39.02283 610.000
39.04278 561.000
39.06272 560.000
39.08267 554.000
39.10262 459.000
39.12256 487.000
39.14251 523.000
39.16246 502.000
39.18241 505.000
39.20235 565.000
39.22230 611.000
39.24225 641.000
39.26219 708.000
39.28214 949.000
39.30209 1049.000
39.32203 1171.000
39.34198 1343.000
39.36193 1411.000
39.38187 1416.000
39.40182 1326.000
39.42177 1095.000
39.44172 1019.000
39.46166 887.000
39.48161 852.000
39.50156 727.000
39.52150 601.000
39.54145 529.000
39.56140 473.000
39.58134 397.000
39.60129 385.000
39.62124 383.000
39.64119 358.000
39.66113 341.000
39.68108 332.000
39.70103 314.000
39.72097 311.000
39.74092 330.000
39.76087 317.000
39.78081 306.000
39.80076 298.000
39.82071 316.000
39.84065 325.000
39.86060 315.000
39.88055 317.000
39.90050 312.000
39.92044 291.000
39.94039 300.000
39.96034 315.000
39.98028 313.000
40.00023 281.000
40.02018 298.000
40.04012 310.000
40.06007 305.000
40.08002 307.000
40.09997 287.000
40.11991 320.000
40.13986 275.000
40.15981 300.000
40.17975 315.000
40.19970 302.000
40.21965 300.000
40.23959 351.000
40.25954 270.000
40.27949 288.000
40.29943 326.000
40.31938 283.000
40.33933 305.000
40.35928 306.000
40.37922 321.000
40.39917 275.000
40.41912 297.000
40.43906 280.000
40.45901 323.000
40.47896 295.000
40.49890 291.000
40.51885 282.000
40.53880 295.000
40.55875 288.000
40.57869 292.000
40.59864 310.000
40.61859 283.000
40.63853 256.000
40.65848 283.000
40.67843 296.000
40.69837 320.000
40.71832 300.000
40.73827 293.000
40.75822 304.000
40.77816 309.000
40.79811 314.000
40.81806 309.000
40.83800 302.000
40.85795 290.000
40.87790 298.000
40.89784 293.000
40.91779 298.000
40.93774 276.000
40.95768 305.000
40.97763 265.000
40.99758 258.000
41.01753 277.000
41.03747 308.000
41.05742 279.000
41.07737 300.000
41.09731 292.000
41.11726 288.000
41.13721 274.000
41.15715 294.000
41.17710 284.000
41.19705 316.000
41.21700 271.000
41.23694 316.000
41.25689 286.000
41.27684 255.000
41.29678 303.000
41.31673 310.000
41.33668 275.000
41.35662 268.000
41.37657 298.000
41.39652 311.000
41.41646 297.000
41.43641 288.000
41.45636 281.000
41.47631 316.000
41.49625 315.000
41.51620 291.000
41.53615 318.000
41.55609 262.000
41.57604 295.000
41.59599 280.000
41.61593 303.000
41.63588 311.000
41.65583 284.000
41.67578 294.000
41.69572 250.000
41.71567 291.000
41.73562 258.000
41.75556 315.000
41.77551 260.000
41.79546 290.000
41.81540 290.000
41.83535 293.000
41.85530 291.000
41.87524 298.000
41.89519 318.000
41.91514 304.000
41.93509 317.000
41.95503 298.000
41.97498 287.000
41.99493 309.000
42.01487 299.000
42.03482 305.000
42.05477 278.000
42.07471 319.000
42.09466 265.000
42.11461 301.000
42.13456 314.000
42.15450 300.000
42.17445 301.000
42.19440 304.000
42.21434 312.000
42.23429 306.000
42.25424 279.000
42.27418 313.000
42.29413 280.000
42.31408 292.000
42.33403 281.000
42.35397 284.000
42.37392 302.000
42.39387 255.000
42.41381 300.000
42.43376 287.000
42.45371 310.000
42.47365 335.000
42.49360 292.000
42.51355 315.000
42.53349 288.000
42.55344 315.000
42.57339 314.000
42.59334 301.000
42.61328 301.000
42.63323 314.000
42.65318 299.000
42.67312 262.000
42.69307 280.000
42.71302 303.000
42.73296 290.000
42.75291 311.000
42.77286 293.000
42.79281 298.000
42.81275 305.000
42.83270 298.000
42.85265 299.000
42.87259 308.000
42.89254 274.000
42.91249 282.000
42.93243 281.000
42.95238 311.000
42.97233 317.000
42.99227 326.000
43.01222 328.000
43.03217 292.000
43.05212 314.000
43.07206 358.000
43.09201 340.000
43.11196 306.000
43.13190 353.000
43.15185 359.000
43.17180 368.000
43.19174 341.000
43.21169 399.000
43.23164 433.000
43.25159 468.000
43.27153 476.000
43.29148 530.000
43.31143 553.000
43.33137 630.000
43.35132 681.000
43.37127 712.000
43.39121 751.000
43.41116 738.000
43.43111 635.000
43.45105 680.000
43.47100 595.000
43.49095 582.000
43.51090 556.000
43.53084 520.000
43.55079 448.000
43.57074 461.000
43.59068 419.000
43.61063 353.000
43.63058 372.000
43.65052 325.000
43.67047 338.000
43.69042 317.000
43.71037 357.000
43.73031 293.000
43.75026 305.000
43.77021 309.000
43.79015 293.000
43.81010 299.000
43.83005 293.000
43.84999 298.000
43.86994 303.000
43.88989 275.000
43.90984 292.000
43.92978 303.000
43.94973 313.000
43.96968 311.000
43.98962 289.000
44.00957 312.000
44.02952 284.000
44.04946 305.000
44.06941 323.000
44.08936 276.000
44.10930 282.000
44.12925 296.000
44.14920 303.000
44.16915 272.000
44.18909 293.000
44.20904 277.000
44.22899 263.000
44.24893 302.000
44.26888 266.000
44.28883 312.000
44.30877 280.000
44.32872 295.000
44.34867 292.000
44.36862 312.000
44.38856 305.000
44.40851 305.000
44.42846 272.000
44.44840 288.000
44.46835 289.000
44.48830 304.000
44.50824 288.000
44.52819 296.000
44.54814 301.000
44.56808 293.000
44.58803 312.000
44.60798 293.000
44.62793 326.000
44.64787 294.000
44.66782 327.000
44.68777 321.000
44.70771 314.000
44.72766 280.000
44.74761 341.000
44.76755 327.000
44.78750 326.000
44.80745 345.000
44.82740 311.000
44.84734 336.000
44.86729 316.000
44.88724 313.000
44.90718 279.000
44.92713 317.000
44.94708 354.000
44.96702 318.000
44.98697 321.000
45.00692 306.000
45.02686 307.000
45.04681 319.000
45.06676 315.000
45.08671 302.000
45.10665 277.000
45.12660 324.000
45.14655 321.000
45.16649 292.000
45.18644 308.000
45.20639 323.000
45.22633 327.000
45.24628 294.000
45.26623 276.000
45.28618 287.000
45.30612 290.000
45.32607 302.000
45.34602 311.000
45.36596 251.000
45.38591 289.000
45.40586 306.000
45.42580 267.000
45.44575 287.000
45.46570 307.000
45.48565 294.000
45.50559 279.000
45.52554 262.000
45.54549 300.000
45.56543 307.000
45.58538 283.000
45.60533 309.000
45.62527 277.000
45.64522 309.000
45.66517 318.000
45.68511 302.000
45.70506 316.000
45.72501 291.000
45.74496 276.000
45.76490 284.000
45.78485 263.000
45.80480 298.000
45.82474 290.000
45.84469 270.000
45.86464 290.000
45.88458 288.000
45.90453 278.000
45.92448 287.000
45.94443 300.000
45.96437 264.000
45.98432 315.000
46.00427 266.000
46.02421 262.000
46.04416 301.000
46.06411 272.000
46.08405 287.000
46.10400 280.000
46.12395 297.000
46.14389 266.000
46.16384 289.000
46.18379 306.000
46.20374 312.000
46.22368 321.000
46.24363 298.000
46.26358 326.000
46.28352 291.000
46.30347 295.000
46.32342 321.000
46.34336 314.000
46.36331 292.000
46.38326 293.000
46.40321 320.000
46.42315 291.000
46.44310 294.000
46.46305 315.000
46.48299 275.000
46.50294 282.000
46.52289 302.000
46.54283 282.000
46.56278 301.000
46.58273 296.000
46.60267 279.000
46.62262 307.000
46.64257 306.000
46.66252 272.000
46.68246 285.000
46.70241 269.000
46.72236 308.000
46.74230 289.000
46.76225 270.000
46.78220 264.000
46.80214 290.000
46.82209 280.000
46.84204 310.000
46.86199 286.000
46.88193 281.000
46.90188 316.000
46.92183 292.000
46.94177 261.000
46.96172 276.000
46.98167 277.000
47.00161 285.000
47.02156 305.000
47.04151 283.000
47.06146 264.000
47.08140 307.000
47.10135 308.000
47.12130 270.000
47.14124 285.000
47.16119 287.000
47.18114 277.000
47.20108 274.000
47.22103 269.000
47.24098 292.000
47.26092 306.000
47.28087 293.000
47.30082 295.000
47.32077 301.000
47.34071 290.000
47.36066 288.000
47.38061 274.000
47.40055 302.000
47.42050 269.000
47.44045 284.000
47.46039 277.000
47.48034 282.000
47.50029 300.000
47.52024 282.000
47.54018 268.000
47.56013 300.000
47.58008 311.000
47.60002 288.000
47.61997 301.000
47.63992 258.000
47.65986 303.000
47.67981 270.000
47.69976 313.000
47.71970 285.000
47.73965 277.000
47.75960 303.000
47.77955 297.000
47.79949 299.000
47.81944 298.000
47.83939 284.000
47.85933 283.000
47.87928 328.000
47.89923 281.000
47.91917 297.000
47.93912 329.000
47.95907 299.000
47.97902 350.000
47.99896 290.000
48.01891 329.000
48.03886 321.000
48.05880 330.000
48.07875 328.000
48.09870 322.000
48.11864 346.000
48.13859 346.000
48.15854 385.000
48.17848 361.000
48.19843 348.000
48.21838 382.000
48.23833 353.000
48.25827 379.000
48.27822 369.000
48.29817 414.000
48.31811 434.000
48.33806 423.000
48.35801 440.000
48.37795 481.000
48.39790 538.000
48.41785 527.000
48.43780 612.000
48.45774 690.000
48.47769 740.000
48.49764 808.000
48.51758 950.000
48.53753 1132.000
48.55748 1087.000
48.57742 1245.000
48.59737 1248.000
48.61732 1181.000
48.63726 1197.000
48.65721 1199.000
48.67716 1244.000
48.69711 1247.000
48.71705 1218.000
48.73700 1069.000
48.75695 989.000
48.77689 880.000
48.79684 775.000
48.81679 741.000
48.83673 642.000
48.85668 621.000
48.87663 577.000
48.89658 543.000
48.91652 447.000
48.93647 405.000
48.95642 370.000
48.97636 366.000
48.99631 336.000
49.01626 350.000
49.03620 357.000
49.05615 330.000
49.07610 302.000
49.09605 315.000
49.11599 311.000
49.13594 297.000
49.15589 330.000
49.17583 307.000
49.19578 301.000
49.21573 268.000
49.23567 260.000
49.25562 282.000
49.27557 261.000
49.29551 311.000
49.31546 274.000
49.33541 287.000
49.35536 277.000
49.37530 288.000
49.39525 291.000
49.41520 271.000
49.43514 283.000
49.45509 276.000
49.47504 278.000
49.49498 291.000
49.51493 261.000
49.53488 275.000
49.55483 277.000
49.57477 275.000
49.59472 277.000
49.61467 280.000
49.63461 270.000
49.65456 302.000
49.67451 279.000
49.69445 270.000
49.71440 277.000
49.73435 271.000
49.75429 296.000
49.77424 278.000
49.79419 273.000
49.81414 267.000
49.83408 266.000
49.85403 300.000
49.87398 290.000
49.89392 283.000
49.91387 285.000
49.93382 261.000
49.95376 308.000
49.97371 265.000
49.99366 248.000
50.01361 273.000
50.03355 281.000
50.05350 271.000
50.07345 288.000
50.09339 280.000
50.11334 268.000
50.13329 305.000
50.15323 273.000
50.17318 285.000
50.19313 263.000
50.21307 285.000
50.23302 296.000
50.25297 261.000
50.27292 271.000
50.29286 271.000
50.31281 256.000
50.33276 286.000
50.35270 256.000
50.37265 251.000
50.39260 282.000
50.41254 311.000
50.43249 299.000
50.45244 270.000
50.47239 276.000
50.49233 279.000
50.51228 278.000
50.53223 270.000
50.55217 258.000
50.57212 290.000
50.59207 275.000
50.61201 294.000
50.63196 292.000
50.65191 286.000
50.67186 274.000
50.69180 259.000
50.71175 284.000
50.73170 293.000
50.75164 280.000
50.77159 261.000
50.79154 274.000
50.81148 271.000
50.83143 269.000
50.85138 264.000
50.87132 281.000
50.89127 271.000
50.91122 265.000
50.93117 282.000
50.95111 288.000
50.97106 283.000
50.99101 279.000
51.01095 279.000
51.03090 284.000
51.05085 296.000
51.07079 287.000
51.09074 257.000
51.11069 259.000
51.13064 293.000
51.15058 280.000
51.17053 278.000
51.19048 275.000
51.21042 287.000
51.23037 267.000
51.25032 309.000
51.27026 271.000
51.29021 290.000
51.31016 291.000
51.33010 283.000
51.35005 307.000
51.37000 283.000
51.38995 273.000
51.40989 288.000
51.42984 281.000
51.44979 273.000
51.46973 273.000
51.48968 266.000
51.50963 286.000
51.52957 293.000
51.54952 261.000
51.56947 292.000
51.58942 286.000
51.60936 277.000
51.62931 290.000
51.64926 262.000
51.66920 306.000
51.68915 277.000
51.70910 279.000
51.72904 254.000
51.74899 291.000
51.76894 293.000
51.78888 282.000
51.80883 274.000
51.82878 303.000
51.84873 254.000
51.86867 267.000
51.88862 273.000
51.90857 257.000
51.92851 283.000
51.94846 282.000
51.96841 287.000
51.98835 253.000
52.00830 266.000
52.02825 290.000
52.04820 289.000
52.06814 277.000
52.08809 286.000
52.10804 270.000
52.12798 292.000
52.14793 287.000
52.16788 274.000
52.18782 295.000
52.20777 288.000
52.22772 305.000
52.24767 306.000
52.26761 315.000
52.28756 265.000
52.30751 273.000
52.32745 290.000
52.34740 305.000
52.36735 287.000
52.38729 279.000
52.40724 294.000
52.42719 293.000
52.44713 255.000
52.46708 290.000
52.48703 256.000
52.50698 284.000
52.52692 268.000
52.54687 301.000
52.56682 258.000
52.58676 272.000
52.60671 268.000
52.62666 298.000
52.64660 294.000
52.66655 284.000
52.68650 264.000
52.70645 275.000
52.72639 273.000
52.74634 280.000
52.76629 307.000
52.78623 265.000
52.80618 325.000
52.82613 309.000
52.84607 289.000
52.86602 303.000
52.88597 262.000
52.90591 281.000
52.92586 307.000
52.94581 276.000
52.96576 277.000
52.98570 297.000
53.00565 274.000
53.02560 303.000
53.04554 270.000
53.06549 264.000
53.08544 288.000
53.10538 277.000
53.12533 292.000
53.14528 281.000
53.16523 289.000
53.18517 329.000
53.20512 276.000
53.22507 305.000
53.24501 299.000
53.26496 302.000
53.28491 333.000
53.30485 326.000
53.32480 288.000
53.34475 308.000
53.36469 289.000
53.38464 333.000
53.40459 395.000
53.42454 336.000
53.44448 348.000
53.46443 390.000
53.48438 383.000
53.50432 375.000
53.52427 407.000
53.54422 419.000
53.56416 353.000
53.58411 360.000
53.60406 414.000
53.62401 363.000
53.64395 380.000
53.66390 350.000
53.68385 336.000
53.70379 351.000
53.72374 319.000
53.74369 329.000
53.76363 341.000
53.78358 314.000
53.80353 347.000
53.82348 276.000
53.84342 341.000
53.86337 303.000
53.88332 344.000
53.90326 311.000
53.92321 343.000
53.94316 333.000
53.96310 304.000
53.98305 268.000
54.00300 302.000
54.02294 303.000
54.04289 296.000
54.06284 306.000
54.08279 302.000
54.10273 286.000
54.12268 269.000
54.14263 280.000
54.16257 256.000
54.18252 277.000
54.20247 256.000
54.22241 262.000
54.24236 277.000
54.26231 277.000
54.28226 252.000
54.30220 287.000
54.32215 304.000
54.34210 266.000
54.36204 261.000
54.38199 260.000
54.40194 282.000
54.42188 238.000
54.44183 281.000
54.46178 275.000
54.48172 269.000
54.50167 297.000
54.52162 264.000
54.54157 276.000
54.56151 282.000
54.58146 271.000
54.60141 280.000
54.62135 271.000
54.64130 288.000
54.66125 306.000
54.68119 282.000
54.70114 262.000
54.72109 278.000
54.74104 282.000
54.76098 253.000
54.78093 308.000
54.80088 268.000
54.82082 258.000
54.84077 299.000
54.86072 259.000
54.88066 258.000
54.90061 295.000
54.92056 275.000
54.94050 254.000
54.96045 262.000
54.98040 283.000
55.00035 259.000
55.02029 267.000
55.04024 297.000
55.06019 260.000
55.08013 272.000
55.10008 284.000
55.12003 256.000
55.13997 274.000
55.15992 275.000
55.17987 289.000
55.19982 286.000
55.21976 275.000
55.23971 257.000
55.25966 270.000
55.27960 270.000
55.29955 264.000
55.31950 283.000
55.33944 273.000
55.35939 276.000
55.37934 301.000
55.39929 272.000
55.41923 300.000
55.43918 272.000
55.45913 287.000
55.47907 266.000
55.49902 239.000
55.51897 290.000
55.53891 284.000
55.55886 262.000
55.57881 276.000
55.59875 273.000
55.61870 279.000
55.63865 261.000
55.65860 270.000
55.67854 273.000
55.69849 260.000
55.71844 300.000
55.73838 260.000
55.75833 252.000
55.77828 294.000
55.79822 275.000
55.81817 278.000
55.83812 256.000
55.85807 264.000
55.87801 250.000
55.89796 276.000
55.91791 272.000
55.93785 265.000
55.95780 250.000
55.97775 261.000
55.99769 277.000
56.01764 289.000
56.03759 246.000
56.05753 246.000
56.07748 288.000
56.09743 257.000
56.11738 298.000
56.13732 288.000
56.15727 264.000
56.17722 281.000
56.19716 259.000
56.21711 288.000
56.23706 268.000
56.25700 277.000
56.27695 298.000
56.29690 266.000
56.31685 285.000
56.33679 267.000
56.35674 291.000
56.37669 293.000
56.39663 276.000
56.41658 280.000
56.43653 267.000
56.45647 307.000
56.47642 276.000
56.49637 274.000
56.51631 296.000
56.53626 271.000
56.55621 277.000
56.57616 263.000
56.59610 264.000
56.61605 278.000
56.63600 270.000
56.65594 302.000
56.67589 295.000
56.69584 281.000
56.71578 299.000
56.73573 276.000
56.75568 328.000
56.77563 295.000
56.79557 313.000
56.81552 282.000
56.83547 301.000
56.85541 298.000
56.87536 297.000
56.89531 298.000
56.91525 290.000
56.93520 291.000
56.95515 316.000
56.97510 286.000
56.99504 305.000
57.01499 298.000
57.03494 301.000
57.05488 297.000
57.07483 312.000
57.09478 320.000
57.11472 294.000
57.13467 314.000
57.15462 316.000
57.17456 303.000
57.19451 317.000
57.21446 379.000
57.23441 351.000
57.25435 390.000
57.27430 381.000
57.29425 416.000
57.31419 395.000
57.33414 378.000
57.35409 421.000
57.37403 394.000
57.39398 418.000
57.41393 407.000
57.43388 399.000
57.45382 385.000
57.47377 447.000
57.49372 388.000
57.51366 340.000
57.53361 375.000
57.55356 359.000
57.57350 354.000
57.59345 314.000
57.61340 331.000
57.63334 310.000
57.65329 305.000
57.67324 335.000
57.69319 337.000
57.71313 340.000
57.73308 280.000
57.75303 297.000
57.77297 302.000
57.79292 295.000
57.81287 276.000
57.83281 248.000
57.85276 316.000
57.87271 329.000
57.89266 287.000
57.91260 308.000
57.93255 287.000
57.95250 303.000
57.97244 310.000
57.99239 281.000
58.01234 314.000
58.03228 308.000
58.05223 270.000
58.07218 287.000
58.09212 330.000
58.11207 334.000
58.13202 324.000
58.15197 319.000
58.17191 328.000
58.19186 371.000
58.21181 370.000
58.23175 403.000
58.25170 417.000
58.27165 458.000
58.29159 489.000
58.31154 458.000
58.33149 456.000
58.35144 462.000
58.37138 373.000
58.39133 426.000
58.41128 374.000
58.43122 389.000
58.45117 338.000
58.47112 376.000
58.49106 356.000
58.51101 326.000
58.53096 324.000
58.55090 312.000
58.57085 294.000
58.59080 308.000
58.61075 310.000
58.63069 295.000
58.65064 296.000
58.67059 277.000
58.69053 264.000
58.71048 283.000
58.73043 289.000
58.75037 272.000
58.77032 288.000
58.79027 276.000
58.81022 274.000
58.83016 280.000
58.85011 287.000
58.87006 299.000
58.89000 280.000
58.90995 303.000
58.92990 263.000
58.94984 310.000
58.96979 301.000
58.98974 303.000
59.00969 239.000
59.02963 227.000
59.04958 275.000
59.06953 285.000
59.08947 253.000
59.10942 279.000
59.12937 251.000
59.14931 234.000
59.16926 244.000
59.18921 285.000
59.20915 264.000
59.22910 303.000
59.24905 284.000
59.26900 283.000
59.28894 279.000
59.30889 278.000
59.32884 269.000
59.34878 276.000
59.36873 256.000
59.38868 292.000
59.40862 309.000
59.42857 238.000
59.44852 254.000
59.46847 289.000
59.48841 290.000
59.50836 289.000
59.52831 310.000
59.54825 273.000
59.56820 291.000
59.58815 267.000
59.60809 266.000
59.62804 275.000
59.64799 274.000
59.66793 283.000
59.68788 300.000
59.70783 231.000
59.72778 257.000
59.74772 290.000
59.76767 259.000
59.78762 252.000
59.80756 291.000
59.82751 263.000
59.84746 265.000
59.86740 265.000
59.88735 284.000
59.90730 278.000
59.92725 269.000
59.94719 283.000
59.96714 286.000
59.98709 248.000
60.00703 256.000
60.02698 264.000
60.04693 266.000
60.06687 276.000
60.08682 268.000
60.10677 283.000
60.12671 264.000
60.14666 282.000
60.16661 256.000
60.18656 293.000
60.20650 311.000
60.22645 280.000
60.24640 322.000
60.26634 276.000
60.28629 264.000
60.30624 272.000
60.32618 277.000
60.34613 299.000
60.36608 306.000
60.38603 296.000
60.40597 283.000
60.42592 267.000
60.44587 268.000
60.46581 268.000
60.48576 257.000
60.50571 289.000
60.52565 270.000
60.54560 279.000
60.56555 289.000
60.58550 285.000
60.60544 286.000
60.62539 303.000
60.64534 309.000
60.66528 290.000
60.68523 286.000
60.70518 261.000
60.72512 296.000
60.74507 281.000
60.76502 263.000
60.78496 284.000
60.80491 267.000
60.82486 259.000
60.84481 297.000
60.86475 286.000
60.88470 301.000
60.90465 303.000
60.92459 259.000
60.94454 276.000
60.96449 296.000
60.98443 347.000
61.00438 299.000
61.02433 298.000
61.04428 348.000
61.06422 260.000
61.08417 295.000
61.10412 328.000
61.12406 345.000
61.14401 322.000
61.16396 319.000
61.18390 323.000
61.20385 322.000
61.22380 338.000
61.24374 331.000
61.26369 345.000
61.28364 382.000
61.30359 371.000
61.32353 390.000
61.34348 356.000
61.36343 382.000
61.38337 400.000
61.40332 444.000
61.42327 483.000
61.44321 514.000
61.46316 541.000
61.48311 717.000
61.50306 771.000
61.52300 808.000
61.54295 802.000
61.56290 874.000
61.58284 847.000
61.60279 774.000
61.62274 787.000
61.64268 731.000
61.66263 746.000
61.68258 677.000
61.70252 667.000
61.72247 637.000
61.74242 600.000
61.76237 544.000
61.78231 569.000
61.80226 498.000
61.82221 455.000
61.84215 459.000
61.86210 394.000
61.88205 365.000
61.90199 373.000
61.92194 347.000
61.94189 327.000
61.96184 319.000
61.98178 310.000
62.00173 308.000
62.02168 315.000
62.04162 292.000
62.06157 263.000
62.08152 312.000
62.10146 320.000
62.12141 288.000
62.14136 296.000
62.16131 314.000
62.18125 297.000
62.20120 336.000
62.22115 296.000
62.24109 287.000
62.26104 281.000
62.28099 266.000
62.30093 262.000
62.32088 301.000
62.34083 311.000
62.36077 291.000
62.38072 259.000
62.40067 293.000
62.42062 297.000
62.44056 283.000
62.46051 289.000
62.48046 297.000
62.50040 299.000
62.52035 276.000
62.54030 282.000
62.56024 289.000
62.58019 273.000
62.60014 283.000
62.62009 288.000
62.64003 292.000
62.65998 282.000
62.67993 264.000
62.69987 308.000
62.71982 293.000
62.73977 292.000
62.75971 311.000
62.77966 323.000
62.79961 306.000
62.81955 314.000
62.83950 323.000
62.85945 344.000
62.87940 361.000
62.89934 360.000
62.91929 354.000
62.93924 415.000
62.95918 377.000
62.97913 376.000
62.99908 393.000
63.01902 405.000
63.03897 360.000
63.05892 372.000
63.07887 419.000
63.09881 397.000
63.11876 377.000
63.13871 394.000
63.15865 352.000
63.17860 366.000
63.19855 388.000
63.21849 365.000
63.23844 358.000
63.25839 343.000
63.27833 338.000
63.29828 373.000
63.31823 348.000
63.33818 283.000
63.35812 335.000
63.37807 299.000
63.39802 304.000
63.41796 287.000
63.43791 304.000
63.45786 299.000
63.47780 317.000
63.49775 284.000
63.51770 282.000
63.53765 316.000
63.55759 296.000
63.57754 282.000
63.59749 280.000
63.61743 255.000
63.63738 252.000
63.65733 296.000
63.67727 265.000
63.69722 297.000
63.71717 288.000
63.73712 276.000
63.75706 285.000
63.77701 291.000
63.79696 281.000
63.81690 313.000
63.83685 299.000
63.85680 302.000
63.87674 285.000
63.89669 302.000
63.91664 288.000
63.93658 281.000
63.95653 252.000
63.97648 284.000
63.99643 311.000
64.01637 303.000
64.03632 299.000
64.05627 308.000
64.07621 294.000
64.09616 298.000
64.11611 305.000
64.13605 331.000
64.15600 297.000
64.17595 326.000
64.19590 325.000
64.21584 353.000
64.23579 342.000
64.25574 373.000
64.27568 351.000
64.29563 377.000
64.31558 383.000
64.33552 439.000
64.35547 374.000
64.37542 446.000
64.39536 475.000
64.41531 469.000
64.43526 507.000
64.45521 532.000
64.47515 577.000
64.49510 542.000
64.51505 529.000
64.53499 529.000
64.55494 451.000
64.57489 451.000
64.59483 477.000
64.61478 441.000
64.63473 416.000
64.65468 444.000
64.67462 416.000
64.69457 426.000
64.71452 350.000
64.73446 379.000
64.75441 335.000
64.77436 362.000
64.79430 353.000
64.81425 316.000
64.83420 307.000
64.85414 314.000
64.87409 310.000
64.89404 291.000
64.91399 272.000
64.93393 306.000
64.95388 277.000
64.97383 274.000
64.99377 310.000
65.01372 291.000
65.03367 292.000
65.05361 239.000
65.07356 302.000
65.09351 307.000
65.11346 286.000
65.13340 293.000
65.15335 280.000
65.17330 275.000
65.19324 301.000
65.21319 284.000
65.23314 295.000
65.25308 260.000
65.27303 300.000
65.29298 286.000
65.31293 312.000
65.33287 320.000
65.35282 296.000
65.37277 299.000
65.39271 293.000
65.41266 295.000
65.43261 313.000
65.45255 294.000
65.47250 275.000
65.49245 317.000
65.51239 309.000
65.53234 330.000
65.55229 309.000
65.57224 331.000
65.59218 305.000
65.61213 345.000
65.63208 340.000
65.65202 373.000
65.67197 377.000
65.69192 378.000
65.71186 362.000
65.73181 366.000
65.75176 415.000
65.77171 440.000
65.79165 468.000
65.81160 442.000
65.83155 423.000
65.85149 435.000
65.87144 451.000
65.89139 444.000
65.91133 428.000
65.93128 429.000
65.95123 412.000
65.97117 439.000
65.99112 422.000
66.01107 471.000
66.03102 472.000
66.05096 436.000
66.07091 477.000
66.09086 403.000
66.11080 443.000
66.13075 476.000
66.15070 465.000
66.17064 486.000
66.19059 550.000
66.21054 629.000
66.23049 536.000
66.25043 561.000
66.27038 478.000
66.29033 531.000
66.31027 430.000
66.33022 436.000
66.35017 458.000
66.37011 446.000
66.39006 440.000
66.41001 429.000
66.42995 445.000
66.44990 398.000
66.46985 396.000
66.48980 378.000
66.50974 397.000
66.52969 377.000
66.54964 371.000
66.56958 354.000
66.58953 371.000
66.60948 370.000
66.62942 347.000
66.64937 386.000
66.66932 408.000
66.68927 384.000
66.70921 419.000
66.72916 478.000
66.74911 444.000
66.76905 427.000
66.78900 468.000
66.80895 524.000
66.82889 461.000
66.84884 437.000
66.86879 489.000
66.88874 418.000
66.90868 432.000
66.92863 433.000
66.94858 434.000
66.96852 410.000
66.98847 424.000
67.00842 380.000
67.02836 392.000
67.04831 346.000
67.06826 395.000
67.08820 353.000
67.10815 348.000
67.12810 312.000
67.14805 304.000
67.16799 303.000
67.18794 315.000
67.20789 311.000
67.22783 290.000
67.24778 292.000
67.26773 299.000
67.28767 275.000
67.30762 283.000
67.32757 273.000
67.34752 273.000
67.36746 336.000
67.38741 287.000
67.40736 297.000
67.42730 303.000
67.44725 304.000
67.46720 288.000
67.48714 297.000
67.50709 291.000
67.52704 283.000
67.54698 299.000
67.56693 278.000
67.58688 286.000
67.60683 327.000
67.62677 311.000
67.64672 281.000
67.66667 325.000
67.68661 352.000
67.70656 294.000
67.72651 340.000
67.74645 305.000
67.76640 310.000
67.78635 338.000
67.80630 330.000
67.82624 336.000
67.84619 385.000
67.86614 381.000
67.88608 377.000
67.90603 371.000
67.92598 413.000
67.94592 416.000
67.96587 406.000
67.98582 406.000
68.00576 415.000
68.02571 425.000
68.04566 405.000
68.06561 489.000
68.08555 491.000
68.10550 506.000
68.12545 497.000
68.14539 481.000
68.16534 428.000
68.18529 414.000
68.20523 405.000
68.22518 405.000
68.24513 389.000
68.26508 415.000
68.28502 401.000
68.30497 417.000
68.32492 363.000
68.34486 396.000
68.36481 355.000
68.38476 312.000
68.40470 290.000
68.42465 316.000
68.44460 325.000
68.46455 272.000
68.48449 268.000
68.50444 309.000
68.52439 306.000
68.54433 291.000
68.56428 297.000
68.58423 263.000
68.60417 258.000
68.62412 286.000
68.64407 269.000
68.66401 248.000
68.68396 273.000
68.70391 251.000
68.72386 291.000
68.74380 266.000
68.76375 244.000
68.78370 278.000
68.80364 301.000
68.82359 286.000
68.84354 259.000
68.86348 255.000
68.88343 259.000
68.90338 266.000
68.92333 279.000
68.94327 288.000
68.96322 322.000
68.98317 269.000
69.00311 286.000
69.02306 284.000
69.04301 292.000
69.06295 290.000
69.08290 246.000
69.10285 261.000
69.12279 287.000
69.14274 291.000
69.16269 277.000
69.18264 264.000
69.20258 272.000
69.22253 282.000
69.24248 251.000
69.26242 274.000
69.28237 290.000
69.30232 294.000
69.32226 245.000
69.34221 286.000
69.36216 270.000
69.38211 290.000
69.40205 262.000
69.42200 294.000
69.44195 291.000
69.46189 265.000
69.48184 256.000
69.50179 276.000
69.52173 272.000
69.54168 296.000
69.56163 257.000
69.58157 294.000
69.60152 283.000
69.62147 275.000
69.64142 256.000
69.66136 256.000
69.68131 274.000
69.70126 265.000
69.72120 272.000
69.74115 257.000
69.76110 297.000
69.78104 268.000
69.80099 281.000
69.82094 285.000
69.84089 270.000
69.86083 264.000
69.88078 239.000
69.90073 280.000
69.92067 267.000
69.94062 280.000
69.96057 283.000
69.98051 239.000
70.00046 259.000
70.02041 270.000
70.04035 294.000
70.06030 277.000
70.08025 258.000
70.10020 271.000
70.12014 255.000
70.14009 283.000
70.16004 287.000
70.17998 243.000
70.19993 288.000
70.21988 245.000
70.23982 270.000
70.25977 281.000
70.27972 264.000
70.29967 263.000
70.31961 294.000
70.33956 279.000
70.35951 277.000
70.37945 260.000
70.39940 257.000
70.41935 264.000
70.43929 265.000
70.45924 288.000
70.47919 270.000
70.49914 268.000
70.51908 273.000
70.53903 270.000
70.55898 252.000
70.57892 256.000
70.59887 279.000
70.61882 273.000
70.63876 244.000
70.65871 294.000
70.67866 266.000
70.69860 287.000
70.71855 283.000
70.73850 264.000
70.75845 263.000
70.77839 254.000
70.79834 280.000
70.81829 283.000
70.83823 267.000
70.85818 268.000
70.87813 269.000
70.89807 255.000
70.91802 246.000
70.93797 269.000
70.95792 283.000
70.97786 272.000
70.99781 326.000
71.01776 263.000
71.03770 287.000
71.05765 293.000
71.07760 282.000
71.09754 271.000
71.11749 251.000
71.13744 260.000
71.15738 257.000
71.17733 325.000
71.19728 304.000
71.21723 297.000
71.23717 299.000
71.25712 270.000
71.27707 274.000
71.29701 267.000
71.31696 297.000
71.33691 297.000
71.35685 267.000
71.37680 256.000
71.39675 278.000
71.41670 279.000
71.43664 267.000
71.45659 301.000
71.47654 297.000
71.49648 296.000
71.51643 289.000
71.53638 263.000
71.55632 300.000
71.57627 262.000
71.59622 296.000
71.61616 300.000
71.63611 269.000
71.65606 279.000
71.67601 268.000
71.69595 277.000
71.71590 257.000
71.73585 296.000
71.75579 284.000
71.77574 268.000
71.79569 273.000
71.81563 276.000
71.83558 272.000
71.85553 278.000
71.87548 285.000
71.89542 288.000
71.91537 256.000
71.93532 274.000
71.95526 286.000
71.97521 263.000
71.99516 327.000
72.01510 265.000
72.03505 269.000
72.05500 304.000
72.07495 295.000
72.09489 283.000
72.11484 266.000
72.13479 276.000
72.15473 280.000
72.17468 272.000
72.19463 292.000
72.21457 299.000
72.23452 309.000
72.25447 312.000
72.27441 342.000
72.29436 314.000
72.31431 317.000
72.33426 309.000
72.35420 325.000
72.37415 340.000
72.39410 368.000
72.41404 335.000
72.43399 363.000
72.45394 331.000
72.47388 336.000
72.49383 304.000
72.51378 301.000
72.53373 294.000
72.55367 304.000
72.57362 310.000
72.59357 318.000
72.61351 302.000
72.63346 279.000
72.65341 302.000
72.67335 307.000
72.69330 307.000
72.71325 306.000
72.73319 296.000
72.75314 287.000
72.77309 292.000
72.79304 271.000
72.81298 272.000
72.83293 261.000
72.85288 296.000
72.87282 256.000
72.89277 276.000
72.91272 320.000
72.93266 315.000
72.95261 274.000
72.97256 274.000
72.99251 252.000
73.01245 264.000
73.03240 270.000
73.05235 273.000
73.07229 287.000
73.09224 266.000
73.11219 322.000
73.13213 262.000
73.15208 277.000
73.17203 285.000
73.19197 280.000
73.21192 312.000
73.23187 254.000
73.25182 290.000
73.27176 281.000
73.29171 313.000
73.31166 282.000
73.33160 261.000
73.35155 312.000
73.37150 310.000
73.39144 296.000
73.41139 320.000
73.43134 322.000
73.45129 329.000
73.47123 305.000
73.49118 326.000
73.51113 322.000
73.53107 315.000
73.55102 320.000
73.57097 339.000
73.59091 296.000
73.61086 321.000
73.63081 335.000
73.65076 339.000
73.67070 325.000
73.69065 327.000
73.71060 321.000
73.73054 324.000
73.75049 308.000
73.77044 291.000
73.79038 297.000
73.81033 275.000
73.83028 284.000
73.85022 279.000
73.87017 326.000
73.89012 294.000
73.91007 302.000
73.93001 285.000
73.94996 326.000
73.96991 299.000
73.98985 310.000
74.00980 289.000
74.02975 248.000
74.04969 247.000
74.06964 292.000
74.08959 274.000
74.10954 270.000
74.12948 294.000
74.14943 261.000
74.16938 269.000
74.18932 274.000
74.20927 283.000
74.22922 294.000
74.24916 283.000
74.26911 313.000
74.28906 270.000
74.30900 275.000
74.32895 269.000
74.34890 275.000
74.36885 260.000
74.38879 309.000
74.40874 291.000
74.42869 297.000
74.44863 274.000
74.46858 290.000
74.48853 293.000
74.50847 302.000
74.52842 288.000
74.54837 311.000
74.56832 341.000
74.58826 289.000
74.60821 286.000
74.62816 272.000
74.64810 273.000
74.66805 294.000
74.68800 320.000
74.70794 286.000
74.72789 307.000
74.74784 291.000
74.76778 302.000
74.78773 282.000
74.80768 288.000
74.82763 282.000
74.84757 337.000
74.86752 312.000
74.88747 289.000
74.90741 341.000
74.92736 350.000
74.94731 353.000
74.96725 363.000
74.98720 345.000
75.00715 414.000
75.02710 363.000
75.04704 341.000
75.06699 315.000
75.08694 312.000
75.10688 309.000
75.12683 335.000
75.14678 326.000
75.16672 336.000
75.18667 404.000
75.20662 376.000
75.22657 368.000
75.24651 385.000
75.26646 369.000
75.28641 336.000
75.30635 371.000
75.32630 339.000
75.34625 326.000
75.36619 371.000
75.38614 354.000
75.40609 320.000
75.42603 304.000
75.44598 325.000
75.46593 343.000
75.48588 324.000
75.50582 320.000
75.52577 312.000
75.54572 308.000
75.56566 325.000
75.58561 330.000
75.60556 284.000
75.62550 300.000
75.64545 266.000
75.66540 268.000
75.68535 299.000
75.70529 282.000
75.72524 310.000
75.74519 329.000
75.76513 313.000
75.78508 275.000
75.80503 312.000
75.82497 310.000
75.84492 310.000
75.86487 274.000
75.88481 274.000
75.90476 285.000
75.92471 289.000
75.94466 293.000
75.96460 288.000
75.98455 301.000
76.00450 292.000
76.02444 281.000
76.04439 320.000
76.06434 319.000
76.08428 328.000
76.10423 314.000
76.12418 310.000
76.14413 299.000
76.16407 284.000
76.18402 291.000
76.20397 300.000
76.22391 298.000
76.24386 276.000
76.26381 258.000
76.28375 258.000
76.30370 278.000
76.32365 272.000
76.34359 301.000
76.36354 267.000
76.38349 287.000
76.40344 287.000
76.42338 258.000
76.44333 261.000
76.46328 284.000
76.48322 295.000
76.50317 249.000
76.52312 286.000
76.54306 274.000
76.56301 290.000
76.58296 276.000
76.60291 290.000
76.62285 266.000
76.64280 306.000
76.66275 286.000
76.68269 283.000
76.70264 256.000
76.72259 286.000
76.74253 283.000
76.76248 257.000
76.78243 286.000
76.80238 284.000
76.82232 279.000
76.84227 274.000
76.86222 277.000
76.88216 293.000
76.90211 250.000
76.92206 257.000
76.94200 294.000
76.96195 289.000
76.98190 302.000
77.00184 268.000
77.02179 276.000
77.04174 302.000
77.06169 282.000
77.08163 303.000
77.10158 304.000
77.12153 258.000
77.14147 300.000
77.16142 276.000
77.18137 275.000
77.20131 286.000
77.22126 289.000
77.24121 313.000
77.26116 282.000
77.28110 292.000
77.30105 274.000
77.32100 276.000
77.34094 321.000
77.36089 294.000
77.38084 329.000
77.40078 311.000
77.42073 341.000
77.44068 319.000
77.46062 341.000
77.48057 371.000
77.50052 359.000
77.52047 341.000
77.54041 344.000
77.56036 365.000
77.58031 355.000
77.60025 389.000
77.62020 327.000
77.64015 341.000
77.66009 365.000
77.68004 314.000
77.69999 341.000
77.71994 346.000
77.73988 317.000
77.75983 361.000
77.77978 304.000
77.79972 353.000
77.81967 318.000
77.83962 327.000
77.85956 352.000
77.87951 318.000
77.89946 296.000
77.91940 305.000
77.93935 314.000
77.95930 306.000
77.97925 293.000
77.99919 295.000
78.01914 315.000
78.03909 350.000
78.05903 289.000
78.07898 339.000
78.09893 323.000
78.11887 324.000
78.13882 324.000
78.15877 309.000
78.17872 344.000
78.19866 350.000
78.21861 341.000
78.23856 325.000
78.25850 335.000
78.27845 313.000
78.29840 314.000
78.31834 332.000
78.33829 301.000
78.35824 315.000
78.37819 328.000
78.39813 334.000
78.41808 302.000
78.43803 334.000
78.45797 315.000
78.47792 299.000
78.49787 303.000
78.51781 286.000
78.53776 284.000
78.55771 309.000
78.57765 318.000
78.59760 317.000
78.61755 245.000
78.63750 283.000
78.65744 280.000
78.67739 318.000
78.69734 268.000
78.71728 296.000
78.73723 280.000
78.75718 278.000
78.77712 253.000
78.79707 253.000
78.81702 265.000
78.83697 290.000
78.85691 285.000
78.87686 263.000
78.89681 277.000
78.91675 264.000
78.93670 269.000
78.95665 267.000
78.97659 252.000
78.99654 253.000
79.01649 280.000
79.03643 287.000
79.05638 291.000
79.07633 290.000
79.09628 273.000
79.11622 261.000
79.13617 301.000
79.15612 260.000
79.17606 265.000
79.19601 261.000
79.21596 277.000
79.23590 305.000
79.25585 292.000
79.27580 251.000
79.29575 258.000
79.31569 263.000
79.33564 251.000
79.35559 261.000
79.37553 290.000
79.39548 302.000
79.41543 261.000
79.43537 271.000
79.45532 264.000
79.47527 267.000
79.49521 273.000
79.51516 270.000
79.53511 269.000
79.55506 323.000
79.57500 313.000
79.59495 282.000
79.61490 290.000
79.63484 305.000
79.65479 263.000
79.67474 298.000
79.69468 274.000
79.71463 291.000
79.73458 261.000
79.75453 268.000
79.77447 290.000
79.79442 287.000
79.81437 303.000
79.83431 265.000
79.85426 260.000
79.87421 272.000
79.89415 272.000
79.91410 284.000
79.93405 310.000
79.95399 251.000
79.97394 253.000
79.99389 271.000
80.01384 290.000
80.03378 301.000
80.05373 283.000
80.07368 307.000
80.09362 326.000
80.11357 298.000
80.13352 281.000
80.15346 334.000
80.17341 300.000
80.19336 307.000
80.21331 311.000
80.23325 295.000
80.25320 286.000
80.27315 271.000
80.29309 274.000
80.31304 270.000
80.33299 290.000
80.35293 306.000
80.37288 287.000
80.39283 310.000
80.41278 273.000
80.43272 292.000
80.45267 259.000
80.47262 294.000
80.49256 282.000
80.51251 289.000
80.53246 278.000
80.55240 294.000
80.57235 255.000
80.59230 280.000
80.61224 273.000
80.63219 254.000
80.65214 268.000
80.67209 277.000
80.69203 258.000
80.71198 271.000
80.73193 258.000
80.75187 278.000
80.77182 274.000
80.79177 254.000
80.81171 259.000
80.83166 281.000
80.85161 258.000
80.87156 282.000
80.89150 271.000
80.91145 273.000
80.93140 291.000
80.95134 308.000
80.97129 258.000
80.99124 297.000
81.01118 268.000
81.03113 271.000
81.05108 301.000
81.07102 303.000
81.09097 255.000
81.11092 292.000
81.13087 261.000
81.15081 298.000
81.17076 296.000
81.19071 239.000
81.21065 256.000
81.23060 273.000
81.25055 281.000
81.27049 275.000
81.29044 277.000
81.31039 268.000
81.33034 277.000
81.35028 258.000
81.37023 276.000
81.39018 286.000
81.41012 268.000
81.43007 299.000
81.45002 259.000
81.46996 266.000
81.48991 288.000
81.50986 280.000
81.52980 271.000
81.54975 258.000
81.56970 280.000
81.58965 269.000
81.60959 274.000
81.62954 295.000
81.64949 272.000
81.66943 261.000
81.68938 269.000
81.70933 260.000
81.72927 264.000
81.74922 273.000
81.76917 299.000
81.78912 278.000
81.80906 284.000
81.82901 287.000
81.84896 281.000
81.86890 302.000
81.88885 269.000
81.90880 271.000
81.92874 277.000
81.94869 270.000
81.96864 278.000
81.98859 260.000
82.00853 271.000
82.02848 243.000
82.04843 276.000
82.06837 297.000
82.08832 287.000
82.10827 299.000
82.12821 277.000
82.14816 300.000
82.16811 285.000
82.18805 295.000
82.20800 274.000
82.22795 289.000
82.24790 310.000
82.26784 304.000
82.28779 358.000
82.30774 308.000
82.32768 320.000
82.34763 300.000
82.36758 308.000
82.38752 349.000
82.40747 327.000
82.42742 312.000
82.44737 327.000
82.46731 309.000
82.48726 295.000
82.50721 311.000
82.52715 323.000
82.54710 307.000
82.56705 303.000
82.58699 324.000
82.60694 333.000
82.62689 308.000
82.64683 295.000
82.66678 303.000
82.68673 311.000
82.70668 277.000
82.72662 325.000
82.74657 300.000
82.76652 309.000
82.78646 297.000
82.80641 276.000
82.82636 262.000
82.84630 287.000
82.86625 292.000
82.88620 293.000
82.90615 262.000
82.92609 313.000
82.94604 282.000
82.96599 291.000
82.98593 306.000
83.00588 334.000
83.02583 296.000
83.04577 313.000
83.06572 304.000
83.08567 328.000
83.10561 326.000
83.12556 273.000
83.14551 304.000
83.16546 305.000
83.18540 310.000
83.20535 336.000
83.22530 327.000
83.24524 333.000
83.26519 251.000
83.28514 324.000
83.30508 296.000
83.32503 285.000
83.34498 286.000
83.36493 320.000
83.38487 318.000
83.40482 292.000
83.42477 323.000
83.44471 297.000
83.46466 262.000
83.48461 339.000
83.50455 310.000
83.52450 311.000
83.54445 305.000
83.56440 337.000
83.58434 338.000
83.60429 288.000
83.62424 326.000
83.64418 282.000
83.66413 306.000
83.68408 316.000
83.70402 321.000
83.72397 302.000
83.74392 306.000
83.76386 270.000
83.78381 268.000
83.80376 300.000
83.82371 296.000
83.84365 322.000
83.86360 251.000
83.88355 280.000
83.90349 291.000
83.92344 269.000
83.94339 303.000
83.96333 267.000
83.98328 246.000
84.00323 272.000
84.02318 274.000
84.04312 314.000
84.06307 262.000
84.08302 323.000
84.10296 312.000
84.12291 295.000
84.14286 309.000
84.16280 266.000
84.18275 315.000
84.20270 287.000
84.22264 297.000
84.24259 275.000
84.26254 316.000
84.28249 320.000
84.30243 252.000
84.32238 303.000
84.34233 293.000
84.36227 292.000
84.38222 300.000
84.40217 296.000
84.42211 342.000
84.44206 313.000
84.46201 311.000
84.48196 298.000
84.50190 337.000
84.52185 320.000
84.54180 314.000
84.56174 330.000
84.58169 331.000
84.60164 343.000
84.62158 360.000
84.64153 304.000
84.66148 365.000
84.68142 349.000
84.70137 345.000
84.72132 355.000
84.74127 351.000
84.76121 352.000
84.78116 322.000
84.80111 336.000
84.82105 342.000
84.84100 338.000
84.86095 329.000
84.88089 316.000
84.90084 318.000
84.92079 312.000
84.94074 322.000
84.96068 329.000
84.98063 280.000
85.00058 303.000
85.02052 291.000
85.04047 307.000
85.06042 266.000
85.08036 269.000
85.10031 293.000
85.12026 286.000
85.14021 267.000
85.16015 275.000
85.18010 291.000
85.20005 294.000
85.21999 253.000
85.23994 258.000
85.25989 321.000
85.27983 275.000
85.29978 272.000
85.31973 279.000
85.33967 271.000
85.35962 290.000
85.37957 272.000
85.39952 267.000
85.41946 255.000
85.43941 273.000
85.45936 242.000
85.47930 259.000
85.49925 272.000
85.51920 282.000
85.53914 266.000
85.55909 272.000
85.57904 293.000
85.59899 293.000
85.61893 276.000
85.63888 300.000
85.65883 260.000
85.67877 282.000
85.69872 272.000
85.71867 262.000
85.73861 302.000
85.75856 299.000
85.77851 289.000
85.79845 264.000
85.81840 281.000
85.83835 270.000
85.85830 281.000
85.87824 274.000
85.89819 276.000
85.91814 293.000
85.93808 283.000
85.95803 263.000
85.97798 291.000
85.99792 276.000
86.01787 272.000
86.03782 266.000
86.05777 278.000
86.07771 282.000
86.09766 265.000
86.11761 273.000
86.13755 295.000
86.15750 291.000
86.17745 277.000
86.19739 284.000
86.21734 284.000
86.23729 263.000
86.25723 324.000
86.27718 270.000
86.29713 296.000
86.31708 280.000
86.33702 258.000
86.35697 288.000
86.37692 289.000
86.39686 283.000
86.41681 282.000
86.43676 285.000
86.45670 275.000
86.47665 286.000
86.49660 312.000
86.51655 302.000
86.53649 263.000
86.55644 332.000
86.57639 282.000
86.59633 286.000
86.61628 312.000
86.63623 279.000
86.65617 298.000
86.67612 297.000
86.69607 265.000
86.71602 284.000
86.73596 294.000
86.75591 289.000
86.77586 301.000
86.79580 293.000
86.81575 280.000
86.83570 295.000
86.85564 277.000
86.87559 248.000
86.89554 264.000
86.91548 277.000
86.93543 289.000
86.95538 282.000
86.97533 267.000
86.99527 263.000
87.01522 297.000
87.03517 257.000
87.05511 241.000
87.07506 284.000
87.09501 264.000
87.11495 257.000
87.13490 269.000
87.15485 253.000
87.17480 248.000
87.19474 292.000
87.21469 266.000
87.23464 267.000
87.25458 277.000
87.27453 290.000
87.29448 262.000
87.31442 288.000
87.33437 276.000
87.35432 274.000
87.37426 302.000
87.39421 288.000
87.41416 275.000
87.43411 273.000
87.45405 278.000
87.47400 293.000
87.49395 265.000
87.51389 262.000
87.53384 276.000
87.55379 273.000
87.57373 274.000
87.59368 291.000
87.61363 291.000
87.63358 288.000
87.65352 290.000
87.67347 291.000
87.69342 257.000
87.71336 282.000
87.73331 250.000
87.75326 261.000
87.77320 291.000
87.79315 274.000
87.81310 273.000
87.83304 274.000
87.85299 276.000
87.87294 286.000
87.89289 262.000
87.91283 282.000
87.93278 271.000
87.95273 282.000
87.97267 272.000
87.99262 284.000
88.01257 306.000
88.03251 258.000
88.05246 288.000
88.07241 253.000
88.09236 272.000
88.11230 258.000
88.13225 263.000
88.15220 265.000
88.17214 261.000
88.19209 285.000
88.21204 287.000
88.23198 277.000
88.25193 264.000
88.27188 256.000
88.29183 283.000
88.31177 288.000
88.33172 321.000
88.35167 290.000
88.37161 255.000
88.39156 292.000
88.41151 296.000
88.43145 264.000
88.45140 241.000
88.47135 266.000
88.49129 277.000
88.51124 284.000
88.53119 285.000
88.55114 274.000
88.57108 251.000
88.59103 271.000
88.61098 272.000
88.63092 266.000
88.65087 281.000
88.67082 275.000
88.69076 252.000
88.71071 268.000
88.73066 279.000
88.75061 273.000
88.77055 275.000
88.79050 241.000
88.81045 287.000
88.83039 269.000
88.85034 257.000
88.87029 268.000
88.89023 303.000
88.91018 251.000
88.93013 269.000
88.95007 273.000
88.97002 279.000
88.98997 264.000
89.00992 267.000
89.02986 228.000
89.04981 297.000
89.06976 298.000
89.08970 266.000
89.10965 267.000
89.12960 268.000
89.14954 255.000
89.16949 239.000
89.18944 261.000
89.20939 286.000
89.22933 288.000
89.24928 258.000
89.26923 310.000
89.28917 274.000
89.30912 277.000
89.32907 289.000
89.34901 285.000
89.36896 295.000
89.38891 274.000
89.40885 253.000
89.42880 303.000
89.44875 268.000
89.46870 273.000
89.48864 309.000
89.50859 271.000
89.52854 313.000
89.54848 277.000
89.56843 327.000
89.58838 294.000
89.60832 308.000
89.62827 302.000
89.64822 310.000
89.66817 297.000
89.68811 311.000
89.70806 289.000
89.72801 322.000
89.74795 288.000
89.76790 297.000
89.78785 312.000
89.80779 294.000
89.82774 319.000
89.84769 290.000
89.86764 321.000
89.88758 274.000
89.90753 301.000
89.92748 284.000
89.94742 314.000
89.96737 349.000
89.98732 323.000
90.00726 310.000
