10.00000 115.000
10.01995 107.000
10.03989 110.000
10.05984 117.000
10.07979 114.000
10.09973 117.000
10.11968 121.000
10.13963 106.000
10.15958 120.000
10.17952 109.000
10.19947 120.000
10.21942 87.000
10.23936 100.000
10.25931 109.000
10.27926 85.000
10.29920 88.000
10.31915 114.000
10.33910 109.000
10.35905 102.000
10.37899 106.000
10.39894 99.000
10.41889 128.000
10.43883 111.000
10.45878 108.000
10.47873 115.000
10.49867 104.000
10.51862 117.000
10.53857 106.000
10.55851 114.000
10.57846 95.000
10.59841 116.000
10.61836 110.000
10.63830 110.000
10.65825 100.000
10.67820 91.000
10.69814 117.000
10.71809 101.000
10.73804 106.000
10.75798 98.000
10.77793 127.000
10.79788 114.000
10.81783 118.000
10.83777 122.000
10.85772 107.000
10.87767 117.000
10.89761 113.000
10.91756 106.000
10.93751 117.000
10.95745 106.000
10.97740 107.000
10.99735 92.000
11.01730 103.000
11.03724 118.000
11.05719 117.000
11.07714 96.000
11.09708 99.000
11.11703 117.000
11.13698 123.000
11.15692 111.000
11.17687 103.000
11.19682 110.000
11.21676 109.000
11.23671 115.000
11.25666 106.000
11.27661 124.000
11.29655 111.000
11.31650 103.000
11.33645 95.000
11.35639 110.000
11.37634 124.000
11.39629 117.000
11.41623 104.000
11.43618 108.000
11.45613 131.000
11.47608 103.000
11.49602 112.000
11.51597 116.000
11.53592 118.000
11.55586 122.000
11.57581 102.000
11.59576 116.000
11.61570 99.000
11.63565 113.000
11.65560 108.000
11.67554 116.000
11.69549 101.000
11.71544 119.000
11.73539 126.000
11.75533 121.000
11.77528 119.000
11.79523 119.000
11.81517 110.000
11.83512 105.000
11.85507 101.000
11.87501 123.000
11.89496 105.000
11.91491 117.000
11.93486 99.000
11.95480 118.000
11.97475 134.000
11.99470 111.000
12.01464 117.000
12.03459 120.000
12.05454 106.000
12.07448 97.000
12.09443 90.000
12.11438 121.000
12.13432 124.000
12.15427 108.000
12.17422 109.000
12.19417 117.000
12.21411 103.000
12.23406 124.000
12.25401 108.000
12.27395 109.000
12.29390 109.000
12.31385 138.000
12.33379 116.000
12.35374 115.000
12.37369 89.000
12.39364 120.000
12.41358 111.000
12.43353 117.000
12.45348 91.000
12.47342 117.000
12.49337 105.000
12.51332 104.000
12.53326 115.000
12.55321 99.000
12.57316 122.000
12.59311 110.000
12.61305 111.000
12.63300 105.000
12.65295 107.000
12.67289 99.000
12.69284 94.000
12.71279 111.000
12.73273 92.000
12.75268 123.000
12.77263 128.000
12.79257 118.000
12.81252 83.000
12.83247 113.000
12.85242 94.000
12.87236 100.000
12.89231 126.000
12.91226 128.000
12.93220 130.000
12.95215 131.000
12.97210 117.000
12.99204 110.000
13.01199 103.000
13.03194 99.000
13.05189 100.000
13.07183 105.000
13.09178 115.000
13.11173 113.000
13.13167 112.000
13.15162 105.000
13.17157 95.000
13.19151 97.000
13.21146 99.000
13.23141 99.000
13.25135 124.000
13.27130 127.000
13.29125 124.000
13.31120 103.000
13.33114 101.000
13.35109 117.000
13.37104 118.000
13.39098 107.000
13.41093 120.000
13.43088 114.000
13.45082 96.000
13.47077 122.000
13.49072 127.000
13.51067 116.000
13.53061 105.000
13.55056 108.000
13.57051 113.000
13.59045 130.000
13.61040 129.000
13.63035 94.000
13.65029 127.000
13.67024 136.000
13.69019 102.000
13.71013 109.000
13.73008 124.000
13.75003 121.000
13.76998 107.000
13.78992 115.000
13.80987 116.000
13.82982 93.000
13.84976 114.000
13.86971 96.000
13.88966 134.000
13.90960 118.000
13.92955 131.000
13.94950 119.000
13.96945 109.000
13.98939 117.000
14.00934 114.000
14.02929 128.000
14.04923 115.000
14.06918 123.000
14.08913 110.000
14.10907 123.000
14.12902 119.000
14.14897 109.000
14.16892 118.000
14.18886 135.000
14.20881 120.000
14.22876 127.000
14.24870 108.000
14.26865 101.000
14.28860 119.000
14.30854 122.000
14.32849 116.000
14.34844 124.000
14.36838 121.000
14.38833 103.000
14.40828 106.000
14.42823 113.000
14.44817 106.000
14.46812 120.000
14.48807 135.000
14.50801 112.000
14.52796 110.000
14.54791 109.000
14.56785 130.000
14.58780 103.000
14.60775 127.000
14.62770 130.000
14.64764 131.000
14.66759 103.000
14.68754 140.000
14.70748 135.000
14.72743 132.000
14.74738 147.000
14.76732 108.000
14.78727 110.000
14.80722 138.000
14.82716 132.000
14.84711 118.000
14.86706 130.000
14.88701 127.000
14.90695 135.000
14.92690 138.000
14.94685 121.000
14.96679 119.000
14.98674 137.000
15.00669 153.000
15.02663 149.000
15.04658 114.000
15.06653 184.000
15.08648 160.000
15.10642 153.000
15.12637 169.000
15.14632 146.000
15.16626 156.000
15.18621 168.000
15.20616 172.000
15.22610 165.000
15.24605 163.000
15.26600 181.000
15.28594 188.000
15.30589 149.000
15.32584 177.000
15.34579 199.000
15.36573 198.000
15.38568 205.000
15.40563 231.000
15.42557 223.000
15.44552 238.000
15.46547 261.000
15.48541 256.000
15.50536 304.000
15.52531 294.000
15.54526 383.000
15.56520 417.000
15.58515 522.000
15.60510 634.000
15.62504 812.000
15.64499 1128.000
15.66494 1543.000
15.68488 2208.000
15.70483 3190.000
15.72478 4507.000
15.74472 6181.000
15.76467 7952.000
15.78462 9263.000
15.80457 9718.000
15.82451 10205.000
15.84446 10670.000
15.86441 11214.000
15.88435 10072.000
15.90430 7216.000
15.92425 4456.000
15.94419 2269.000
15.96414 1043.000
15.98409 637.000
16.00404 451.000
16.02398 384.000
16.04393 334.000
16.06388 284.000
16.08382 308.000
16.10377 271.000
16.12372 271.000
16.14366 231.000
16.16361 217.000
16.18356 234.000
16.20351 231.000
16.22345 195.000
16.24340 178.000
16.26335 208.000
16.28329 199.000
16.30324 200.000
16.32319 165.000
16.34313 182.000
16.36308 168.000
16.38303 166.000
16.40297 175.000
16.42292 147.000
16.44287 163.000
16.46282 163.000
16.48276 143.000
16.50271 145.000
16.52266 146.000
16.54260 163.000
16.56255 158.000
16.58250 167.000
16.60244 139.000
16.62239 144.000
16.64234 175.000
16.66229 149.000
16.68223 137.000
16.70218 179.000
16.72213 190.000
16.74207 187.000
16.76202 179.000
16.78197 170.000
16.80191 175.000
16.82186 202.000
16.84181 170.000
16.86175 153.000
16.88170 147.000
16.90165 118.000
16.92160 143.000
16.94154 119.000
16.96149 130.000
16.98144 118.000
17.00138 114.000
17.02133 117.000
17.04128 110.000
17.06122 116.000
17.08117 140.000
17.10112 118.000
17.12107 137.000
17.14101 128.000
17.16096 126.000
17.18091 119.000
17.20085 121.000
17.22080 117.000
17.24075 102.000
17.26069 118.000
17.28064 110.000
17.30059 133.000
17.32053 144.000
17.34048 126.000
17.36043 114.000
17.38038 87.000
17.40032 125.000
17.42027 120.000
17.44022 100.000
17.46016 92.000
17.48011 117.000
17.50006 121.000
17.52000 114.000
17.53995 125.000
17.55990 138.000
17.57985 106.000
17.59979 119.000
17.61974 136.000
17.63969 113.000
17.65963 113.000
17.67958 122.000
17.69953 118.000
17.71947 113.000
17.73942 108.000
17.75937 124.000
17.77932 104.000
17.79926 115.000
17.81921 96.000
17.83916 118.000
17.85910 132.000
17.87905 133.000
17.89900 111.000
17.91894 128.000
17.93889 119.000
17.95884 103.000
17.97878 116.000
17.99873 106.000
18.01868 121.000
18.03863 105.000
18.05857 119.000
18.07852 101.000
18.09847 112.000
18.11841 106.000
18.13836 114.000
18.15831 106.000
18.17825 110.000
18.19820 101.000
18.21815 124.000
18.23810 121.000
18.25804 109.000
18.27799 100.000
18.29794 116.000
18.31788 126.000
18.33783 123.000
18.35778 106.000
18.37772 121.000
18.39767 103.000
18.41762 101.000
18.43756 117.000
18.45751 145.000
18.47746 131.000
18.49741 129.000
18.51735 133.000
18.53730 108.000
18.55725 116.000
18.57719 120.000
18.59714 120.000
18.61709 108.000
18.63703 119.000
18.65698 131.000
18.67693 123.000
18.69688 128.000
18.71682 107.000
18.73677 114.000
18.75672 117.000
18.77666 140.000
18.79661 114.000
18.81656 98.000
18.83650 107.000
18.85645 116.000
18.87640 118.000
18.89634 108.000
18.91629 114.000
18.93624 117.000
18.95619 111.000
18.97613 119.000
18.99608 125.000
19.01603 131.000
19.03597 118.000
19.05592 104.000
19.07587 110.000
19.09581 110.000
19.11576 106.000
19.13571 120.000
19.15566 103.000
19.17560 117.000
19.19555 111.000
19.21550 115.000
19.23544 106.000
19.25539 121.000
19.27534 112.000
19.29528 113.000
19.31523 125.000
19.33518 124.000
19.35513 116.000
19.37507 102.000
19.39502 104.000
19.41497 132.000
19.43491 106.000
19.45486 102.000
19.47481 99.000
19.49475 111.000
19.51470 122.000
19.53465 121.000
19.55459 112.000
19.57454 106.000
19.59449 115.000
19.61444 115.000
19.63438 108.000
19.65433 123.000
19.67428 122.000
19.69422 129.000
19.71417 125.000
19.73412 116.000
19.75406 120.000
19.77401 108.000
19.79396 117.000
19.81391 119.000
19.83385 121.000
19.85380 113.000
19.87375 113.000
19.89369 115.000
19.91364 135.000
19.93359 118.000
19.95353 104.000
19.97348 105.000
19.99343 128.000
20.01337 100.000
20.03332 125.000
20.05327 124.000
20.07322 125.000
20.09316 118.000
20.11311 121.000
20.13306 106.000
20.15300 122.000
20.17295 112.000
20.19290 126.000
20.21284 140.000
20.23279 131.000
20.25274 104.000
20.27269 106.000
20.29263 102.000
20.31258 137.000
20.33253 117.000
20.35247 108.000
20.37242 117.000
20.39237 144.000
20.41231 118.000
20.43226 119.000
20.45221 120.000
20.47215 132.000
20.49210 113.000
20.51205 133.000
20.53200 140.000
20.55194 127.000
20.57189 130.000
20.59184 119.000
20.61178 123.000
20.63173 134.000
20.65168 105.000
20.67162 113.000
20.69157 123.000
20.71152 119.000
20.73147 122.000
20.75141 120.000
20.77136 135.000
20.79131 112.000
20.81125 126.000
20.83120 117.000
20.85115 141.000
20.87109 104.000
20.89104 130.000
20.91099 129.000
20.93094 130.000
20.95088 134.000
20.97083 136.000
20.99078 143.000
21.01072 152.000
21.03067 147.000
21.05062 164.000
21.07056 157.000
21.09051 154.000
21.11046 156.000
21.13040 183.000
21.15035 182.000
21.17030 158.000
21.19025 159.000
21.21019 169.000
21.23014 151.000
21.25009 152.000
21.27003 130.000
21.28998 134.000
21.30993 122.000
21.32987 114.000
21.34982 116.000
21.36977 110.000
21.38972 127.000
21.40966 87.000
21.42961 131.000
21.44956 118.000
21.46950 109.000
21.48945 102.000
21.50940 116.000
21.52934 110.000
21.54929 121.000
21.56924 136.000
21.58918 115.000
21.60913 137.000
21.62908 134.000
21.64903 102.000
21.66897 109.000
21.68892 146.000
21.70887 128.000
21.72881 115.000
21.74876 111.000
21.76871 121.000
21.78865 130.000
21.80860 123.000
21.82855 125.000
21.84850 110.000
21.86844 128.000
21.88839 126.000
21.90834 98.000
21.92828 108.000
21.94823 117.000
21.96818 147.000
21.98812 124.000
22.00807 123.000
22.02802 118.000
22.04796 132.000
22.06791 108.000
22.08786 114.000
22.10781 112.000
22.12775 103.000
22.14770 118.000
22.16765 110.000
22.18759 136.000
22.20754 128.000
22.22749 113.000
22.24743 119.000
22.26738 118.000
22.28733 126.000
22.30728 121.000
22.32722 110.000
22.34717 117.000
22.36712 135.000
22.38706 105.000
22.40701 106.000
22.42696 128.000
22.44690 129.000
22.46685 121.000
22.48680 109.000
22.50675 119.000
22.52669 119.000
22.54664 103.000
22.56659 104.000
22.58653 118.000
22.60648 129.000
22.62643 117.000
22.64637 134.000
22.66632 145.000
22.68627 141.000
22.70621 140.000
22.72616 125.000
22.74611 147.000
22.76606 124.000
22.78600 124.000
22.80595 139.000
22.82590 101.000
22.84584 140.000
22.86579 113.000
22.88574 117.000
22.90568 120.000
22.92563 125.000
22.94558 112.000
22.96553 119.000
22.98547 123.000
23.00542 115.000
23.02537 111.000
23.04531 131.000
23.06526 115.000
23.08521 126.000
23.10515 118.000
23.12510 127.000
23.14505 111.000
23.16499 120.000
23.18494 113.000
23.20489 128.000
23.22484 122.000
23.24478 132.000
23.26473 150.000
23.28468 121.000
23.30462 112.000
23.32457 134.000
23.34452 94.000
23.36446 117.000
23.38441 133.000
23.40436 109.000
23.42431 120.000
23.44425 124.000
23.46420 128.000
23.48415 118.000
23.50409 120.000
23.52404 130.000
23.54399 124.000
23.56393 116.000
23.58388 123.000
23.60383 118.000
23.62377 113.000
23.64372 117.000
23.66367 144.000
23.68362 115.000
23.70356 136.000
23.72351 116.000
23.74346 119.000
23.76340 131.000
23.78335 128.000
23.80330 125.000
23.82324 113.000
23.84319 136.000
23.86314 142.000
23.88309 118.000
23.90303 150.000
23.92298 131.000
23.94293 120.000
23.96287 119.000
23.98282 108.000
24.00277 98.000
24.02271 109.000
24.04266 126.000
24.06261 96.000
24.08256 123.000
24.10250 122.000
24.12245 122.000
24.14240 122.000
24.16234 116.000
24.18229 121.000
24.20224 130.000
24.22218 110.000
24.24213 118.000
24.26208 103.000
24.28202 111.000
24.30197 121.000
24.32192 119.000
24.34187 119.000
24.36181 111.000
24.38176 115.000
24.40171 120.000
24.42165 130.000
24.44160 119.000
24.46155 117.000
24.48149 138.000
24.50144 143.000
24.52139 131.000
24.54134 125.000
24.56128 127.000
24.58123 103.000
24.60118 135.000
24.62112 106.000
24.64107 123.000
24.66102 110.000
24.68096 100.000
24.70091 141.000
24.72086 110.000
24.74080 122.000
24.76075 119.000
24.78070 116.000
24.80065 129.000
24.82059 124.000
24.84054 134.000
24.86049 133.000
24.88043 140.000
24.90038 137.000
24.92033 136.000
24.94027 146.000
24.96022 163.000
24.98017 148.000
25.00012 152.000
25.02006 149.000
25.04001 125.000
25.05996 150.000
25.07990 162.000
25.09985 141.000
25.11980 126.000
25.13974 136.000
25.15969 120.000
25.17964 119.000
25.19958 129.000
25.21953 113.000
25.23948 129.000
25.25943 121.000
25.27937 118.000
25.29932 135.000
25.31927 132.000
25.33921 127.000
25.35916 139.000
25.37911 130.000
25.39905 106.000
25.41900 122.000
25.43895 131.000
25.45890 117.000
25.47884 139.000
25.49879 137.000
25.51874 112.000
25.53868 123.000
25.55863 135.000
25.57858 129.000
25.59852 125.000
25.61847 133.000
25.63842 121.000
25.65837 100.000
25.67831 131.000
25.69826 129.000
25.71821 131.000
25.73815 118.000
25.75810 108.000
25.77805 145.000
25.79799 128.000
25.81794 132.000
25.83789 126.000
25.85783 130.000
25.87778 119.000
25.89773 116.000
25.91768 126.000
25.93762 115.000
25.95757 126.000
25.97752 139.000
25.99746 141.000
26.01741 139.000
26.03736 131.000
26.05730 135.000
26.07725 94.000
26.09720 126.000
26.11715 106.000
26.13709 102.000
26.15704 133.000
26.17699 139.000
26.19693 126.000
26.21688 119.000
26.23683 117.000
26.25677 118.000
26.27672 127.000
26.29667 124.000
26.31661 134.000
26.33656 113.000
26.35651 139.000
26.37646 129.000
26.39640 115.000
26.41635 123.000
26.43630 129.000
26.45624 139.000
26.47619 137.000
26.49614 103.000
26.51608 125.000
26.53603 118.000
26.55598 118.000
26.57593 108.000
26.59587 128.000
26.61582 103.000
26.63577 126.000
26.65571 138.000
26.67566 117.000
26.69561 145.000
26.71555 134.000
26.73550 135.000
26.75545 120.000
26.77539 140.000
26.79534 137.000
26.81529 142.000
26.83524 114.000
26.85518 127.000
26.87513 133.000
26.89508 135.000
26.91502 114.000
26.93497 139.000
26.95492 143.000
26.97486 143.000
26.99481 135.000
27.01476 138.000
27.03471 139.000
27.05465 127.000
27.07460 141.000
27.09455 153.000
27.11449 145.000
27.13444 156.000
27.15439 199.000
27.17433 179.000
27.19428 172.000
27.21423 172.000
27.23417 157.000
27.25412 170.000
27.27407 171.000
27.29402 153.000
27.31396 156.000
27.33391 152.000
27.35386 177.000
27.37380 111.000
27.39375 138.000
27.41370 132.000
27.43364 128.000
27.45359 138.000
27.47354 121.000
27.49349 126.000
27.51343 143.000
27.53338 146.000
27.55333 130.000
27.57327 142.000
27.59322 148.000
27.61317 159.000
27.63311 131.000
27.65306 139.000
27.67301 141.000
27.69296 135.000
27.71290 133.000
27.73285 135.000
27.75280 123.000
27.77274 127.000
27.79269 150.000
27.81264 143.000
27.83258 143.000
27.85253 137.000
27.87248 171.000
27.89242 124.000
27.91237 143.000
27.93232 134.000
27.95227 145.000
27.97221 159.000
27.99216 134.000
28.01211 118.000
28.03205 139.000
28.05200 128.000
28.07195 151.000
28.09189 160.000
28.11184 159.000
28.13179 173.000
28.15174 163.000
28.17168 155.000
28.19163 128.000
28.21158 137.000
28.23152 171.000
28.25147 156.000
28.27142 196.000
28.29136 180.000
28.31131 174.000
28.33126 153.000
28.35120 156.000
28.37115 153.000
28.39110 180.000
28.41105 158.000
28.43099 154.000
28.45094 179.000
28.47089 158.000
28.49083 143.000
28.51078 178.000
28.53073 173.000
28.55067 162.000
28.57062 149.000
28.59057 162.000
28.61052 148.000
28.63046 143.000
28.65041 151.000
28.67036 147.000
28.69030 143.000
28.71025 137.000
28.73020 152.000
28.75014 145.000
28.77009 146.000
28.79004 151.000
28.80998 124.000
28.82993 127.000
28.84988 134.000
28.86983 130.000
28.88977 147.000
28.90972 131.000
28.92967 134.000
28.94961 139.000
28.96956 144.000
28.98951 137.000
29.00945 137.000
29.02940 128.000
29.04935 144.000
29.06930 132.000
29.08924 127.000
29.10919 140.000
29.12914 150.000
29.14908 170.000
29.16903 166.000
29.18898 181.000
29.20892 182.000
29.22887 169.000
29.24882 215.000
29.26877 214.000
29.28871 249.000
29.30866 250.000
29.32861 281.000
29.34855 256.000
29.36850 260.000
29.38845 258.000
29.40839 231.000
29.42834 191.000
29.44829 195.000
29.46823 184.000
29.48818 180.000
29.50813 161.000
29.52808 161.000
29.54802 149.000
29.56797 123.000
29.58792 145.000
29.60786 147.000
29.62781 121.000
29.64776 137.000
29.66770 137.000
29.68765 150.000
29.70760 120.000
29.72755 133.000
29.74749 148.000
29.76744 109.000
29.78739 136.000
29.80733 133.000
29.82728 118.000
29.84723 131.000
29.86717 135.000
29.88712 113.000
29.90707 126.000
29.92701 118.000
29.94696 122.000
29.96691 138.000
29.98686 134.000
30.00680 125.000
30.02675 142.000
30.04670 135.000
30.06664 150.000
30.08659 134.000
30.10654 143.000
30.12648 118.000
30.14643 144.000
30.16638 141.000
30.18633 138.000
30.20627 133.000
30.22622 144.000
30.24617 123.000
30.26611 115.000
30.28606 129.000
30.30601 145.000
30.32595 159.000
30.34590 127.000
30.36585 122.000
30.38579 134.000
30.40574 125.000
30.42569 129.000
30.44564 139.000
30.46558 147.000
30.48553 131.000
30.50548 111.000
30.52542 148.000
30.54537 138.000
30.56532 121.000
30.58526 129.000
30.60521 136.000
30.62516 147.000
30.64511 134.000
30.66505 128.000
30.68500 148.000
30.70495 148.000
30.72489 150.000
30.74484 137.000
30.76479 145.000
30.78473 158.000
30.80468 153.000
30.82463 150.000
30.84458 141.000
30.86452 153.000
30.88447 144.000
30.90442 150.000
30.92436 152.000
30.94431 141.000
30.96426 160.000
30.98420 160.000
31.00415 144.000
31.02410 136.000
31.04404 138.000
31.06399 143.000
31.08394 139.000
31.10389 131.000
31.12383 130.000
31.14378 129.000
31.16373 121.000
31.18367 158.000
31.20362 134.000
31.22357 143.000
31.24351 124.000
31.26346 128.000
31.28341 150.000
31.30336 144.000
31.32330 149.000
31.34325 170.000
31.36320 155.000
31.38314 159.000
31.40309 139.000
31.42304 156.000
31.44298 155.000
31.46293 150.000
31.48288 167.000
31.50282 158.000
31.52277 162.000
31.54272 175.000
31.56267 144.000
31.58261 142.000
31.60256 144.000
31.62251 159.000
31.64245 195.000
31.66240 173.000
31.68235 160.000
31.70229 165.000
31.72224 197.000
31.74219 210.000
31.76214 212.000
31.78208 225.000
31.80203 250.000
31.82198 294.000
31.84192 322.000
31.86187 341.000
31.88182 396.000
31.90176 507.000
31.92171 669.000
31.94166 830.000
31.96160 965.000
31.98155 1063.000
32.00150 1122.000
32.02145 1195.000
32.04139 1318.000
32.06134 1323.000
32.08129 1105.000
32.10123 785.000
32.12118 649.000
32.14113 608.000
32.16107 473.000
32.18102 314.000
32.20097 220.000
32.22092 230.000
32.24086 187.000
32.26081 158.000
32.28076 161.000
32.30070 152.000
32.32065 153.000
32.34060 154.000
32.36054 156.000
32.38049 155.000
32.40044 156.000
32.42039 155.000
32.44033 138.000
32.46028 159.000
32.48023 134.000
32.50017 136.000
32.52012 134.000
32.54007 129.000
32.56001 126.000
32.57996 173.000
32.59991 141.000
32.61985 139.000
32.63980 128.000
32.65975 155.000
32.67970 150.000
32.69964 135.000
32.71959 153.000
32.73954 141.000
32.75948 129.000
32.77943 142.000
32.79938 150.000
32.81932 116.000
32.83927 141.000
32.85922 125.000
32.87917 125.000
32.89911 120.000
32.91906 131.000
32.93901 138.000
32.95895 128.000
32.97890 150.000
32.99885 120.000
33.01879 122.000
33.03874 129.000
33.05869 136.000
33.07863 143.000
33.09858 142.000
33.11853 111.000
33.13848 125.000
33.15842 127.000
33.17837 117.000
33.19832 147.000
33.21826 145.000
33.23821 134.000
33.25816 141.000
33.27810 131.000
33.29805 147.000
33.31800 126.000
33.33795 131.000
33.35789 148.000
33.37784 126.000
33.39779 120.000
33.41773 126.000
33.43768 116.000
33.45763 153.000
33.47757 161.000
33.49752 135.000
33.51747 140.000
33.53741 149.000
33.55736 134.000
33.57731 155.000
33.59726 152.000
33.61720 128.000
33.63715 130.000
33.65710 118.000
33.67704 141.000
33.69699 130.000
33.71694 141.000
33.73688 126.000
33.75683 128.000
33.77678 120.000
33.79673 133.000
33.81667 119.000
33.83662 132.000
33.85657 141.000
33.87651 129.000
33.89646 134.000
33.91641 126.000
33.93635 123.000
33.95630 143.000
33.97625 129.000
33.99620 130.000
34.01614 119.000
34.03609 140.000
34.05604 158.000
34.07598 117.000
34.09593 150.000
34.11588 147.000
34.13582 137.000
34.15577 143.000
34.17572 134.000
34.19566 136.000
34.21561 150.000
34.23556 129.000
34.25551 126.000
34.27545 134.000
34.29540 120.000
34.31535 128.000
34.33529 133.000
34.35524 132.000
34.37519 137.000
34.39513 133.000
34.41508 135.000
34.43503 133.000
34.45498 151.000
34.47492 152.000
34.49487 148.000
34.51482 152.000
34.53476 152.000
34.55471 146.000
34.57466 167.000
34.59460 162.000
34.61455 173.000
34.63450 175.000
34.65444 178.000
34.67439 184.000
34.69434 184.000
34.71429 204.000
34.73423 195.000
34.75418 198.000
34.77413 209.000
34.79407 229.000
34.81402 217.000
34.83397 214.000
34.85391 217.000
34.87386 203.000
34.89381 198.000
34.91376 165.000
34.93370 176.000
34.95365 177.000
34.97360 165.000
34.99354 145.000
35.01349 150.000
35.03344 151.000
35.05338 141.000
35.07333 159.000
35.09328 149.000
35.11322 154.000
35.13317 146.000
35.15312 154.000
35.17307 159.000
35.19301 137.000
35.21296 169.000
35.23291 129.000
35.25285 159.000
35.27280 136.000
35.29275 170.000
35.31269 139.000
35.33264 127.000
35.35259 139.000
35.37254 148.000
35.39248 136.000
35.41243 152.000
35.43238 148.000
35.45232 168.000
35.47227 145.000
35.49222 157.000
35.51216 163.000
35.53211 172.000
35.55206 169.000
35.57201 174.000
35.59195 175.000
35.61190 203.000
35.63185 201.000
35.65179 236.000
35.67174 283.000
35.69169 302.000
35.71163 350.000
35.73158 432.000
35.75153 524.000
35.77147 641.000
35.79142 770.000
35.81137 910.000
35.83132 1034.000
35.85126 1064.000
35.87121 1038.000
35.89116 1108.000
35.91110 1067.000
35.93105 913.000
35.95100 766.000
35.97094 629.000
35.99089 590.000
36.01084 494.000
36.03079 433.000
36.05073 279.000
36.07068 275.000
36.09063 236.000
36.11057 206.000
36.13052 205.000
36.15047 217.000
36.17041 190.000
36.19036 213.000
36.21031 230.000
36.23025 196.000
36.25020 233.000
36.27015 210.000
36.29010 203.000
36.31004 223.000
36.32999 201.000
36.34994 174.000
36.36988 180.000
36.38983 234.000
36.40978 206.000
36.42972 186.000
36.44967 164.000
36.46962 168.000
36.48957 190.000
36.50951 192.000
36.52946 199.000
36.54941 155.000
36.56935 150.000
36.58930 164.000
36.60925 185.000
36.62919 191.000
36.64914 196.000
36.66909 194.000
36.68903 211.000
36.70898 217.000
36.72893 234.000
36.74888 258.000
36.76882 229.000
36.78877 268.000
36.80872 253.000
36.82866 244.000
36.84861 280.000
36.86856 261.000
36.88850 246.000
36.90845 249.000
36.92840 220.000
36.94835 237.000
36.96829 234.000
36.98824 267.000
37.00819 265.000
37.02813 283.000
37.04808 363.000
37.06803 420.000
37.08797 512.000
37.10792 644.000
37.12787 898.000
37.14781 1030.000
37.16776 1103.000
37.18771 1240.000
37.20766 1421.000
37.22760 1429.000
37.24755 1292.000
37.26750 1155.000
37.28744 1005.000
37.30739 898.000
37.32734 827.000
37.34728 639.000
37.36723 549.000
37.38718 450.000
37.40713 360.000
37.42707 325.000
37.44702 331.000
37.46697 317.000
37.48691 309.000
37.50686 275.000
37.52681 268.000
37.54675 271.000
37.56670 256.000
37.58665 226.000
37.60660 214.000
37.62654 186.000
37.64649 201.000
37.66644 178.000
37.68638 152.000
37.70633 156.000
37.72628 153.000
37.74622 133.000
37.76617 142.000
37.78612 158.000
37.80606 152.000
37.82601 147.000
37.84596 149.000
37.86591 161.000
37.88585 178.000
37.90580 164.000
37.92575 152.000
37.94569 149.000
37.96564 150.000
37.98559 170.000
38.00553 156.000
38.02548 172.000
38.04543 151.000
38.06538 166.000
38.08532 140.000
38.10527 168.000
38.12522 143.000
38.14516 136.000
38.16511 157.000
38.18506 162.000
38.20500 160.000
38.22495 155.000
38.24490 140.000
38.26484 148.000
38.28479 142.000
38.30474 153.000
38.32469 162.000
38.34463 156.000
38.36458 151.000
38.38453 149.000
38.40447 146.000
38.42442 132.000
38.44437 131.000
38.46431 155.000
38.48426 153.000
38.50421 153.000
38.52416 157.000
38.54410 145.000
38.56405 139.000
38.58400 156.000
38.60394 162.000
38.62389 136.000
38.64384 155.000
38.66378 171.000
38.68373 174.000
38.70368 143.000
38.72362 148.000
38.74357 152.000
38.76352 162.000
38.78347 141.000
38.80341 182.000
38.82336 170.000
38.84331 165.000
38.86325 171.000
38.88320 164.000
38.90315 178.000
38.92309 148.000
38.94304 148.000
38.96299 204.000
38.98294 194.000
39.00288 193.000
39.02283 176.000
39.04278 209.000
39.06272 220.000
39.08267 241.000
39.10262 211.000
39.12256 235.000
39.14251 276.000
39.16246 285.000
39.18241 310.000
39.20235 329.000
39.22230 443.000
39.24225 498.000
39.26219 590.000
39.28214 733.000
39.30209 900.000
39.32203 1036.000
39.34198 1291.000
39.36193 1416.000
39.38187 1664.000
39.40182 1856.000
39.42177 1977.000
39.44172 2021.000
39.46166 1980.000
39.48161 1879.000
39.50156 1709.000
39.52150 1509.000
39.54145 1357.000
39.56140 1079.000
39.58134 946.000
39.60129 814.000
39.62124 679.000
39.64119 509.000
39.66113 419.000
39.68108 372.000
39.70103 321.000
39.72097 296.000
39.74092 262.000
39.76087 242.000
39.78081 233.000
39.80076 214.000
39.82071 206.000
39.84065 172.000
39.86060 184.000
39.88055 202.000
39.90050 196.000
39.92044 177.000
39.94039 174.000
39.96034 183.000
39.98028 158.000
40.00023 167.000
40.02018 163.000
40.04012 147.000
40.06007 169.000
40.08002 152.000
40.09997 158.000
40.11991 158.000
40.13986 153.000
40.15981 133.000
40.17975 152.000
40.19970 159.000
40.21965 144.000
40.23959 164.000
40.25954 126.000
40.27949 136.000
40.29943 144.000
40.31938 158.000
40.33933 135.000
40.35928 165.000
40.37922 141.000
40.39917 143.000
40.41912 127.000
40.43906 141.000
40.45901 159.000
40.47896 172.000
40.49890 168.000
40.51885 136.000
40.53880 138.000
40.55875 137.000
40.57869 139.000
40.59864 140.000
40.61859 162.000
40.63853 141.000
40.65848 123.000
40.67843 126.000
40.69837 132.000
40.71832 127.000
40.73827 138.000
40.75822 122.000
40.77816 146.000
40.79811 145.000
40.81806 134.000
40.83800 121.000
40.85795 128.000
40.87790 141.000
40.89784 127.000
40.91779 138.000
40.93774 148.000
40.95768 127.000
40.97763 125.000
40.99758 145.000
41.01753 150.000
41.03747 133.000
41.05742 150.000
41.07737 125.000
41.09731 124.000
41.11726 122.000
41.13721 118.000
41.15715 131.000
41.17710 127.000
41.19705 134.000
41.21700 143.000
41.23694 132.000
41.25689 171.000
41.27684 130.000
41.29678 150.000
41.31673 124.000
41.33668 147.000
41.35662 133.000
41.37657 138.000
41.39652 138.000
41.41646 131.000
41.43641 112.000
41.45636 137.000
41.47631 124.000
41.49625 136.000
41.51620 126.000
41.53615 137.000
41.55609 131.000
41.57604 125.000
41.59599 137.000
41.61593 143.000
41.63588 134.000
41.65583 142.000
41.67578 126.000
41.69572 149.000
41.71567 152.000
41.73562 142.000
41.75556 123.000
41.77551 120.000
41.79546 156.000
41.81540 138.000
41.83535 141.000
41.85530 153.000
41.87524 148.000
41.89519 145.000
41.91514 154.000
41.93509 150.000
41.95503 164.000
41.97498 134.000
41.99493 128.000
42.01487 158.000
42.03482 157.000
42.05477 136.000
42.07471 142.000
42.09466 145.000
42.11461 161.000
42.13456 123.000
42.15450 151.000
42.17445 130.000
42.19440 145.000
42.21434 145.000
42.23429 146.000
42.25424 130.000
42.27418 148.000
42.29413 148.000
42.31408 150.000
42.33403 176.000
42.35397 161.000
42.37392 147.000
42.39387 152.000
42.41381 162.000
42.43376 144.000
42.45371 145.000
42.47365 158.000
42.49360 152.000
42.51355 143.000
42.53349 170.000
42.55344 172.000
42.57339 162.000
42.59334 171.000
42.61328 164.000
42.63323 154.000
42.65318 146.000
42.67312 162.000
42.69307 138.000
42.71302 158.000
42.73296 178.000
42.75291 162.000
42.77286 152.000
42.79281 173.000
42.81275 173.000
42.83270 155.000
42.85265 165.000
42.87259 166.000
42.89254 188.000
42.91249 214.000
42.93243 195.000
42.95238 216.000
42.97233 240.000
42.99227 245.000
43.01222 281.000
43.03217 283.000
43.05212 315.000
43.07206 414.000
43.09201 482.000
43.11196 574.000
43.13190 898.000
43.15185 1187.000
43.17180 1484.000
43.19174 1703.000
43.21169 1875.000
43.23164 2023.000
43.25159 2233.000
43.27153 2114.000
43.29148 1936.000
43.31143 1654.000
43.33137 1364.000
43.35132 1409.000
43.37127 1307.000
43.39121 1168.000
43.41116 1041.000
43.43111 921.000
43.45105 831.000
43.47100 819.000
43.49095 913.000
43.51090 1007.000
43.53084 934.000
43.55079 867.000
43.57074 851.000
43.59068 897.000
43.61063 826.000
43.63058 713.000
43.65052 670.000
43.67047 606.000
43.69042 533.000
43.71037 457.000
43.73031 382.000
43.75026 322.000
43.77021 295.000
43.79015 249.000
43.81010 262.000
43.83005 242.000
43.84999 215.000
43.86994 201.000
43.88989 192.000
43.90984 182.000
43.92978 185.000
43.94973 179.000
43.96968 166.000
43.98962 171.000
44.00957 186.000
44.02952 179.000
44.04946 174.000
44.06941 176.000
44.08936 154.000
44.10930 145.000
44.12925 155.000
44.14920 137.000
44.16915 167.000
44.18909 144.000
44.20904 171.000
44.22899 140.000
44.24893 168.000
44.26888 175.000
44.28883 123.000
44.30877 151.000
44.32872 160.000
44.34867 141.000
44.36862 155.000
44.38856 160.000
44.40851 161.000
44.42846 140.000
44.44840 143.000
44.46835 170.000
44.48830 160.000
44.50824 146.000
44.52819 133.000
44.54814 132.000
44.56808 167.000
44.58803 146.000
44.60798 139.000
44.62793 140.000
44.64787 131.000
44.66782 156.000
44.68777 153.000
44.70771 141.000
44.72766 129.000
44.74761 151.000
44.76755 143.000
44.78750 130.000
44.80745 143.000
44.82740 171.000
44.84734 165.000
44.86729 136.000
44.88724 172.000
44.90718 150.000
44.92713 154.000
44.94708 165.000
44.96702 163.000
44.98697 167.000
45.00692 174.000
45.02686 213.000
45.04681 221.000
45.06676 188.000
45.08671 243.000
45.10665 240.000
45.12660 234.000
45.14655 258.000
45.16649 283.000
45.18644 255.000
45.20639 257.000
45.22633 254.000
45.24628 240.000
45.26623 229.000
45.28618 216.000
45.30612 234.000
45.32607 199.000
45.34602 216.000
45.36596 198.000
45.38591 163.000
45.40586 175.000
45.42580 182.000
45.44575 159.000
45.46570 168.000
45.48565 150.000
45.50559 176.000
45.52554 158.000
45.54549 155.000
45.56543 163.000
45.58538 151.000
45.60533 147.000
45.62527 164.000
45.64522 142.000
45.66517 173.000
45.68511 155.000
45.70506 154.000
45.72501 131.000
45.74496 128.000
45.76490 146.000
45.78485 115.000
45.80480 140.000
45.82474 152.000
45.84469 138.000
45.86464 114.000
45.88458 127.000
45.90453 136.000
45.92448 151.000
45.94443 118.000
45.96437 143.000
45.98432 142.000
46.00427 137.000
46.02421 127.000
46.04416 141.000
46.06411 122.000
46.08405 122.000
46.10400 116.000
46.12395 138.000
46.14389 113.000
46.16384 113.000
46.18379 118.000
46.20374 122.000
46.22368 134.000
46.24363 144.000
46.26358 138.000
46.28352 131.000
46.30347 118.000
46.32342 145.000
46.34336 142.000
46.36331 153.000
46.38326 113.000
46.40321 109.000
46.42315 123.000
46.44310 109.000
46.46305 131.000
46.48299 125.000
46.50294 125.000
46.52289 123.000
46.54283 127.000
46.56278 139.000
46.58273 144.000
46.60267 147.000
46.62262 109.000
46.64257 137.000
46.66252 146.000
46.68246 133.000
46.70241 128.000
46.72236 134.000
46.74230 160.000
46.76225 131.000
46.78220 112.000
46.80214 139.000
46.82209 112.000
46.84204 126.000
46.86199 131.000
46.88193 123.000
46.90188 150.000
46.92183 122.000
46.94177 133.000
46.96172 105.000
46.98167 143.000
47.00161 130.000
47.02156 121.000
47.04151 112.000
47.06146 146.000
47.08140 120.000
47.10135 158.000
47.12130 123.000
47.14124 124.000
47.16119 127.000
47.18114 121.000
47.20108 131.000
47.22103 138.000
47.24098 149.000
47.26092 130.000
47.28087 128.000
47.30082 125.000
47.32077 123.000
47.34071 134.000
47.36066 137.000
47.38061 131.000
47.40055 144.000
47.42050 133.000
47.44045 127.000
47.46039 149.000
47.48034 149.000
47.50029 123.000
47.52024 122.000
47.54018 162.000
47.56013 154.000
47.58008 143.000
47.60002 138.000
47.61997 127.000
47.63992 149.000
47.65986 152.000
47.67981 130.000
47.69976 136.000
47.71970 148.000
47.73965 161.000
47.75960 159.000
47.77955 118.000
47.79949 143.000
47.81944 125.000
47.83939 140.000
47.85933 129.000
47.87928 137.000
47.89923 158.000
47.91917 155.000
47.93912 169.000
47.95907 132.000
47.97902 179.000
47.99896 155.000
48.01891 182.000
48.03886 154.000
48.05880 164.000
48.07875 150.000
48.09870 164.000
48.11864 162.000
48.13859 180.000
48.15854 157.000
48.17848 189.000
48.19843 183.000
48.21838 189.000
48.23833 175.000
48.25827 171.000
48.27822 164.000
48.29817 189.000
48.31811 193.000
48.33806 188.000
48.35801 172.000
48.37795 173.000
48.39790 205.000
48.41785 186.000
48.43780 212.000
48.45774 229.000
48.47769 226.000
48.49764 251.000
48.51758 270.000
48.53753 285.000
48.55748 312.000
48.57742 366.000
48.59737 376.000
48.61732 389.000
48.63726 447.000
48.65721 538.000
48.67716 640.000
48.69711 794.000
48.71705 911.000
48.73700 1157.000
48.75695 1305.000
48.77689 1486.000
48.79684 1635.000
48.81679 1786.000
48.83673 1739.000
48.85668 1692.000
48.87663 1664.000
48.89658 1621.000
48.91652 1480.000
48.93647 1303.000
48.95642 1175.000
48.97636 1083.000
48.99631 983.000
49.01626 816.000
49.03620 704.000
49.05615 595.000
49.07610 572.000
49.09605 453.000
49.11599 393.000
49.13594 342.000
49.15589 339.000
49.17583 291.000
49.19578 250.000
49.21573 260.000
49.23567 250.000
49.25562 248.000
49.27557 223.000
49.29551 237.000
49.31546 196.000
49.33541 230.000
49.35536 173.000
49.37530 195.000
49.39525 191.000
49.41520 187.000
49.43514 167.000
49.45509 189.000
49.47504 173.000
49.49498 160.000
49.51493 175.000
49.53488 167.000
49.55483 146.000
49.57477 163.000
49.59472 148.000
49.61467 160.000
49.63461 168.000
49.65456 175.000
49.67451 139.000
49.69445 152.000
49.71440 157.000
49.73435 153.000
49.75429 147.000
49.77424 160.000
49.79419 147.000
49.81414 122.000
49.83408 150.000
49.85403 152.000
49.87398 152.000
49.89392 144.000
49.91387 134.000
49.93382 146.000
49.95376 143.000
49.97371 176.000
49.99366 138.000
50.01361 148.000
50.03355 120.000
50.05350 163.000
50.07345 129.000
50.09339 149.000
50.11334 159.000
50.13329 142.000
50.15323 129.000
50.17318 125.000
50.19313 143.000
50.21307 130.000
50.23302 135.000
50.25297 110.000
50.27292 132.000
50.29286 139.000
50.31281 157.000
50.33276 128.000
50.35270 150.000
50.37265 138.000
50.39260 131.000
50.41254 141.000
50.43249 117.000
50.45244 131.000
50.47239 123.000
50.49233 129.000
50.51228 113.000
50.53223 143.000
50.55217 132.000
50.57212 123.000
50.59207 152.000
50.61201 134.000
50.63196 101.000
50.65191 160.000
50.67186 113.000
50.69180 141.000
50.71175 109.000
50.73170 134.000
50.75164 138.000
50.77159 114.000
50.79154 139.000
50.81148 146.000
50.83143 154.000
50.85138 143.000
50.87132 123.000
50.89127 120.000
50.91122 141.000
50.93117 121.000
50.95111 135.000
50.97106 114.000
50.99101 126.000
51.01095 109.000
51.03090 144.000
51.05085 121.000
51.07079 101.000
51.09074 118.000
51.11069 124.000
51.13064 125.000
51.15058 115.000
51.17053 122.000
51.19048 124.000
51.21042 123.000
51.23037 120.000
51.25032 129.000
51.27026 126.000
51.29021 96.000
51.31016 136.000
51.33010 111.000
51.35005 131.000
51.37000 136.000
51.38995 122.000
51.40989 117.000
51.42984 118.000
51.44979 127.000
51.46973 139.000
51.48968 126.000
51.50963 126.000
51.52957 119.000
51.54952 134.000
51.56947 111.000
51.58942 119.000
51.60936 126.000
51.62931 132.000
51.64926 120.000
51.66920 108.000
51.68915 130.000
51.70910 114.000
51.72904 145.000
51.74899 118.000
51.76894 151.000
51.78888 119.000
51.80883 124.000
51.82878 132.000
51.84873 113.000
51.86867 148.000
51.88862 142.000
51.90857 160.000
51.92851 147.000
51.94846 132.000
51.96841 161.000
51.98835 130.000
52.00830 166.000
52.02825 175.000
52.04820 165.000
52.06814 152.000
52.08809 148.000
52.10804 172.000
52.12798 155.000
52.14793 151.000
52.16788 153.000
52.18782 139.000
52.20777 158.000
52.22772 136.000
52.24767 153.000
52.26761 135.000
52.28756 150.000
52.30751 141.000
52.32745 144.000
52.34740 132.000
52.36735 118.000
52.38729 130.000
52.40724 126.000
52.42719 118.000
52.44713 109.000
52.46708 120.000
52.48703 131.000
52.50698 130.000
52.52692 114.000
52.54687 127.000
52.56682 117.000
52.58676 135.000
52.60671 128.000
52.62666 118.000
52.64660 132.000
52.66655 118.000
52.68650 130.000
52.70645 120.000
52.72639 132.000
52.74634 132.000
52.76629 143.000
52.78623 147.000
52.80618 137.000
52.82613 161.000
52.84607 160.000
52.86602 154.000
52.88597 151.000
52.90591 145.000
52.92586 130.000
52.94581 162.000
52.96576 155.000
52.98570 133.000
53.00565 135.000
53.02560 146.000
53.04554 166.000
53.06549 131.000
53.08544 133.000
53.10538 129.000
53.12533 123.000
53.14528 123.000
53.16523 118.000
53.18517 153.000
53.20512 125.000
53.22507 118.000
53.24501 128.000
53.26496 137.000
53.28491 93.000
53.30485 133.000
53.32480 113.000
53.34475 111.000
53.36469 138.000
53.38464 128.000
53.40459 123.000
53.42454 113.000
53.44448 117.000
53.46443 132.000
53.48438 119.000
53.50432 119.000
53.52427 132.000
53.54422 142.000
53.56416 123.000
53.58411 128.000
53.60406 148.000
53.62401 126.000
53.64395 128.000
53.66390 114.000
53.68385 145.000
53.70379 128.000
53.72374 113.000
53.74369 131.000
53.76363 128.000
53.78358 108.000
53.80353 137.000
53.82348 128.000
53.84342 131.000
53.86337 140.000
53.88332 133.000
53.90326 142.000
53.92321 124.000
53.94316 134.000
53.96310 115.000
53.98305 117.000
54.00300 142.000
54.02294 143.000
54.04289 134.000
54.06284 130.000
54.08279 121.000
54.10273 110.000
54.12268 137.000
54.14263 113.000
54.16257 113.000
54.18252 92.000
54.20247 123.000
54.22241 134.000
54.24236 123.000
54.26231 129.000
54.28226 117.000
54.30220 130.000
54.32215 113.000
54.34210 125.000
54.36204 115.000
54.38199 128.000
54.40194 116.000
54.42188 113.000
54.44183 113.000
54.46178 112.000
54.48172 104.000
54.50167 128.000
54.52162 122.000
54.54157 117.000
54.56151 116.000
54.58146 115.000
54.60141 103.000
54.62135 123.000
54.64130 136.000
54.66125 119.000
54.68119 109.000
54.70114 135.000
54.72109 120.000
54.74104 119.000
54.76098 143.000
54.78093 118.000
54.80088 121.000
54.82082 122.000
54.84077 116.000
54.86072 113.000
54.88066 139.000
54.90061 119.000
54.92056 117.000
54.94050 100.000
54.96045 114.000
54.98040 125.000
55.00035 148.000
55.02029 127.000
55.04024 122.000
55.06019 128.000
55.08013 133.000
55.10008 139.000
55.12003 133.000
55.13997 121.000
55.15992 112.000
55.17987 116.000
55.19982 125.000
55.21976 127.000
55.23971 119.000
55.25966 131.000
55.27960 126.000
55.29955 114.000
55.31950 134.000
55.33944 139.000
55.35939 141.000
55.37934 128.000
55.39929 108.000
55.41923 123.000
55.43918 106.000
55.45913 121.000
55.47907 145.000
55.49902 129.000
55.51897 124.000
55.53891 106.000
55.55886 113.000
55.57881 124.000
55.59875 133.000
55.61870 121.000
55.63865 109.000
55.65860 97.000
55.67854 135.000
55.69849 130.000
55.71844 128.000
55.73838 97.000
55.75833 132.000
55.77828 108.000
55.79822 117.000
55.81817 109.000
55.83812 133.000
55.85807 139.000
55.87801 136.000
55.89796 125.000
55.91791 128.000
55.93785 125.000
55.95780 131.000
55.97775 124.000
55.99769 121.000
56.01764 115.000
56.03759 129.000
56.05753 126.000
56.07748 132.000
56.09743 132.000
56.11738 113.000
56.13732 119.000
56.15727 125.000
56.17722 109.000
56.19716 119.000
56.21711 123.000
56.23706 142.000
56.25700 126.000
56.27695 133.000
56.29690 112.000
56.31685 109.000
56.33679 120.000
56.35674 120.000
56.37669 128.000
56.39663 117.000
56.41658 123.000
56.43653 112.000
56.45647 136.000
56.47642 118.000
56.49637 112.000
56.51631 124.000
56.53626 119.000
56.55621 127.000
56.57616 135.000
56.59610 116.000
56.61605 132.000
56.63600 135.000
56.65594 114.000
56.67589 145.000
56.69584 139.000
56.71578 130.000
56.73573 130.000
56.75568 128.000
56.77563 125.000
56.79557 111.000
56.81552 139.000
56.83547 146.000
56.85541 126.000
56.87536 142.000
56.89531 132.000
56.91525 120.000
56.93520 135.000
56.95515 149.000
56.97510 104.000
56.99504 140.000
57.01499 109.000
57.03494 140.000
57.05488 120.000
57.07483 111.000
57.09478 122.000
57.11472 147.000
57.13467 136.000
57.15462 131.000
57.17456 176.000
57.19451 136.000
57.21446 144.000
57.23441 163.000
57.25435 156.000
57.27430 122.000
57.29425 149.000
57.31419 125.000
57.33414 152.000
57.35409 154.000
57.37403 157.000
57.39398 141.000
57.41393 149.000
57.43388 168.000
57.45382 139.000
57.47377 143.000
57.49372 122.000
57.51366 123.000
57.53361 143.000
57.55356 128.000
57.57350 121.000
57.59345 103.000
57.61340 147.000
57.63334 120.000
57.65329 132.000
57.67324 119.000
57.69319 124.000
57.71313 110.000
57.73308 111.000
57.75303 142.000
57.77297 110.000
57.79292 140.000
57.81287 127.000
57.83281 130.000
57.85276 129.000
57.87271 140.000
57.89266 111.000
57.91260 122.000
57.93255 140.000
57.95250 109.000
57.97244 129.000
57.99239 138.000
58.01234 98.000
58.03228 102.000
58.05223 133.000
58.07218 129.000
58.09212 107.000
58.11207 121.000
58.13202 138.000
58.15197 140.000
58.17191 110.000
58.19186 102.000
58.21181 126.000
58.23175 112.000
58.25170 114.000
58.27165 119.000
58.29159 132.000
58.31154 134.000
58.33149 134.000
58.35144 109.000
58.37138 116.000
58.39133 123.000
58.41128 122.000
58.43122 119.000
58.45117 112.000
58.47112 131.000
58.49106 104.000
58.51101 129.000
58.53096 112.000
58.55090 125.000
58.57085 136.000
58.59080 125.000
58.61075 117.000
58.63069 136.000
58.65064 106.000
58.67059 124.000
58.69053 128.000
58.71048 115.000
58.73043 127.000
58.75037 145.000
58.77032 124.000
58.79027 117.000
58.81022 123.000
58.83016 130.000
58.85011 109.000
58.87006 121.000
58.89000 131.000
58.90995 108.000
58.92990 134.000
58.94984 142.000
58.96979 126.000
58.98974 121.000
59.00969 125.000
59.02963 134.000
59.04958 142.000
59.06953 117.000
59.08947 137.000
59.10942 142.000
59.12937 127.000
59.14931 122.000
59.16926 133.000
59.18921 124.000
59.20915 125.000
59.22910 121.000
59.24905 110.000
59.26900 152.000
59.28894 127.000
59.30889 129.000
59.32884 129.000
59.34878 144.000
59.36873 123.000
59.38868 118.000
59.40862 154.000
59.42857 132.000
59.44852 125.000
59.46847 130.000
59.48841 113.000
59.50836 125.000
59.52831 132.000
59.54825 132.000
59.56820 117.000
59.58815 107.000
59.60809 126.000
59.62804 130.000
59.64799 126.000
59.66793 138.000
59.68788 135.000
59.70783 110.000
59.72778 118.000
59.74772 119.000
59.76767 130.000
59.78762 142.000
59.80756 110.000
59.82751 148.000
59.84746 119.000
59.86740 129.000
59.88735 126.000
59.90730 116.000
59.92725 113.000
59.94719 135.000
59.96714 133.000
59.98709 160.000
60.00703 109.000
60.02698 118.000
60.04693 114.000
60.06687 133.000
60.08682 117.000
60.10677 165.000
60.12671 149.000
60.14666 148.000
60.16661 134.000
60.18656 130.000
60.20650 135.000
60.22645 128.000
60.24640 142.000
60.26634 122.000
60.28629 131.000
60.30624 135.000
60.32618 122.000
60.34613 125.000
60.36608 131.000
60.38603 115.000
60.40597 122.000
60.42592 112.000
60.44587 138.000
60.46581 131.000
60.48576 123.000
60.50571 131.000
60.52565 132.000
60.54560 126.000
60.56555 145.000
60.58550 141.000
60.60544 156.000
60.62539 134.000
60.64534 138.000
60.66528 145.000
60.68523 130.000
60.70518 109.000
60.72512 146.000
60.74507 111.000
60.76502 140.000
60.78496 151.000
60.80491 126.000
60.82486 131.000
60.84481 145.000
60.86475 146.000
60.88470 146.000
60.90465 141.000
60.92459 135.000
60.94454 125.000
60.96449 135.000
60.98443 150.000
61.00438 110.000
61.02433 142.000
61.04428 125.000
61.06422 132.000
61.08417 129.000
61.10412 140.000
61.12406 126.000
61.14401 137.000
61.16396 142.000
61.18390 145.000
61.20385 137.000
61.22380 127.000
61.24374 123.000
61.26369 131.000
61.28364 146.000
61.30359 146.000
61.32353 131.000
61.34348 144.000
61.36343 145.000
61.38337 119.000
61.40332 163.000
61.42327 145.000
61.44321 152.000
61.46316 151.000
61.48311 137.000
61.50306 153.000
61.52300 156.000
61.54295 144.000
61.56290 147.000
61.58284 133.000
61.60279 174.000
61.62274 166.000
61.64268 148.000
61.66263 163.000
61.68258 151.000
61.70252 170.000
61.72247 192.000
61.74242 198.000
61.76237 187.000
61.78231 219.000
61.80226 198.000
61.82221 216.000
61.84215 229.000
61.86210 248.000
61.88205 314.000
61.90199 315.000
61.92194 343.000
61.94189 356.000
61.96184 402.000
61.98178 481.000
62.00173 555.000
62.02168 573.000
62.04162 683.000
62.06157 707.000
62.08152 762.000
62.10146 751.000
62.12141 735.000
62.14136 705.000
62.16131 677.000
62.18125 657.000
62.20120 611.000
62.22115 580.000
62.24109 602.000
62.26104 617.000
62.28099 523.000
62.30093 531.000
62.32088 454.000
62.34083 419.000
62.36077 336.000
62.38072 356.000
62.40067 350.000
62.42062 309.000
62.44056 249.000
62.46051 297.000
62.48046 243.000
62.50040 253.000
62.52035 265.000
62.54030 228.000
62.56024 244.000
62.58019 290.000
62.60014 270.000
62.62009 241.000
62.64003 312.000
62.65998 365.000
62.67993 415.000
62.69987 509.000
62.71982 574.000
62.73977 664.000
62.75971 751.000
62.77966 892.000
62.79961 913.000
62.81955 922.000
62.83950 890.000
62.85945 819.000
62.87940 829.000
62.89934 733.000
62.91929 715.000
62.93924 649.000
62.95918 609.000
62.97913 639.000
62.99908 583.000
63.01902 527.000
63.03897 489.000
63.05892 427.000
63.07887 375.000
63.09881 355.000
63.11876 252.000
63.13871 228.000
63.15865 217.000
63.17860 195.000
63.19855 204.000
63.21849 177.000
63.23844 178.000
63.25839 171.000
63.27833 148.000
63.29828 148.000
63.31823 169.000
63.33818 127.000
63.35812 158.000
63.37807 139.000
63.39802 146.000
63.41796 126.000
63.43791 154.000
63.45786 145.000
63.47780 156.000
63.49775 146.000
63.51770 143.000
63.53765 141.000
63.55759 161.000
63.57754 152.000
63.59749 130.000
63.61743 143.000
63.63738 116.000
63.65733 128.000
63.67727 161.000
63.69722 138.000
63.71717 147.000
63.73712 145.000
63.75706 136.000
63.77701 126.000
63.79696 154.000
63.81690 149.000
63.83685 148.000
63.85680 147.000
63.87674 142.000
63.89669 143.000
63.91664 115.000
63.93658 128.000
63.95653 165.000
63.97648 134.000
63.99643 148.000
64.01637 129.000
64.03632 162.000
64.05627 160.000
64.07621 153.000
64.09616 150.000
64.11611 192.000
64.13605 167.000
64.15600 161.000
64.17595 169.000
64.19590 179.000
64.21584 197.000
64.23579 213.000
64.25574 254.000
64.27568 282.000
64.29563 310.000
64.31558 378.000
64.33552 421.000
64.35547 447.000
64.37542 536.000
64.39536 573.000
64.41531 567.000
64.43526 535.000
64.45521 550.000
64.47515 578.000
64.49510 609.000
64.51505 604.000
64.53499 608.000
64.55494 618.000
64.57489 642.000
64.59483 599.000
64.61478 548.000
64.63473 443.000
64.65468 438.000
64.67462 443.000
64.69457 371.000
64.71452 390.000
64.73446 325.000
64.75441 301.000
64.77436 305.000
64.79430 263.000
64.81425 262.000
64.83420 240.000
64.85414 194.000
64.87409 185.000
64.89404 161.000
64.91399 164.000
64.93393 157.000
64.95388 171.000
64.97383 164.000
64.99377 130.000
65.01372 150.000
65.03367 143.000
65.05361 138.000
65.07356 118.000
65.09351 168.000
65.11346 146.000
65.13340 146.000
65.15335 159.000
65.17330 159.000
65.19324 153.000
65.21319 145.000
65.23314 156.000
65.25308 135.000
65.27303 130.000
65.29298 140.000
65.31293 138.000
65.33287 152.000
65.35282 133.000
65.37277 152.000
65.39271 142.000
65.41266 153.000
65.43261 159.000
65.45255 133.000
65.47250 147.000
65.49245 147.000
65.51239 147.000
65.53234 143.000
65.55229 147.000
65.57224 154.000
65.59218 153.000
65.61213 161.000
65.63208 166.000
65.65202 143.000
65.67197 140.000
65.69192 162.000
65.71186 139.000
65.73181 139.000
65.75176 136.000
65.77171 161.000
65.79165 122.000
65.81160 157.000
65.83155 158.000
65.85149 143.000
65.87144 168.000
65.89139 152.000
65.91133 148.000
65.93128 145.000
65.95123 140.000
65.97117 132.000
65.99112 162.000
66.01107 147.000
66.03102 152.000
66.05096 137.000
66.07091 157.000
66.09086 148.000
66.11080 153.000
66.13075 136.000
66.15070 138.000
66.17064 120.000
66.19059 146.000
66.21054 150.000
66.23049 148.000
66.25043 130.000
66.27038 149.000
66.29033 153.000
66.31027 139.000
66.33022 140.000
66.35017 143.000
66.37011 133.000
66.39006 163.000
66.41001 155.000
66.42995 165.000
66.44990 152.000
66.46985 158.000
66.48980 171.000
66.50974 174.000
66.52969 163.000
66.54964 180.000
66.56958 188.000
66.58953 167.000
66.60948 183.000
66.62942 205.000
66.64937 252.000
66.66932 254.000
66.68927 283.000
66.70921 285.000
66.72916 325.000
66.74911 353.000
66.76905 393.000
66.78900 420.000
66.80895 414.000
66.82889 448.000
66.84884 429.000
66.86879 445.000
66.88874 477.000
66.90868 466.000
66.92863 490.000
66.94858 470.000
66.96852 494.000
66.98847 544.000
67.00842 540.000
67.02836 497.000
67.04831 462.000
67.06826 408.000
67.08820 391.000
67.10815 358.000
67.12810 394.000
67.14805 315.000
67.16799 312.000
67.18794 304.000
67.20789 276.000
67.22783 275.000
67.24778 239.000
67.26773 227.000
67.28767 210.000
67.30762 191.000
67.32757 204.000
67.34752 183.000
67.36746 159.000
67.38741 160.000
67.40736 149.000
67.42730 157.000
67.44725 129.000
67.46720 152.000
67.48714 131.000
67.50709 146.000
67.52704 136.000
67.54698 129.000
67.56693 135.000
67.58688 120.000
67.60683 131.000
67.62677 130.000
67.64672 128.000
67.66667 152.000
67.68661 116.000
67.70656 124.000
67.72651 123.000
67.74645 114.000
67.76640 152.000
67.78635 139.000
67.80630 107.000
67.82624 111.000
67.84619 134.000
67.86614 124.000
67.88608 145.000
67.90603 121.000
67.92598 139.000
67.94592 117.000
67.96587 135.000
67.98582 127.000
68.00576 124.000
68.02571 119.000
68.04566 138.000
68.06561 119.000
68.08555 128.000
68.10550 134.000
68.12545 151.000
68.14539 172.000
68.16534 144.000
68.18529 134.000
68.20523 110.000
68.22518 127.000
68.24513 147.000
68.26508 124.000
68.28502 125.000
68.30497 119.000
68.32492 118.000
68.34486 123.000
68.36481 127.000
68.38476 145.000
68.40470 122.000
68.42465 114.000
68.44460 98.000
68.46455 145.000
68.48449 117.000
68.50444 103.000
68.52439 139.000
68.54433 127.000
68.56428 113.000
68.58423 107.000
68.60417 117.000
68.62412 117.000
68.64407 133.000
68.66401 143.000
68.68396 113.000
68.70391 126.000
68.72386 130.000
68.74380 116.000
68.76375 134.000
68.78370 119.000
68.80364 113.000
68.82359 133.000
68.84354 115.000
68.86348 106.000
68.88343 153.000
68.90338 122.000
68.92333 133.000
68.94327 141.000
68.96322 108.000
68.98317 115.000
69.00311 127.000
69.02306 107.000
69.04301 129.000
69.06295 98.000
69.08290 122.000
69.10285 115.000
69.12279 122.000
69.14274 143.000
69.16269 131.000
69.18264 138.000
69.20258 117.000
69.22253 126.000
69.24248 137.000
69.26242 135.000
69.28237 132.000
69.30232 103.000
69.32226 137.000
69.34221 133.000
69.36216 120.000
69.38211 126.000
69.40205 112.000
69.42200 113.000
69.44195 140.000
69.46189 122.000
69.48184 118.000
69.50179 129.000
69.52173 130.000
69.54168 114.000
69.56163 118.000
69.58157 113.000
69.60152 104.000
69.62147 138.000
69.64142 128.000
69.66136 117.000
69.68131 133.000
69.70126 103.000
69.72120 117.000
69.74115 117.000
69.76110 162.000
69.78104 121.000
69.80099 138.000
69.82094 133.000
69.84089 140.000
69.86083 109.000
69.88078 141.000
69.90073 129.000
69.92067 134.000
69.94062 112.000
69.96057 117.000
69.98051 122.000
70.00046 131.000
70.02041 122.000
70.04035 122.000
70.06030 154.000
70.08025 124.000
70.10020 125.000
70.12014 149.000
70.14009 137.000
70.16004 112.000
70.17998 137.000
70.19993 114.000
70.21988 115.000
70.23982 103.000
70.25977 114.000
70.27972 128.000
70.29967 113.000
70.31961 123.000
70.33956 131.000
70.35951 105.000
70.37945 117.000
70.39940 122.000
70.41935 114.000
70.43929 125.000
70.45924 118.000
70.47919 116.000
70.49914 115.000
70.51908 127.000
70.53903 130.000
70.55898 129.000
70.57892 112.000
70.59887 109.000
70.61882 128.000
70.63876 154.000
70.65871 110.000
70.67866 133.000
70.69860 158.000
70.71855 129.000
70.73850 138.000
70.75845 120.000
70.77839 148.000
70.79834 112.000
70.81829 117.000
70.83823 124.000
70.85818 110.000
70.87813 128.000
70.89807 127.000
70.91802 133.000
70.93797 98.000
70.95792 98.000
70.97786 120.000
70.99781 113.000
71.01776 133.000
71.03770 107.000
71.05765 99.000
71.07760 137.000
71.09754 111.000
71.11749 109.000
71.13744 117.000
71.15738 114.000
71.17733 140.000
71.19728 122.000
71.21723 116.000
71.23717 122.000
71.25712 138.000
71.27707 116.000
71.29701 113.000
71.31696 123.000
71.33691 131.000
71.35685 127.000
71.37680 128.000
71.39675 127.000
71.41670 125.000
71.43664 129.000
71.45659 110.000
71.47654 139.000
71.49648 117.000
71.51643 117.000
71.53638 144.000
71.55632 116.000
71.57627 110.000
71.59622 100.000
71.61616 113.000
71.63611 118.000
71.65606 117.000
71.67601 114.000
71.69595 120.000
71.71590 125.000
71.73585 130.000
71.75579 126.000
71.77574 105.000
71.79569 133.000
71.81563 110.000
71.83558 124.000
71.85553 126.000
71.87548 120.000
71.89542 116.000
71.91537 123.000
71.93532 101.000
71.95526 91.000
71.97521 138.000
71.99516 116.000
72.01510 110.000
72.03505 120.000
72.05500 126.000
72.07495 115.000
72.09489 106.000
72.11484 99.000
72.13479 111.000
72.15473 126.000
72.17468 116.000
72.19463 109.000
72.21457 125.000
72.23452 109.000
72.25447 121.000
72.27441 138.000
72.29436 115.000
72.31431 120.000
72.33426 128.000
72.35420 103.000
72.37415 108.000
72.39410 132.000
72.41404 112.000
72.43399 132.000
72.45394 113.000
72.47388 121.000
72.49383 145.000
72.51378 131.000
72.53373 123.000
72.55367 118.000
72.57362 113.000
72.59357 119.000
72.61351 112.000
72.63346 123.000
72.65341 122.000
72.67335 127.000
72.69330 138.000
72.71325 126.000
72.73319 131.000
72.75314 102.000
72.77309 138.000
72.79304 152.000
72.81298 129.000
72.83293 132.000
72.85288 124.000
72.87282 117.000
72.89277 129.000
72.91272 130.000
72.93266 119.000
72.95261 126.000
72.97256 121.000
72.99251 127.000
73.01245 111.000
73.03240 111.000
73.05235 127.000
73.07229 95.000
73.09224 107.000
73.11219 120.000
73.13213 131.000
73.15208 119.000
73.17203 97.000
73.19197 121.000
73.21192 139.000
73.23187 131.000
73.25182 149.000
73.27176 135.000
73.29171 141.000
73.31166 111.000
73.33160 142.000
73.35155 146.000
73.37150 136.000
73.39144 140.000
73.41139 141.000
73.43134 141.000
73.45129 125.000
73.47123 154.000
73.49118 116.000
73.51113 152.000
73.53107 144.000
73.55102 165.000
73.57097 164.000
73.59091 157.000
73.61086 155.000
73.63081 172.000
73.65076 190.000
73.67070 203.000
73.69065 197.000
73.71060 217.000
73.73054 220.000
73.75049 247.000
73.77044 227.000
73.79038 224.000
73.81033 271.000
73.83028 262.000
73.85022 262.000
73.87017 250.000
73.89012 256.000
73.91007 257.000
73.93001 231.000
73.94996 240.000
73.96991 213.000
73.98985 223.000
74.00980 227.000
74.02975 216.000
74.04969 206.000
74.06964 217.000
74.08959 188.000
74.10954 195.000
74.12948 173.000
74.14943 192.000
74.16938 166.000
74.18932 168.000
74.20927 140.000
74.22922 143.000
74.24916 140.000
74.26911 137.000
74.28906 127.000
74.30900 137.000
74.32895 134.000
74.34890 147.000
74.36885 133.000
74.38879 116.000
74.40874 131.000
74.42869 116.000
74.44863 142.000
74.46858 131.000
74.48853 153.000
74.50847 136.000
74.52842 119.000
74.54837 121.000
74.56832 134.000
74.58826 145.000
74.60821 126.000
74.62816 130.000
74.64810 123.000
74.66805 137.000
74.68800 123.000
74.70794 115.000
74.72789 121.000
74.74784 131.000
74.76778 118.000
74.78773 112.000
74.80768 120.000
74.82763 132.000
74.84757 121.000
74.86752 126.000
74.88747 118.000
74.90741 128.000
74.92736 145.000
74.94731 122.000
74.96725 141.000
74.98720 126.000
75.00715 129.000
75.02710 138.000
75.04704 139.000
75.06699 131.000
75.08694 138.000
75.10688 149.000
75.12683 148.000
75.14678 155.000
75.16672 161.000
75.18667 186.000
75.20662 188.000
75.22657 213.000
75.24651 257.000
75.26646 288.000
75.28641 344.000
75.30635 339.000
75.32630 362.000
75.34625 379.000
75.36619 375.000
75.38614 379.000
75.40609 333.000
75.42603 287.000
75.44598 282.000
75.46593 276.000
75.48588 293.000
75.50582 248.000
75.52577 253.000
75.54572 271.000
75.56566 271.000
75.58561 253.000
75.60556 250.000
75.62550 212.000
75.64545 210.000
75.66540 204.000
75.68535 186.000
75.70529 172.000
75.72524 174.000
75.74519 159.000
75.76513 154.000
75.78508 153.000
75.80503 158.000
75.82497 136.000
75.84492 157.000
75.86487 149.000
75.88481 147.000
75.90476 139.000
75.92471 154.000
75.94466 132.000
75.96460 147.000
75.98455 143.000
76.00450 170.000
76.02444 171.000
76.04439 163.000
76.06434 190.000
76.08428 231.000
76.10423 165.000
76.12418 199.000
76.14413 182.000
76.16407 174.000
76.18402 156.000
76.20397 159.000
76.22391 152.000
76.24386 157.000
76.26381 174.000
76.28375 152.000
76.30370 181.000
76.32365 153.000
76.34359 151.000
76.36354 134.000
76.38349 147.000
76.40344 144.000
76.42338 135.000
76.44333 125.000
76.46328 137.000
76.48322 146.000
76.50317 128.000
76.52312 113.000
76.54306 134.000
76.56301 137.000
76.58296 106.000
76.60291 123.000
76.62285 138.000
76.64280 115.000
76.66275 134.000
76.68269 126.000
76.70264 121.000
76.72259 131.000
76.74253 119.000
76.76248 139.000
76.78243 113.000
76.80238 132.000
76.82232 120.000
76.84227 117.000
76.86222 139.000
76.88216 130.000
76.90211 121.000
76.92206 142.000
76.94200 123.000
76.96195 148.000
76.98190 124.000
77.00184 127.000
77.02179 133.000
77.04174 137.000
77.06169 117.000
77.08163 117.000
77.10158 130.000
77.12153 98.000
77.14147 128.000
77.16142 144.000
77.18137 129.000
77.20131 135.000
77.22126 134.000
77.24121 137.000
77.26116 146.000
77.28110 122.000
77.30105 148.000
77.32100 156.000
77.34094 130.000
77.36089 111.000
77.38084 131.000
77.40078 137.000
77.42073 110.000
77.44068 155.000
77.46062 143.000
77.48057 115.000
77.50052 145.000
77.52047 127.000
77.54041 127.000
77.56036 139.000
77.58031 136.000
77.60025 124.000
77.62020 126.000
77.64015 131.000
77.66009 141.000
77.68004 136.000
77.69999 135.000
77.71994 145.000
77.73988 138.000
77.75983 143.000
77.77978 140.000
77.79972 148.000
77.81967 143.000
77.83962 135.000
77.85956 128.000
77.87951 145.000
77.89946 159.000
77.91940 143.000
77.93935 159.000
77.95930 162.000
77.97925 168.000
77.99919 179.000
78.01914 194.000
78.03909 199.000
78.05903 232.000
78.07898 236.000
78.09893 209.000
78.11887 276.000
78.13882 256.000
78.15877 253.000
78.17872 265.000
78.19866 268.000
78.21861 286.000
78.23856 301.000
78.25850 347.000
78.27845 340.000
78.29840 334.000
78.31834 357.000
78.33829 379.000
78.35824 386.000
78.37819 368.000
78.39813 389.000
78.41808 387.000
78.43803 330.000
78.45797 352.000
78.47792 338.000
78.49787 306.000
78.51781 319.000
78.53776 283.000
78.55771 288.000
78.57765 297.000
78.59760 285.000
78.61755 277.000
78.63750 268.000
78.65744 266.000
78.67739 254.000
78.69734 251.000
78.71728 223.000
78.73723 218.000
78.75718 197.000
78.77712 170.000
78.79707 193.000
78.81702 169.000
78.83697 163.000
78.85691 156.000
78.87686 166.000
78.89681 187.000
78.91675 154.000
78.93670 141.000
78.95665 170.000
78.97659 163.000
78.99654 154.000
79.01649 147.000
79.03643 150.000
79.05638 151.000
79.07633 166.000
79.09628 166.000
79.11622 157.000
79.13617 147.000
79.15612 175.000
79.17606 162.000
79.19601 193.000
79.21596 204.000
79.23590 231.000
79.25585 267.000
79.27580 278.000
79.29575 304.000
79.31569 288.000
79.33564 317.000
79.35559 292.000
79.37553 282.000
79.39548 289.000
79.41543 235.000
79.43537 237.000
79.45532 244.000
79.47527 239.000
79.49521 247.000
79.51516 220.000
79.53511 246.000
79.55506 218.000
79.57500 229.000
79.59495 225.000
79.61490 192.000
79.63484 226.000
79.65479 178.000
79.67474 157.000
79.69468 179.000
79.71463 154.000
79.73458 154.000
79.75453 151.000
79.77447 147.000
79.79442 112.000
79.81437 130.000
79.83431 116.000
79.85426 130.000
79.87421 164.000
79.89415 134.000
79.91410 132.000
79.93405 139.000
79.95399 118.000
79.97394 123.000
79.99389 113.000
80.01384 109.000
80.03378 130.000
80.05373 126.000
80.07368 146.000
80.09362 126.000
80.11357 133.000
80.13352 132.000
80.15346 113.000
80.17341 125.000
80.19336 147.000
80.21331 114.000
80.23325 132.000
80.25320 129.000
80.27315 98.000
80.29309 121.000
80.31304 122.000
80.33299 132.000
80.35293 134.000
80.37288 125.000
80.39283 133.000
80.41278 124.000
80.43272 137.000
80.45267 117.000
80.47262 158.000
80.49256 128.000
80.51251 107.000
80.53246 112.000
80.55240 112.000
80.57235 107.000
80.59230 107.000
80.61224 130.000
80.63219 129.000
80.65214 115.000
80.67209 130.000
80.69203 126.000
80.71198 125.000
80.73193 139.000
80.75187 128.000
80.77182 122.000
80.79177 115.000
80.81171 106.000
80.83166 130.000
80.85161 128.000
80.87156 157.000
80.89150 120.000
80.91145 126.000
80.93140 139.000
80.95134 139.000
80.97129 131.000
80.99124 122.000
81.01118 144.000
81.03113 156.000
81.05108 141.000
81.07102 130.000
81.09097 148.000
81.11092 121.000
81.13087 139.000
81.15081 139.000
81.17076 125.000
81.19071 134.000
81.21065 133.000
81.23060 141.000
81.25055 139.000
81.27049 131.000
81.29044 143.000
81.31039 134.000
81.33034 133.000
81.35028 139.000
81.37023 130.000
81.39018 124.000
81.41012 145.000
81.43007 127.000
81.45002 121.000
81.46996 122.000
81.48991 125.000
81.50986 116.000
81.52980 115.000
81.54975 113.000
81.56970 116.000
81.58965 109.000
81.60959 128.000
81.62954 115.000
81.64949 104.000
81.66943 109.000
81.68938 133.000
81.70933 109.000
81.72927 121.000
81.74922 144.000
81.76917 110.000
81.78912 117.000
81.80906 120.000
81.82901 120.000
81.84896 109.000
81.86890 109.000
81.88885 131.000
81.90880 122.000
81.92874 109.000
81.94869 111.000
81.96864 119.000
81.98859 108.000
82.00853 127.000
82.02848 127.000
82.04843 110.000
82.06837 128.000
82.08832 128.000
82.10827 126.000
82.12821 112.000
82.14816 123.000
82.16811 117.000
82.18805 136.000
82.20800 107.000
82.22795 133.000
82.24790 115.000
82.26784 138.000
82.28779 128.000
82.30774 112.000
82.32768 132.000
82.34763 128.000
82.36758 130.000
82.38752 124.000
82.40747 111.000
82.42742 124.000
82.44737 99.000
82.46731 138.000
82.48726 116.000
82.50721 121.000
82.52715 122.000
82.54710 132.000
82.56705 140.000
82.58699 128.000
82.60694 117.000
82.62689 121.000
82.64683 114.000
82.66678 112.000
82.68673 130.000
82.70668 102.000
82.72662 116.000
82.74657 124.000
82.76652 117.000
82.78646 128.000
82.80641 118.000
82.82636 93.000
82.84630 110.000
82.86625 108.000
82.88620 112.000
82.90615 121.000
82.92609 125.000
82.94604 106.000
82.96599 115.000
82.98593 116.000
83.00588 109.000
83.02583 122.000
83.04577 130.000
83.06572 108.000
83.08567 130.000
83.10561 124.000
83.12556 121.000
83.14551 129.000
83.16546 109.000
83.18540 106.000
83.20535 112.000
83.22530 108.000
83.24524 102.000
83.26519 92.000
83.28514 111.000
83.30508 108.000
83.32503 110.000
83.34498 126.000
83.36493 110.000
83.38487 109.000
83.40482 142.000
83.42477 127.000
83.44471 122.000
83.46466 118.000
83.48461 112.000
83.50455 104.000
83.52450 111.000
83.54445 130.000
83.56440 104.000
83.58434 121.000
83.60429 118.000
83.62424 113.000
83.64418 130.000
83.66413 98.000
83.68408 132.000
83.70402 96.000
83.72397 116.000
83.74392 148.000
83.76386 128.000
83.78381 109.000
83.80376 95.000
83.82371 126.000
83.84365 106.000
83.86360 139.000
83.88355 121.000
83.90349 123.000
83.92344 112.000
83.94339 118.000
83.96333 136.000
83.98328 114.000
84.00323 126.000
84.02318 116.000
84.04312 136.000
84.06307 122.000
84.08302 129.000
84.10296 118.000
84.12291 134.000
84.14286 138.000
84.16280 124.000
84.18275 131.000
84.20270 126.000
84.22264 128.000
84.24259 137.000
84.26254 148.000
84.28249 156.000
84.30243 134.000
84.32238 144.000
84.34233 134.000
84.36227 140.000
84.38222 128.000
84.40217 124.000
84.42211 126.000
84.44206 131.000
84.46201 139.000
84.48196 132.000
84.50190 121.000
84.52185 137.000
84.54180 155.000
84.56174 162.000
84.58169 166.000
84.60164 164.000
84.62158 139.000
84.64153 199.000
84.66148 189.000
84.68142 187.000
84.70137 207.000
84.72132 179.000
84.74127 215.000
84.76121 190.000
84.78116 193.000
84.80111 206.000
84.82105 185.000
84.84100 221.000
84.86095 211.000
84.88089 232.000
84.90084 244.000
84.92079 254.000
84.94074 249.000
84.96068 241.000
84.98063 258.000
85.00058 255.000
85.02052 245.000
85.04047 231.000
85.06042 243.000
85.08036 255.000
85.10031 209.000
85.12026 204.000
85.14021 216.000
85.16015 222.000
85.18010 205.000
85.20005 197.000
85.21999 204.000
85.23994 193.000
85.25989 174.000
85.27983 167.000
85.29978 168.000
85.31973 180.000
85.33967 162.000
85.35962 155.000
85.37957 156.000
85.39952 148.000
85.41946 145.000
85.43941 186.000
85.45936 141.000
85.47930 140.000
85.49925 130.000
85.51920 138.000
85.53914 145.000
85.55909 149.000
85.57904 134.000
85.59899 138.000
85.61893 135.000
85.63888 132.000
85.65883 124.000
85.67877 116.000
85.69872 134.000
85.71867 119.000
85.73861 131.000
85.75856 134.000
85.77851 132.000
85.79845 143.000
85.81840 135.000
85.83835 113.000
85.85830 110.000
85.87824 127.000
85.89819 135.000
85.91814 127.000
85.93808 125.000
85.95803 128.000
85.97798 122.000
85.99792 126.000
86.01787 131.000
86.03782 117.000
86.05777 118.000
86.07771 120.000
86.09766 119.000
86.11761 122.000
86.13755 126.000
86.15750 124.000
86.17745 122.000
86.19739 109.000
86.21734 128.000
86.23729 128.000
86.25723 95.000
86.27718 122.000
86.29713 124.000
86.31708 112.000
86.33702 125.000
86.35697 103.000
86.37692 133.000
86.39686 109.000
86.41681 132.000
86.43676 117.000
86.45670 119.000
86.47665 121.000
86.49660 118.000
86.51655 100.000
86.53649 122.000
86.55644 140.000
86.57639 124.000
86.59633 142.000
86.61628 107.000
86.63623 126.000
86.65617 126.000
86.67612 129.000
86.69607 133.000
86.71602 122.000
86.73596 119.000
86.75591 121.000
86.77586 126.000
86.79580 135.000
86.81575 119.000
86.83570 141.000
86.85564 124.000
86.87559 120.000
86.89554 138.000
86.91548 127.000
86.93543 134.000
86.95538 154.000
86.97533 156.000
86.99527 130.000
87.01522 128.000
87.03517 122.000
87.05511 152.000
87.07506 125.000
87.09501 139.000
87.11495 135.000
87.13490 132.000
87.15485 145.000
87.17480 134.000
87.19474 144.000
87.21469 147.000
87.23464 147.000
87.25458 144.000
87.27453 159.000
87.29448 167.000
87.31442 193.000
87.33437 153.000
87.35432 142.000
87.37426 149.000
87.39421 164.000
87.41416 160.000
87.43411 141.000
87.45405 130.000
87.47400 142.000
87.49395 127.000
87.51389 153.000
87.53384 148.000
87.55379 166.000
87.57373 136.000
87.59368 150.000
87.61363 122.000
87.63358 143.000
87.65352 163.000
87.67347 146.000
87.69342 158.000
87.71336 137.000
87.73331 139.000
87.75326 155.000
87.77320 148.000
87.79315 130.000
87.81310 152.000
87.83304 151.000
87.85299 150.000
87.87294 121.000
87.89289 128.000
87.91283 125.000
87.93278 135.000
87.95273 136.000
87.97267 134.000
87.99262 140.000
88.01257 129.000
88.03251 103.000
88.05246 118.000
88.07241 115.000
88.09236 131.000
88.11230 125.000
88.13225 130.000
88.15220 109.000
88.17214 141.000
88.19209 133.000
88.21204 123.000
88.23198 114.000
88.25193 133.000
88.27188 110.000
88.29183 130.000
88.31177 123.000
88.33172 129.000
88.35167 115.000
88.37161 133.000
88.39156 127.000
88.41151 106.000
88.43145 109.000
88.45140 127.000
88.47135 106.000
88.49129 114.000
88.51124 129.000
88.53119 119.000
88.55114 105.000
88.57108 123.000
88.59103 112.000
88.61098 120.000
88.63092 124.000
88.65087 113.000
88.67082 109.000
88.69076 123.000
88.71071 115.000
88.73066 106.000
88.75061 120.000
88.77055 118.000
88.79050 111.000
88.81045 133.000
88.83039 114.000
88.85034 92.000
88.87029 111.000
88.89023 109.000
88.91018 125.000
88.93013 116.000
88.95007 118.000
88.97002 121.000
88.98997 106.000
89.00992 130.000
89.02986 109.000
89.04981 114.000
89.06976 133.000
89.08970 121.000
89.10965 134.000
89.12960 130.000
89.14954 107.000
89.16949 113.000
89.18944 125.000
89.20939 113.000
89.22933 112.000
89.24928 111.000
89.26923 108.000
89.28917 109.000
89.30912 83.000
89.32907 142.000
89.34901 112.000
89.36896 111.000
89.38891 122.000
89.40885 120.000
89.42880 110.000
89.44875 118.000
89.46870 123.000
89.48864 120.000
89.50859 106.000
89.52854 117.000
89.54848 125.000
89.56843 109.000
89.58838 129.000
89.60832 117.000
89.62827 137.000
89.64822 113.000
89.66817 111.000
89.68811 118.000
89.70806 114.000
89.72801 113.000
89.74795 130.000
89.76790 118.000
89.78785 127.000
89.80779 103.000
89.82774 128.000
89.84769 113.000
89.86764 103.000
89.88758 110.000
89.90753 104.000
89.92748 111.000
89.94742 115.000
89.96737 123.000
89.98732 138.000
90.00726 107.000
