10.00000 73.000
10.01995 93.000
10.03989 79.000
10.05984 101.000
10.07979 62.000
10.09973 80.000
10.11968 92.000
10.13963 91.000
10.15958 90.000
10.17952 108.000
10.19947 89.000
10.21942 99.000
10.23936 102.000
10.25931 98.000
10.27926 80.000
10.29920 91.000
10.31915 83.000
10.33910 87.000
10.35905 81.000
10.37899 87.000
10.39894 103.000
10.41889 80.000
10.43883 80.000
10.45878 86.000
10.47873 80.000
10.49867 82.000
10.51862 74.000
10.53857 99.000
10.55851 73.000
10.57846 98.000
10.59841 95.000
10.61836 79.000
10.63830 95.000
10.65825 86.000
10.67820 67.000
10.69814 114.000
10.71809 90.000
10.73804 69.000
10.75798 90.000
10.77793 86.000
10.79788 81.000
10.81783 71.000
10.83777 83.000
10.85772 96.000
10.87767 92.000
10.89761 78.000
10.91756 96.000
10.93751 112.000
10.95745 93.000
10.97740 80.000
10.99735 89.000
11.01730 88.000
11.03724 107.000
11.05719 95.000
11.07714 69.000
11.09708 89.000
11.11703 92.000
11.13698 82.000
11.15692 84.000
11.17687 106.000
11.19682 101.000
11.21676 91.000
11.23671 95.000
11.25666 97.000
11.27661 95.000
11.29655 82.000
11.31650 86.000
11.33645 86.000
11.35639 91.000
11.37634 89.000
11.39629 92.000
11.41623 79.000
11.43618 89.000
11.45613 103.000
11.47608 104.000
11.49602 96.000
11.51597 85.000
11.53592 90.000
11.55586 91.000
11.57581 75.000
11.59576 101.000
11.61570 97.000
11.63565 99.000
11.65560 96.000
11.67554 91.000
11.69549 100.000
11.71544 97.000
11.73539 84.000
11.75533 90.000
11.77528 84.000
11.79523 95.000
11.81517 88.000
11.83512 106.000
11.85507 122.000
11.87501 107.000
11.89496 97.000
11.91491 107.000
11.93486 94.000
11.95480 89.000
11.97475 83.000
11.99470 110.000
12.01464 89.000
12.03459 93.000
12.05454 106.000
12.07448 87.000
12.09443 90.000
12.11438 90.000
12.13432 94.000
12.15427 94.000
12.17422 93.000
12.19417 98.000
12.21411 104.000
12.23406 93.000
12.25401 98.000
12.27395 71.000
12.29390 100.000
12.31385 84.000
12.33379 96.000
12.35374 94.000
12.37369 96.000
12.39364 103.000
12.41358 89.000
12.43353 90.000
12.45348 113.000
12.47342 99.000
12.49337 96.000
12.51332 97.000
12.53326 94.000
12.55321 105.000
12.57316 95.000
12.59311 102.000
12.61305 107.000
12.63300 89.000
12.65295 90.000
12.67289 91.000
12.69284 101.000
12.71279 121.000
12.73273 95.000
12.75268 109.000
12.77263 91.000
12.79257 108.000
12.81252 113.000
12.83247 115.000
12.85242 104.000
12.87236 91.000
12.89231 110.000
12.91226 84.000
12.93220 98.000
12.95215 76.000
12.97210 103.000
12.99204 109.000
13.01199 90.000
13.03194 75.000
13.05189 104.000
13.07183 107.000
13.09178 103.000
13.11173 114.000
13.13167 127.000
13.15162 112.000
13.17157 106.000
13.19151 107.000
13.21146 95.000
13.23141 108.000
13.25135 138.000
13.27130 108.000
13.29125 98.000
13.31120 91.000
13.33114 112.000
13.35109 109.000
13.37104 128.000
13.39098 96.000
13.41093 104.000
13.43088 121.000
13.45082 82.000
13.47077 113.000
13.49072 96.000
13.51067 93.000
13.53061 125.000
13.55056 108.000
13.57051 114.000
13.59045 91.000
13.61040 116.000
13.63035 109.000
13.65029 108.000
13.67024 103.000
13.69019 102.000
13.71013 101.000
13.73008 113.000
13.75003 102.000
13.76998 108.000
13.78992 112.000
13.80987 115.000
13.82982 114.000
13.84976 125.000
13.86971 98.000
13.88966 131.000
13.90960 118.000
13.92955 108.000
13.94950 115.000
13.96945 120.000
13.98939 101.000
14.00934 117.000
14.02929 99.000
14.04923 112.000
14.06918 124.000
14.08913 95.000
14.10907 114.000
14.12902 96.000
14.14897 109.000
14.16892 91.000
14.18886 114.000
14.20881 102.000
14.22876 108.000
14.24870 119.000
14.26865 117.000
14.28860 108.000
14.30854 104.000
14.32849 111.000
14.34844 113.000
14.36838 106.000
14.38833 116.000
14.40828 118.000
14.42823 105.000
14.44817 105.000
14.46812 116.000
14.48807 114.000
14.50801 119.000
14.52796 113.000
14.54791 117.000
14.56785 116.000
14.58780 116.000
14.60775 124.000
14.62770 100.000
14.64764 117.000
14.66759 128.000
14.68754 110.000
14.70748 114.000
14.72743 126.000
14.74738 133.000
14.76732 132.000
14.78727 117.000
14.80722 108.000
14.82716 108.000
14.84711 116.000
14.86706 138.000
14.88701 123.000
14.90695 112.000
14.92690 119.000
14.94685 111.000
14.96679 110.000
14.98674 107.000
15.00669 118.000
15.02663 128.000
15.04658 121.000
15.06653 124.000
15.08648 122.000
15.10642 127.000
15.12637 120.000
15.14632 122.000
15.16626 160.000
15.18621 134.000
15.20616 133.000
15.22610 111.000
15.24605 114.000
15.26600 132.000
15.28594 142.000
15.30589 133.000
15.32584 125.000
15.34579 128.000
15.36573 146.000
15.38568 126.000
15.40563 147.000
15.42557 120.000
15.44552 154.000
15.46547 146.000
15.48541 179.000
15.50536 147.000
15.52531 147.000
15.54526 141.000
15.56520 126.000
15.58515 111.000
15.60510 154.000
15.62504 136.000
15.64499 121.000
15.66494 158.000
15.68488 141.000
15.70483 139.000
15.72478 139.000
15.74472 163.000
15.76467 141.000
15.78462 146.000
15.80457 145.000
15.82451 152.000
15.84446 161.000
15.86441 132.000
15.88435 149.000
15.90430 152.000
15.92425 155.000
15.94419 150.000
15.96414 135.000
15.98409 150.000
16.00404 152.000
16.02398 130.000
16.04393 159.000
16.06388 136.000
16.08382 140.000
16.10377 148.000
16.12372 142.000
16.14366 140.000
16.16361 156.000
16.18356 152.000
16.20351 175.000
16.22345 153.000
16.24340 162.000
16.26335 135.000
16.28329 159.000
16.30324 166.000
16.32319 182.000
16.34313 172.000
16.36308 164.000
16.38303 152.000
16.40297 177.000
16.42292 173.000
16.44287 160.000
16.46282 187.000
16.48276 155.000
16.50271 186.000
16.52266 159.000
16.54260 176.000
16.56255 154.000
16.58250 167.000
16.60244 183.000
16.62239 183.000
16.64234 184.000
16.66229 154.000
16.68223 171.000
16.70218 169.000
16.72213 188.000
16.74207 176.000
16.76202 192.000
16.78197 177.000
16.80191 178.000
16.82186 187.000
16.84181 163.000
16.86175 174.000
16.88170 194.000
16.90165 194.000
16.92160 189.000
16.94154 196.000
16.96149 183.000
16.98144 201.000
17.00138 195.000
17.02133 187.000
17.04128 211.000
17.06122 208.000
17.08117 214.000
17.10112 210.000
17.12107 198.000
17.14101 215.000
17.16096 187.000
17.18091 215.000
17.20085 220.000
17.22080 227.000
17.24075 235.000
17.26069 210.000
17.28064 222.000
17.30059 215.000
17.32053 219.000
17.34048 212.000
17.36043 217.000
17.38038 242.000
17.40032 203.000
17.42027 222.000
17.44022 194.000
17.46016 210.000
17.48011 210.000
17.50006 220.000
17.52000 226.000
17.53995 216.000
17.55990 232.000
17.57985 221.000
17.59979 222.000
17.61974 255.000
17.63969 243.000
17.65963 222.000
17.67958 216.000
17.69953 240.000
17.71947 244.000
17.73942 249.000
17.75937 259.000
17.77932 266.000
17.79926 243.000
17.81921 280.000
17.83916 233.000
17.85910 259.000
17.87905 250.000
17.89900 247.000
17.91894 245.000
17.93889 247.000
17.95884 260.000
17.97878 249.000
17.99873 256.000
18.01868 258.000
18.03863 284.000
18.05857 245.000
18.07852 259.000
18.09847 264.000
18.11841 286.000
18.13836 250.000
18.15831 283.000
18.17825 243.000
18.19820 235.000
18.21815 278.000
18.23810 270.000
18.25804 268.000
18.27799 291.000
18.29794 285.000
18.31788 298.000
18.33783 270.000
18.35778 282.000
18.37772 259.000
18.39767 290.000
18.41762 296.000
18.43756 292.000
18.45751 289.000
18.47746 302.000
18.49741 319.000
18.51735 289.000
18.53730 281.000
18.55725 306.000
18.57719 285.000
18.59714 298.000
18.61709 284.000
18.63703 291.000
18.65698 291.000
18.67693 309.000
18.69688 293.000
18.71682 286.000
18.73677 281.000
18.75672 287.000
18.77666 298.000
18.79661 281.000
18.81656 306.000
18.83650 306.000
18.85645 292.000
18.87640 336.000
18.89634 325.000
18.91629 339.000
18.93624 314.000
18.95619 338.000
18.97613 325.000
18.99608 287.000
19.01603 305.000
19.03597 316.000
19.05592 343.000
19.07587 323.000
19.09581 333.000
19.11576 310.000
19.13571 348.000
19.15566 326.000
19.17560 345.000
19.19555 295.000
19.21550 347.000
19.23544 359.000
19.25539 321.000
19.27534 346.000
19.29528 354.000
19.31523 326.000
19.33518 334.000
19.35513 309.000
19.37507 304.000
19.39502 363.000
19.41497 319.000
19.43491 322.000
19.45486 343.000
19.47481 357.000
19.49475 348.000
19.51470 308.000
19.53465 379.000
19.55459 349.000
19.57454 359.000
19.59449 328.000
19.61444 353.000
19.63438 331.000
19.65433 343.000
19.67428 335.000
19.69422 353.000
19.71417 333.000
19.73412 365.000
19.75406 387.000
19.77401 349.000
19.79396 361.000
19.81391 354.000
19.83385 345.000
19.85380 356.000
19.87375 375.000
19.89369 355.000
19.91364 379.000
19.93359 388.000
19.95353 371.000
19.97348 343.000
19.99343 340.000
20.01337 371.000
20.03332 333.000
20.05327 366.000
20.07322 375.000
20.09316 362.000
20.11311 366.000
20.13306 394.000
20.15300 388.000
20.17295 374.000
20.19290 414.000
20.21284 375.000
20.23279 354.000
20.25274 377.000
20.27269 350.000
20.29263 356.000
20.31258 423.000
20.33253 385.000
20.35247 366.000
20.37242 399.000
20.39237 406.000
20.41231 375.000
20.43226 383.000
20.45221 372.000
20.47215 396.000
20.49210 391.000
20.51205 399.000
20.53200 366.000
20.55194 411.000
20.57189 403.000
20.59184 432.000
20.61178 379.000
20.63173 422.000
20.65168 411.000
20.67162 434.000
20.69157 443.000
20.71152 432.000
20.73147 394.000
20.75141 376.000
20.77136 388.000
20.79131 402.000
20.81125 408.000
20.83120 398.000
20.85115 417.000
20.87109 415.000
20.89104 441.000
20.91099 411.000
20.93094 410.000
20.95088 406.000
20.97083 390.000
20.99078 353.000
21.01072 404.000
21.03067 411.000
21.05062 409.000
21.07056 425.000
21.09051 443.000
21.11046 432.000
21.13040 400.000
21.15035 413.000
21.17030 437.000
21.19025 406.000
21.21019 427.000
21.23014 404.000
21.25009 391.000
21.27003 425.000
21.28998 402.000
21.30993 444.000
21.32987 455.000
21.34982 460.000
21.36977 477.000
21.38972 480.000
21.40966 451.000
21.42961 437.000
21.44956 470.000
21.46950 454.000
21.48945 439.000
21.50940 464.000
21.52934 446.000
21.54929 404.000
21.56924 436.000
21.58918 391.000
21.60913 410.000
21.62908 457.000
21.64903 454.000
21.66897 435.000
21.68892 485.000
21.70887 431.000
21.72881 433.000
21.74876 452.000
21.76871 428.000
21.78865 461.000
21.80860 456.000
21.82855 435.000
21.84850 457.000
21.86844 438.000
21.88839 438.000
21.90834 457.000
21.92828 469.000
21.94823 440.000
21.96818 440.000
21.98812 485.000
22.00807 447.000
22.02802 452.000
22.04796 447.000
22.06791 435.000
22.08786 438.000
22.10781 449.000
22.12775 438.000
22.14770 420.000
22.16765 505.000
22.18759 492.000
22.20754 460.000
22.22749 468.000
22.24743 433.000
22.26738 465.000
22.28733 464.000
22.30728 441.000
22.32722 441.000
22.34717 473.000
22.36712 478.000
22.38706 450.000
22.40701 492.000
22.42696 448.000
22.44690 462.000
22.46685 516.000
22.48680 472.000
22.50675 481.000
22.52669 445.000
22.54664 492.000
22.56659 463.000
22.58653 499.000
22.60648 503.000
22.62643 512.000
22.64637 452.000
22.66632 434.000
22.68627 460.000
22.70621 476.000
22.72616 494.000
22.74611 501.000
22.76606 488.000
22.78600 480.000
22.80595 468.000
22.82590 477.000
22.84584 474.000
22.86579 498.000
22.88574 485.000
22.90568 478.000
22.92563 487.000
22.94558 528.000
22.96553 521.000
22.98547 519.000
23.00542 484.000
23.02537 473.000
23.04531 498.000
23.06526 499.000
23.08521 510.000
23.10515 516.000
23.12510 461.000
23.14505 520.000
23.16499 517.000
23.18494 524.000
23.20489 466.000
23.22484 542.000
23.24478 535.000
23.26473 543.000
23.28468 523.000
23.30462 526.000
23.32457 521.000
23.34452 534.000
23.36446 501.000
23.38441 522.000
23.40436 495.000
23.42431 539.000
23.44425 498.000
23.46420 498.000
23.48415 517.000
23.50409 526.000
23.52404 509.000
23.54399 524.000
23.56393 535.000
23.58388 481.000
23.60383 501.000
23.62377 520.000
23.64372 550.000
23.66367 550.000
23.68362 553.000
23.70356 524.000
23.72351 541.000
23.74346 526.000
23.76340 521.000
23.78335 532.000
23.80330 523.000
23.82324 563.000
23.84319 584.000
23.86314 555.000
23.88309 595.000
23.90303 501.000
23.92298 580.000
23.94293 561.000
23.96287 533.000
23.98282 542.000
24.00277 515.000
24.02271 546.000
24.04266 588.000
24.06261 557.000
24.08256 563.000
24.10250 552.000
24.12245 572.000
24.14240 580.000
24.16234 560.000
24.18229 513.000
24.20224 572.000
24.22218 580.000
24.24213 557.000
24.26208 574.000
24.28202 582.000
24.30197 613.000
24.32192 591.000
24.34187 531.000
24.36181 590.000
24.38176 576.000
24.40171 568.000
24.42165 614.000
24.44160 549.000
24.46155 550.000
24.48149 618.000
24.50144 576.000
24.52139 584.000
24.54134 615.000
24.56128 591.000
24.58123 601.000
24.60118 579.000
24.62112 609.000
24.64107 587.000
24.66102 636.000
24.68096 621.000
24.70091 632.000
24.72086 625.000
24.74080 565.000
24.76075 617.000
24.78070 567.000
24.80065 624.000
24.82059 616.000
24.84054 587.000
24.86049 635.000
24.88043 606.000
24.90038 616.000
24.92033 603.000
24.94027 643.000
24.96022 677.000
24.98017 642.000
25.00012 585.000
25.02006 644.000
25.04001 669.000
25.05996 635.000
25.07990 628.000
25.09985 631.000
25.11980 653.000
25.13974 645.000
25.15969 658.000
25.17964 646.000
25.19958 649.000
25.21953 658.000
25.23948 620.000
25.25943 692.000
25.27937 669.000
25.29932 620.000
25.31927 667.000
25.33921 671.000
25.35916 679.000
25.37911 668.000
25.39905 649.000
25.41900 617.000
25.43895 656.000
25.45890 639.000
25.47884 673.000
25.49879 681.000
25.51874 671.000
25.53868 730.000
25.55863 737.000
25.57858 724.000
25.59852 675.000
25.61847 696.000
25.63842 733.000
25.65837 693.000
25.67831 716.000
25.69826 655.000
25.71821 733.000
25.73815 759.000
25.75810 714.000
25.77805 722.000
25.79799 726.000
25.81794 651.000
25.83789 714.000
25.85783 712.000
25.87778 676.000
25.89773 696.000
25.91768 732.000
25.93762 738.000
25.95757 761.000
25.97752 755.000
25.99746 720.000
26.01741 751.000
26.03736 768.000
26.05730 773.000
26.07725 760.000
26.09720 763.000
26.11715 720.000
26.13709 806.000
26.15704 751.000
26.17699 753.000
26.19693 767.000
26.21688 785.000
26.23683 738.000
26.25677 791.000
26.27672 758.000
26.29667 768.000
26.31661 765.000
26.33656 759.000
26.35651 828.000
26.37646 755.000
26.39640 752.000
26.41635 773.000
26.43630 771.000
26.45624 793.000
26.47619 742.000
26.49614 786.000
26.51608 864.000
26.53603 774.000
26.55598 792.000
26.57593 768.000
26.59587 755.000
26.61582 772.000
26.63577 809.000
26.65571 830.000
26.67566 774.000
26.69561 789.000
26.71555 764.000
26.73550 804.000
26.75545 849.000
26.77539 904.000
26.79534 817.000
26.81529 812.000
26.83524 848.000
26.85518 782.000
26.87513 867.000
26.89508 830.000
26.91502 856.000
26.93497 804.000
26.95492 835.000
26.97486 807.000
26.99481 891.000
27.01476 865.000
27.03471 829.000
27.05465 825.000
27.07460 917.000
27.09455 828.000
27.11449 850.000
27.13444 855.000
27.15439 840.000
27.17433 874.000
27.19428 810.000
27.21423 847.000
27.23417 870.000
27.25412 869.000
27.27407 880.000
27.29402 873.000
27.31396 896.000
27.33391 818.000
27.35386 894.000
27.37380 874.000
27.39375 881.000
27.41370 878.000
27.43364 864.000
27.45359 887.000
27.47354 917.000
27.49349 893.000
27.51343 859.000
27.53338 886.000
27.55333 895.000
27.57327 868.000
27.59322 822.000
27.61317 856.000
27.63311 907.000
27.65306 846.000
27.67301 879.000
27.69296 895.000
27.71290 883.000
27.73285 914.000
27.75280 933.000
27.77274 900.000
27.79269 870.000
27.81264 934.000
27.83258 907.000
27.85253 935.000
27.87248 867.000
27.89242 890.000
27.91237 917.000
27.93232 942.000
27.95227 924.000
27.97221 958.000
27.99216 971.000
28.01211 987.000
28.03205 884.000
28.05200 938.000
28.07195 909.000
28.09189 924.000
28.11184 889.000
28.13179 945.000
28.15174 935.000
28.17168 947.000
28.19163 965.000
28.21158 881.000
28.23152 914.000
28.25147 902.000
28.27142 913.000
28.29136 968.000
28.31131 928.000
28.33126 938.000
28.35120 909.000
28.37115 941.000
28.39110 1006.000
28.41105 954.000
28.43099 963.000
28.45094 983.000
28.47089 935.000
28.49083 974.000
28.51078 981.000
28.53073 958.000
28.55067 1033.000
28.57062 895.000
28.59057 987.000
28.61052 965.000
28.63046 948.000
28.65041 936.000
28.67036 969.000
28.69030 953.000
28.71025 966.000
28.73020 925.000
28.75014 965.000
28.77009 969.000
28.79004 1000.000
28.80998 974.000
28.82993 1033.000
28.84988 956.000
28.86983 1004.000
28.88977 994.000
28.90972 994.000
28.92967 961.000
28.94961 1027.000
28.96956 1007.000
28.98951 974.000
29.00945 993.000
29.02940 988.000
29.04935 963.000
29.06930 996.000
29.08924 1007.000
29.10919 1005.000
29.12914 1008.000
29.14908 1004.000
29.16903 980.000
29.18898 1020.000
29.20892 953.000
29.22887 1026.000
29.24882 973.000
29.26877 1084.000
29.28871 898.000
29.30866 1025.000
29.32861 977.000
29.34855 1040.000
29.36850 1043.000
29.38845 1014.000
29.40839 1011.000
29.42834 1015.000
29.44829 966.000
29.46823 1019.000
29.48818 1043.000
29.50813 991.000
29.52808 941.000
29.54802 1041.000
29.56797 978.000
29.58792 1051.000
29.60786 976.000
29.62781 997.000
29.64776 1010.000
29.66770 965.000
29.68765 966.000
29.70760 1000.000
29.72755 980.000
29.74749 932.000
29.76744 996.000
29.78739 979.000
29.80733 920.000
29.82728 995.000
29.84723 972.000
29.86717 1028.000
29.88712 995.000
29.90707 975.000
29.92701 1002.000
29.94696 952.000
29.96691 1027.000
29.98686 953.000
30.00680 970.000
30.02675 977.000
30.04670 974.000
30.06664 998.000
30.08659 992.000
30.10654 969.000
30.12648 996.000
30.14643 946.000
30.16638 973.000
30.18633 954.000
30.20627 994.000
30.22622 967.000
30.24617 949.000
30.26611 946.000
30.28606 945.000
30.30601 933.000
30.32595 949.000
30.34590 957.000
30.36585 944.000
30.38579 938.000
30.40574 904.000
30.42569 1025.000
30.44564 982.000
30.46558 1035.000
30.48553 946.000
30.50548 965.000
30.52542 949.000
30.54537 999.000
30.56532 980.000
30.58526 1007.000
30.60521 963.000
30.62516 964.000
30.64511 902.000
30.66505 939.000
30.68500 966.000
30.70495 922.000
30.72489 931.000
30.74484 987.000
30.76479 922.000
30.78473 966.000
30.80468 928.000
30.82463 949.000
30.84458 936.000
30.86452 971.000
30.88447 985.000
30.90442 943.000
30.92436 970.000
30.94431 975.000
30.96426 948.000
30.98420 920.000
31.00415 919.000
31.02410 946.000
31.04404 996.000
31.06399 1004.000
31.08394 961.000
31.10389 966.000
31.12383 903.000
31.14378 974.000
31.16373 935.000
31.18367 914.000
31.20362 993.000
31.22357 912.000
31.24351 962.000
31.26346 941.000
31.28341 923.000
31.30336 968.000
31.32330 993.000
31.34325 905.000
31.36320 937.000
31.38314 912.000
31.40309 917.000
31.42304 915.000
31.44298 897.000
31.46293 938.000
31.48288 935.000
31.50282 891.000
31.52277 894.000
31.54272 850.000
31.56267 924.000
31.58261 929.000
31.60256 940.000
31.62251 879.000
31.64245 891.000
31.66240 936.000
31.68235 900.000
31.70229 918.000
31.72224 930.000
31.74219 921.000
31.76214 887.000
31.78208 912.000
31.80203 958.000
31.82198 912.000
31.84192 898.000
31.86187 927.000
31.88182 920.000
31.90176 888.000
31.92171 866.000
31.94166 894.000
31.96160 889.000
31.98155 912.000
32.00150 893.000
32.02145 858.000
32.04139 856.000
32.06134 902.000
32.08129 891.000
32.10123 871.000
32.12118 859.000
32.14113 909.000
32.16107 919.000
32.18102 867.000
32.20097 878.000
32.22092 897.000
32.24086 851.000
32.26081 887.000
32.28076 881.000
32.30070 902.000
32.32065 900.000
32.34060 893.000
32.36054 854.000
32.38049 892.000
32.40044 829.000
32.42039 834.000
32.44033 855.000
32.46028 870.000
32.48023 844.000
32.50017 821.000
32.52012 826.000
32.54007 873.000
32.56001 824.000
32.57996 828.000
32.59991 829.000
32.61985 824.000
32.63980 803.000
32.65975 827.000
32.67970 819.000
32.69964 833.000
32.71959 852.000
32.73954 843.000
32.75948 829.000
32.77943 810.000
32.79938 843.000
32.81932 841.000
32.83927 853.000
32.85922 815.000
32.87917 814.000
32.89911 832.000
32.91906 802.000
32.93901 810.000
32.95895 826.000
32.97890 847.000
32.99885 828.000
33.01879 775.000
33.03874 813.000
33.05869 788.000
33.07863 822.000
33.09858 811.000
33.11853 821.000
33.13848 821.000
33.15842 789.000
33.17837 842.000
33.19832 729.000
33.21826 778.000
33.23821 841.000
33.25816 795.000
33.27810 818.000
33.29805 769.000
33.31800 764.000
33.33795 808.000
33.35789 740.000
33.37784 820.000
33.39779 802.000
33.41773 775.000
33.43768 762.000
33.45763 799.000
33.47757 760.000
33.49752 774.000
33.51747 749.000
33.53741 790.000
33.55736 806.000
33.57731 736.000
33.59726 713.000
33.61720 733.000
33.63715 773.000
33.65710 776.000
33.67704 712.000
33.69699 706.000
33.71694 787.000
33.73688 746.000
33.75683 805.000
33.77678 800.000
33.79673 768.000
33.81667 750.000
33.83662 749.000
33.85657 721.000
33.87651 760.000
33.89646 779.000
33.91641 771.000
33.93635 797.000
33.95630 794.000
33.97625 745.000
33.99620 718.000
34.01614 699.000
34.03609 704.000
34.05604 712.000
34.07598 738.000
34.09593 778.000
34.11588 747.000
34.13582 707.000
34.15577 736.000
34.17572 707.000
34.19566 770.000
34.21561 758.000
34.23556 738.000
34.25551 745.000
34.27545 723.000
34.29540 678.000
34.31535 791.000
34.33529 710.000
34.35524 746.000
34.37519 735.000
34.39513 748.000
34.41508 751.000
34.43503 684.000
34.45498 729.000
34.47492 709.000
34.49487 727.000
34.51482 701.000
34.53476 750.000
34.55471 712.000
34.57466 655.000
34.59460 750.000
34.61455 755.000
34.63450 702.000
34.65444 672.000
34.67439 691.000
34.69434 688.000
34.71429 669.000
34.73423 698.000
34.75418 627.000
34.77413 692.000
34.79407 728.000
34.81402 665.000
34.83397 708.000
34.85391 698.000
34.87386 717.000
34.89381 697.000
34.91376 650.000
34.93370 734.000
34.95365 688.000
34.97360 683.000
34.99354 693.000
35.01349 695.000
35.03344 671.000
35.05338 673.000
35.07333 752.000
35.09328 704.000
35.11322 697.000
35.13317 624.000
35.15312 684.000
35.17307 639.000
35.19301 655.000
35.21296 716.000
35.23291 654.000
35.25285 677.000
35.27280 657.000
35.29275 649.000
35.31269 700.000
35.33264 673.000
35.35259 664.000
35.37254 663.000
35.39248 668.000
35.41243 660.000
35.43238 691.000
35.45232 626.000
35.47227 609.000
35.49222 676.000
35.51216 647.000
35.53211 636.000
35.55206 665.000
35.57201 700.000
35.59195 640.000
35.61190 629.000
35.63185 625.000
35.65179 676.000
35.67174 681.000
35.69169 650.000
35.71163 602.000
35.73158 712.000
35.75153 627.000
35.77147 602.000
35.79142 654.000
35.81137 632.000
35.83132 651.000
35.85126 663.000
35.87121 623.000
35.89116 656.000
35.91110 646.000
35.93105 682.000
35.95100 636.000
35.97094 671.000
35.99089 652.000
36.01084 640.000
36.03079 625.000
36.05073 641.000
36.07068 611.000
36.09063 692.000
36.11057 673.000
36.13052 661.000
36.15047 654.000
36.17041 651.000
36.19036 688.000
36.21031 710.000
36.23025 694.000
36.25020 708.000
36.27015 681.000
36.29010 690.000
36.31004 689.000
36.32999 733.000
36.34994 688.000
36.36988 779.000
36.38983 750.000
36.40978 765.000
36.42972 722.000
36.44967 809.000
36.46962 781.000
36.48957 847.000
36.50951 890.000
36.52946 954.000
36.54941 1020.000
36.56935 1010.000
36.58930 1069.000
36.60925 1198.000
36.62919 1314.000
36.64914 1427.000
36.66909 1650.000
36.68903 1819.000
36.70898 1900.000
36.72893 2106.000
36.74888 2237.000
36.76882 2441.000
36.78877 2560.000
36.80872 2562.000
36.82866 2773.000
36.84861 2894.000
36.86856 2923.000
36.88850 3046.000
36.90845 2941.000
36.92840 2883.000
36.94835 2573.000
36.96829 2329.000
36.98824 2124.000
37.00819 1861.000
37.02813 1610.000
37.04808 1409.000
37.06803 1153.000
37.08797 1026.000
37.10792 940.000
37.12787 855.000
37.14781 747.000
37.16776 784.000
37.18771 764.000
37.20766 736.000
37.22760 714.000
37.24755 716.000
37.26750 656.000
37.28744 642.000
37.30739 663.000
37.32734 660.000
37.34728 625.000
37.36723 648.000
37.38718 627.000
37.40713 647.000
37.42707 673.000
37.44702 648.000
37.46697 632.000
37.48691 594.000
37.50686 591.000
37.52681 594.000
37.54675 631.000
37.56670 599.000
37.58665 614.000
37.60660 569.000
37.62654 622.000
37.64649 601.000
37.66644 634.000
37.68638 618.000
37.70633 596.000
37.72628 623.000
37.74622 577.000
37.76617 597.000
37.78612 604.000
37.80606 602.000
37.82601 564.000
37.84596 577.000
37.86591 567.000
37.88585 587.000
37.90580 598.000
37.92575 611.000
37.94569 591.000
37.96564 553.000
37.98559 589.000
38.00553 607.000
38.02548 593.000
38.04543 584.000
38.06538 574.000
38.08532 589.000
38.10527 549.000
38.12522 616.000
38.14516 617.000
38.16511 596.000
38.18506 553.000
38.20500 566.000
38.22495 602.000
38.24490 580.000
38.26484 617.000
38.28479 564.000
38.30474 619.000
38.32469 561.000
38.34463 596.000
38.36458 564.000
38.38453 632.000
38.40447 564.000
38.42442 556.000
38.44437 597.000
38.46431 580.000
38.48426 620.000
38.50421 610.000
38.52416 637.000
38.54410 610.000
38.56405 600.000
38.58400 599.000
38.60394 610.000
38.62389 611.000
38.64384 545.000
38.66378 593.000
38.68373 589.000
38.70368 576.000
38.72362 589.000
38.74357 559.000
38.76352 618.000
38.78347 521.000
38.80341 574.000
38.82336 611.000
38.84331 586.000
38.86325 628.000
38.88320 554.000
38.90315 609.000
38.92309 554.000
38.94304 595.000
38.96299 610.000
38.98294 575.000
39.00288 554.000
39.02283 597.000
39.04278 550.000
39.06272 577.000
39.08267 604.000
39.10262 576.000
39.12256 581.000
39.14251 551.000
39.16246 560.000
39.18241 601.000
39.20235 580.000
39.22230 552.000
39.24225 566.000
39.26219 567.000
39.28214 564.000
39.30209 563.000
39.32203 544.000
39.34198 640.000
39.36193 609.000
39.38187 542.000
39.40182 605.000
39.42177 581.000
39.44172 574.000
39.46166 589.000
39.48161 581.000
39.50156 582.000
39.52150 622.000
39.54145 617.000
39.56140 588.000
39.58134 627.000
39.60129 642.000
39.62124 614.000
39.64119 586.000
39.66113 584.000
39.68108 593.000
39.70103 509.000
39.72097 594.000
39.74092 566.000
39.76087 580.000
39.78081 592.000
39.80076 526.000
39.82071 587.000
39.84065 584.000
39.86060 570.000
39.88055 602.000
39.90050 612.000
39.92044 546.000
39.94039 611.000
39.96034 572.000
39.98028 591.000
40.00023 578.000
40.02018 567.000
40.04012 553.000
40.06007 585.000
40.08002 627.000
40.09997 595.000
40.11991 585.000
40.13986 592.000
40.15981 572.000
40.17975 575.000
40.19970 615.000
40.21965 574.000
40.23959 554.000
40.25954 601.000
40.27949 563.000
40.29943 512.000
40.31938 610.000
40.33933 618.000
40.35928 621.000
40.37922 598.000
40.39917 559.000
40.41912 577.000
40.43906 614.000
40.45901 580.000
40.47896 576.000
40.49890 581.000
40.51885 557.000
40.53880 575.000
40.55875 573.000
40.57869 636.000
40.59864 555.000
40.61859 577.000
40.63853 618.000
40.65848 541.000
40.67843 619.000
40.69837 561.000
40.71832 550.000
40.73827 580.000
40.75822 599.000
40.77816 564.000
40.79811 561.000
40.81806 558.000
40.83800 556.000
40.85795 591.000
40.87790 587.000
40.89784 558.000
40.91779 570.000
40.93774 646.000
40.95768 575.000
40.97763 548.000
40.99758 581.000
41.01753 596.000
41.03747 577.000
41.05742 605.000
41.07737 605.000
41.09731 592.000
41.11726 564.000
41.13721 553.000
41.15715 584.000
41.17710 559.000
41.19705 580.000
41.21700 563.000
41.23694 629.000
41.25689 578.000
41.27684 538.000
41.29678 567.000
41.31673 563.000
41.33668 574.000
41.35662 530.000
41.37657 590.000
41.39652 579.000
41.41646 601.000
41.43641 565.000
41.45636 607.000
41.47631 572.000
41.49625 599.000
41.51620 569.000
41.53615 561.000
41.55609 559.000
41.57604 558.000
41.59599 554.000
41.61593 559.000
41.63588 581.000
41.65583 553.000
41.67578 601.000
41.69572 574.000
41.71567 541.000
41.73562 531.000
41.75556 598.000
41.77551 573.000
41.79546 620.000
41.81540 575.000
41.83535 638.000
41.85530 559.000
41.87524 544.000
41.89519 607.000
41.91514 620.000
41.93509 604.000
41.95503 545.000
41.97498 566.000
41.99493 598.000
42.01487 550.000
42.03482 558.000
42.05477 607.000
42.07471 592.000
42.09466 572.000
42.11461 585.000
42.13456 620.000
42.15450 653.000
42.17445 594.000
42.19440 583.000
42.21434 633.000
42.23429 631.000
42.25424 615.000
42.27418 656.000
42.29413 633.000
42.31408 754.000
42.33403 749.000
42.35397 706.000
42.37392 801.000
42.39387 822.000
42.41381 804.000
42.43376 891.000
42.45371 936.000
42.47365 965.000
42.49360 1021.000
42.51355 1047.000
42.53349 1083.000
42.55344 1172.000
42.57339 1241.000
42.59334 1299.000
42.61328 1449.000
42.63323 1555.000
42.65318 1741.000
42.67312 1958.000
42.69307 2209.000
42.71302 2490.000
42.73296 2713.000
42.75291 3120.000
42.77286 3342.000
42.79281 3686.000
42.81275 3946.000
42.83270 4223.000
42.85265 4556.000
42.87259 4656.000
42.89254 4949.000
42.91249 5089.000
42.93243 5134.000
42.95238 5093.000
42.97233 4692.000
42.99227 4069.000
43.01222 3570.000
43.03217 3184.000
43.05212 2914.000
43.07206 2500.000
43.09201 2112.000
43.11196 1723.000
43.13190 1443.000
43.15185 1212.000
43.17180 1062.000
43.19174 908.000
43.21169 882.000
43.23164 863.000
43.25159 712.000
43.27153 747.000
43.29148 697.000
43.31143 661.000
43.33137 694.000
43.35132 672.000
43.37127 594.000
43.39121 613.000
43.41116 589.000
43.43111 597.000
43.45105 598.000
43.47100 582.000
43.49095 574.000
43.51090 597.000
43.53084 554.000
43.55079 605.000
43.57074 563.000
43.59068 550.000
43.61063 542.000
43.63058 571.000
43.65052 568.000
43.67047 577.000
43.69042 563.000
43.71037 541.000
43.73031 540.000
43.75026 539.000
43.77021 528.000
43.79015 550.000
43.81010 566.000
43.83005 544.000
43.84999 546.000
43.86994 521.000
43.88989 539.000
43.90984 529.000
43.92978 568.000
43.94973 554.000
43.96968 518.000
43.98962 566.000
44.00957 500.000
44.02952 514.000
44.04946 546.000
44.06941 508.000
44.08936 487.000
44.10930 475.000
44.12925 490.000
44.14920 494.000
44.16915 457.000
44.18909 479.000
44.20904 519.000
44.22899 498.000
44.24893 514.000
44.26888 479.000
44.28883 513.000
44.30877 505.000
44.32872 476.000
44.34867 479.000
44.36862 507.000
44.38856 492.000
44.40851 521.000
44.42846 474.000
44.44840 508.000
44.46835 493.000
44.48830 474.000
44.50824 469.000
44.52819 503.000
44.54814 501.000
44.56808 531.000
44.58803 494.000
44.60798 500.000
44.62793 480.000
44.64787 492.000
44.66782 439.000
44.68777 455.000
44.70771 479.000
44.72766 460.000
44.74761 510.000
44.76755 484.000
44.78750 458.000
44.80745 462.000
44.82740 460.000
44.84734 457.000
44.86729 459.000
44.88724 502.000
44.90718 474.000
44.92713 474.000
44.94708 458.000
44.96702 477.000
44.98697 447.000
45.00692 458.000
45.02686 445.000
45.04681 452.000
45.06676 456.000
45.08671 421.000
45.10665 492.000
45.12660 450.000
45.14655 492.000
45.16649 441.000
45.18644 463.000
45.20639 447.000
45.22633 449.000
45.24628 467.000
45.26623 441.000
45.28618 478.000
45.30612 480.000
45.32607 425.000
45.34602 452.000
45.36596 459.000
45.38591 425.000
45.40586 425.000
45.42580 461.000
45.44575 472.000
45.46570 471.000
45.48565 470.000
45.50559 410.000
45.52554 459.000
45.54549 419.000
45.56543 416.000
45.58538 451.000
45.60533 449.000
45.62527 467.000
45.64522 445.000
45.66517 433.000
45.68511 412.000
45.70506 432.000
45.72501 446.000
45.74496 439.000
45.76490 423.000
45.78485 467.000
45.80480 454.000
45.82474 427.000
45.84469 488.000
45.86464 415.000
45.88458 433.000
45.90453 470.000
45.92448 505.000
45.94443 431.000
45.96437 416.000
45.98432 428.000
46.00427 463.000
46.02421 436.000
46.04416 403.000
46.06411 441.000
46.08405 427.000
46.10400 444.000
46.12395 434.000
46.14389 393.000
46.16384 414.000
46.18379 443.000
46.20374 442.000
46.22368 475.000
46.24363 399.000
46.26358 414.000
46.28352 405.000
46.30347 429.000
46.32342 395.000
46.34336 444.000
46.36331 448.000
46.38326 407.000
46.40321 443.000
46.42315 421.000
46.44310 450.000
46.46305 405.000
46.48299 413.000
46.50294 439.000
46.52289 408.000
46.54283 411.000
46.56278 405.000
46.58273 411.000
46.60267 428.000
46.62262 401.000
46.64257 422.000
46.66252 381.000
46.68246 435.000
46.70241 427.000
46.72236 413.000
46.74230 423.000
46.76225 421.000
46.78220 430.000
46.80214 455.000
46.82209 414.000
46.84204 415.000
46.86199 427.000
46.88193 405.000
46.90188 422.000
46.92183 403.000
46.94177 367.000
46.96172 401.000
46.98167 406.000
47.00161 427.000
47.02156 411.000
47.04151 418.000
47.06146 382.000
47.08140 401.000
47.10135 400.000
47.12130 405.000
47.14124 420.000
47.16119 385.000
47.18114 397.000
47.20108 378.000
47.22103 406.000
47.24098 396.000
47.26092 394.000
47.28087 405.000
47.30082 406.000
47.32077 401.000
47.34071 420.000
47.36066 407.000
47.38061 437.000
47.40055 414.000
47.42050 356.000
47.44045 413.000
47.46039 409.000
47.48034 414.000
47.50029 380.000
47.52024 367.000
47.54018 434.000
47.56013 427.000
47.58008 367.000
47.60002 397.000
47.61997 418.000
47.63992 387.000
47.65986 408.000
47.67981 398.000
47.69976 427.000
47.71970 369.000
47.73965 405.000
47.75960 396.000
47.77955 367.000
47.79949 397.000
47.81944 365.000
47.83939 435.000
47.85933 401.000
47.87928 385.000
47.89923 396.000
47.91917 437.000
47.93912 415.000
47.95907 399.000
47.97902 390.000
47.99896 363.000
48.01891 378.000
48.03886 398.000
48.05880 435.000
48.07875 401.000
48.09870 406.000
48.11864 403.000
48.13859 402.000
48.15854 413.000
48.17848 396.000
48.19843 395.000
48.21838 359.000
48.23833 401.000
48.25827 389.000
48.27822 402.000
48.29817 394.000
48.31811 359.000
48.33806 380.000
48.35801 399.000
48.37795 361.000
48.39790 382.000
48.41785 374.000
48.43780 362.000
48.45774 376.000
48.47769 379.000
48.49764 385.000
48.51758 361.000
48.53753 391.000
48.55748 423.000
48.57742 380.000
48.59737 374.000
48.61732 392.000
48.63726 386.000
48.65721 375.000
48.67716 370.000
48.69711 394.000
48.71705 398.000
48.73700 364.000
48.75695 340.000
48.77689 340.000
48.79684 368.000
48.81679 373.000
48.83673 378.000
48.85668 360.000
48.87663 394.000
48.89658 363.000
48.91652 405.000
48.93647 377.000
48.95642 373.000
48.97636 369.000
48.99631 358.000
49.01626 352.000
49.03620 389.000
49.05615 371.000
49.07610 347.000
49.09605 377.000
49.11599 386.000
49.13594 383.000
49.15589 380.000
49.17583 357.000
49.19578 402.000
49.21573 388.000
49.23567 415.000
49.25562 370.000
49.27557 397.000
49.29551 352.000
49.31546 377.000
49.33541 359.000
49.35536 381.000
49.37530 375.000
49.39525 372.000
49.41520 392.000
49.43514 392.000
49.45509 379.000
49.47504 377.000
49.49498 379.000
49.51493 373.000
49.53488 374.000
49.55483 383.000
49.57477 389.000
49.59472 372.000
49.61467 375.000
49.63461 352.000
49.65456 354.000
49.67451 389.000
49.69445 382.000
49.71440 376.000
49.73435 354.000
49.75429 375.000
49.77424 383.000
49.79419 386.000
49.81414 357.000
49.83408 380.000
49.85403 347.000
49.87398 363.000
49.89392 353.000
49.91387 352.000
49.93382 390.000
49.95376 371.000
49.97371 353.000
49.99366 345.000
50.01361 385.000
50.03355 394.000
50.05350 333.000
50.07345 363.000
50.09339 319.000
50.11334 327.000
50.13329 399.000
50.15323 357.000
50.17318 377.000
50.19313 345.000
50.21307 352.000
50.23302 376.000
50.25297 396.000
50.27292 400.000
50.29286 367.000
50.31281 354.000
50.33276 384.000
50.35270 374.000
50.37265 393.000
50.39260 354.000
50.41254 355.000
50.43249 336.000
50.45244 378.000
50.47239 341.000
50.49233 375.000
50.51228 365.000
50.53223 345.000
50.55217 362.000
50.57212 354.000
50.59207 341.000
50.61201 330.000
50.63196 397.000
50.65191 360.000
50.67186 338.000
50.69180 360.000
50.71175 353.000
50.73170 374.000
50.75164 367.000
50.77159 367.000
50.79154 383.000
50.81148 337.000
50.83143 364.000
50.85138 323.000
50.87132 358.000
50.89127 335.000
50.91122 348.000
50.93117 366.000
50.95111 386.000
50.97106 371.000
50.99101 349.000
51.01095 357.000
51.03090 371.000
51.05085 366.000
51.07079 330.000
51.09074 361.000
51.11069 346.000
51.13064 372.000
51.15058 378.000
51.17053 319.000
51.19048 312.000
51.21042 346.000
51.23037 374.000
51.25032 367.000
51.27026 362.000
51.29021 358.000
51.31016 399.000
51.33010 332.000
51.35005 333.000
51.37000 363.000
51.38995 375.000
51.40989 348.000
51.42984 378.000
51.44979 386.000
51.46973 342.000
51.48968 376.000
51.50963 358.000
51.52957 309.000
51.54952 373.000
51.56947 371.000
51.58942 382.000
51.60936 372.000
51.62931 354.000
51.64926 359.000
51.66920 355.000
51.68915 353.000
51.70910 349.000
51.72904 349.000
51.74899 389.000
51.76894 392.000
51.78888 357.000
51.80883 342.000
51.82878 357.000
51.84873 357.000
51.86867 351.000
51.88862 337.000
51.90857 360.000
51.92851 357.000
51.94846 409.000
51.96841 301.000
51.98835 339.000
52.00830 419.000
52.02825 348.000
52.04820 343.000
52.06814 324.000
52.08809 355.000
52.10804 383.000
52.12798 324.000
52.14793 330.000
52.16788 362.000
52.18782 355.000
52.20777 364.000
52.22772 325.000
52.24767 342.000
52.26761 362.000
52.28756 361.000
52.30751 365.000
52.32745 366.000
52.34740 368.000
52.36735 397.000
52.38729 348.000
52.40724 352.000
52.42719 326.000
52.44713 382.000
52.46708 323.000
52.48703 351.000
52.50698 345.000
52.52692 345.000
52.54687 338.000
52.56682 360.000
52.58676 361.000
52.60671 319.000
52.62666 342.000
52.64660 343.000
52.66655 325.000
52.68650 349.000
52.70645 366.000
52.72639 351.000
52.74634 316.000
52.76629 340.000
52.78623 336.000
52.80618 301.000
52.82613 386.000
52.84607 320.000
52.86602 367.000
52.88597 336.000
52.90591 347.000
52.92586 354.000
52.94581 345.000
52.96576 339.000
52.98570 330.000
53.00565 339.000
53.02560 348.000
53.04554 334.000
53.06549 367.000
53.08544 356.000
53.10538 341.000
53.12533 354.000
53.14528 321.000
53.16523 342.000
53.18517 334.000
53.20512 344.000
53.22507 370.000
53.24501 351.000
53.26496 362.000
53.28491 335.000
53.30485 357.000
53.32480 307.000
53.34475 357.000
53.36469 369.000
53.38464 387.000
53.40459 352.000
53.42454 332.000
53.44448 341.000
53.46443 347.000
53.48438 336.000
53.50432 347.000
53.52427 355.000
53.54422 327.000
53.56416 357.000
53.58411 320.000
53.60406 346.000
53.62401 326.000
53.64395 364.000
53.66390 351.000
53.68385 322.000
53.70379 340.000
53.72374 330.000
53.74369 358.000
53.76363 316.000
53.78358 277.000
53.80353 355.000
53.82348 353.000
53.84342 332.000
53.86337 356.000
53.88332 351.000
53.90326 347.000
53.92321 353.000
53.94316 355.000
53.96310 354.000
53.98305 331.000
54.00300 392.000
54.02294 344.000
54.04289 340.000
54.06284 361.000
54.08279 350.000
54.10273 358.000
54.12268 326.000
54.14263 339.000
54.16257 345.000
54.18252 355.000
54.20247 321.000
54.22241 338.000
54.24236 345.000
54.26231 355.000
54.28226 348.000
54.30220 321.000
54.32215 330.000
54.34210 339.000
54.36204 338.000
54.38199 336.000
54.40194 368.000
54.42188 361.000
54.44183 338.000
54.46178 345.000
54.48172 353.000
54.50167 367.000
54.52162 352.000
54.54157 312.000
54.56151 301.000
54.58146 330.000
54.60141 305.000
54.62135 341.000
54.64130 337.000
54.66125 310.000
54.68119 328.000
54.70114 323.000
54.72109 306.000
54.74104 344.000
54.76098 360.000
54.78093 342.000
54.80088 323.000
54.82082 362.000
54.84077 354.000
54.86072 351.000
54.88066 342.000
54.90061 335.000
54.92056 311.000
54.94050 332.000
54.96045 339.000
54.98040 351.000
55.00035 368.000
55.02029 333.000
55.04024 325.000
55.06019 337.000
55.08013 319.000
55.10008 312.000
55.12003 321.000
55.13997 305.000
55.15992 342.000
55.17987 331.000
55.19982 346.000
55.21976 329.000
55.23971 334.000
55.25966 355.000
55.27960 359.000
55.29955 315.000
55.31950 323.000
55.33944 311.000
55.35939 317.000
55.37934 323.000
55.39929 317.000
55.41923 336.000
55.43918 338.000
55.45913 311.000
55.47907 323.000
55.49902 335.000
55.51897 348.000
55.53891 300.000
55.55886 329.000
55.57881 320.000
55.59875 332.000
55.61870 325.000
55.63865 332.000
55.65860 342.000
55.67854 318.000
55.69849 325.000
55.71844 323.000
55.73838 335.000
55.75833 352.000
55.77828 341.000
55.79822 321.000
55.81817 356.000
55.83812 322.000
55.85807 354.000
55.87801 319.000
55.89796 340.000
55.91791 328.000
55.93785 316.000
55.95780 348.000
55.97775 346.000
55.99769 331.000
56.01764 322.000
56.03759 354.000
56.05753 329.000
56.07748 325.000
56.09743 314.000
56.11738 268.000
56.13732 330.000
56.15727 295.000
56.17722 310.000
56.19716 327.000
56.21711 316.000
56.23706 316.000
56.25700 336.000
56.27695 345.000
56.29690 311.000
56.31685 330.000
56.33679 338.000
56.35674 340.000
56.37669 306.000
56.39663 331.000
56.41658 323.000
56.43653 310.000
56.45647 357.000
56.47642 335.000
56.49637 301.000
56.51631 326.000
56.53626 302.000
56.55621 321.000
56.57616 334.000
56.59610 362.000
56.61605 299.000
56.63600 333.000
56.65594 338.000
56.67589 343.000
56.69584 281.000
56.71578 324.000
56.73573 334.000
56.75568 329.000
56.77563 333.000
56.79557 295.000
56.81552 319.000
56.83547 303.000
56.85541 319.000
56.87536 333.000
56.89531 328.000
56.91525 312.000
56.93520 338.000
56.95515 323.000
56.97510 326.000
56.99504 325.000
57.01499 327.000
57.03494 318.000
57.05488 344.000
57.07483 319.000
57.09478 320.000
57.11472 325.000
57.13467 286.000
57.15462 305.000
57.17456 351.000
57.19451 338.000
57.21446 354.000
57.23441 312.000
57.25435 344.000
57.27430 307.000
57.29425 328.000
57.31419 355.000
57.33414 301.000
57.35409 341.000
57.37403 335.000
57.39398 319.000
57.41393 338.000
57.43388 344.000
57.45382 321.000
57.47377 335.000
57.49372 316.000
57.51366 321.000
57.53361 312.000
57.55356 348.000
57.57350 306.000
57.59345 328.000
57.61340 313.000
57.63334 330.000
57.65329 341.000
57.67324 356.000
57.69319 352.000
57.71313 340.000
57.73308 323.000
57.75303 310.000
57.77297 349.000
57.79292 340.000
57.81287 318.000
57.83281 315.000
57.85276 367.000
57.87271 319.000
57.89266 341.000
57.91260 333.000
57.93255 307.000
57.95250 304.000
57.97244 327.000
57.99239 355.000
58.01234 328.000
58.03228 308.000
58.05223 320.000
58.07218 294.000
58.09212 331.000
58.11207 300.000
58.13202 326.000
58.15197 329.000
58.17191 322.000
58.19186 347.000
58.21181 310.000
58.23175 294.000
58.25170 329.000
58.27165 326.000
58.29159 316.000
58.31154 336.000
58.33149 316.000
58.35144 337.000
58.37138 339.000
58.39133 290.000
58.41128 337.000
58.43122 336.000
58.45117 301.000
58.47112 333.000
58.49106 312.000
58.51101 314.000
58.53096 338.000
58.55090 325.000
58.57085 337.000
58.59080 330.000
58.61075 307.000
58.63069 298.000
58.65064 317.000
58.67059 296.000
58.69053 330.000
58.71048 299.000
58.73043 309.000
58.75037 335.000
58.77032 334.000
58.79027 291.000
58.81022 325.000
58.83016 305.000
58.85011 309.000
58.87006 299.000
58.89000 327.000
58.90995 310.000
58.92990 336.000
58.94984 298.000
58.96979 355.000
58.98974 269.000
59.00969 305.000
59.02963 287.000
59.04958 326.000
59.06953 303.000
59.08947 319.000
59.10942 320.000
59.12937 306.000
59.14931 302.000
59.16926 335.000
59.18921 308.000
59.20915 311.000
59.22910 293.000
59.24905 311.000
59.26900 280.000
59.28894 329.000
59.30889 301.000
59.32884 325.000
59.34878 327.000
59.36873 309.000
59.38868 304.000
59.40862 311.000
59.42857 303.000
59.44852 297.000
59.46847 355.000
59.48841 314.000
59.50836 284.000
59.52831 319.000
59.54825 323.000
59.56820 287.000
59.58815 303.000
59.60809 324.000
59.62804 327.000
59.64799 311.000
59.66793 283.000
59.68788 334.000
59.70783 303.000
59.72778 317.000
59.74772 332.000
59.76767 341.000
59.78762 350.000
59.80756 307.000
59.82751 351.000
59.84746 335.000
59.86740 334.000
59.88735 300.000
59.90730 352.000
59.92725 336.000
59.94719 302.000
59.96714 309.000
59.98709 275.000
60.00703 305.000
60.02698 324.000
60.04693 325.000
60.06687 322.000
60.08682 354.000
60.10677 320.000
60.12671 323.000
60.14666 292.000
60.16661 325.000
60.18656 326.000
60.20650 317.000
60.22645 302.000
60.24640 314.000
60.26634 306.000
60.28629 354.000
60.30624 345.000
60.32618 313.000
60.34613 285.000
60.36608 326.000
60.38603 321.000
60.40597 305.000
60.42592 325.000
60.44587 290.000
60.46581 325.000
60.48576 325.000
60.50571 301.000
60.52565 317.000
60.54560 317.000
60.56555 320.000
60.58550 286.000
60.60544 317.000
60.62539 329.000
60.64534 317.000
60.66528 328.000
60.68523 329.000
60.70518 309.000
60.72512 308.000
60.74507 313.000
60.76502 312.000
60.78496 261.000
60.80491 309.000
60.82486 300.000
60.84481 316.000
60.86475 319.000
60.88470 279.000
60.90465 326.000
60.92459 328.000
60.94454 310.000
60.96449 346.000
60.98443 336.000
61.00438 328.000
61.02433 350.000
61.04428 301.000
61.06422 319.000
61.08417 317.000
61.10412 327.000
61.12406 323.000
61.14401 326.000
61.16396 331.000
61.18390 328.000
61.20385 304.000
61.22380 289.000
61.24374 347.000
61.26369 323.000
61.28364 322.000
61.30359 372.000
61.32353 302.000
61.34348 348.000
61.36343 340.000
61.38337 332.000
61.40332 349.000
61.42327 319.000
61.44321 335.000
61.46316 313.000
61.48311 340.000
61.50306 304.000
61.52300 302.000
61.54295 340.000
61.56290 354.000
61.58284 308.000
61.60279 371.000
61.62274 326.000
61.64268 340.000
61.66263 361.000
61.68258 355.000
61.70252 353.000
61.72247 372.000
61.74242 349.000
61.76237 345.000
61.78231 357.000
61.80226 315.000
61.82221 372.000
61.84215 355.000
61.86210 395.000
61.88205 431.000
61.90199 420.000
61.92194 407.000
61.94189 429.000
61.96184 461.000
61.98178 489.000
62.00173 521.000
62.02168 578.000
62.04162 606.000
62.06157 599.000
62.08152 681.000
62.10146 688.000
62.12141 686.000
62.14136 801.000
62.16131 833.000
62.18125 926.000
62.20120 957.000
62.22115 1067.000
62.24109 1152.000
62.26104 1217.000
62.28099 1259.000
62.30093 1381.000
62.32088 1560.000
62.34083 1722.000
62.36077 1874.000
62.38072 1930.000
62.40067 2237.000
62.42062 2371.000
62.44056 2474.000
62.46051 2652.000
62.48046 2858.000
62.50040 2759.000
62.52035 2893.000
62.54030 2858.000
62.56024 2675.000
62.58019 2490.000
62.60014 2385.000
62.62009 2204.000
62.64003 2110.000
62.65998 1938.000
62.67993 1776.000
62.69987 1634.000
62.71982 1567.000
62.73977 1347.000
62.75971 1236.000
62.77966 1130.000
62.79961 967.000
62.81955 807.000
62.83950 723.000
62.85945 670.000
62.87940 551.000
62.89934 539.000
62.91929 536.000
62.93924 505.000
62.95918 460.000
62.97913 410.000
62.99908 403.000
63.01902 432.000
63.03897 435.000
63.05892 393.000
63.07887 393.000
63.09881 364.000
63.11876 388.000
63.13871 335.000
63.15865 354.000
63.17860 378.000
63.19855 353.000
63.21849 337.000
63.23844 368.000
63.25839 345.000
63.27833 365.000
63.29828 355.000
63.31823 339.000
63.33818 326.000
63.35812 322.000
63.37807 354.000
63.39802 346.000
63.41796 345.000
63.43791 304.000
63.45786 296.000
63.47780 341.000
63.49775 305.000
63.51770 311.000
63.53765 300.000
63.55759 347.000
63.57754 339.000
63.59749 311.000
63.61743 329.000
63.63738 328.000
63.65733 314.000
63.67727 327.000
63.69722 310.000
63.71717 277.000
63.73712 312.000
63.75706 305.000
63.77701 343.000
63.79696 324.000
63.81690 335.000
63.83685 344.000
63.85680 306.000
63.87674 299.000
63.89669 336.000
63.91664 305.000
63.93658 310.000
63.95653 307.000
63.97648 333.000
63.99643 319.000
64.01637 309.000
64.03632 306.000
64.05627 301.000
64.07621 313.000
64.09616 324.000
64.11611 330.000
64.13605 307.000
64.15600 356.000
64.17595 300.000
64.19590 317.000
64.21584 301.000
64.23579 315.000
64.25574 335.000
64.27568 296.000
64.29563 316.000
64.31558 332.000
64.33552 292.000
64.35547 333.000
64.37542 302.000
64.39536 315.000
64.41531 308.000
64.43526 275.000
64.45521 296.000
64.47515 306.000
64.49510 277.000
64.51505 357.000
64.53499 298.000
64.55494 312.000
64.57489 302.000
64.59483 298.000
64.61478 323.000
64.63473 311.000
64.65468 296.000
64.67462 279.000
64.69457 308.000
64.71452 345.000
64.73446 295.000
64.75441 275.000
64.77436 293.000
64.79430 284.000
64.81425 326.000
64.83420 323.000
64.85414 317.000
64.87409 326.000
64.89404 328.000
64.91399 280.000
64.93393 306.000
64.95388 306.000
64.97383 333.000
64.99377 323.000
65.01372 314.000
65.03367 309.000
65.05361 310.000
65.07356 325.000
65.09351 314.000
65.11346 291.000
65.13340 286.000
65.15335 298.000
65.17330 297.000
65.19324 283.000
65.21319 286.000
65.23314 306.000
65.25308 300.000
65.27303 324.000
65.29298 305.000
65.31293 325.000
65.33287 309.000
65.35282 313.000
65.37277 320.000
65.39271 312.000
65.41266 304.000
65.43261 272.000
65.45255 335.000
65.47250 290.000
65.49245 297.000
65.51239 274.000
65.53234 324.000
65.55229 300.000
65.57224 316.000
65.59218 304.000
65.61213 307.000
65.63208 302.000
65.65202 284.000
65.67197 290.000
65.69192 302.000
65.71186 289.000
65.73181 300.000
65.75176 338.000
65.77171 315.000
65.79165 286.000
65.81160 271.000
65.83155 338.000
65.85149 317.000
65.87144 280.000
65.89139 307.000
65.91133 298.000
65.93128 295.000
65.95123 252.000
65.97117 318.000
65.99112 252.000
66.01107 300.000
66.03102 284.000
66.05096 292.000
66.07091 300.000
66.09086 339.000
66.11080 272.000
66.13075 278.000
66.15070 262.000
66.17064 307.000
66.19059 302.000
66.21054 333.000
66.23049 279.000
66.25043 316.000
66.27038 271.000
66.29033 269.000
66.31027 279.000
66.33022 304.000
66.35017 304.000
66.37011 282.000
66.39006 310.000
66.41001 291.000
66.42995 280.000
66.44990 296.000
66.46985 311.000
66.48980 293.000
66.50974 274.000
66.52969 279.000
66.54964 322.000
66.56958 291.000
66.58953 262.000
66.60948 298.000
66.62942 302.000
66.64937 304.000
66.66932 291.000
66.68927 294.000
66.70921 266.000
66.72916 276.000
66.74911 304.000
66.76905 301.000
66.78900 288.000
66.80895 308.000
66.82889 295.000
66.84884 302.000
66.86879 307.000
66.88874 310.000
66.90868 294.000
66.92863 298.000
66.94858 305.000
66.96852 330.000
66.98847 287.000
67.00842 324.000
67.02836 288.000
67.04831 276.000
67.06826 281.000
67.08820 313.000
67.10815 283.000
67.12810 288.000
67.14805 294.000
67.16799 281.000
67.18794 310.000
67.20789 287.000
67.22783 309.000
67.24778 277.000
67.26773 272.000
67.28767 290.000
67.30762 276.000
67.32757 303.000
67.34752 273.000
67.36746 299.000
67.38741 285.000
67.40736 272.000
67.42730 280.000
67.44725 332.000
67.46720 301.000
67.48714 285.000
67.50709 286.000
67.52704 268.000
67.54698 279.000
67.56693 297.000
67.58688 280.000
67.60683 282.000
67.62677 294.000
67.64672 277.000
67.66667 280.000
67.68661 303.000
67.70656 292.000
67.72651 252.000
67.74645 294.000
67.76640 275.000
67.78635 299.000
67.80630 292.000
67.82624 275.000
67.84619 293.000
67.86614 281.000
67.88608 289.000
67.90603 253.000
67.92598 281.000
67.94592 306.000
67.96587 307.000
67.98582 317.000
68.00576 268.000
68.02571 275.000
68.04566 299.000
68.06561 313.000
68.08555 301.000
68.10550 301.000
68.12545 288.000
68.14539 321.000
68.16534 282.000
68.18529 321.000
68.20523 288.000
68.22518 289.000
68.24513 303.000
68.26508 326.000
68.28502 296.000
68.30497 263.000
68.32492 281.000
68.34486 285.000
68.36481 281.000
68.38476 290.000
68.40470 270.000
68.42465 301.000
68.44460 285.000
68.46455 274.000
68.48449 299.000
68.50444 279.000
68.52439 273.000
68.54433 316.000
68.56428 286.000
68.58423 263.000
68.60417 269.000
68.62412 288.000
68.64407 309.000
68.66401 275.000
68.68396 289.000
68.70391 280.000
68.72386 318.000
68.74380 275.000
68.76375 300.000
68.78370 307.000
68.80364 267.000
68.82359 256.000
68.84354 264.000
68.86348 281.000
68.88343 265.000
68.90338 281.000
68.92333 274.000
68.94327 252.000
68.96322 300.000
68.98317 260.000
69.00311 274.000
69.02306 284.000
69.04301 276.000
69.06295 275.000
69.08290 287.000
69.10285 301.000
69.12279 284.000
69.14274 292.000
69.16269 293.000
69.18264 300.000
69.20258 289.000
69.22253 312.000
69.24248 264.000
69.26242 274.000
69.28237 304.000
69.30232 296.000
69.32226 271.000
69.34221 272.000
69.36216 291.000
69.38211 298.000
69.40205 266.000
69.42200 269.000
69.44195 252.000
69.46189 292.000
69.48184 316.000
69.50179 260.000
69.52173 294.000
69.54168 285.000
69.56163 264.000
69.58157 282.000
69.60152 300.000
69.62147 249.000
69.64142 301.000
69.66136 270.000
69.68131 284.000
69.70126 313.000
69.72120 280.000
69.74115 303.000
69.76110 279.000
69.78104 264.000
69.80099 275.000
69.82094 319.000
69.84089 260.000
69.86083 292.000
69.88078 280.000
69.90073 284.000
69.92067 263.000
69.94062 261.000
69.96057 307.000
69.98051 278.000
70.00046 258.000
70.02041 298.000
70.04035 296.000
70.06030 271.000
70.08025 286.000
70.10020 301.000
70.12014 284.000
70.14009 287.000
70.16004 284.000
70.17998 283.000
70.19993 289.000
70.21988 283.000
70.23982 278.000
70.25977 257.000
70.27972 248.000
70.29967 309.000
70.31961 298.000
70.33956 285.000
70.35951 331.000
70.37945 294.000
70.39940 266.000
70.41935 279.000
70.43929 258.000
70.45924 267.000
70.47919 277.000
70.49914 274.000
70.51908 303.000
70.53903 291.000
70.55898 296.000
70.57892 278.000
70.59887 268.000
70.61882 295.000
70.63876 289.000
70.65871 280.000
70.67866 287.000
70.69860 284.000
70.71855 271.000
70.73850 281.000
70.75845 255.000
70.77839 274.000
70.79834 279.000
70.81829 271.000
70.83823 285.000
70.85818 271.000
70.87813 296.000
70.89807 325.000
70.91802 301.000
70.93797 303.000
70.95792 255.000
70.97786 290.000
70.99781 289.000
71.01776 269.000
71.03770 306.000
71.05765 296.000
71.07760 292.000
71.09754 289.000
71.11749 311.000
71.13744 292.000
71.15738 314.000
71.17733 293.000
71.19728 294.000
71.21723 256.000
71.23717 293.000
71.25712 288.000
71.27707 285.000
71.29701 263.000
71.31696 288.000
71.33691 275.000
71.35685 268.000
71.37680 275.000
71.39675 291.000
71.41670 277.000
71.43664 282.000
71.45659 285.000
71.47654 279.000
71.49648 269.000
71.51643 289.000
71.53638 280.000
71.55632 275.000
71.57627 245.000
71.59622 283.000
71.61616 278.000
71.63611 249.000
71.65606 286.000
71.67601 299.000
71.69595 267.000
71.71590 297.000
71.73585 285.000
71.75579 280.000
71.77574 256.000
71.79569 277.000
71.81563 300.000
71.83558 265.000
71.85553 277.000
71.87548 267.000
71.89542 269.000
71.91537 310.000
71.93532 261.000
71.95526 278.000
71.97521 314.000
71.99516 301.000
72.01510 294.000
72.03505 268.000
72.05500 254.000
72.07495 281.000
72.09489 289.000
72.11484 274.000
72.13479 265.000
72.15473 316.000
72.17468 315.000
72.19463 273.000
72.21457 260.000
72.23452 292.000
72.25447 318.000
72.27441 300.000
72.29436 247.000
72.31431 267.000
72.33426 295.000
72.35420 304.000
72.37415 280.000
72.39410 275.000
72.41404 273.000
72.43399 291.000
72.45394 265.000
72.47388 278.000
72.49383 284.000
72.51378 273.000
72.53373 280.000
72.55367 283.000
72.57362 271.000
72.59357 297.000
72.61351 287.000
72.63346 267.000
72.65341 268.000
72.67335 266.000
72.69330 293.000
72.71325 293.000
72.73319 306.000
72.75314 248.000
72.77309 272.000
72.79304 239.000
72.81298 282.000
72.83293 272.000
72.85288 305.000
72.87282 291.000
72.89277 279.000
72.91272 327.000
72.93266 264.000
72.95261 258.000
72.97256 306.000
72.99251 287.000
73.01245 299.000
73.03240 239.000
73.05235 297.000
73.07229 277.000
73.09224 266.000
73.11219 290.000
73.13213 273.000
73.15208 321.000
73.17203 286.000
73.19197 289.000
73.21192 300.000
73.23187 259.000
73.25182 280.000
73.27176 276.000
73.29171 279.000
73.31166 286.000
73.33160 274.000
73.35155 310.000
73.37150 301.000
73.39144 294.000
73.41139 293.000
73.43134 295.000
73.45129 309.000
73.47123 311.000
73.49118 293.000
73.51113 264.000
73.53107 273.000
73.55102 294.000
73.57097 288.000
73.59091 267.000
73.61086 295.000
73.63081 291.000
73.65076 317.000
73.67070 251.000
73.69065 285.000
73.71060 268.000
73.73054 297.000
73.75049 291.000
73.77044 311.000
73.79038 278.000
73.81033 287.000
73.83028 264.000
73.85022 289.000
73.87017 296.000
73.89012 273.000
73.91007 274.000
73.93001 263.000
73.94996 281.000
73.96991 279.000
73.98985 291.000
74.00980 251.000
74.02975 283.000
74.04969 292.000
74.06964 253.000
74.08959 293.000
74.10954 302.000
74.12948 247.000
74.14943 332.000
74.16938 303.000
74.18932 313.000
74.20927 319.000
74.22922 288.000
74.24916 290.000
74.26911 288.000
74.28906 301.000
74.30900 314.000
74.32895 321.000
74.34890 321.000
74.36885 312.000
74.38879 325.000
74.40874 284.000
74.42869 331.000
74.44863 284.000
74.46858 314.000
74.48853 332.000
74.50847 312.000
74.52842 338.000
74.54837 386.000
74.56832 375.000
74.58826 365.000
74.60821 380.000
74.62816 404.000
74.64810 457.000
74.66805 419.000
74.68800 445.000
74.70794 478.000
74.72789 465.000
74.74784 522.000
74.76778 512.000
74.78773 571.000
74.80768 620.000
74.82763 581.000
74.84757 641.000
74.86752 710.000
74.88747 765.000
74.90741 826.000
74.92736 877.000
74.94731 1046.000
74.96725 1019.000
74.98720 1096.000
75.00715 1131.000
75.02710 1131.000
75.04704 1230.000
75.06699 1251.000
75.08694 1199.000
75.10688 1151.000
75.12683 1053.000
75.14678 1053.000
75.16672 991.000
75.18667 1000.000
75.20662 967.000
75.22657 950.000
75.24651 857.000
75.26646 850.000
75.28641 796.000
75.30635 767.000
75.32630 722.000
75.34625 690.000
75.36619 625.000
75.38614 527.000
75.40609 522.000
75.42603 439.000
75.44598 437.000
75.46593 411.000
75.48588 402.000
75.50582 401.000
75.52577 375.000
75.54572 357.000
75.56566 343.000
75.58561 349.000
75.60556 324.000
75.62550 316.000
75.64545 328.000
75.66540 329.000
75.68535 311.000
75.70529 320.000
75.72524 309.000
75.74519 348.000
75.76513 321.000
75.78508 310.000
75.80503 295.000
75.82497 306.000
75.84492 282.000
75.86487 323.000
75.88481 294.000
75.90476 290.000
75.92471 311.000
75.94466 275.000
75.96460 300.000
75.98455 299.000
76.00450 303.000
76.02444 280.000
76.04439 259.000
76.06434 285.000
76.08428 267.000
76.10423 279.000
76.12418 279.000
76.14413 267.000
76.16407 307.000
76.18402 280.000
76.20397 288.000
76.22391 329.000
76.24386 272.000
76.26381 260.000
76.28375 316.000
76.30370 285.000
76.32365 262.000
76.34359 288.000
76.36354 297.000
76.38349 281.000
76.40344 255.000
76.42338 289.000
76.44333 283.000
76.46328 289.000
76.48322 300.000
76.50317 265.000
76.52312 267.000
76.54306 281.000
76.56301 282.000
76.58296 299.000
76.60291 285.000
76.62285 291.000
76.64280 284.000
76.66275 294.000
76.68269 265.000
76.70264 255.000
76.72259 312.000
76.74253 309.000
76.76248 288.000
76.78243 286.000
76.80238 307.000
76.82232 265.000
76.84227 304.000
76.86222 264.000
76.88216 262.000
76.90211 259.000
76.92206 268.000
76.94200 281.000
76.96195 319.000
76.98190 289.000
77.00184 289.000
77.02179 278.000
77.04174 255.000
77.06169 243.000
77.08163 267.000
77.10158 269.000
77.12153 266.000
77.14147 279.000
77.16142 261.000
77.18137 251.000
77.20131 261.000
77.22126 254.000
77.24121 271.000
77.26116 274.000
77.28110 266.000
77.30105 270.000
77.32100 270.000
77.34094 280.000
77.36089 299.000
77.38084 253.000
77.40078 280.000
77.42073 300.000
77.44068 294.000
77.46062 308.000
77.48057 309.000
77.50052 287.000
77.52047 261.000
77.54041 298.000
77.56036 303.000
77.58031 291.000
77.60025 259.000
77.62020 284.000
77.64015 296.000
77.66009 272.000
77.68004 266.000
77.69999 268.000
77.71994 275.000
77.73988 292.000
77.75983 267.000
77.77978 271.000
77.79972 283.000
77.81967 263.000
77.83962 298.000
77.85956 247.000
77.87951 280.000
77.89946 283.000
77.91940 274.000
77.93935 247.000
77.95930 294.000
77.97925 271.000
77.99919 257.000
78.01914 260.000
78.03909 284.000
78.05903 316.000
78.07898 274.000
78.09893 314.000
78.11887 293.000
78.13882 279.000
78.15877 320.000
78.17872 285.000
78.19866 286.000
78.21861 274.000
78.23856 244.000
78.25850 282.000
78.27845 302.000
78.29840 301.000
78.31834 265.000
78.33829 296.000
78.35824 285.000
78.37819 321.000
78.39813 304.000
78.41808 259.000
78.43803 303.000
78.45797 330.000
78.47792 341.000
78.49787 293.000
78.51781 322.000
78.53776 330.000
78.55771 342.000
78.57765 323.000
78.59760 359.000
78.61755 338.000
78.63750 393.000
78.65744 367.000
78.67739 418.000
78.69734 391.000
78.71728 436.000
78.73723 411.000
78.75718 422.000
78.77712 484.000
78.79707 484.000
78.81702 531.000
78.83697 569.000
78.85691 589.000
78.87686 618.000
78.89681 667.000
78.91675 711.000
78.93670 775.000
78.95665 876.000
78.97659 850.000
78.99654 919.000
79.01649 897.000
79.03643 891.000
79.05638 905.000
79.07633 908.000
79.09628 801.000
79.11622 854.000
79.13617 824.000
79.15612 813.000
79.17606 759.000
79.19601 760.000
79.21596 753.000
79.23590 718.000
79.25585 699.000
79.27580 630.000
79.29575 621.000
79.31569 632.000
79.33564 579.000
79.35559 594.000
79.37553 513.000
79.39548 510.000
79.41543 473.000
79.43537 449.000
79.45532 436.000
79.47527 418.000
79.49521 385.000
79.51516 362.000
79.53511 364.000
79.55506 361.000
79.57500 345.000
79.59495 333.000
79.61490 337.000
79.63484 322.000
79.65479 322.000
79.67474 289.000
79.69468 310.000
79.71463 276.000
79.73458 326.000
79.75453 281.000
79.77447 270.000
79.79442 297.000
79.81437 304.000
79.83431 296.000
79.85426 284.000
79.87421 282.000
79.89415 273.000
79.91410 274.000
79.93405 288.000
79.95399 297.000
79.97394 308.000
79.99389 284.000
80.01384 289.000
80.03378 274.000
80.05373 289.000
80.07368 278.000
80.09362 298.000
80.11357 289.000
80.13352 289.000
80.15346 278.000
80.17341 269.000
80.19336 267.000
80.21331 289.000
80.23325 297.000
80.25320 278.000
80.27315 288.000
80.29309 294.000
80.31304 303.000
80.33299 253.000
80.35293 291.000
80.37288 262.000
80.39283 298.000
80.41278 280.000
80.43272 289.000
80.45267 263.000
80.47262 282.000
80.49256 293.000
80.51251 272.000
80.53246 270.000
80.55240 274.000
80.57235 263.000
80.59230 287.000
80.61224 290.000
80.63219 263.000
80.65214 263.000
80.67209 291.000
80.69203 244.000
80.71198 287.000
80.73193 271.000
80.75187 291.000
80.77182 266.000
80.79177 250.000
80.81171 257.000
80.83166 275.000
80.85161 286.000
80.87156 303.000
80.89150 265.000
80.91145 297.000
80.93140 266.000
80.95134 252.000
80.97129 278.000
80.99124 265.000
81.01118 260.000
81.03113 261.000
81.05108 274.000
81.07102 232.000
81.09097 289.000
81.11092 270.000
81.13087 264.000
81.15081 287.000
81.17076 275.000
81.19071 250.000
81.21065 236.000
81.23060 262.000
81.25055 304.000
81.27049 272.000
81.29044 254.000
81.31039 277.000
81.33034 299.000
81.35028 275.000
81.37023 273.000
81.39018 270.000
81.41012 260.000
81.43007 295.000
81.45002 272.000
81.46996 275.000
81.48991 274.000
81.50986 266.000
81.52980 246.000
81.54975 283.000
81.56970 261.000
81.58965 253.000
81.60959 271.000
81.62954 272.000
81.64949 286.000
81.66943 278.000
81.68938 263.000
81.70933 275.000
81.72927 291.000
81.74922 268.000
81.76917 223.000
81.78912 276.000
81.80906 238.000
81.82901 268.000
81.84896 255.000
81.86890 272.000
81.88885 251.000
81.90880 299.000
81.92874 290.000
81.94869 249.000
81.96864 230.000
81.98859 285.000
82.00853 289.000
82.02848 277.000
82.04843 268.000
82.06837 268.000
82.08832 300.000
82.10827 260.000
82.12821 228.000
82.14816 290.000
82.16811 258.000
82.18805 299.000
82.20800 291.000
82.22795 284.000
82.24790 281.000
82.26784 257.000
82.28779 241.000
82.30774 262.000
82.32768 268.000
82.34763 261.000
82.36758 253.000
82.38752 290.000
82.40747 280.000
82.42742 260.000
82.44737 275.000
82.46731 295.000
82.48726 276.000
82.50721 260.000
82.52715 289.000
82.54710 292.000
82.56705 259.000
82.58699 286.000
82.60694 293.000
82.62689 262.000
82.64683 250.000
82.66678 268.000
82.68673 250.000
82.70668 237.000
82.72662 261.000
82.74657 225.000
82.76652 208.000
82.78646 265.000
82.80641 266.000
82.82636 246.000
82.84630 262.000
82.86625 272.000
82.88620 260.000
82.90615 254.000
82.92609 253.000
82.94604 270.000
82.96599 268.000
82.98593 265.000
83.00588 247.000
83.02583 250.000
83.04577 287.000
83.06572 273.000
83.08567 238.000
83.10561 267.000
83.12556 267.000
83.14551 256.000
83.16546 286.000
83.18540 259.000
83.20535 286.000
83.22530 261.000
83.24524 271.000
83.26519 254.000
83.28514 274.000
83.30508 273.000
83.32503 259.000
83.34498 247.000
83.36493 255.000
83.38487 241.000
83.40482 288.000
83.42477 260.000
83.44471 271.000
83.46466 256.000
83.48461 277.000
83.50455 296.000
83.52450 288.000
83.54445 270.000
83.56440 267.000
83.58434 283.000
83.60429 249.000
83.62424 279.000
83.64418 282.000
83.66413 262.000
83.68408 253.000
83.70402 265.000
83.72397 262.000
83.74392 256.000
83.76386 280.000
83.78381 248.000
83.80376 265.000
83.82371 267.000
83.84365 253.000
83.86360 259.000
83.88355 270.000
83.90349 264.000
83.92344 269.000
83.94339 226.000
83.96333 274.000
83.98328 284.000
84.00323 228.000
84.02318 282.000
84.04312 266.000
84.06307 245.000
84.08302 286.000
84.10296 256.000
84.12291 267.000
84.14286 275.000
84.16280 251.000
84.18275 300.000
84.20270 296.000
84.22264 266.000
84.24259 265.000
84.26254 299.000
84.28249 269.000
84.30243 288.000
84.32238 288.000
84.34233 232.000
84.36227 249.000
84.38222 280.000
84.40217 242.000
84.42211 297.000
84.44206 240.000
84.46201 276.000
84.48196 276.000
84.50190 272.000
84.52185 295.000
84.54180 275.000
84.56174 265.000
84.58169 274.000
84.60164 291.000
84.62158 265.000
84.64153 282.000
84.66148 279.000
84.68142 236.000
84.70137 269.000
84.72132 248.000
84.74127 280.000
84.76121 280.000
84.78116 252.000
84.80111 273.000
84.82105 291.000
84.84100 272.000
84.86095 279.000
84.88089 284.000
84.90084 260.000
84.92079 294.000
84.94074 280.000
84.96068 262.000
84.98063 288.000
85.00058 249.000
85.02052 264.000
85.04047 273.000
85.06042 211.000
85.08036 250.000
85.10031 267.000
85.12026 283.000
85.14021 286.000
85.16015 266.000
85.18010 261.000
85.20005 242.000
85.21999 241.000
85.23994 268.000
85.25989 251.000
85.27983 255.000
85.29978 277.000
85.31973 236.000
85.33967 259.000
85.35962 295.000
85.37957 289.000
85.39952 258.000
85.41946 293.000
85.43941 256.000
85.45936 289.000
85.47930 247.000
85.49925 263.000
85.51920 251.000
85.53914 270.000
85.55909 298.000
85.57904 253.000
85.59899 254.000
85.61893 260.000
85.63888 291.000
85.65883 278.000
85.67877 263.000
85.69872 270.000
85.71867 245.000
85.73861 257.000
85.75856 281.000
85.77851 268.000
85.79845 271.000
85.81840 246.000
85.83835 253.000
85.85830 243.000
85.87824 302.000
85.89819 285.000
85.91814 222.000
85.93808 286.000
85.95803 285.000
85.97798 276.000
85.99792 271.000
86.01787 260.000
86.03782 285.000
86.05777 274.000
86.07771 289.000
86.09766 284.000
86.11761 291.000
86.13755 259.000
86.15750 278.000
86.17745 271.000
86.19739 281.000
86.21734 284.000
86.23729 252.000
86.25723 236.000
86.27718 242.000
86.29713 253.000
86.31708 292.000
86.33702 252.000
86.35697 276.000
86.37692 273.000
86.39686 273.000
86.41681 280.000
86.43676 269.000
86.45670 264.000
86.47665 257.000
86.49660 243.000
86.51655 250.000
86.53649 271.000
86.55644 269.000
86.57639 256.000
86.59633 243.000
86.61628 246.000
86.63623 270.000
86.65617 257.000
86.67612 278.000
86.69607 261.000
86.71602 301.000
86.73596 254.000
86.75591 248.000
86.77586 249.000
86.79580 255.000
86.81575 276.000
86.83570 270.000
86.85564 250.000
86.87559 266.000
86.89554 284.000
86.91548 271.000
86.93543 235.000
86.95538 256.000
86.97533 290.000
86.99527 281.000
87.01522 242.000
87.03517 273.000
87.05511 281.000
87.07506 250.000
87.09501 270.000
87.11495 235.000
87.13490 288.000
87.15485 259.000
87.17480 254.000
87.19474 264.000
87.21469 231.000
87.23464 276.000
87.25458 277.000
87.27453 260.000
87.29448 248.000
87.31442 247.000
87.33437 252.000
87.35432 271.000
87.37426 246.000
87.39421 268.000
87.41416 254.000
87.43411 274.000
87.45405 247.000
87.47400 260.000
87.49395 257.000
87.51389 259.000
87.53384 269.000
87.55379 277.000
87.57373 277.000
87.59368 266.000
87.61363 241.000
87.63358 260.000
87.65352 258.000
87.67347 258.000
87.69342 284.000
87.71336 243.000
87.73331 250.000
87.75326 268.000
87.77320 294.000
87.79315 291.000
87.81310 271.000
87.83304 283.000
87.85299 269.000
87.87294 260.000
87.89289 260.000
87.91283 286.000
87.93278 297.000
87.95273 236.000
87.97267 210.000
87.99262 257.000
88.01257 262.000
88.03251 260.000
88.05246 253.000
88.07241 273.000
88.09236 244.000
88.11230 276.000
88.13225 273.000
88.15220 261.000
88.17214 256.000
88.19209 278.000
88.21204 252.000
88.23198 257.000
88.25193 266.000
88.27188 258.000
88.29183 253.000
88.31177 261.000
88.33172 294.000
88.35167 269.000
88.37161 279.000
88.39156 236.000
88.41151 273.000
88.43145 273.000
88.45140 276.000
88.47135 291.000
88.49129 254.000
88.51124 284.000
88.53119 258.000
88.55114 255.000
88.57108 272.000
88.59103 259.000
88.61098 233.000
88.63092 282.000
88.65087 265.000
88.67082 262.000
88.69076 244.000
88.71071 303.000
88.73066 299.000
88.75061 267.000
88.77055 264.000
88.79050 257.000
88.81045 300.000
88.83039 248.000
88.85034 273.000
88.87029 264.000
88.89023 257.000
88.91018 226.000
88.93013 263.000
88.95007 260.000
88.97002 274.000
88.98997 239.000
89.00992 260.000
89.02986 255.000
89.04981 263.000
89.06976 238.000
89.08970 257.000
89.10965 258.000
89.12960 284.000
89.14954 240.000
89.16949 247.000
89.18944 272.000
89.20939 267.000
89.22933 280.000
89.24928 266.000
89.26923 280.000
89.28917 264.000
89.30912 259.000
89.32907 289.000
89.34901 252.000
89.36896 264.000
89.38891 235.000
89.40885 244.000
89.42880 278.000
89.44875 267.000
89.46870 279.000
89.48864 249.000
89.50859 262.000
89.52854 268.000
89.54848 251.000
89.56843 250.000
89.58838 284.000
89.60832 276.000
89.62827 237.000
89.64822 242.000
89.66817 267.000
89.68811 239.000
89.70806 264.000
89.72801 257.000
89.74795 276.000
89.76790 259.000
89.78785 289.000
89.80779 268.000
89.82774 252.000
89.84769 268.000
89.86764 250.000
89.88758 256.000
89.90753 247.000
89.92748 272.000
89.94742 284.000
89.96737 272.000
89.98732 264.000
90.00726 249.000
