10.00000 103.000
10.01995 93.000
10.03989 95.000
10.05984 97.000
10.07979 91.000
10.09973 98.000
10.11968 105.000
10.13963 101.000
10.15958 110.000
10.17952 97.000
10.19947 104.000
10.21942 97.000
10.23936 101.000
10.25931 94.000
10.27926 103.000
10.29920 83.000
10.31915 80.000
10.33910 105.000
10.35905 101.000
10.37899 96.000
10.39894 100.000
10.41889 103.000
10.43883 109.000
10.45878 97.000
10.47873 86.000
10.49867 82.000
10.51862 100.000
10.53857 109.000
10.55851 79.000
10.57846 92.000
10.59841 77.000
10.61836 94.000
10.63830 103.000
10.65825 99.000
10.67820 109.000
10.69814 99.000
10.71809 87.000
10.73804 98.000
10.75798 97.000
10.77793 99.000
10.79788 92.000
10.81783 108.000
10.83777 99.000
10.85772 93.000
10.87767 96.000
10.89761 109.000
10.91756 96.000
10.93751 110.000
10.95745 112.000
10.97740 96.000
10.99735 84.000
11.01730 100.000
11.03724 100.000
11.05719 109.000
11.07714 97.000
11.09708 102.000
11.11703 118.000
11.13698 105.000
11.15692 97.000
11.17687 116.000
11.19682 89.000
11.21676 97.000
11.23671 98.000
11.25666 101.000
11.27661 99.000
11.29655 107.000
11.31650 105.000
11.33645 107.000
11.35639 101.000
11.37634 118.000
11.39629 98.000
11.41623 126.000
11.43618 112.000
11.45613 93.000
11.47608 108.000
11.49602 110.000
11.51597 113.000
11.53592 93.000
11.55586 119.000
11.57581 97.000
11.59576 103.000
11.61570 111.000
11.63565 114.000
11.65560 111.000
11.67554 95.000
11.69549 91.000
11.71544 94.000
11.73539 100.000
11.75533 104.000
11.77528 112.000
11.79523 103.000
11.81517 111.000
11.83512 101.000
11.85507 109.000
11.87501 127.000
11.89496 130.000
11.91491 122.000
11.93486 121.000
11.95480 113.000
11.97475 111.000
11.99470 114.000
12.01464 119.000
12.03459 124.000
12.05454 139.000
12.07448 136.000
12.09443 133.000
12.11438 122.000
12.13432 129.000
12.15427 138.000
12.17422 146.000
12.19417 132.000
12.21411 148.000
12.23406 150.000
12.25401 145.000
12.27395 153.000
12.29390 138.000
12.31385 139.000
12.33379 163.000
12.35374 175.000
12.37369 176.000
12.39364 181.000
12.41358 177.000
12.43353 179.000
12.45348 192.000
12.47342 192.000
12.49337 268.000
12.51332 269.000
12.53326 283.000
12.55321 328.000
12.57316 402.000
12.59311 412.000
12.61305 521.000
12.63300 523.000
12.65295 524.000
12.67289 540.000
12.69284 546.000
12.71279 490.000
12.73273 507.000
12.75268 422.000
12.77263 421.000
12.79257 401.000
12.81252 440.000
12.83247 483.000
12.85242 473.000
12.87236 339.000
12.89231 310.000
12.91226 291.000
12.93220 241.000
12.95215 230.000
12.97210 239.000
12.99204 231.000
13.01199 236.000
13.03194 213.000
13.05189 220.000
13.07183 197.000
13.09178 188.000
13.11173 189.000
13.13167 185.000
13.15162 176.000
13.17157 191.000
13.19151 170.000
13.21146 203.000
13.23141 193.000
13.25135 180.000
13.27130 174.000
13.29125 181.000
13.31120 181.000
13.33114 170.000
13.35109 168.000
13.37104 183.000
13.39098 152.000
13.41093 195.000
13.43088 174.000
13.45082 197.000
13.47077 160.000
13.49072 161.000
13.51067 167.000
13.53061 190.000
13.55056 173.000
13.57051 175.000
13.59045 188.000
13.61040 193.000
13.63035 208.000
13.65029 194.000
13.67024 191.000
13.69019 201.000
13.71013 184.000
13.73008 197.000
13.75003 182.000
13.76998 198.000
13.78992 171.000
13.80987 196.000
13.82982 172.000
13.84976 178.000
13.86971 178.000
13.88966 177.000
13.90960 174.000
13.92955 199.000
13.94950 177.000
13.96945 184.000
13.98939 156.000
14.00934 211.000
14.02929 198.000
14.04923 164.000
14.06918 200.000
14.08913 190.000
14.10907 157.000
14.12902 194.000
14.14897 168.000
14.16892 207.000
14.18886 184.000
14.20881 177.000
14.22876 182.000
14.24870 183.000
14.26865 177.000
14.28860 186.000
14.30854 177.000
14.32849 211.000
14.34844 176.000
14.36838 201.000
14.38833 153.000
14.40828 196.000
14.42823 188.000
14.44817 175.000
14.46812 195.000
14.48807 180.000
14.50801 199.000
14.52796 173.000
14.54791 172.000
14.56785 178.000
14.58780 172.000
14.60775 196.000
14.62770 163.000
14.64764 180.000
14.66759 180.000
14.68754 187.000
14.70748 174.000
14.72743 166.000
14.74738 198.000
14.76732 181.000
14.78727 178.000
14.80722 173.000
14.82716 177.000
14.84711 191.000
14.86706 173.000
14.88701 173.000
14.90695 180.000
14.92690 170.000
14.94685 196.000
14.96679 179.000
14.98674 220.000
15.00669 211.000
15.02663 222.000
15.04658 215.000
15.06653 225.000
15.08648 200.000
15.10642 213.000
15.12637 224.000
15.14632 195.000
15.16626 221.000
15.18621 250.000
15.20616 234.000
15.22610 219.000
15.24605 241.000
15.26600 249.000
15.28594 263.000
15.30589 289.000
15.32584 251.000
15.34579 278.000
15.36573 302.000
15.38568 327.000
15.40563 351.000
15.42557 367.000
15.44552 349.000
15.46547 427.000
15.48541 449.000
15.50536 532.000
15.52531 706.000
15.54526 785.000
15.56520 1116.000
15.58515 1587.000
15.60510 2365.000
15.62504 3479.000
15.64499 5105.000
15.66494 7107.000
15.68488 8149.000
15.70483 7934.000
15.72478 5831.000
15.74472 3906.000
15.76467 2086.000
15.78462 1181.000
15.80457 748.000
15.82451 545.000
15.84446 434.000
15.86441 396.000
15.88435 360.000
15.90430 270.000
15.92425 261.000
15.94419 235.000
15.96414 210.000
15.98409 199.000
16.00404 168.000
16.02398 174.000
16.04393 176.000
16.06388 135.000
16.08382 173.000
16.10377 174.000
16.12372 152.000
16.14366 162.000
16.16361 142.000
16.18356 121.000
16.20351 149.000
16.22345 120.000
16.24340 158.000
16.26335 123.000
16.28329 144.000
16.30324 130.000
16.32319 130.000
16.34313 134.000
16.36308 131.000
16.38303 128.000
16.40297 124.000
16.42292 119.000
16.44287 117.000
16.46282 126.000
16.48276 118.000
16.50271 117.000
16.52266 111.000
16.54260 135.000
16.56255 111.000
16.58250 123.000
16.60244 117.000
16.62239 126.000
16.64234 115.000
16.66229 105.000
16.68223 93.000
16.70218 108.000
16.72213 121.000
16.74207 97.000
16.76202 105.000
16.78197 112.000
16.80191 123.000
16.82186 112.000
16.84181 115.000
16.86175 97.000
16.88170 91.000
16.90165 117.000
16.92160 105.000
16.94154 106.000
16.96149 104.000
16.98144 91.000
17.00138 104.000
17.02133 103.000
17.04128 127.000
17.06122 90.000
17.08117 94.000
17.10112 91.000
17.12107 113.000
17.14101 95.000
17.16096 103.000
17.18091 98.000
17.20085 119.000
17.22080 119.000
17.24075 115.000
17.26069 103.000
17.28064 101.000
17.30059 109.000
17.32053 82.000
17.34048 107.000
17.36043 93.000
17.38038 126.000
17.40032 110.000
17.42027 100.000
17.44022 120.000
17.46016 92.000
17.48011 112.000
17.50006 90.000
17.52000 100.000
17.53995 101.000
17.55990 97.000
17.57985 101.000
17.59979 102.000
17.61974 100.000
17.63969 91.000
17.65963 103.000
17.67958 98.000
17.69953 89.000
17.71947 123.000
17.73942 118.000
17.75937 92.000
17.77932 112.000
17.79926 87.000
17.81921 89.000
17.83916 110.000
17.85910 108.000
17.87905 87.000
17.89900 118.000
17.91894 101.000
17.93889 99.000
17.95884 121.000
17.97878 115.000
17.99873 117.000
18.01868 103.000
18.03863 122.000
18.05857 126.000
18.07852 126.000
18.09847 142.000
18.11841 177.000
18.13836 232.000
18.15831 257.000
18.17825 327.000
18.19820 317.000
18.21815 330.000
18.23810 241.000
18.25804 227.000
18.27799 163.000
18.29794 116.000
18.31788 123.000
18.33783 112.000
18.35778 93.000
18.37772 117.000
18.39767 107.000
18.41762 101.000
18.43756 120.000
18.45751 98.000
18.47746 102.000
18.49741 97.000
18.51735 103.000
18.53730 108.000
18.55725 111.000
18.57719 96.000
18.59714 102.000
18.61709 89.000
18.63703 90.000
18.65698 105.000
18.67693 106.000
18.69688 91.000
18.71682 108.000
18.73677 94.000
18.75672 84.000
18.77666 96.000
18.79661 95.000
18.81656 111.000
18.83650 88.000
18.85645 125.000
18.87640 98.000
18.89634 84.000
18.91629 89.000
18.93624 112.000
18.95619 107.000
18.97613 88.000
18.99608 97.000
19.01603 105.000
19.03597 95.000
19.05592 99.000
19.07587 84.000
19.09581 110.000
19.11576 94.000
19.13571 118.000
19.15566 97.000
19.17560 117.000
19.19555 105.000
19.21550 90.000
19.23544 124.000
19.25539 101.000
19.27534 83.000
19.29528 101.000
19.31523 104.000
19.33518 100.000
19.35513 103.000
19.37507 112.000
19.39502 101.000
19.41497 94.000
19.43491 89.000
19.45486 88.000
19.47481 86.000
19.49475 106.000
19.51470 95.000
19.53465 89.000
19.55459 89.000
19.57454 99.000
19.59449 96.000
19.61444 109.000
19.63438 99.000
19.65433 110.000
19.67428 99.000
19.69422 75.000
19.71417 96.000
19.73412 107.000
19.75406 112.000
19.77401 89.000
19.79396 88.000
19.81391 103.000
19.83385 105.000
19.85380 94.000
19.87375 81.000
19.89369 96.000
19.91364 96.000
19.93359 105.000
19.95353 99.000
19.97348 91.000
19.99343 93.000
20.01337 104.000
20.03332 86.000
20.05327 94.000
20.07322 99.000
20.09316 93.000
20.11311 92.000
20.13306 116.000
20.15300 86.000
20.17295 107.000
20.19290 84.000
20.21284 101.000
20.23279 89.000
20.25274 100.000
20.27269 110.000
20.29263 117.000
20.31258 100.000
20.33253 105.000
20.35247 84.000
20.37242 113.000
20.39237 98.000
20.41231 104.000
20.43226 97.000
20.45221 113.000
20.47215 88.000
20.49210 91.000
20.51205 100.000
20.53200 111.000
20.55194 111.000
20.57189 104.000
20.59184 105.000
20.61178 101.000
20.63173 113.000
20.65168 112.000
20.67162 90.000
20.69157 117.000
20.71152 88.000
20.73147 89.000
20.75141 82.000
20.77136 94.000
20.79131 104.000
20.81125 82.000
20.83120 96.000
20.85115 89.000
20.87109 92.000
20.89104 99.000
20.91099 87.000
20.93094 88.000
20.95088 98.000
20.97083 109.000
20.99078 99.000
21.01072 104.000
21.03067 101.000
21.05062 130.000
21.07056 116.000
21.09051 115.000
21.11046 142.000
21.13040 154.000
21.15035 142.000
21.17030 119.000
21.19025 113.000
21.21019 117.000
21.23014 112.000
21.25009 95.000
21.27003 108.000
21.28998 114.000
21.30993 98.000
21.32987 100.000
21.34982 107.000
21.36977 94.000
21.38972 123.000
21.40966 103.000
21.42961 103.000
21.44956 101.000
21.46950 107.000
21.48945 122.000
21.50940 113.000
21.52934 80.000
21.54929 105.000
21.56924 99.000
21.58918 97.000
21.60913 90.000
21.62908 108.000
21.64903 109.000
21.66897 105.000
21.68892 93.000
21.70887 87.000
21.72881 107.000
21.74876 122.000
21.76871 85.000
21.78865 92.000
21.80860 96.000
21.82855 91.000
21.84850 87.000
21.86844 95.000
21.88839 105.000
21.90834 110.000
21.92828 88.000
21.94823 95.000
21.96818 115.000
21.98812 114.000
22.00807 98.000
22.02802 96.000
22.04796 94.000
22.06791 97.000
22.08786 117.000
22.10781 90.000
22.12775 84.000
22.14770 114.000
22.16765 90.000
22.18759 106.000
22.20754 103.000
22.22749 97.000
22.24743 89.000
22.26738 106.000
22.28733 99.000
22.30728 110.000
22.32722 84.000
22.34717 104.000
22.36712 103.000
22.38706 101.000
22.40701 90.000
22.42696 104.000
22.44690 88.000
22.46685 120.000
22.48680 103.000
22.50675 111.000
22.52669 117.000
22.54664 98.000
22.56659 101.000
22.58653 104.000
22.60648 105.000
22.62643 105.000
22.64637 108.000
22.66632 113.000
22.68627 106.000
22.70621 101.000
22.72616 96.000
22.74611 100.000
22.76606 109.000
22.78600 95.000
22.80595 107.000
22.82590 113.000
22.84584 116.000
22.86579 96.000
22.88574 93.000
22.90568 100.000
22.92563 118.000
22.94558 95.000
22.96553 108.000
22.98547 107.000
23.00542 94.000
23.02537 97.000
23.04531 110.000
23.06526 115.000
23.08521 107.000
23.10515 97.000
23.12510 102.000
23.14505 110.000
23.16499 104.000
23.18494 128.000
23.20489 111.000
23.22484 98.000
23.24478 104.000
23.26473 135.000
23.28468 108.000
23.30462 116.000
23.32457 97.000
23.34452 99.000
23.36446 108.000
23.38441 118.000
23.40436 106.000
23.42431 107.000
23.44425 91.000
23.46420 101.000
23.48415 99.000
23.50409 117.000
23.52404 91.000
23.54399 113.000
23.56393 95.000
23.58388 104.000
23.60383 113.000
23.62377 112.000
23.64372 118.000
23.66367 116.000
23.68362 88.000
23.70356 118.000
23.72351 122.000
23.74346 102.000
23.76340 99.000
23.78335 92.000
23.80330 108.000
23.82324 103.000
23.84319 101.000
23.86314 111.000
23.88309 100.000
23.90303 96.000
23.92298 117.000
23.94293 112.000
23.96287 124.000
23.98282 87.000
24.00277 95.000
24.02271 95.000
24.04266 105.000
24.06261 100.000
24.08256 110.000
24.10250 113.000
24.12245 97.000
24.14240 123.000
24.16234 113.000
24.18229 111.000
24.20224 114.000
24.22218 100.000
24.24213 98.000
24.26208 109.000
24.28202 95.000
24.30197 116.000
24.32192 113.000
24.34187 104.000
24.36181 110.000
24.38176 110.000
24.40171 92.000
24.42165 111.000
24.44160 85.000
24.46155 111.000
24.48149 119.000
24.50144 108.000
24.52139 100.000
24.54134 109.000
24.56128 101.000
24.58123 105.000
24.60118 100.000
24.62112 117.000
24.64107 115.000
24.66102 104.000
24.68096 105.000
24.70091 107.000
24.72086 101.000
24.74080 103.000
24.76075 116.000
24.78070 87.000
24.80065 95.000
24.82059 107.000
24.84054 105.000
24.86049 115.000
24.88043 117.000
24.90038 122.000
24.92033 113.000
24.94027 102.000
24.96022 132.000
24.98017 115.000
25.00012 115.000
25.02006 128.000
25.04001 117.000
25.05996 108.000
25.07990 103.000
25.09985 123.000
25.11980 130.000
25.13974 122.000
25.15969 115.000
25.17964 132.000
25.19958 144.000
25.21953 138.000
25.23948 137.000
25.25943 123.000
25.27937 109.000
25.29932 134.000
25.31927 155.000
25.33921 139.000
25.35916 177.000
25.37911 170.000
25.39905 199.000
25.41900 181.000
25.43895 194.000
25.45890 204.000
25.47884 190.000
25.49879 188.000
25.51874 188.000
25.53868 179.000
25.55863 172.000
25.57858 195.000
25.59852 172.000
25.61847 150.000
25.63842 162.000
25.65837 138.000
25.67831 133.000
25.69826 142.000
25.71821 145.000
25.73815 138.000
25.75810 142.000
25.77805 164.000
25.79799 174.000
25.81794 153.000
25.83789 147.000
25.85783 132.000
25.87778 150.000
25.89773 127.000
25.91768 127.000
25.93762 120.000
25.95757 134.000
25.97752 140.000
25.99746 121.000
26.01741 131.000
26.03736 138.000
26.05730 124.000
26.07725 113.000
26.09720 124.000
26.11715 103.000
26.13709 128.000
26.15704 124.000
26.17699 130.000
26.19693 115.000
26.21688 119.000
26.23683 123.000
26.25677 119.000
26.27672 109.000
26.29667 103.000
26.31661 107.000
26.33656 117.000
26.35651 131.000
26.37646 119.000
26.39640 107.000
26.41635 138.000
26.43630 129.000
26.45624 102.000
26.47619 140.000
26.49614 103.000
26.51608 116.000
26.53603 137.000
26.55598 134.000
26.57593 133.000
26.59587 115.000
26.61582 138.000
26.63577 121.000
26.65571 89.000
26.67566 113.000
26.69561 118.000
26.71555 97.000
26.73550 126.000
26.75545 109.000
26.77539 126.000
26.79534 112.000
26.81529 115.000
26.83524 115.000
26.85518 106.000
26.87513 104.000
26.89508 116.000
26.91502 100.000
26.93497 137.000
26.95492 123.000
26.97486 108.000
26.99481 102.000
27.01476 136.000
27.03471 105.000
27.05465 111.000
27.07460 125.000
27.09455 108.000
27.11449 110.000
27.13444 97.000
27.15439 114.000
27.17433 136.000
27.19428 141.000
27.21423 133.000
27.23417 111.000
27.25412 104.000
27.27407 115.000
27.29402 143.000
27.31396 102.000
27.33391 115.000
27.35386 118.000
27.37380 120.000
27.39375 117.000
27.41370 108.000
27.43364 135.000
27.45359 119.000
27.47354 114.000
27.49349 113.000
27.51343 138.000
27.53338 114.000
27.55333 120.000
27.57327 119.000
27.59322 103.000
27.61317 126.000
27.63311 135.000
27.65306 134.000
27.67301 143.000
27.69296 125.000
27.71290 142.000
27.73285 114.000
27.75280 118.000
27.77274 116.000
27.79269 133.000
27.81264 127.000
27.83258 127.000
27.85253 118.000
27.87248 116.000
27.89242 132.000
27.91237 109.000
27.93232 131.000
27.95227 114.000
27.97221 117.000
27.99216 120.000
28.01211 116.000
28.03205 123.000
28.05200 101.000
28.07195 157.000
28.09189 117.000
28.11184 127.000
28.13179 128.000
28.15174 122.000
28.17168 128.000
28.19163 127.000
28.21158 126.000
28.23152 106.000
28.25147 102.000
28.27142 123.000
28.29136 112.000
28.31131 123.000
28.33126 116.000
28.35120 120.000
28.37115 113.000
28.39110 125.000
28.41105 117.000
28.43099 129.000
28.45094 129.000
28.47089 125.000
28.49083 122.000
28.51078 96.000
28.53073 134.000
28.55067 127.000
28.57062 110.000
28.59057 122.000
28.61052 119.000
28.63046 142.000
28.65041 105.000
28.67036 119.000
28.69030 126.000
28.71025 122.000
28.73020 117.000
28.75014 109.000
28.77009 143.000
28.79004 114.000
28.80998 119.000
28.82993 113.000
28.84988 119.000
28.86983 130.000
28.88977 122.000
28.90972 123.000
28.92967 118.000
28.94961 125.000
28.96956 125.000
28.98951 98.000
29.00945 124.000
29.02940 94.000
29.04935 116.000
29.06930 135.000
29.08924 128.000
29.10919 116.000
29.12914 130.000
29.14908 124.000
29.16903 107.000
29.18898 124.000
29.20892 104.000
29.22887 106.000
29.24882 130.000
29.26877 145.000
29.28871 123.000
29.30866 137.000
29.32861 120.000
29.34855 126.000
29.36850 117.000
29.38845 138.000
29.40839 125.000
29.42834 113.000
29.44829 133.000
29.46823 117.000
29.48818 132.000
29.50813 128.000
29.52808 123.000
29.54802 135.000
29.56797 133.000
29.58792 120.000
29.60786 129.000
29.62781 139.000
29.64776 123.000
29.66770 119.000
29.68765 138.000
29.70760 125.000
29.72755 146.000
29.74749 139.000
29.76744 154.000
29.78739 147.000
29.80733 177.000
29.82728 179.000
29.84723 184.000
29.86717 238.000
29.88712 234.000
29.90707 266.000
29.92701 252.000
29.94696 270.000
29.96691 249.000
29.98686 251.000
30.00680 252.000
30.02675 220.000
30.04670 180.000
30.06664 184.000
30.08659 169.000
30.10654 155.000
30.12648 164.000
30.14643 150.000
30.16638 170.000
30.18633 151.000
30.20627 139.000
30.22622 130.000
30.24617 140.000
30.26611 143.000
30.28606 145.000
30.30601 145.000
30.32595 135.000
30.34590 128.000
30.36585 144.000
30.38579 116.000
30.40574 135.000
30.42569 123.000
30.44564 141.000
30.46558 136.000
30.48553 139.000
30.50548 153.000
30.52542 113.000
30.54537 146.000
30.56532 136.000
30.58526 120.000
30.60521 141.000
30.62516 139.000
30.64511 121.000
30.66505 139.000
30.68500 140.000
30.70495 124.000
30.72489 126.000
30.74484 140.000
30.76479 130.000
30.78473 128.000
30.80468 152.000
30.82463 134.000
30.84458 130.000
30.86452 109.000
30.88447 135.000
30.90442 138.000
30.92436 143.000
30.94431 124.000
30.96426 119.000
30.98420 105.000
31.00415 128.000
31.02410 134.000
31.04404 151.000
31.06399 146.000
31.08394 130.000
31.10389 126.000
31.12383 154.000
31.14378 140.000
31.16373 121.000
31.18367 158.000
31.20362 112.000
31.22357 139.000
31.24351 146.000
31.26346 141.000
31.28341 153.000
31.30336 137.000
31.32330 140.000
31.34325 139.000
31.36320 181.000
31.38314 142.000
31.40309 155.000
31.42304 159.000
31.44298 148.000
31.46293 191.000
31.48288 160.000
31.50282 195.000
31.52277 205.000
31.54272 256.000
31.56267 268.000
31.58261 318.000
31.60256 419.000
31.62251 489.000
31.64245 599.000
31.66240 645.000
31.68235 642.000
31.70229 564.000
31.72224 479.000
31.74219 491.000
31.76214 423.000
31.78208 349.000
31.80203 288.000
31.82198 213.000
31.84192 174.000
31.86187 188.000
31.88182 184.000
31.90176 149.000
31.92171 131.000
31.94166 150.000
31.96160 148.000
31.98155 130.000
32.00150 120.000
32.02145 149.000
32.04139 112.000
32.06134 134.000
32.08129 136.000
32.10123 128.000
32.12118 132.000
32.14113 131.000
32.16107 135.000
32.18102 121.000
32.20097 121.000
32.22092 132.000
32.24086 136.000
32.26081 115.000
32.28076 121.000
32.30070 133.000
32.32065 119.000
32.34060 121.000
32.36054 122.000
32.38049 113.000
32.40044 114.000
32.42039 129.000
32.44033 131.000
32.46028 133.000
32.48023 129.000
32.50017 136.000
32.52012 123.000
32.54007 136.000
32.56001 141.000
32.57996 144.000
32.59991 137.000
32.61985 136.000
32.63980 124.000
32.65975 127.000
32.67970 133.000
32.69964 134.000
32.71959 125.000
32.73954 141.000
32.75948 119.000
32.77943 113.000
32.79938 141.000
32.81932 136.000
32.83927 111.000
32.85922 145.000
32.87917 99.000
32.89911 143.000
32.91906 140.000
32.93901 116.000
32.95895 129.000
32.97890 132.000
32.99885 141.000
33.01879 113.000
33.03874 124.000
33.05869 128.000
33.07863 131.000
33.09858 128.000
33.11853 125.000
33.13848 101.000
33.15842 141.000
33.17837 139.000
33.19832 132.000
33.21826 139.000
33.23821 122.000
33.25816 130.000
33.27810 118.000
33.29805 119.000
33.31800 123.000
33.33795 106.000
33.35789 122.000
33.37784 125.000
33.39779 131.000
33.41773 106.000
33.43768 112.000
33.45763 123.000
33.47757 117.000
33.49752 125.000
33.51747 121.000
33.53741 115.000
33.55736 124.000
33.57731 111.000
33.59726 101.000
33.61720 121.000
33.63715 123.000
33.65710 125.000
33.67704 139.000
33.69699 110.000
33.71694 118.000
33.73688 132.000
33.75683 135.000
33.77678 122.000
33.79673 136.000
33.81667 111.000
33.83662 122.000
33.85657 129.000
33.87651 122.000
33.89646 132.000
33.91641 128.000
33.93635 120.000
33.95630 112.000
33.97625 136.000
33.99620 111.000
34.01614 142.000
34.03609 126.000
34.05604 110.000
34.07598 116.000
34.09593 142.000
34.11588 150.000
34.13582 131.000
34.15577 154.000
34.17572 135.000
34.19566 128.000
34.21561 126.000
34.23556 146.000
34.25551 124.000
34.27545 137.000
34.29540 151.000
34.31535 116.000
34.33529 144.000
34.35524 132.000
34.37519 134.000
34.39513 133.000
34.41508 123.000
34.43503 153.000
34.45498 162.000
34.47492 136.000
34.49487 140.000
34.51482 137.000
34.53476 152.000
34.55471 162.000
34.57466 117.000
34.59460 159.000
34.61455 133.000
34.63450 142.000
34.65444 140.000
34.67439 154.000
34.69434 148.000
34.71429 135.000
34.73423 142.000
34.75418 160.000
34.77413 150.000
34.79407 143.000
34.81402 156.000
34.83397 164.000
34.85391 186.000
34.87386 155.000
34.89381 171.000
34.91376 155.000
34.93370 177.000
34.95365 182.000
34.97360 177.000
34.99354 180.000
35.01349 168.000
35.03344 202.000
35.05338 221.000
35.07333 263.000
35.09328 252.000
35.11322 332.000
35.13317 344.000
35.15312 414.000
35.17307 470.000
35.19301 563.000
35.21296 594.000
35.23291 636.000
35.25285 581.000
35.27280 571.000
35.29275 591.000
35.31269 510.000
35.33264 458.000
35.35259 415.000
35.37254 369.000
35.39248 334.000
35.41243 322.000
35.43238 330.000
35.45232 334.000
35.47227 432.000
35.49222 451.000
35.51216 352.000
35.53211 370.000
35.55206 415.000
35.57201 440.000
35.59195 466.000
35.61190 440.000
35.63185 404.000
35.65179 416.000
35.67174 497.000
35.69169 520.000
35.71163 664.000
35.73158 697.000
35.75153 714.000
35.77147 781.000
35.79142 693.000
35.81137 647.000
35.83132 629.000
35.85126 541.000
35.87121 507.000
35.89116 432.000
35.91110 363.000
35.93105 275.000
35.95100 234.000
35.97094 218.000
35.99089 192.000
36.01084 201.000
36.03079 182.000
36.05073 177.000
36.07068 183.000
36.09063 166.000
36.11057 168.000
36.13052 153.000
36.15047 163.000
36.17041 192.000
36.19036 153.000
36.21031 171.000
36.23025 138.000
36.25020 160.000
36.27015 164.000
36.29010 174.000
36.31004 161.000
36.32999 171.000
36.34994 153.000
36.36988 155.000
36.38983 157.000
36.40978 130.000
36.42972 133.000
36.44967 160.000
36.46962 149.000
36.48957 160.000
36.50951 185.000
36.52946 141.000
36.54941 186.000
36.56935 182.000
36.58930 176.000
36.60925 186.000
36.62919 197.000
36.64914 190.000
36.66909 194.000
36.68903 205.000
36.70898 201.000
36.72893 208.000
36.74888 202.000
36.76882 182.000
36.78877 174.000
36.80872 206.000
36.82866 195.000
36.84861 214.000
36.86856 179.000
36.88850 168.000
36.90845 191.000
36.92840 184.000
36.94835 158.000
36.96829 152.000
36.98824 143.000
37.00819 145.000
37.02813 155.000
37.04808 132.000
37.06803 124.000
37.08797 136.000
37.10792 139.000
37.12787 129.000
37.14781 119.000
37.16776 129.000
37.18771 121.000
37.20766 122.000
37.22760 114.000
37.24755 122.000
37.26750 124.000
37.28744 139.000
37.30739 145.000
37.32734 134.000
37.34728 131.000
37.36723 143.000
37.38718 141.000
37.40713 127.000
37.42707 137.000
37.44702 143.000
37.46697 147.000
37.48691 146.000
37.50686 171.000
37.52681 121.000
37.54675 153.000
37.56670 161.000
37.58665 153.000
37.60660 115.000
37.62654 153.000
37.64649 159.000
37.66644 152.000
37.68638 161.000
37.70633 153.000
37.72628 134.000
37.74622 157.000
37.76617 136.000
37.78612 180.000
37.80606 178.000
37.82601 159.000
37.84596 159.000
37.86591 171.000
37.88585 171.000
37.90580 154.000
37.92575 183.000
37.94569 192.000
37.96564 195.000
37.98559 188.000
38.00553 173.000
38.02548 179.000
38.04543 197.000
38.06538 198.000
38.08532 192.000
38.10527 179.000
38.12522 205.000
38.14516 178.000
38.16511 210.000
38.18506 203.000
38.20500 171.000
38.22495 170.000
38.24490 180.000
38.26484 167.000
38.28479 151.000
38.30474 190.000
38.32469 195.000
38.34463 162.000
38.36458 175.000
38.38453 182.000
38.40447 180.000
38.42442 175.000
38.44437 184.000
38.46431 181.000
38.48426 168.000
38.50421 182.000
38.52416 205.000
38.54410 201.000
38.56405 210.000
38.58400 198.000
38.60394 198.000
38.62389 191.000
38.64384 214.000
38.66378 221.000
38.68373 227.000
38.70368 262.000
38.72362 290.000
38.74357 275.000
38.76352 293.000
38.78347 299.000
38.80341 253.000
38.82336 276.000
38.84331 274.000
38.86325 290.000
38.88320 285.000
38.90315 249.000
38.92309 252.000
38.94304 250.000
38.96299 253.000
38.98294 288.000
39.00288 255.000
39.02283 289.000
39.04278 276.000
39.06272 300.000
39.08267 269.000
39.10262 315.000
39.12256 385.000
39.14251 453.000
39.16246 562.000
39.18241 745.000
39.20235 903.000
39.22230 1063.000
39.24225 1190.000
39.26219 1120.000
39.28214 1116.000
39.30209 1062.000
39.32203 990.000
39.34198 940.000
39.36193 816.000
39.38187 650.000
39.40182 592.000
39.42177 469.000
39.44172 372.000
39.46166 335.000
39.48161 272.000
39.50156 252.000
39.52150 210.000
39.54145 218.000
39.56140 194.000
39.58134 178.000
39.60129 184.000
39.62124 153.000
39.64119 136.000
39.66113 153.000
39.68108 151.000
39.70103 140.000
39.72097 154.000
39.74092 132.000
39.76087 146.000
39.78081 125.000
39.80076 134.000
39.82071 127.000
39.84065 155.000
39.86060 154.000
39.88055 151.000
39.90050 111.000
39.92044 137.000
39.94039 108.000
39.96034 122.000
39.98028 114.000
40.00023 119.000
40.02018 128.000
40.04012 124.000
40.06007 127.000
40.08002 138.000
40.09997 136.000
40.11991 155.000
40.13986 123.000
40.15981 133.000
40.17975 126.000
40.19970 130.000
40.21965 143.000
40.23959 105.000
40.25954 123.000
40.27949 123.000
40.29943 113.000
40.31938 132.000
40.33933 136.000
40.35928 122.000
40.37922 109.000
40.39917 123.000
40.41912 117.000
40.43906 100.000
40.45901 105.000
40.47896 106.000
40.49890 117.000
40.51885 110.000
40.53880 129.000
40.55875 124.000
40.57869 107.000
40.59864 122.000
40.61859 110.000
40.63853 118.000
40.65848 121.000
40.67843 121.000
40.69837 114.000
40.71832 141.000
40.73827 127.000
40.75822 130.000
40.77816 112.000
40.79811 115.000
40.81806 131.000
40.83800 112.000
40.85795 126.000
40.87790 142.000
40.89784 128.000
40.91779 120.000
40.93774 136.000
40.95768 120.000
40.97763 112.000
40.99758 121.000
41.01753 138.000
41.03747 110.000
41.05742 149.000
41.07737 108.000
41.09731 135.000
41.11726 126.000
41.13721 125.000
41.15715 125.000
41.17710 124.000
41.19705 128.000
41.21700 105.000
41.23694 127.000
41.25689 136.000
41.27684 121.000
41.29678 129.000
41.31673 133.000
41.33668 106.000
41.35662 135.000
41.37657 130.000
41.39652 128.000
41.41646 138.000
41.43641 124.000
41.45636 151.000
41.47631 125.000
41.49625 129.000
41.51620 141.000
41.53615 133.000
41.55609 139.000
41.57604 118.000
41.59599 126.000
41.61593 120.000
41.63588 110.000
41.65583 125.000
41.67578 115.000
41.69572 112.000
41.71567 124.000
41.73562 110.000
41.75556 117.000
41.77551 129.000
41.79546 124.000
41.81540 123.000
41.83535 140.000
41.85530 131.000
41.87524 120.000
41.89519 116.000
41.91514 143.000
41.93509 128.000
41.95503 128.000
41.97498 156.000
41.99493 137.000
42.01487 139.000
42.03482 104.000
42.05477 132.000
42.07471 120.000
42.09466 121.000
42.11461 130.000
42.13456 123.000
42.15450 126.000
42.17445 109.000
42.19440 117.000
42.21434 108.000
42.23429 137.000
42.25424 126.000
42.27418 120.000
42.29413 136.000
42.31408 141.000
42.33403 136.000
42.35397 121.000
42.37392 117.000
42.39387 132.000
42.41381 128.000
42.43376 142.000
42.45371 114.000
42.47365 123.000
42.49360 135.000
42.51355 116.000
42.53349 135.000
42.55344 131.000
42.57339 142.000
42.59334 138.000
42.61328 139.000
42.63323 146.000
42.65318 168.000
42.67312 151.000
42.69307 178.000
42.71302 197.000
42.73296 203.000
42.75291 211.000
42.77286 219.000
42.79281 229.000
42.81275 249.000
42.83270 239.000
42.85265 259.000
42.87259 222.000
42.89254 201.000
42.91249 221.000
42.93243 186.000
42.95238 213.000
42.97233 206.000
42.99227 172.000
43.01222 178.000
43.03217 172.000
43.05212 154.000
43.07206 201.000
43.09201 168.000
43.11196 178.000
43.13190 206.000
43.15185 217.000
43.17180 247.000
43.19174 250.000
43.21169 294.000
43.23164 320.000
43.25159 428.000
43.27153 512.000
43.29148 477.000
43.31143 471.000
43.33137 435.000
43.35132 427.000
43.37127 393.000
43.39121 401.000
43.41116 343.000
43.43111 334.000
43.45105 282.000
43.47100 221.000
43.49095 216.000
43.51090 194.000
43.53084 183.000
43.55079 175.000
43.57074 161.000
43.59068 168.000
43.61063 146.000
43.63058 171.000
43.65052 137.000
43.67047 146.000
43.69042 144.000
43.71037 139.000
43.73031 149.000
43.75026 134.000
43.77021 139.000
43.79015 143.000
43.81010 119.000
43.83005 130.000
43.84999 138.000
43.86994 141.000
43.88989 127.000
43.90984 133.000
43.92978 150.000
43.94973 130.000
43.96968 124.000
43.98962 124.000
44.00957 123.000
44.02952 124.000
44.04946 132.000
44.06941 130.000
44.08936 128.000
44.10930 152.000
44.12925 148.000
44.14920 118.000
44.16915 137.000
44.18909 132.000
44.20904 125.000
44.22899 130.000
44.24893 149.000
44.26888 146.000
44.28883 125.000
44.30877 163.000
44.32872 137.000
44.34867 120.000
44.36862 139.000
44.38856 136.000
44.40851 148.000
44.42846 121.000
44.44840 129.000
44.46835 132.000
44.48830 154.000
44.50824 131.000
44.52819 142.000
44.54814 118.000
44.56808 153.000
44.58803 135.000
44.60798 135.000
44.62793 137.000
44.64787 126.000
44.66782 143.000
44.68777 141.000
44.70771 122.000
44.72766 127.000
44.74761 127.000
44.76755 116.000
44.78750 131.000
44.80745 135.000
44.82740 121.000
44.84734 166.000
44.86729 123.000
44.88724 119.000
44.90718 115.000
44.92713 138.000
44.94708 110.000
44.96702 115.000
44.98697 111.000
45.00692 139.000
45.02686 124.000
45.04681 143.000
45.06676 105.000
45.08671 122.000
45.10665 122.000
45.12660 126.000
45.14655 130.000
45.16649 96.000
45.18644 112.000
45.20639 123.000
45.22633 132.000
45.24628 123.000
45.26623 133.000
45.28618 134.000
45.30612 110.000
45.32607 103.000
45.34602 132.000
45.36596 118.000
45.38591 116.000
45.40586 120.000
45.42580 118.000
45.44575 130.000
45.46570 120.000
45.48565 142.000
45.50559 113.000
45.52554 116.000
45.54549 113.000
45.56543 115.000
45.58538 120.000
45.60533 101.000
45.62527 134.000
45.64522 123.000
45.66517 133.000
45.68511 122.000
45.70506 116.000
45.72501 116.000
45.74496 108.000
45.76490 127.000
45.78485 133.000
45.80480 112.000
45.82474 111.000
45.84469 122.000
45.86464 120.000
45.88458 132.000
45.90453 109.000
45.92448 128.000
45.94443 111.000
45.96437 112.000
45.98432 85.000
46.00427 121.000
46.02421 129.000
46.04416 129.000
46.06411 111.000
46.08405 96.000
46.10400 109.000
46.12395 92.000
46.14389 115.000
46.16384 116.000
46.18379 119.000
46.20374 109.000
46.22368 117.000
46.24363 148.000
46.26358 134.000
46.28352 129.000
46.30347 99.000
46.32342 125.000
46.34336 115.000
46.36331 120.000
46.38326 141.000
46.40321 121.000
46.42315 128.000
46.44310 131.000
46.46305 137.000
46.48299 140.000
46.50294 135.000
46.52289 106.000
46.54283 151.000
46.56278 131.000
46.58273 130.000
46.60267 121.000
46.62262 122.000
46.64257 110.000
46.66252 114.000
46.68246 122.000
46.70241 112.000
46.72236 124.000
46.74230 131.000
46.76225 112.000
46.78220 128.000
46.80214 115.000
46.82209 110.000
46.84204 133.000
46.86199 135.000
46.88193 124.000
46.90188 109.000
46.92183 102.000
46.94177 124.000
46.96172 110.000
46.98167 118.000
47.00161 111.000
47.02156 127.000
47.04151 130.000
47.06146 118.000
47.08140 130.000
47.10135 108.000
47.12130 113.000
47.14124 97.000
47.16119 115.000
47.18114 129.000
47.20108 118.000
47.22103 130.000
47.24098 125.000
47.26092 127.000
47.28087 127.000
47.30082 125.000
47.32077 110.000
47.34071 106.000
47.36066 150.000
47.38061 117.000
47.40055 108.000
47.42050 122.000
47.44045 130.000
47.46039 129.000
47.48034 116.000
47.50029 115.000
47.52024 112.000
47.54018 107.000
47.56013 125.000
47.58008 120.000
47.60002 115.000
47.61997 111.000
47.63992 133.000
47.65986 126.000
47.67981 114.000
47.69976 121.000
47.71970 122.000
47.73965 123.000
47.75960 128.000
47.77955 114.000
47.79949 126.000
47.81944 118.000
47.83939 137.000
47.85933 141.000
47.87928 158.000
47.89923 137.000
47.91917 147.000
47.93912 148.000
47.95907 149.000
47.97902 126.000
47.99896 137.000
48.01891 146.000
48.03886 145.000
48.05880 139.000
48.07875 155.000
48.09870 171.000
48.11864 150.000
48.13859 156.000
48.15854 209.000
48.17848 192.000
48.19843 175.000
48.21838 197.000
48.23833 204.000
48.25827 251.000
48.27822 255.000
48.29817 290.000
48.31811 299.000
48.33806 322.000
48.35801 366.000
48.37795 431.000
48.39790 530.000
48.41785 635.000
48.43780 829.000
48.45774 920.000
48.47769 1002.000
48.49764 1006.000
48.51758 1017.000
48.53753 904.000
48.55748 784.000
48.57742 758.000
48.59737 790.000
48.61732 703.000
48.63726 664.000
48.65721 569.000
48.67716 473.000
48.69711 406.000
48.71705 325.000
48.73700 339.000
48.75695 274.000
48.77689 252.000
48.79684 258.000
48.81679 227.000
48.83673 205.000
48.85668 213.000
48.87663 192.000
48.89658 185.000
48.91652 182.000
48.93647 140.000
48.95642 157.000
48.97636 169.000
48.99631 140.000
49.01626 141.000
49.03620 150.000
49.05615 160.000
49.07610 118.000
49.09605 114.000
49.11599 146.000
49.13594 132.000
49.15589 121.000
49.17583 142.000
49.19578 129.000
49.21573 143.000
49.23567 141.000
49.25562 116.000
49.27557 118.000
49.29551 115.000
49.31546 133.000
49.33541 129.000
49.35536 139.000
49.37530 132.000
49.39525 120.000
49.41520 114.000
49.43514 122.000
49.45509 120.000
49.47504 122.000
49.49498 105.000
49.51493 91.000
49.53488 116.000
49.55483 111.000
49.57477 98.000
49.59472 116.000
49.61467 108.000
49.63461 134.000
49.65456 95.000
49.67451 119.000
49.69445 113.000
49.71440 122.000
49.73435 134.000
49.75429 118.000
49.77424 105.000
49.79419 129.000
49.81414 119.000
49.83408 114.000
49.85403 111.000
49.87398 110.000
49.89392 99.000
49.91387 114.000
49.93382 117.000
49.95376 119.000
49.97371 94.000
49.99366 112.000
50.01361 114.000
50.03355 103.000
50.05350 108.000
50.07345 110.000
50.09339 122.000
50.11334 122.000
50.13329 121.000
50.15323 115.000
50.17318 95.000
50.19313 118.000
50.21307 129.000
50.23302 119.000
50.25297 116.000
50.27292 111.000
50.29286 128.000
50.31281 128.000
50.33276 103.000
50.35270 99.000
50.37265 119.000
50.39260 109.000
50.41254 121.000
50.43249 129.000
50.45244 101.000
50.47239 99.000
50.49233 112.000
50.51228 98.000
50.53223 127.000
50.55217 98.000
50.57212 94.000
50.59207 118.000
50.61201 91.000
50.63196 117.000
50.65191 113.000
50.67186 111.000
50.69180 114.000
50.71175 111.000
50.73170 115.000
50.75164 103.000
50.77159 103.000
50.79154 118.000
50.81148 111.000
50.83143 100.000
50.85138 125.000
50.87132 109.000
50.89127 127.000
50.91122 128.000
50.93117 112.000
50.95111 103.000
50.97106 106.000
50.99101 89.000
51.01095 112.000
51.03090 108.000
51.05085 131.000
51.07079 118.000
51.09074 125.000
51.11069 94.000
51.13064 121.000
51.15058 104.000
51.17053 88.000
51.19048 99.000
51.21042 110.000
51.23037 105.000
51.25032 105.000
51.27026 103.000
51.29021 120.000
51.31016 121.000
51.33010 109.000
51.35005 99.000
51.37000 114.000
51.38995 116.000
51.40989 102.000
51.42984 97.000
51.44979 98.000
51.46973 100.000
51.48968 99.000
51.50963 124.000
51.52957 105.000
51.54952 99.000
51.56947 121.000
51.58942 116.000
51.60936 106.000
51.62931 127.000
51.64926 99.000
51.66920 106.000
51.68915 118.000
51.70910 106.000
51.72904 115.000
51.74899 98.000
51.76894 118.000
51.78888 111.000
51.80883 109.000
51.82878 122.000
51.84873 135.000
51.86867 107.000
51.88862 122.000
51.90857 89.000
51.92851 87.000
51.94846 93.000
51.96841 109.000
51.98835 126.000
52.00830 104.000
52.02825 132.000
52.04820 102.000
52.06814 106.000
52.08809 106.000
52.10804 122.000
52.12798 107.000
52.14793 120.000
52.16788 111.000
52.18782 92.000
52.20777 121.000
52.22772 115.000
52.24767 122.000
52.26761 111.000
52.28756 113.000
52.30751 122.000
52.32745 100.000
52.34740 108.000
52.36735 98.000
52.38729 125.000
52.40724 107.000
52.42719 112.000
52.44713 102.000
52.46708 82.000
52.48703 111.000
52.50698 121.000
52.52692 116.000
52.54687 135.000
52.56682 120.000
52.58676 97.000
52.60671 121.000
52.62666 128.000
52.64660 91.000
52.66655 121.000
52.68650 115.000
52.70645 137.000
52.72639 114.000
52.74634 118.000
52.76629 106.000
52.78623 115.000
52.80618 130.000
52.82613 110.000
52.84607 100.000
52.86602 120.000
52.88597 126.000
52.90591 106.000
52.92586 134.000
52.94581 132.000
52.96576 147.000
52.98570 119.000
53.00565 131.000
53.02560 136.000
53.04554 139.000
53.06549 156.000
53.08544 156.000
53.10538 145.000
53.12533 133.000
53.14528 133.000
53.16523 170.000
53.18517 154.000
53.20512 124.000
53.22507 146.000
53.24501 125.000
53.26496 133.000
53.28491 139.000
53.30485 132.000
53.32480 132.000
53.34475 135.000
53.36469 127.000
53.38464 131.000
53.40459 151.000
53.42454 129.000
53.44448 141.000
53.46443 140.000
53.48438 131.000
53.50432 138.000
53.52427 117.000
53.54422 125.000
53.56416 118.000
53.58411 158.000
53.60406 119.000
53.62401 137.000
53.64395 132.000
53.66390 140.000
53.68385 135.000
53.70379 115.000
53.72374 136.000
53.74369 125.000
53.76363 113.000
53.78358 130.000
53.80353 117.000
53.82348 127.000
53.84342 115.000
53.86337 123.000
53.88332 159.000
53.90326 103.000
53.92321 135.000
53.94316 108.000
53.96310 140.000
53.98305 128.000
54.00300 100.000
54.02294 108.000
54.04289 106.000
54.06284 114.000
54.08279 143.000
54.10273 98.000
54.12268 113.000
54.14263 115.000
54.16257 135.000
54.18252 110.000
54.20247 107.000
54.22241 126.000
54.24236 96.000
54.26231 105.000
54.28226 115.000
54.30220 117.000
54.32215 101.000
54.34210 138.000
54.36204 118.000
54.38199 105.000
54.40194 123.000
54.42188 119.000
54.44183 103.000
54.46178 102.000
54.48172 105.000
54.50167 103.000
54.52162 106.000
54.54157 128.000
54.56151 108.000
54.58146 120.000
54.60141 120.000
54.62135 113.000
54.64130 105.000
54.66125 126.000
54.68119 102.000
54.70114 122.000
54.72109 110.000
54.74104 108.000
54.76098 111.000
54.78093 116.000
54.80088 108.000
54.82082 100.000
54.84077 102.000
54.86072 114.000
54.88066 112.000
54.90061 126.000
54.92056 129.000
54.94050 111.000
54.96045 113.000
54.98040 99.000
55.00035 111.000
55.02029 103.000
55.04024 114.000
55.06019 98.000
55.08013 104.000
55.10008 109.000
55.12003 129.000
55.13997 101.000
55.15992 95.000
55.17987 123.000
55.19982 99.000
55.21976 111.000
55.23971 86.000
55.25966 95.000
55.27960 123.000
55.29955 102.000
55.31950 101.000
55.33944 128.000
55.35939 130.000
55.37934 113.000
55.39929 94.000
55.41923 96.000
55.43918 97.000
55.45913 100.000
55.47907 102.000
55.49902 97.000
55.51897 102.000
55.53891 120.000
55.55886 110.000
55.57881 111.000
55.59875 113.000
55.61870 98.000
55.63865 113.000
55.65860 79.000
55.67854 108.000
55.69849 94.000
55.71844 106.000
55.73838 102.000
55.75833 103.000
55.77828 115.000
55.79822 107.000
55.81817 112.000
55.83812 103.000
55.85807 118.000
55.87801 103.000
55.89796 106.000
55.91791 99.000
55.93785 94.000
55.95780 116.000
55.97775 113.000
55.99769 95.000
56.01764 108.000
56.03759 120.000
56.05753 93.000
56.07748 107.000
56.09743 111.000
56.11738 100.000
56.13732 116.000
56.15727 117.000
56.17722 119.000
56.19716 111.000
56.21711 115.000
56.23706 118.000
56.25700 109.000
56.27695 113.000
56.29690 113.000
56.31685 131.000
56.33679 134.000
56.35674 149.000
56.37669 155.000
56.39663 157.000
56.41658 158.000
56.43653 157.000
56.45647 165.000
56.47642 150.000
56.49637 182.000
56.51631 163.000
56.53626 192.000
56.55621 181.000
56.57616 208.000
56.59610 192.000
56.61605 201.000
56.63600 233.000
56.65594 183.000
56.67589 188.000
56.69584 188.000
56.71578 186.000
56.73573 188.000
56.75568 161.000
56.77563 163.000
56.79557 149.000
56.81552 162.000
56.83547 117.000
56.85541 122.000
56.87536 148.000
56.89531 135.000
56.91525 102.000
56.93520 111.000
56.95515 130.000
56.97510 114.000
56.99504 122.000
57.01499 141.000
57.03494 134.000
57.05488 112.000
57.07483 110.000
57.09478 109.000
57.11472 110.000
57.13467 131.000
57.15462 117.000
57.17456 121.000
57.19451 108.000
57.21446 128.000
57.23441 125.000
57.25435 125.000
57.27430 109.000
57.29425 90.000
57.31419 95.000
57.33414 118.000
57.35409 114.000
57.37403 115.000
57.39398 125.000
57.41393 104.000
57.43388 135.000
57.45382 112.000
57.47377 107.000
57.49372 105.000
57.51366 111.000
57.53361 115.000
57.55356 114.000
57.57350 113.000
57.59345 105.000
57.61340 86.000
57.63334 123.000
57.65329 119.000
57.67324 122.000
57.69319 130.000
57.71313 107.000
57.73308 113.000
57.75303 121.000
57.77297 101.000
57.79292 122.000
57.81287 97.000
57.83281 130.000
57.85276 92.000
57.87271 117.000
57.89266 119.000
57.91260 95.000
57.93255 107.000
57.95250 96.000
57.97244 115.000
57.99239 103.000
58.01234 106.000
58.03228 105.000
58.05223 106.000
58.07218 103.000
58.09212 102.000
58.11207 107.000
58.13202 129.000
58.15197 88.000
58.17191 119.000
58.19186 113.000
58.21181 126.000
58.23175 119.000
58.25170 129.000
58.27165 125.000
58.29159 112.000
58.31154 118.000
58.33149 133.000
58.35144 129.000
58.37138 130.000
58.39133 126.000
58.41128 118.000
58.43122 118.000
58.45117 122.000
58.47112 108.000
58.49106 100.000
58.51101 109.000
58.53096 116.000
58.55090 110.000
58.57085 121.000
58.59080 113.000
58.61075 97.000
58.63069 101.000
58.65064 91.000
58.67059 107.000
58.69053 121.000
58.71048 104.000
58.73043 98.000
58.75037 104.000
58.77032 87.000
58.79027 102.000
58.81022 125.000
58.83016 115.000
58.85011 139.000
58.87006 119.000
58.89000 103.000
58.90995 107.000
58.92990 120.000
58.94984 116.000
58.96979 106.000
58.98974 102.000
59.00969 99.000
59.02963 110.000
59.04958 109.000
59.06953 109.000
59.08947 108.000
59.10942 99.000
59.12937 96.000
59.14931 105.000
59.16926 113.000
59.18921 108.000
59.20915 119.000
59.22910 109.000
59.24905 111.000
59.26900 100.000
59.28894 121.000
59.30889 118.000
59.32884 103.000
59.34878 100.000
59.36873 117.000
59.38868 104.000
59.40862 108.000
59.42857 117.000
59.44852 115.000
59.46847 113.000
59.48841 123.000
59.50836 123.000
59.52831 110.000
59.54825 100.000
59.56820 102.000
59.58815 91.000
59.60809 115.000
59.62804 95.000
59.64799 113.000
59.66793 121.000
59.68788 92.000
59.70783 108.000
59.72778 97.000
59.74772 92.000
59.76767 100.000
59.78762 114.000
59.80756 95.000
59.82751 91.000
59.84746 88.000
59.86740 90.000
59.88735 108.000
59.90730 92.000
59.92725 93.000
59.94719 89.000
59.96714 105.000
59.98709 109.000
60.00703 109.000
60.02698 92.000
60.04693 90.000
60.06687 105.000
60.08682 117.000
60.10677 105.000
60.12671 107.000
60.14666 109.000
60.16661 110.000
60.18656 93.000
60.20650 97.000
60.22645 120.000
60.24640 115.000
60.26634 102.000
60.28629 111.000
60.30624 120.000
60.32618 113.000
60.34613 111.000
60.36608 89.000
60.38603 113.000
60.40597 106.000
60.42592 110.000
60.44587 101.000
60.46581 122.000
60.48576 105.000
60.50571 110.000
60.52565 102.000
60.54560 120.000
60.56555 105.000
60.58550 103.000
60.60544 126.000
60.62539 121.000
60.64534 102.000
60.66528 115.000
60.68523 113.000
60.70518 112.000
60.72512 119.000
60.74507 124.000
60.76502 107.000
60.78496 92.000
60.80491 125.000
60.82486 116.000
60.84481 100.000
60.86475 122.000
60.88470 127.000
60.90465 113.000
60.92459 102.000
60.94454 129.000
60.96449 116.000
60.98443 122.000
61.00438 134.000
61.02433 125.000
61.04428 151.000
61.06422 126.000
61.08417 138.000
61.10412 164.000
61.12406 127.000
61.14401 134.000
61.16396 147.000
61.18390 142.000
61.20385 147.000
61.22380 153.000
61.24374 157.000
61.26369 154.000
61.28364 175.000
61.30359 200.000
61.32353 213.000
61.34348 228.000
61.36343 233.000
61.38337 257.000
61.40332 277.000
61.42327 307.000
61.44321 344.000
61.46316 387.000
61.48311 413.000
61.50306 500.000
61.52300 522.000
61.54295 494.000
61.56290 455.000
61.58284 471.000
61.60279 408.000
61.62274 402.000
61.64268 390.000
61.66263 382.000
61.68258 379.000
61.70252 365.000
61.72247 360.000
61.74242 329.000
61.76237 283.000
61.78231 259.000
61.80226 261.000
61.82221 256.000
61.84215 195.000
61.86210 201.000
61.88205 210.000
61.90199 213.000
61.92194 205.000
61.94189 210.000
61.96184 188.000
61.98178 202.000
62.00173 181.000
62.02168 201.000
62.04162 189.000
62.06157 211.000
62.08152 195.000
62.10146 224.000
62.12141 224.000
62.14136 218.000
62.16131 239.000
62.18125 204.000
62.20120 217.000
62.22115 224.000
62.24109 203.000
62.26104 221.000
62.28099 206.000
62.30093 205.000
62.32088 167.000
62.34083 186.000
62.36077 189.000
62.38072 168.000
62.40067 154.000
62.42062 173.000
62.44056 183.000
62.46051 177.000
62.48046 152.000
62.50040 143.000
62.52035 135.000
62.54030 119.000
62.56024 134.000
62.58019 133.000
62.60014 112.000
62.62009 128.000
62.64003 124.000
62.65998 137.000
62.67993 120.000
62.69987 123.000
62.71982 137.000
62.73977 128.000
62.75971 119.000
62.77966 139.000
62.79961 118.000
62.81955 111.000
62.83950 118.000
62.85945 125.000
62.87940 119.000
62.89934 128.000
62.91929 118.000
62.93924 118.000
62.95918 134.000
62.97913 133.000
62.99908 126.000
63.01902 108.000
63.03897 124.000
63.05892 147.000
63.07887 146.000
63.09881 127.000
63.11876 122.000
63.13871 132.000
63.15865 123.000
63.17860 134.000
63.19855 109.000
63.21849 122.000
63.23844 101.000
63.25839 121.000
63.27833 119.000
63.29828 119.000
63.31823 138.000
63.33818 133.000
63.35812 135.000
63.37807 118.000
63.39802 123.000
63.41796 123.000
63.43791 131.000
63.45786 116.000
63.47780 128.000
63.49775 119.000
63.51770 120.000
63.53765 121.000
63.55759 112.000
63.57754 124.000
63.59749 122.000
63.61743 115.000
63.63738 117.000
63.65733 138.000
63.67727 138.000
63.69722 134.000
63.71717 146.000
63.73712 146.000
63.75706 112.000
63.77701 119.000
63.79696 141.000
63.81690 148.000
63.83685 151.000
63.85680 144.000
63.87674 149.000
63.89669 156.000
63.91664 141.000
63.93658 169.000
63.95653 176.000
63.97648 147.000
63.99643 172.000
64.01637 157.000
64.03632 168.000
64.05627 203.000
64.07621 268.000
64.09616 255.000
64.11611 309.000
64.13605 308.000
64.15600 318.000
64.17595 332.000
64.19590 325.000
64.21584 347.000
64.23579 334.000
64.25574 335.000
64.27568 329.000
64.29563 308.000
64.31558 304.000
64.33552 312.000
64.35547 310.000
64.37542 305.000
64.39536 307.000
64.41531 249.000
64.43526 286.000
64.45521 233.000
64.47515 251.000
64.49510 215.000
64.51505 198.000
64.53499 202.000
64.55494 188.000
64.57489 164.000
64.59483 164.000
64.61478 138.000
64.63473 168.000
64.65468 147.000
64.67462 132.000
64.69457 156.000
64.71452 123.000
64.73446 136.000
64.75441 124.000
64.77436 134.000
64.79430 135.000
64.81425 128.000
64.83420 125.000
64.85414 141.000
64.87409 150.000
64.89404 109.000
64.91399 135.000
64.93393 125.000
64.95388 134.000
64.97383 117.000
64.99377 136.000
65.01372 124.000
65.03367 121.000
65.05361 119.000
65.07356 114.000
65.09351 103.000
65.11346 124.000
65.13340 129.000
65.15335 147.000
65.17330 130.000
65.19324 125.000
65.21319 143.000
65.23314 125.000
65.25308 106.000
65.27303 147.000
65.29298 128.000
65.31293 127.000
65.33287 119.000
65.35282 126.000
65.37277 143.000
65.39271 139.000
65.41266 120.000
65.43261 135.000
65.45255 143.000
65.47250 139.000
65.49245 126.000
65.51239 127.000
65.53234 136.000
65.55229 136.000
65.57224 147.000
65.59218 130.000
65.61213 138.000
65.63208 132.000
65.65202 138.000
65.67197 139.000
65.69192 133.000
65.71186 137.000
65.73181 122.000
65.75176 125.000
65.77171 149.000
65.79165 127.000
65.81160 135.000
65.83155 164.000
65.85149 152.000
65.87144 126.000
65.89139 144.000
65.91133 143.000
65.93128 154.000
65.95123 164.000
65.97117 167.000
65.99112 183.000
66.01107 172.000
66.03102 164.000
66.05096 183.000
66.07091 176.000
66.09086 175.000
66.11080 206.000
66.13075 179.000
66.15070 167.000
66.17064 179.000
66.19059 208.000
66.21054 184.000
66.23049 206.000
66.25043 210.000
66.27038 187.000
66.29033 195.000
66.31027 203.000
66.33022 196.000
66.35017 177.000
66.37011 205.000
66.39006 212.000
66.41001 203.000
66.42995 220.000
66.44990 248.000
66.46985 260.000
66.48980 256.000
66.50974 301.000
66.52969 289.000
66.54964 270.000
66.56958 273.000
66.58953 317.000
66.60948 265.000
66.62942 264.000
66.64937 261.000
66.66932 235.000
66.68927 302.000
66.70921 248.000
66.72916 254.000
66.74911 218.000
66.76905 214.000
66.78900 204.000
66.80895 221.000
66.82889 187.000
66.84884 189.000
66.86879 165.000
66.88874 172.000
66.90868 154.000
66.92863 155.000
66.94858 143.000
66.96852 134.000
66.98847 138.000
67.00842 125.000
67.02836 114.000
67.04831 125.000
67.06826 100.000
67.08820 130.000
67.10815 121.000
67.12810 106.000
67.14805 133.000
67.16799 122.000
67.18794 97.000
67.20789 109.000
67.22783 124.000
67.24778 132.000
67.26773 88.000
67.28767 104.000
67.30762 94.000
67.32757 122.000
67.34752 119.000
67.36746 91.000
67.38741 112.000
67.40736 112.000
67.42730 110.000
67.44725 105.000
67.46720 127.000
67.48714 90.000
67.50709 133.000
67.52704 111.000
67.54698 94.000
67.56693 95.000
67.58688 115.000
67.60683 127.000
67.62677 93.000
67.64672 102.000
67.66667 90.000
67.68661 96.000
67.70656 117.000
67.72651 127.000
67.74645 107.000
67.76640 92.000
67.78635 106.000
67.80630 119.000
67.82624 105.000
67.84619 115.000
67.86614 130.000
67.88608 121.000
67.90603 104.000
67.92598 124.000
67.94592 129.000
67.96587 125.000
67.98582 113.000
68.00576 115.000
68.02571 119.000
68.04566 114.000
68.06561 118.000
68.08555 114.000
68.10550 105.000
68.12545 113.000
68.14539 121.000
68.16534 109.000
68.18529 129.000
68.20523 132.000
68.22518 111.000
68.24513 107.000
68.26508 107.000
68.28502 114.000
68.30497 127.000
68.32492 123.000
68.34486 93.000
68.36481 99.000
68.38476 119.000
68.40470 99.000
68.42465 112.000
68.44460 120.000
68.46455 94.000
68.48449 109.000
68.50444 92.000
68.52439 123.000
68.54433 111.000
68.56428 96.000
68.58423 115.000
68.60417 108.000
68.62412 93.000
68.64407 84.000
68.66401 107.000
68.68396 113.000
68.70391 102.000
68.72386 102.000
68.74380 107.000
68.76375 107.000
68.78370 101.000
68.80364 109.000
68.82359 101.000
68.84354 103.000
68.86348 107.000
68.88343 101.000
68.90338 99.000
68.92333 130.000
68.94327 115.000
68.96322 100.000
68.98317 107.000
69.00311 94.000
69.02306 94.000
69.04301 102.000
69.06295 118.000
69.08290 99.000
69.10285 90.000
69.12279 95.000
69.14274 97.000
69.16269 110.000
69.18264 101.000
69.20258 107.000
69.22253 105.000
69.24248 104.000
69.26242 98.000
69.28237 95.000
69.30232 100.000
69.32226 100.000
69.34221 84.000
69.36216 109.000
69.38211 108.000
69.40205 109.000
69.42200 109.000
69.44195 91.000
69.46189 110.000
69.48184 96.000
69.50179 102.000
69.52173 113.000
69.54168 99.000
69.56163 122.000
69.58157 80.000
69.60152 95.000
69.62147 104.000
69.64142 110.000
69.66136 97.000
69.68131 106.000
69.70126 108.000
69.72120 102.000
69.74115 103.000
69.76110 100.000
69.78104 89.000
69.80099 106.000
69.82094 108.000
69.84089 93.000
69.86083 102.000
69.88078 106.000
69.90073 106.000
69.92067 102.000
69.94062 105.000
69.96057 89.000
69.98051 95.000
70.00046 104.000
70.02041 111.000
70.04035 100.000
70.06030 119.000
70.08025 111.000
70.10020 107.000
70.12014 112.000
70.14009 99.000
70.16004 95.000
70.17998 117.000
70.19993 104.000
70.21988 97.000
70.23982 105.000
70.25977 94.000
70.27972 92.000
70.29967 113.000
70.31961 97.000
70.33956 98.000
70.35951 117.000
70.37945 105.000
70.39940 74.000
70.41935 111.000
70.43929 122.000
70.45924 125.000
70.47919 105.000
70.49914 104.000
70.51908 124.000
70.53903 91.000
70.55898 116.000
70.57892 99.000
70.59887 114.000
70.61882 95.000
70.63876 105.000
70.65871 105.000
70.67866 107.000
70.69860 120.000
70.71855 114.000
70.73850 104.000
70.75845 93.000
70.77839 77.000
70.79834 96.000
70.81829 97.000
70.83823 111.000
70.85818 86.000
70.87813 113.000
70.89807 105.000
70.91802 87.000
70.93797 95.000
70.95792 108.000
70.97786 84.000
70.99781 99.000
71.01776 103.000
71.03770 100.000
71.05765 108.000
71.07760 97.000
71.09754 84.000
71.11749 104.000
71.13744 101.000
71.15738 101.000
71.17733 116.000
71.19728 91.000
71.21723 102.000
71.23717 117.000
71.25712 90.000
71.27707 98.000
71.29701 114.000
71.31696 100.000
71.33691 98.000
71.35685 88.000
71.37680 97.000
71.39675 101.000
71.41670 84.000
71.43664 99.000
71.45659 109.000
71.47654 101.000
71.49648 98.000
71.51643 99.000
71.53638 94.000
71.55632 114.000
71.57627 90.000
71.59622 90.000
71.61616 77.000
71.63611 86.000
71.65606 108.000
71.67601 102.000
71.69595 113.000
71.71590 107.000
71.73585 104.000
71.75579 129.000
71.77574 114.000
71.79569 99.000
71.81563 108.000
71.83558 97.000
71.85553 96.000
71.87548 113.000
71.89542 100.000
71.91537 85.000
71.93532 98.000
71.95526 111.000
71.97521 94.000
71.99516 106.000
72.01510 87.000
72.03505 79.000
72.05500 100.000
72.07495 96.000
72.09489 113.000
72.11484 109.000
72.13479 93.000
72.15473 110.000
72.17468 105.000
72.19463 102.000
72.21457 105.000
72.23452 124.000
72.25447 104.000
72.27441 105.000
72.29436 100.000
72.31431 93.000
72.33426 116.000
72.35420 114.000
72.37415 87.000
72.39410 89.000
72.41404 119.000
72.43399 115.000
72.45394 100.000
72.47388 94.000
72.49383 97.000
72.51378 105.000
72.53373 102.000
72.55367 98.000
72.57362 91.000
72.59357 128.000
72.61351 101.000
72.63346 117.000
72.65341 80.000
72.67335 113.000
72.69330 87.000
72.71325 108.000
72.73319 98.000
72.75314 110.000
72.77309 104.000
72.79304 109.000
72.81298 103.000
72.83293 97.000
72.85288 80.000
72.87282 99.000
72.89277 120.000
72.91272 99.000
72.93266 92.000
72.95261 86.000
72.97256 126.000
72.99251 118.000
73.01245 104.000
73.03240 120.000
73.05235 133.000
73.07229 111.000
73.09224 112.000
73.11219 107.000
73.13213 115.000
73.15208 112.000
73.17203 130.000
73.19197 108.000
73.21192 120.000
73.23187 154.000
73.25182 152.000
73.27176 168.000
73.29171 141.000
73.31166 146.000
73.33160 181.000
73.35155 188.000
73.37150 172.000
73.39144 181.000
73.41139 191.000
73.43134 170.000
73.45129 166.000
73.47123 173.000
73.49118 186.000
73.51113 197.000
73.53107 170.000
73.55102 171.000
73.57097 137.000
73.59091 187.000
73.61086 154.000
73.63081 128.000
73.65076 159.000
73.67070 150.000
73.69065 128.000
73.71060 144.000
73.73054 118.000
73.75049 150.000
73.77044 147.000
73.79038 107.000
73.81033 109.000
73.83028 121.000
73.85022 103.000
73.87017 119.000
73.89012 103.000
73.91007 111.000
73.93001 106.000
73.94996 114.000
73.96991 101.000
73.98985 116.000
74.00980 106.000
74.02975 111.000
74.04969 97.000
74.06964 93.000
74.08959 100.000
74.10954 118.000
74.12948 101.000
74.14943 81.000
74.16938 106.000
74.18932 110.000
74.20927 105.000
74.22922 127.000
74.24916 107.000
74.26911 94.000
74.28906 96.000
74.30900 117.000
74.32895 107.000
74.34890 103.000
74.36885 109.000
74.38879 105.000
74.40874 111.000
74.42869 105.000
74.44863 116.000
74.46858 112.000
74.48853 117.000
74.50847 124.000
74.52842 112.000
74.54837 109.000
74.56832 94.000
74.58826 123.000
74.60821 115.000
74.62816 105.000
74.64810 96.000
74.66805 94.000
74.68800 107.000
74.70794 109.000
74.72789 113.000
74.74784 109.000
74.76778 100.000
74.78773 100.000
74.80768 112.000
74.82763 107.000
74.84757 100.000
74.86752 103.000
74.88747 104.000
74.90741 102.000
74.92736 133.000
74.94731 115.000
74.96725 114.000
74.98720 113.000
75.00715 106.000
75.02710 131.000
75.04704 136.000
75.06699 137.000
75.08694 138.000
75.10688 130.000
75.12683 124.000
75.14678 123.000
75.16672 109.000
75.18667 111.000
75.20662 123.000
75.22657 126.000
75.24651 114.000
75.26646 140.000
75.28641 105.000
75.30635 116.000
75.32630 130.000
75.34625 130.000
75.36619 96.000
75.38614 115.000
75.40609 114.000
75.42603 120.000
75.44598 112.000
75.46593 99.000
75.48588 105.000
75.50582 116.000
75.52577 130.000
75.54572 122.000
75.56566 131.000
75.58561 137.000
75.60556 113.000
75.62550 131.000
75.64545 120.000
75.66540 143.000
75.68535 128.000
75.70529 122.000
75.72524 128.000
75.74519 130.000
75.76513 116.000
75.78508 127.000
75.80503 112.000
75.82497 121.000
75.84492 139.000
75.86487 112.000
75.88481 124.000
75.90476 143.000
75.92471 130.000
75.94466 124.000
75.96460 112.000
75.98455 129.000
76.00450 123.000
76.02444 129.000
76.04439 94.000
76.06434 102.000
76.08428 99.000
76.10423 115.000
76.12418 94.000
76.14413 101.000
76.16407 86.000
76.18402 97.000
76.20397 88.000
76.22391 102.000
76.24386 112.000
76.26381 121.000
76.28375 100.000
76.30370 109.000
76.32365 117.000
76.34359 117.000
76.36354 112.000
76.38349 114.000
76.40344 111.000
76.42338 100.000
76.44333 110.000
76.46328 99.000
76.48322 74.000
76.50317 101.000
76.52312 105.000
76.54306 97.000
76.56301 87.000
76.58296 100.000
76.60291 108.000
76.62285 111.000
76.64280 129.000
76.66275 100.000
76.68269 102.000
76.70264 115.000
76.72259 110.000
76.74253 82.000
76.76248 114.000
76.78243 80.000
76.80238 102.000
76.82232 122.000
76.84227 121.000
76.86222 94.000
76.88216 102.000
76.90211 88.000
76.92206 91.000
76.94200 105.000
76.96195 116.000
76.98190 119.000
77.00184 116.000
77.02179 111.000
77.04174 122.000
77.06169 107.000
77.08163 113.000
77.10158 122.000
77.12153 102.000
77.14147 126.000
77.16142 110.000
77.18137 121.000
77.20131 136.000
77.22126 139.000
77.24121 134.000
77.26116 126.000
77.28110 150.000
77.30105 155.000
77.32100 165.000
77.34094 145.000
77.36089 173.000
77.38084 181.000
77.40078 169.000
77.42073 174.000
77.44068 190.000
77.46062 190.000
77.48057 197.000
77.50052 206.000
77.52047 204.000
77.54041 225.000
77.56036 222.000
77.58031 219.000
77.60025 183.000
77.62020 195.000
77.64015 189.000
77.66009 186.000
77.68004 202.000
77.69999 192.000
77.71994 196.000
77.73988 173.000
77.75983 197.000
77.77978 180.000
77.79972 184.000
77.81967 198.000
77.83962 192.000
77.85956 193.000
77.87951 202.000
77.89946 187.000
77.91940 179.000
77.93935 181.000
77.95930 190.000
77.97925 163.000
77.99919 173.000
78.01914 193.000
78.03909 167.000
78.05903 157.000
78.07898 167.000
78.09893 154.000
78.11887 176.000
78.13882 157.000
78.15877 139.000
78.17872 156.000
78.19866 141.000
78.21861 140.000
78.23856 127.000
78.25850 140.000
78.27845 141.000
78.29840 141.000
78.31834 152.000
78.33829 124.000
78.35824 125.000
78.37819 115.000
78.39813 129.000
78.41808 104.000
78.43803 105.000
78.45797 90.000
78.47792 122.000
78.49787 121.000
78.51781 109.000
78.53776 123.000
78.55771 119.000
78.57765 119.000
78.59760 101.000
78.61755 123.000
78.63750 116.000
78.65744 125.000
78.67739 125.000
78.69734 106.000
78.71728 109.000
78.73723 117.000
78.75718 97.000
78.77712 91.000
78.79707 112.000
78.81702 96.000
78.83697 105.000
78.85691 98.000
78.87686 93.000
78.89681 119.000
78.91675 117.000
78.93670 98.000
78.95665 107.000
78.97659 82.000
78.99654 120.000
79.01649 93.000
79.03643 86.000
79.05638 92.000
79.07633 88.000
79.09628 121.000
79.11622 87.000
79.13617 101.000
79.15612 113.000
79.17606 145.000
79.19601 100.000
79.21596 91.000
79.23590 108.000
79.25585 93.000
79.27580 94.000
79.29575 120.000
79.31569 103.000
79.33564 112.000
79.35559 90.000
79.37553 97.000
79.39548 111.000
79.41543 107.000
79.43537 98.000
79.45532 101.000
79.47527 109.000
79.49521 81.000
79.51516 114.000
79.53511 90.000
79.55506 114.000
79.57500 107.000
79.59495 93.000
79.61490 100.000
79.63484 87.000
79.65479 104.000
79.67474 129.000
79.69468 99.000
79.71463 88.000
79.73458 87.000
79.75453 102.000
79.77447 116.000
79.79442 106.000
79.81437 113.000
79.83431 106.000
79.85426 113.000
79.87421 100.000
79.89415 90.000
79.91410 98.000
79.93405 90.000
79.95399 100.000
79.97394 97.000
79.99389 102.000
80.01384 103.000
80.03378 90.000
80.05373 92.000
80.07368 96.000
80.09362 98.000
80.11357 106.000
80.13352 107.000
80.15346 117.000
80.17341 115.000
80.19336 87.000
80.21331 118.000
80.23325 96.000
80.25320 96.000
80.27315 88.000
80.29309 91.000
80.31304 116.000
80.33299 85.000
80.35293 110.000
80.37288 103.000
80.39283 116.000
80.41278 86.000
80.43272 89.000
80.45267 107.000
80.47262 123.000
80.49256 113.000
80.51251 111.000
80.53246 94.000
80.55240 124.000
80.57235 96.000
80.59230 123.000
80.61224 94.000
80.63219 119.000
80.65214 105.000
80.67209 91.000
80.69203 95.000
80.71198 119.000
80.73193 111.000
80.75187 108.000
80.77182 112.000
80.79177 113.000
80.81171 97.000
80.83166 134.000
80.85161 96.000
80.87156 98.000
80.89150 107.000
80.91145 108.000
80.93140 108.000
80.95134 110.000
80.97129 115.000
80.99124 115.000
81.01118 115.000
81.03113 95.000
81.05108 104.000
81.07102 88.000
81.09097 105.000
81.11092 117.000
81.13087 94.000
81.15081 78.000
81.17076 100.000
81.19071 91.000
81.21065 121.000
81.23060 98.000
81.25055 91.000
81.27049 90.000
81.29044 96.000
81.31039 101.000
81.33034 98.000
81.35028 101.000
81.37023 98.000
81.39018 86.000
81.41012 104.000
81.43007 89.000
81.45002 109.000
81.46996 108.000
81.48991 95.000
81.50986 107.000
81.52980 92.000
81.54975 103.000
81.56970 98.000
81.58965 103.000
81.60959 104.000
81.62954 103.000
81.64949 97.000
81.66943 102.000
81.68938 100.000
81.70933 108.000
81.72927 92.000
81.74922 91.000
81.76917 88.000
81.78912 113.000
81.80906 100.000
81.82901 113.000
81.84896 92.000
81.86890 107.000
81.88885 90.000
81.90880 100.000
81.92874 86.000
81.94869 123.000
81.96864 102.000
81.98859 95.000
82.00853 97.000
82.02848 95.000
82.04843 95.000
82.06837 96.000
82.08832 89.000
82.10827 102.000
82.12821 106.000
82.14816 94.000
82.16811 101.000
82.18805 86.000
82.20800 99.000
82.22795 78.000
82.24790 101.000
82.26784 111.000
82.28779 114.000
82.30774 110.000
82.32768 107.000
82.34763 86.000
82.36758 101.000
82.38752 103.000
82.40747 92.000
82.42742 108.000
82.44737 96.000
82.46731 92.000
82.48726 101.000
82.50721 93.000
82.52715 107.000
82.54710 107.000
82.56705 94.000
82.58699 86.000
82.60694 94.000
82.62689 103.000
82.64683 97.000
82.66678 99.000
82.68673 98.000
82.70668 83.000
82.72662 70.000
82.74657 89.000
82.76652 106.000
82.78646 92.000
82.80641 94.000
82.82636 89.000
82.84630 90.000
82.86625 91.000
82.88620 99.000
82.90615 107.000
82.92609 102.000
82.94604 90.000
82.96599 89.000
82.98593 109.000
83.00588 123.000
83.02583 104.000
83.04577 91.000
83.06572 100.000
83.08567 89.000
83.10561 99.000
83.12556 75.000
83.14551 109.000
83.16546 103.000
83.18540 119.000
83.20535 86.000
83.22530 99.000
83.24524 110.000
83.26519 121.000
83.28514 110.000
83.30508 106.000
83.32503 95.000
83.34498 97.000
83.36493 108.000
83.38487 99.000
83.40482 79.000
83.42477 102.000
83.44471 85.000
83.46466 84.000
83.48461 111.000
83.50455 104.000
83.52450 100.000
83.54445 111.000
83.56440 95.000
83.58434 110.000
83.60429 75.000
83.62424 101.000
83.64418 88.000
83.66413 99.000
83.68408 90.000
83.70402 101.000
83.72397 108.000
83.74392 105.000
83.76386 97.000
83.78381 97.000
83.80376 107.000
83.82371 94.000
83.84365 127.000
83.86360 105.000
83.88355 93.000
83.90349 108.000
83.92344 99.000
83.94339 94.000
83.96333 103.000
83.98328 119.000
84.00323 106.000
84.02318 106.000
84.04312 120.000
84.06307 99.000
84.08302 119.000
84.10296 120.000
84.12291 120.000
84.14286 122.000
84.16280 104.000
84.18275 126.000
84.20270 152.000
84.22264 130.000
84.24259 134.000
84.26254 169.000
84.28249 168.000
84.30243 163.000
84.32238 167.000
84.34233 140.000
84.36227 187.000
84.38222 177.000
84.40217 168.000
84.42211 172.000
84.44206 157.000
84.46201 154.000
84.48196 150.000
84.50190 167.000
84.52185 172.000
84.54180 154.000
84.56174 147.000
84.58169 141.000
84.60164 143.000
84.62158 162.000
84.64153 127.000
84.66148 120.000
84.68142 132.000
84.70137 146.000
84.72132 130.000
84.74127 120.000
84.76121 126.000
84.78116 152.000
84.80111 116.000
84.82105 118.000
84.84100 116.000
84.86095 93.000
84.88089 109.000
84.90084 107.000
84.92079 91.000
84.94074 111.000
84.96068 103.000
84.98063 111.000
85.00058 125.000
85.02052 113.000
85.04047 119.000
85.06042 106.000
85.08036 111.000
85.10031 90.000
85.12026 106.000
85.14021 88.000
85.16015 108.000
85.18010 105.000
85.20005 93.000
85.21999 102.000
85.23994 108.000
85.25989 83.000
85.27983 105.000
85.29978 89.000
85.31973 106.000
85.33967 111.000
85.35962 100.000
85.37957 106.000
85.39952 119.000
85.41946 122.000
85.43941 86.000
85.45936 93.000
85.47930 94.000
85.49925 90.000
85.51920 98.000
85.53914 95.000
85.55909 100.000
85.57904 101.000
85.59899 92.000
85.61893 110.000
85.63888 94.000
85.65883 108.000
85.67877 86.000
85.69872 105.000
85.71867 101.000
85.73861 98.000
85.75856 105.000
85.77851 114.000
85.79845 106.000
85.81840 91.000
85.83835 117.000
85.85830 118.000
85.87824 94.000
85.89819 123.000
85.91814 109.000
85.93808 114.000
85.95803 123.000
85.97798 115.000
85.99792 95.000
86.01787 89.000
86.03782 100.000
86.05777 113.000
86.07771 129.000
86.09766 111.000
86.11761 124.000
86.13755 108.000
86.15750 119.000
86.17745 125.000
86.19739 94.000
86.21734 114.000
86.23729 105.000
86.25723 134.000
86.27718 124.000
86.29713 91.000
86.31708 115.000
86.33702 107.000
86.35697 104.000
86.37692 123.000
86.39686 113.000
86.41681 97.000
86.43676 96.000
86.45670 131.000
86.47665 96.000
86.49660 108.000
86.51655 102.000
86.53649 105.000
86.55644 94.000
86.57639 108.000
86.59633 114.000
86.61628 103.000
86.63623 114.000
86.65617 102.000
86.67612 131.000
86.69607 87.000
86.71602 116.000
86.73596 103.000
86.75591 110.000
86.77586 108.000
86.79580 103.000
86.81575 128.000
86.83570 108.000
86.85564 84.000
86.87559 104.000
86.89554 111.000
86.91548 107.000
86.93543 123.000
86.95538 102.000
86.97533 98.000
86.99527 105.000
87.01522 103.000
87.03517 103.000
87.05511 93.000
87.07506 102.000
87.09501 74.000
87.11495 105.000
87.13490 84.000
87.15485 96.000
87.17480 112.000
87.19474 101.000
87.21469 103.000
87.23464 104.000
87.25458 87.000
87.27453 112.000
87.29448 110.000
87.31442 101.000
87.33437 94.000
87.35432 89.000
87.37426 83.000
87.39421 129.000
87.41416 96.000
87.43411 102.000
87.45405 81.000
87.47400 90.000
87.49395 102.000
87.51389 86.000
87.53384 86.000
87.55379 78.000
87.57373 101.000
87.59368 101.000
87.61363 106.000
87.63358 80.000
87.65352 97.000
87.67347 110.000
87.69342 96.000
87.71336 103.000
87.73331 98.000
87.75326 99.000
87.77320 96.000
87.79315 99.000
87.81310 105.000
87.83304 87.000
87.85299 99.000
87.87294 92.000
87.89289 91.000
87.91283 115.000
87.93278 108.000
87.95273 88.000
87.97267 103.000
87.99262 68.000
88.01257 113.000
88.03251 113.000
88.05246 90.000
88.07241 109.000
88.09236 94.000
88.11230 105.000
88.13225 101.000
88.15220 116.000
88.17214 110.000
88.19209 98.000
88.21204 91.000
88.23198 97.000
88.25193 82.000
88.27188 114.000
88.29183 96.000
88.31177 115.000
88.33172 107.000
88.35167 98.000
88.37161 87.000
88.39156 107.000
88.41151 99.000
88.43145 93.000
88.45140 105.000
88.47135 97.000
88.49129 103.000
88.51124 85.000
88.53119 101.000
88.55114 92.000
88.57108 112.000
88.59103 99.000
88.61098 108.000
88.63092 93.000
88.65087 101.000
88.67082 116.000
88.69076 104.000
88.71071 105.000
88.73066 134.000
88.75061 118.000
88.77055 106.000
88.79050 113.000
88.81045 109.000
88.83039 122.000
88.85034 111.000
88.87029 110.000
88.89023 125.000
88.91018 125.000
88.93013 120.000
88.95007 107.000
88.97002 120.000
88.98997 102.000
89.00992 97.000
89.02986 120.000
89.04981 126.000
89.06976 113.000
89.08970 119.000
89.10965 109.000
89.12960 108.000
89.14954 116.000
89.16949 105.000
89.18944 98.000
89.20939 106.000
89.22933 98.000
89.24928 104.000
89.26923 104.000
89.28917 114.000
89.30912 113.000
89.32907 109.000
89.34901 91.000
89.36896 77.000
89.38891 107.000
89.40885 86.000
89.42880 94.000
89.44875 109.000
89.46870 104.000
89.48864 111.000
89.50859 93.000
89.52854 106.000
89.54848 92.000
89.56843 99.000
89.58838 103.000
89.60832 104.000
89.62827 104.000
89.64822 101.000
89.66817 100.000
89.68811 115.000
89.70806 114.000
89.72801 96.000
89.74795 90.000
89.76790 101.000
89.78785 96.000
89.80779 108.000
89.82774 112.000
89.84769 97.000
89.86764 100.000
89.88758 106.000
89.90753 108.000
89.92748 106.000
89.94742 89.000
89.96737 101.000
89.98732 85.000
90.00726 83.000
