10.00000 207.000
10.01995 185.000
10.03989 209.000
10.05984 212.000
10.07979 204.000
10.09973 191.000
10.11968 210.000
10.13963 217.000
10.15958 225.000
10.17952 186.000
10.19947 181.000
10.21942 187.000
10.23936 217.000
10.25931 188.000
10.27926 186.000
10.29920 194.000
10.31915 225.000
10.33910 209.000
10.35905 210.000
10.37899 197.000
10.39894 199.000
10.41889 180.000
10.43883 190.000
10.45878 211.000
10.47873 197.000
10.49867 199.000
10.51862 203.000
10.53857 221.000
10.55851 200.000
10.57846 195.000
10.59841 233.000
10.61836 187.000
10.63830 202.000
10.65825 186.000
10.67820 220.000
10.69814 215.000
10.71809 172.000
10.73804 189.000
10.75798 183.000
10.77793 194.000
10.79788 206.000
10.81783 195.000
10.83777 185.000
10.85772 210.000
10.87767 192.000
10.89761 196.000
10.91756 227.000
10.93751 211.000
10.95745 184.000
10.97740 186.000
10.99735 185.000
11.01730 206.000
11.03724 188.000
11.05719 178.000
11.07714 220.000
11.09708 197.000
11.11703 208.000
11.13698 230.000
11.15692 220.000
11.17687 194.000
11.19682 184.000
11.21676 166.000
11.23671 212.000
11.25666 208.000
11.27661 187.000
11.29655 209.000
11.31650 197.000
11.33645 222.000
11.35639 202.000
11.37634 206.000
11.39629 218.000
11.41623 200.000
11.43618 222.000
11.45613 204.000
11.47608 197.000
11.49602 224.000
11.51597 187.000
11.53592 189.000
11.55586 212.000
11.57581 208.000
11.59576 213.000
11.61570 179.000
11.63565 222.000
11.65560 170.000
11.67554 217.000
11.69549 215.000
11.71544 212.000
11.73539 203.000
11.75533 223.000
11.77528 239.000
11.79523 214.000
11.81517 220.000
11.83512 252.000
11.85507 221.000
11.87501 218.000
11.89496 204.000
11.91491 208.000
11.93486 213.000
11.95480 221.000
11.97475 228.000
11.99470 213.000
12.01464 234.000
12.03459 242.000
12.05454 232.000
12.07448 204.000
12.09443 241.000
12.11438 226.000
12.13432 199.000
12.15427 186.000
12.17422 224.000
12.19417 213.000
12.21411 225.000
12.23406 207.000
12.25401 209.000
12.27395 191.000
12.29390 204.000
12.31385 183.000
12.33379 228.000
12.35374 213.000
12.37369 228.000
12.39364 224.000
12.41358 205.000
12.43353 200.000
12.45348 206.000
12.47342 210.000
12.49337 223.000
12.51332 218.000
12.53326 207.000
12.55321 208.000
12.57316 195.000
12.59311 210.000
12.61305 212.000
12.63300 217.000
12.65295 201.000
12.67289 211.000
12.69284 220.000
12.71279 208.000
12.73273 223.000
12.75268 221.000
12.77263 185.000
12.79257 222.000
12.81252 202.000
12.83247 196.000
12.85242 200.000
12.87236 230.000
12.89231 228.000
12.91226 216.000
12.93220 223.000
12.95215 202.000
12.97210 218.000
12.99204 212.000
13.01199 200.000
13.03194 224.000
13.05189 237.000
13.07183 200.000
13.09178 216.000
13.11173 231.000
13.13167 235.000
13.15162 213.000
13.17157 203.000
13.19151 201.000
13.21146 232.000
13.23141 203.000
13.25135 211.000
13.27130 236.000
13.29125 224.000
13.31120 211.000
13.33114 228.000
13.35109 220.000
13.37104 238.000
13.39098 215.000
13.41093 240.000
13.43088 217.000
13.45082 210.000
13.47077 226.000
13.49072 235.000
13.51067 233.000
13.53061 217.000
13.55056 217.000
13.57051 190.000
13.59045 191.000
13.61040 206.000
13.63035 234.000
13.65029 233.000
13.67024 204.000
13.69019 234.000
13.71013 241.000
13.73008 207.000
13.75003 220.000
13.76998 226.000
13.78992 221.000
13.80987 234.000
13.82982 233.000
13.84976 217.000
13.86971 250.000
13.88966 211.000
13.90960 204.000
13.92955 222.000
13.94950 245.000
13.96945 219.000
13.98939 213.000
14.00934 223.000
14.02929 228.000
14.04923 231.000
14.06918 210.000
14.08913 222.000
14.10907 243.000
14.12902 230.000
14.14897 205.000
14.16892 221.000
14.18886 213.000
14.20881 223.000
14.22876 236.000
14.24870 224.000
14.26865 223.000
14.28860 230.000
14.30854 208.000
14.32849 231.000
14.34844 233.000
14.36838 232.000
14.38833 232.000
14.40828 209.000
14.42823 216.000
14.44817 222.000
14.46812 245.000
14.48807 208.000
14.50801 230.000
14.52796 225.000
14.54791 226.000
14.56785 220.000
14.58780 211.000
14.60775 221.000
14.62770 204.000
14.64764 216.000
14.66759 236.000
14.68754 228.000
14.70748 223.000
14.72743 236.000
14.74738 212.000
14.76732 238.000
14.78727 216.000
14.80722 216.000
14.82716 214.000
14.84711 210.000
14.86706 233.000
14.88701 230.000
14.90695 220.000
14.92690 208.000
14.94685 225.000
14.96679 259.000
14.98674 212.000
15.00669 217.000
15.02663 238.000
15.04658 230.000
15.06653 228.000
15.08648 269.000
15.10642 250.000
15.12637 250.000
15.14632 218.000
15.16626 218.000
15.18621 230.000
15.20616 249.000
15.22610 211.000
15.24605 260.000
15.26600 241.000
15.28594 231.000
15.30589 267.000
15.32584 221.000
15.34579 232.000
15.36573 259.000
15.38568 244.000
15.40563 279.000
15.42557 256.000
15.44552 270.000
15.46547 258.000
15.48541 275.000
15.50536 286.000
15.52531 291.000
15.54526 351.000
15.56520 337.000
15.58515 310.000
15.60510 352.000
15.62504 358.000
15.64499 407.000
15.66494 442.000
15.68488 429.000
15.70483 552.000
15.72478 712.000
15.74472 882.000
15.76467 1185.000
15.78462 1703.000
15.80457 2482.000
15.82451 3702.000
15.84446 4600.000
15.86441 5325.000
15.88435 6010.000
15.90430 5496.000
15.92425 3910.000
15.94419 2564.000
15.96414 1436.000
15.98409 753.000
16.00404 519.000
16.02398 438.000
16.04393 386.000
16.06388 322.000
16.08382 302.000
16.10377 303.000
16.12372 315.000
16.14366 309.000
16.16361 293.000
16.18356 292.000
16.20351 289.000
16.22345 288.000
16.24340 274.000
16.26335 274.000
16.28329 244.000
16.30324 251.000
16.32319 269.000
16.34313 251.000
16.36308 238.000
16.38303 242.000
16.40297 245.000
16.42292 255.000
16.44287 254.000
16.46282 248.000
16.48276 219.000
16.50271 214.000
16.52266 250.000
16.54260 228.000
16.56255 259.000
16.58250 243.000
16.60244 220.000
16.62239 262.000
16.64234 253.000
16.66229 242.000
16.68223 236.000
16.70218 213.000
16.72213 230.000
16.74207 233.000
16.76202 240.000
16.78197 244.000
16.80191 242.000
16.82186 221.000
16.84181 209.000
16.86175 233.000
16.88170 216.000
16.90165 226.000
16.92160 226.000
16.94154 246.000
16.96149 254.000
16.98144 237.000
17.00138 239.000
17.02133 249.000
17.04128 224.000
17.06122 227.000
17.08117 216.000
17.10112 211.000
17.12107 228.000
17.14101 224.000
17.16096 236.000
17.18091 261.000
17.20085 237.000
17.22080 216.000
17.24075 249.000
17.26069 201.000
17.28064 234.000
17.30059 242.000
17.32053 245.000
17.34048 239.000
17.36043 247.000
17.38038 263.000
17.40032 212.000
17.42027 226.000
17.44022 236.000
17.46016 232.000
17.48011 214.000
17.50006 211.000
17.52000 216.000
17.53995 243.000
17.55990 258.000
17.57985 235.000
17.59979 221.000
17.61974 241.000
17.63969 229.000
17.65963 228.000
17.67958 239.000
17.69953 240.000
17.71947 246.000
17.73942 236.000
17.75937 235.000
17.77932 252.000
17.79926 223.000
17.81921 232.000
17.83916 231.000
17.85910 195.000
17.87905 233.000
17.89900 225.000
17.91894 232.000
17.93889 234.000
17.95884 253.000
17.97878 226.000
17.99873 273.000
18.01868 254.000
18.03863 225.000
18.05857 253.000
18.07852 198.000
18.09847 239.000
18.11841 216.000
18.13836 244.000
18.15831 225.000
18.17825 265.000
18.19820 235.000
18.21815 223.000
18.23810 282.000
18.25804 225.000
18.27799 235.000
18.29794 221.000
18.31788 246.000
18.33783 243.000
18.35778 233.000
18.37772 228.000
18.39767 260.000
18.41762 236.000
18.43756 234.000
18.45751 236.000
18.47746 266.000
18.49741 276.000
18.51735 248.000
18.53730 275.000
18.55725 243.000
18.57719 253.000
18.59714 272.000
18.61709 278.000
18.63703 263.000
18.65698 232.000
18.67693 239.000
18.69688 246.000
18.71682 252.000
18.73677 241.000
18.75672 243.000
18.77666 244.000
18.79661 250.000
18.81656 238.000
18.83650 234.000
18.85645 250.000
18.87640 220.000
18.89634 230.000
18.91629 260.000
18.93624 246.000
18.95619 233.000
18.97613 217.000
18.99608 212.000
19.01603 236.000
19.03597 247.000
19.05592 232.000
19.07587 237.000
19.09581 245.000
19.11576 237.000
19.13571 254.000
19.15566 255.000
19.17560 223.000
19.19555 265.000
19.21550 224.000
19.23544 242.000
19.25539 227.000
19.27534 260.000
19.29528 220.000
19.31523 243.000
19.33518 263.000
19.35513 231.000
19.37507 256.000
19.39502 258.000
19.41497 214.000
19.43491 226.000
19.45486 225.000
19.47481 239.000
19.49475 248.000
19.51470 254.000
19.53465 235.000
19.55459 253.000
19.57454 251.000
19.59449 250.000
19.61444 244.000
19.63438 237.000
19.65433 213.000
19.67428 263.000
19.69422 254.000
19.71417 243.000
19.73412 248.000
19.75406 260.000
19.77401 262.000
19.79396 252.000
19.81391 239.000
19.83385 245.000
19.85380 226.000
19.87375 241.000
19.89369 236.000
19.91364 227.000
19.93359 225.000
19.95353 241.000
19.97348 252.000
19.99343 253.000
20.01337 220.000
20.03332 262.000
20.05327 259.000
20.07322 224.000
20.09316 243.000
20.11311 230.000
20.13306 230.000
20.15300 219.000
20.17295 241.000
20.19290 264.000
20.21284 249.000
20.23279 258.000
20.25274 236.000
20.27269 259.000
20.29263 257.000
20.31258 218.000
20.33253 244.000
20.35247 275.000
20.37242 240.000
20.39237 253.000
20.41231 252.000
20.43226 247.000
20.45221 245.000
20.47215 246.000
20.49210 239.000
20.51205 245.000
20.53200 268.000
20.55194 248.000
20.57189 236.000
20.59184 266.000
20.61178 287.000
20.63173 244.000
20.65168 258.000
20.67162 257.000
20.69157 266.000
20.71152 254.000
20.73147 238.000
20.75141 231.000
20.77136 241.000
20.79131 258.000
20.81125 252.000
20.83120 237.000
20.85115 246.000
20.87109 230.000
20.89104 268.000
20.91099 212.000
20.93094 237.000
20.95088 264.000
20.97083 276.000
20.99078 262.000
21.01072 230.000
21.03067 232.000
21.05062 268.000
21.07056 259.000
21.09051 266.000
21.11046 255.000
21.13040 259.000
21.15035 263.000
21.17030 306.000
21.19025 256.000
21.21019 301.000
21.23014 255.000
21.25009 238.000
21.27003 272.000
21.28998 266.000
21.30993 252.000
21.32987 226.000
21.34982 263.000
21.36977 234.000
21.38972 267.000
21.40966 234.000
21.42961 245.000
21.44956 260.000
21.46950 242.000
21.48945 232.000
21.50940 245.000
21.52934 241.000
21.54929 238.000
21.56924 234.000
21.58918 254.000
21.60913 239.000
21.62908 242.000
21.64903 261.000
21.66897 219.000
21.68892 236.000
21.70887 278.000
21.72881 263.000
21.74876 241.000
21.76871 251.000
21.78865 237.000
21.80860 233.000
21.82855 245.000
21.84850 244.000
21.86844 275.000
21.88839 247.000
21.90834 266.000
21.92828 250.000
21.94823 258.000
21.96818 238.000
21.98812 267.000
22.00807 255.000
22.02802 261.000
22.04796 263.000
22.06791 254.000
22.08786 260.000
22.10781 226.000
22.12775 244.000
22.14770 257.000
22.16765 269.000
22.18759 224.000
22.20754 266.000
22.22749 258.000
22.24743 273.000
22.26738 232.000
22.28733 244.000
22.30728 227.000
22.32722 246.000
22.34717 254.000
22.36712 237.000
22.38706 240.000
22.40701 270.000
22.42696 219.000
22.44690 272.000
22.46685 257.000
22.48680 265.000
22.50675 227.000
22.52669 230.000
22.54664 239.000
22.56659 257.000
22.58653 238.000
22.60648 268.000
22.62643 268.000
22.64637 266.000
22.66632 271.000
22.68627 245.000
22.70621 260.000
22.72616 257.000
22.74611 296.000
22.76606 248.000
22.78600 251.000
22.80595 252.000
22.82590 235.000
22.84584 279.000
22.86579 285.000
22.88574 231.000
22.90568 232.000
22.92563 247.000
22.94558 305.000
22.96553 242.000
22.98547 246.000
23.00542 250.000
23.02537 270.000
23.04531 294.000
23.06526 243.000
23.08521 272.000
23.10515 249.000
23.12510 263.000
23.14505 264.000
23.16499 250.000
23.18494 229.000
23.20489 249.000
23.22484 229.000
23.24478 243.000
23.26473 248.000
23.28468 251.000
23.30462 267.000
23.32457 257.000
23.34452 219.000
23.36446 256.000
23.38441 263.000
23.40436 249.000
23.42431 247.000
23.44425 232.000
23.46420 226.000
23.48415 278.000
23.50409 237.000
23.52404 285.000
23.54399 251.000
23.56393 255.000
23.58388 228.000
23.60383 242.000
23.62377 264.000
23.64372 268.000
23.66367 283.000
23.68362 255.000
23.70356 265.000
23.72351 276.000
23.74346 242.000
23.76340 271.000
23.78335 251.000
23.80330 238.000
23.82324 276.000
23.84319 251.000
23.86314 269.000
23.88309 265.000
23.90303 269.000
23.92298 262.000
23.94293 256.000
23.96287 256.000
23.98282 264.000
24.00277 275.000
24.02271 246.000
24.04266 233.000
24.06261 255.000
24.08256 258.000
24.10250 278.000
24.12245 286.000
24.14240 242.000
24.16234 245.000
24.18229 248.000
24.20224 252.000
24.22218 260.000
24.24213 250.000
24.26208 258.000
24.28202 251.000
24.30197 260.000
24.32192 268.000
24.34187 251.000
24.36181 247.000
24.38176 247.000
24.40171 269.000
24.42165 261.000
24.44160 280.000
24.46155 260.000
24.48149 274.000
24.50144 276.000
24.52139 261.000
24.54134 247.000
24.56128 240.000
24.58123 279.000
24.60118 239.000
24.62112 252.000
24.64107 276.000
24.66102 241.000
24.68096 269.000
24.70091 253.000
24.72086 234.000
24.74080 247.000
24.76075 240.000
24.78070 222.000
24.80065 258.000
24.82059 259.000
24.84054 269.000
24.86049 255.000
24.88043 259.000
24.90038 263.000
24.92033 248.000
24.94027 281.000
24.96022 284.000
24.98017 254.000
25.00012 226.000
25.02006 285.000
25.04001 259.000
25.05996 213.000
25.07990 266.000
25.09985 247.000
25.11980 264.000
25.13974 252.000
25.15969 259.000
25.17964 262.000
25.19958 243.000
25.21953 263.000
25.23948 267.000
25.25943 244.000
25.27937 281.000
25.29932 260.000
25.31927 271.000
25.33921 261.000
25.35916 283.000
25.37911 260.000
25.39905 261.000
25.41900 282.000
25.43895 252.000
25.45890 289.000
25.47884 290.000
25.49879 261.000
25.51874 279.000
25.53868 253.000
25.55863 291.000
25.57858 253.000
25.59852 291.000
25.61847 276.000
25.63842 245.000
25.65837 262.000
25.67831 276.000
25.69826 267.000
25.71821 276.000
25.73815 247.000
25.75810 253.000
25.77805 262.000
25.79799 269.000
25.81794 275.000
25.83789 281.000
25.85783 294.000
25.87778 269.000
25.89773 287.000
25.91768 284.000
25.93762 255.000
25.95757 280.000
25.97752 280.000
25.99746 260.000
26.01741 266.000
26.03736 276.000
26.05730 245.000
26.07725 263.000
26.09720 263.000
26.11715 278.000
26.13709 262.000
26.15704 259.000
26.17699 299.000
26.19693 269.000
26.21688 262.000
26.23683 275.000
26.25677 269.000
26.27672 258.000
26.29667 260.000
26.31661 270.000
26.33656 258.000
26.35651 282.000
26.37646 270.000
26.39640 289.000
26.41635 291.000
26.43630 275.000
26.45624 272.000
26.47619 256.000
26.49614 234.000
26.51608 292.000
26.53603 256.000
26.55598 292.000
26.57593 278.000
26.59587 298.000
26.61582 250.000
26.63577 256.000
26.65571 295.000
26.67566 273.000
26.69561 288.000
26.71555 289.000
26.73550 279.000
26.75545 252.000
26.77539 267.000
26.79534 262.000
26.81529 283.000
26.83524 280.000
26.85518 283.000
26.87513 257.000
26.89508 287.000
26.91502 254.000
26.93497 283.000
26.95492 284.000
26.97486 246.000
26.99481 287.000
27.01476 282.000
27.03471 264.000
27.05465 275.000
27.07460 273.000
27.09455 267.000
27.11449 278.000
27.13444 276.000
27.15439 264.000
27.17433 275.000
27.19428 266.000
27.21423 301.000
27.23417 265.000
27.25412 299.000
27.27407 320.000
27.29402 274.000
27.31396 285.000
27.33391 255.000
27.35386 265.000
27.37380 277.000
27.39375 255.000
27.41370 246.000
27.43364 283.000
27.45359 278.000
27.47354 269.000
27.49349 289.000
27.51343 314.000
27.53338 252.000
27.55333 262.000
27.57327 269.000
27.59322 281.000
27.61317 287.000
27.63311 309.000
27.65306 253.000
27.67301 302.000
27.69296 297.000
27.71290 283.000
27.73285 263.000
27.75280 283.000
27.77274 305.000
27.79269 278.000
27.81264 297.000
27.83258 276.000
27.85253 266.000
27.87248 305.000
27.89242 267.000
27.91237 276.000
27.93232 310.000
27.95227 290.000
27.97221 297.000
27.99216 285.000
28.01211 321.000
28.03205 291.000
28.05200 281.000
28.07195 319.000
28.09189 253.000
28.11184 309.000
28.13179 312.000
28.15174 283.000
28.17168 278.000
28.19163 281.000
28.21158 326.000
28.23152 312.000
28.25147 290.000
28.27142 325.000
28.29136 286.000
28.31131 313.000
28.33126 320.000
28.35120 273.000
28.37115 317.000
28.39110 296.000
28.41105 308.000
28.43099 329.000
28.45094 295.000
28.47089 333.000
28.49083 327.000
28.51078 323.000
28.53073 297.000
28.55067 271.000
28.57062 302.000
28.59057 280.000
28.61052 288.000
28.63046 290.000
28.65041 319.000
28.67036 287.000
28.69030 286.000
28.71025 287.000
28.73020 265.000
28.75014 296.000
28.77009 278.000
28.79004 290.000
28.80998 297.000
28.82993 287.000
28.84988 274.000
28.86983 282.000
28.88977 280.000
28.90972 288.000
28.92967 304.000
28.94961 276.000
28.96956 302.000
28.98951 287.000
29.00945 297.000
29.02940 295.000
29.04935 298.000
29.06930 285.000
29.08924 291.000
29.10919 310.000
29.12914 281.000
29.14908 294.000
29.16903 308.000
29.18898 272.000
29.20892 311.000
29.22887 267.000
29.24882 267.000
29.26877 275.000
29.28871 283.000
29.30866 279.000
29.32861 275.000
29.34855 296.000
29.36850 293.000
29.38845 313.000
29.40839 306.000
29.42834 308.000
29.44829 296.000
29.46823 279.000
29.48818 317.000
29.50813 288.000
29.52808 285.000
29.54802 281.000
29.56797 282.000
29.58792 290.000
29.60786 280.000
29.62781 292.000
29.64776 286.000
29.66770 298.000
29.68765 279.000
29.70760 295.000
29.72755 309.000
29.74749 240.000
29.76744 271.000
29.78739 293.000
29.80733 275.000
29.82728 302.000
29.84723 277.000
29.86717 292.000
29.88712 272.000
29.90707 310.000
29.92701 282.000
29.94696 311.000
29.96691 278.000
29.98686 303.000
30.00680 292.000
30.02675 292.000
30.04670 302.000
30.06664 310.000
30.08659 288.000
30.10654 315.000
30.12648 290.000
30.14643 312.000
30.16638 291.000
30.18633 321.000
30.20627 301.000
30.22622 299.000
30.24617 323.000
30.26611 312.000
30.28606 295.000
30.30601 326.000
30.32595 313.000
30.34590 341.000
30.36585 302.000
30.38579 309.000
30.40574 330.000
30.42569 320.000
30.44564 277.000
30.46558 344.000
30.48553 314.000
30.50548 324.000
30.52542 345.000
30.54537 337.000
30.56532 320.000
30.58526 309.000
30.60521 327.000
30.62516 317.000
30.64511 333.000
30.66505 348.000
30.68500 328.000
30.70495 276.000
30.72489 300.000
30.74484 292.000
30.76479 346.000
30.78473 289.000
30.80468 294.000
30.82463 286.000
30.84458 258.000
30.86452 298.000
30.88447 313.000
30.90442 287.000
30.92436 314.000
30.94431 289.000
30.96426 303.000
30.98420 300.000
31.00415 297.000
31.02410 295.000
31.04404 319.000
31.06399 277.000
31.08394 296.000
31.10389 307.000
31.12383 303.000
31.14378 270.000
31.16373 327.000
31.18367 321.000
31.20362 279.000
31.22357 297.000
31.24351 298.000
31.26346 298.000
31.28341 316.000
31.30336 272.000
31.32330 291.000
31.34325 292.000
31.36320 308.000
31.38314 281.000
31.40309 318.000
31.42304 295.000
31.44298 297.000
31.46293 297.000
31.48288 282.000
31.50282 298.000
31.52277 300.000
31.54272 294.000
31.56267 302.000
31.58261 288.000
31.60256 323.000
31.62251 311.000
31.64245 310.000
31.66240 337.000
31.68235 312.000
31.70229 318.000
31.72224 272.000
31.74219 302.000
31.76214 336.000
31.78208 342.000
31.80203 319.000
31.82198 305.000
31.84192 333.000
31.86187 344.000
31.88182 383.000
31.90176 464.000
31.92171 509.000
31.94166 548.000
31.96160 554.000
31.98155 588.000
32.00150 633.000
32.02145 694.000
32.04139 757.000
32.06134 759.000
32.08129 711.000
32.10123 652.000
32.12118 544.000
32.14113 477.000
32.16107 485.000
32.18102 411.000
32.20097 335.000
32.22092 313.000
32.24086 325.000
32.26081 322.000
32.28076 306.000
32.30070 293.000
32.32065 310.000
32.34060 314.000
32.36054 301.000
32.38049 273.000
32.40044 280.000
32.42039 311.000
32.44033 296.000
32.46028 341.000
32.48023 300.000
32.50017 294.000
32.52012 279.000
32.54007 299.000
32.56001 300.000
32.57996 283.000
32.59991 305.000
32.61985 297.000
32.63980 276.000
32.65975 282.000
32.67970 325.000
32.69964 299.000
32.71959 326.000
32.73954 313.000
32.75948 322.000
32.77943 321.000
32.79938 297.000
32.81932 280.000
32.83927 290.000
32.85922 300.000
32.87917 274.000
32.89911 288.000
32.91906 320.000
32.93901 301.000
32.95895 297.000
32.97890 315.000
32.99885 304.000
33.01879 291.000
33.03874 264.000
33.05869 310.000
33.07863 277.000
33.09858 278.000
33.11853 298.000
33.13848 278.000
33.15842 314.000
33.17837 257.000
33.19832 294.000
33.21826 321.000
33.23821 302.000
33.25816 303.000
33.27810 264.000
33.29805 295.000
33.31800 288.000
33.33795 316.000
33.35789 302.000
33.37784 265.000
33.39779 275.000
33.41773 308.000
33.43768 276.000
33.45763 276.000
33.47757 293.000
33.49752 289.000
33.51747 295.000
33.53741 303.000
33.55736 324.000
33.57731 316.000
33.59726 301.000
33.61720 287.000
33.63715 266.000
33.65710 315.000
33.67704 305.000
33.69699 287.000
33.71694 313.000
33.73688 270.000
33.75683 270.000
33.77678 278.000
33.79673 303.000
33.81667 286.000
33.83662 275.000
33.85657 298.000
33.87651 301.000
33.89646 290.000
33.91641 280.000
33.93635 296.000
33.95630 315.000
33.97625 276.000
33.99620 299.000
34.01614 304.000
34.03609 296.000
34.05604 320.000
34.07598 308.000
34.09593 312.000
34.11588 306.000
34.13582 282.000
34.15577 312.000
34.17572 295.000
34.19566 284.000
34.21561 314.000
34.23556 285.000
34.25551 309.000
34.27545 301.000
34.29540 278.000
34.31535 301.000
34.33529 286.000
34.35524 273.000
34.37519 297.000
34.39513 288.000
34.41508 305.000
34.43503 315.000
34.45498 315.000
34.47492 305.000
34.49487 307.000
34.51482 313.000
34.53476 296.000
34.55471 290.000
34.57466 287.000
34.59460 297.000
34.61455 283.000
34.63450 310.000
34.65444 304.000
34.67439 296.000
34.69434 308.000
34.71429 324.000
34.73423 324.000
34.75418 337.000
34.77413 313.000
34.79407 319.000
34.81402 298.000
34.83397 361.000
34.85391 286.000
34.87386 303.000
34.89381 348.000
34.91376 313.000
34.93370 301.000
34.95365 303.000
34.97360 302.000
34.99354 318.000
35.01349 359.000
35.03344 288.000
35.05338 334.000
35.07333 294.000
35.09328 285.000
35.11322 325.000
35.13317 319.000
35.15312 303.000
35.17307 291.000
35.19301 306.000
35.21296 309.000
35.23291 302.000
35.25285 268.000
35.27280 272.000
35.29275 318.000
35.31269 320.000
35.33264 295.000
35.35259 293.000
35.37254 313.000
35.39248 290.000
35.41243 317.000
35.43238 314.000
35.45232 326.000
35.47227 315.000
35.49222 339.000
35.51216 326.000
35.53211 308.000
35.55206 334.000
35.57201 331.000
35.59195 333.000
35.61190 355.000
35.63185 338.000
35.65179 346.000
35.67174 363.000
35.69169 345.000
35.71163 369.000
35.73158 342.000
35.75153 406.000
35.77147 417.000
35.79142 414.000
35.81137 444.000
35.83132 465.000
35.85126 542.000
35.87121 559.000
35.89116 660.000
35.91110 732.000
35.93105 828.000
35.95100 1008.000
35.97094 980.000
35.99089 973.000
36.01084 892.000
36.03079 819.000
36.05073 784.000
36.07068 708.000
36.09063 587.000
36.11057 489.000
36.13052 465.000
36.15047 374.000
36.17041 415.000
36.19036 379.000
36.21031 375.000
36.23025 341.000
36.25020 301.000
36.27015 312.000
36.29010 311.000
36.31004 336.000
36.32999 340.000
36.34994 355.000
36.36988 369.000
36.38983 367.000
36.40978 354.000
36.42972 374.000
36.44967 370.000
36.46962 337.000
36.48957 388.000
36.50951 343.000
36.52946 380.000
36.54941 364.000
36.56935 391.000
36.58930 399.000
36.60925 391.000
36.62919 425.000
36.64914 404.000
36.66909 382.000
36.68903 381.000
36.70898 387.000
36.72893 412.000
36.74888 409.000
36.76882 471.000
36.78877 400.000
36.80872 439.000
36.82866 460.000
36.84861 503.000
36.86856 518.000
36.88850 547.000
36.90845 565.000
36.92840 557.000
36.94835 627.000
36.96829 609.000
36.98824 638.000
37.00819 633.000
37.02813 769.000
37.04808 858.000
37.06803 943.000
37.08797 1065.000
37.10792 1471.000
37.12787 1878.000
37.14781 2738.000
37.16776 4287.000
37.18771 6405.000
37.20766 7695.000
37.22760 6996.000
37.24755 5416.000
37.26750 4644.000
37.28744 4420.000
37.30739 4320.000
37.32734 3451.000
37.34728 2322.000
37.36723 1531.000
37.38718 999.000
37.40713 725.000
37.42707 609.000
37.44702 538.000
37.46697 497.000
37.48691 416.000
37.50686 449.000
37.52681 417.000
37.54675 372.000
37.56670 381.000
37.58665 339.000
37.60660 379.000
37.62654 343.000
37.64649 339.000
37.66644 365.000
37.68638 369.000
37.70633 304.000
37.72628 343.000
37.74622 339.000
37.76617 363.000
37.78612 368.000
37.80606 324.000
37.82601 303.000
37.84596 332.000
37.86591 292.000
37.88585 341.000
37.90580 320.000
37.92575 325.000
37.94569 283.000
37.96564 293.000
37.98559 325.000
38.00553 288.000
38.02548 287.000
38.04543 287.000
38.06538 317.000
38.08532 299.000
38.10527 317.000
38.12522 295.000
38.14516 290.000
38.16511 317.000
38.18506 278.000
38.20500 297.000
38.22495 303.000
38.24490 303.000
38.26484 296.000
38.28479 313.000
38.30474 298.000
38.32469 299.000
38.34463 357.000
38.36458 324.000
38.38453 307.000
38.40447 312.000
38.42442 297.000
38.44437 315.000
38.46431 268.000
38.48426 293.000
38.50421 315.000
38.52416 301.000
38.54410 293.000
38.56405 319.000
38.58400 296.000
38.60394 303.000
38.62389 314.000
38.64384 312.000
38.66378 287.000
38.68373 286.000
38.70368 283.000
38.72362 296.000
38.74357 311.000
38.76352 307.000
38.78347 286.000
38.80341 320.000
38.82336 356.000
38.84331 310.000
38.86325 336.000
38.88320 335.000
38.90315 300.000
38.92309 305.000
38.94304 307.000
38.96299 319.000
38.98294 319.000
39.00288 290.000
39.02283 346.000
39.04278 349.000
39.06272 373.000
39.08267 334.000
39.10262 319.000
39.12256 328.000
39.14251 346.000
39.16246 341.000
39.18241 344.000
39.20235 374.000
39.22230 347.000
39.24225 379.000
39.26219 374.000
39.28214 405.000
39.30209 425.000
39.32203 438.000
39.34198 413.000
39.36193 495.000
39.38187 518.000
39.40182 556.000
39.42177 679.000
39.44172 776.000
39.46166 1032.000
39.48161 1234.000
39.50156 1422.000
39.52150 1613.000
39.54145 1568.000
39.56140 1427.000
39.58134 1164.000
39.60129 1050.000
39.62124 1065.000
39.64119 986.000
39.66113 773.000
39.68108 586.000
39.70103 499.000
39.72097 437.000
39.74092 406.000
39.76087 359.000
39.78081 344.000
39.80076 357.000
39.82071 335.000
39.84065 327.000
39.86060 354.000
39.88055 338.000
39.90050 327.000
39.92044 332.000
39.94039 305.000
39.96034 308.000
39.98028 299.000
40.00023 316.000
40.02018 308.000
40.04012 312.000
40.06007 311.000
40.08002 292.000
40.09997 319.000
40.11991 305.000
40.13986 275.000
40.15981 316.000
40.17975 278.000
40.19970 305.000
40.21965 289.000
40.23959 264.000
40.25954 305.000
40.27949 270.000
40.29943 286.000
40.31938 271.000
40.33933 294.000
40.35928 304.000
40.37922 296.000
40.39917 285.000
40.41912 283.000
40.43906 281.000
40.45901 277.000
40.47896 297.000
40.49890 279.000
40.51885 302.000
40.53880 290.000
40.55875 284.000
40.57869 297.000
40.59864 289.000
40.61859 268.000
40.63853 298.000
40.65848 302.000
40.67843 276.000
40.69837 290.000
40.71832 309.000
40.73827 276.000
40.75822 282.000
40.77816 281.000
40.79811 295.000
40.81806 296.000
40.83800 266.000
40.85795 287.000
40.87790 324.000
40.89784 284.000
40.91779 291.000
40.93774 284.000
40.95768 326.000
40.97763 306.000
40.99758 253.000
41.01753 294.000
41.03747 263.000
41.05742 280.000
41.07737 271.000
41.09731 289.000
41.11726 258.000
41.13721 295.000
41.15715 288.000
41.17710 278.000
41.19705 303.000
41.21700 266.000
41.23694 312.000
41.25689 254.000
41.27684 279.000
41.29678 303.000
41.31673 291.000
41.33668 332.000
41.35662 302.000
41.37657 274.000
41.39652 299.000
41.41646 286.000
41.43641 282.000
41.45636 260.000
41.47631 293.000
41.49625 291.000
41.51620 289.000
41.53615 298.000
41.55609 285.000
41.57604 276.000
41.59599 286.000
41.61593 278.000
41.63588 288.000
41.65583 273.000
41.67578 286.000
41.69572 294.000
41.71567 318.000
41.73562 308.000
41.75556 287.000
41.77551 328.000
41.79546 297.000
41.81540 317.000
41.83535 285.000
41.85530 262.000
41.87524 285.000
41.89519 296.000
41.91514 322.000
41.93509 311.000
41.95503 293.000
41.97498 292.000
41.99493 290.000
42.01487 308.000
42.03482 312.000
42.05477 297.000
42.07471 297.000
42.09466 325.000
42.11461 304.000
42.13456 296.000
42.15450 286.000
42.17445 298.000
42.19440 270.000
42.21434 296.000
42.23429 308.000
42.25424 329.000
42.27418 312.000
42.29413 313.000
42.31408 307.000
42.33403 319.000
42.35397 307.000
42.37392 351.000
42.39387 355.000
42.41381 342.000
42.43376 324.000
42.45371 371.000
42.47365 395.000
42.49360 374.000
42.51355 410.000
42.53349 430.000
42.55344 410.000
42.57339 459.000
42.59334 456.000
42.61328 464.000
42.63323 457.000
42.65318 443.000
42.67312 457.000
42.69307 426.000
42.71302 464.000
42.73296 491.000
42.75291 507.000
42.77286 532.000
42.79281 503.000
42.81275 506.000
42.83270 566.000
42.85265 542.000
42.87259 619.000
42.89254 608.000
42.91249 646.000
42.93243 624.000
42.95238 693.000
42.97233 763.000
42.99227 867.000
43.01222 938.000
43.03217 1032.000
43.05212 1161.000
43.07206 1301.000
43.09201 1581.000
43.11196 1961.000
43.13190 2523.000
43.15185 3511.000
43.17180 4914.000
43.19174 6948.000
43.21169 9199.000
43.23164 10411.000
43.25159 9568.000
43.27153 7618.000
43.29148 6265.000
43.31143 5694.000
43.33137 5911.000
43.35132 5872.000
43.37127 4617.000
43.39121 3159.000
43.41116 2114.000
43.43111 1454.000
43.45105 1119.000
43.47100 908.000
43.49095 800.000
43.51090 750.000
43.53084 674.000
43.55079 730.000
43.57074 785.000
43.59068 879.000
43.61063 917.000
43.63058 908.000
43.65052 840.000
43.67047 666.000
43.69042 676.000
43.71037 691.000
43.73031 654.000
43.75026 599.000
43.77021 590.000
43.79015 504.000
43.81010 487.000
43.83005 410.000
43.84999 345.000
43.86994 360.000
43.88989 359.000
43.90984 360.000
43.92978 379.000
43.94973 349.000
43.96968 343.000
43.98962 355.000
44.00957 326.000
44.02952 323.000
44.04946 353.000
44.06941 287.000
44.08936 305.000
44.10930 327.000
44.12925 335.000
44.14920 285.000
44.16915 329.000
44.18909 312.000
44.20904 304.000
44.22899 288.000
44.24893 308.000
44.26888 345.000
44.28883 301.000
44.30877 326.000
44.32872 291.000
44.34867 305.000
44.36862 268.000
44.38856 302.000
44.40851 303.000
44.42846 293.000
44.44840 310.000
44.46835 335.000
44.48830 302.000
44.50824 280.000
44.52819 297.000
44.54814 304.000
44.56808 329.000
44.58803 268.000
44.60798 270.000
44.62793 273.000
44.64787 291.000
44.66782 259.000
44.68777 300.000
44.70771 287.000
44.72766 279.000
44.74761 289.000
44.76755 320.000
44.78750 300.000
44.80745 299.000
44.82740 316.000
44.84734 312.000
44.86729 267.000
44.88724 299.000
44.90718 319.000
44.92713 306.000
44.94708 276.000
44.96702 267.000
44.98697 276.000
45.00692 303.000
45.02686 313.000
45.04681 277.000
45.06676 268.000
45.08671 298.000
45.10665 284.000
45.12660 297.000
45.14655 322.000
45.16649 327.000
45.18644 303.000
45.20639 325.000
45.22633 315.000
45.24628 279.000
45.26623 281.000
45.28618 305.000
45.30612 343.000
45.32607 288.000
45.34602 294.000
45.36596 303.000
45.38591 281.000
45.40586 293.000
45.42580 299.000
45.44575 284.000
45.46570 280.000
45.48565 281.000
45.50559 262.000
45.52554 278.000
45.54549 303.000
45.56543 267.000
45.58538 282.000
45.60533 285.000
45.62527 291.000
45.64522 267.000
45.66517 295.000
45.68511 266.000
45.70506 287.000
45.72501 290.000
45.74496 278.000
45.76490 274.000
45.78485 280.000
45.80480 293.000
45.82474 293.000
45.84469 273.000
45.86464 264.000
45.88458 283.000
45.90453 306.000
45.92448 270.000
45.94443 262.000
45.96437 259.000
45.98432 254.000
46.00427 276.000
46.02421 262.000
46.04416 270.000
46.06411 292.000
46.08405 247.000
46.10400 278.000
46.12395 284.000
46.14389 290.000
46.16384 253.000
46.18379 264.000
46.20374 267.000
46.22368 289.000
46.24363 297.000
46.26358 270.000
46.28352 236.000
46.30347 249.000
46.32342 255.000
46.34336 260.000
46.36331 264.000
46.38326 231.000
46.40321 266.000
46.42315 278.000
46.44310 256.000
46.46305 265.000
46.48299 275.000
46.50294 293.000
46.52289 262.000
46.54283 262.000
46.56278 296.000
46.58273 282.000
46.60267 286.000
46.62262 303.000
46.64257 269.000
46.66252 286.000
46.68246 279.000
46.70241 254.000
46.72236 250.000
46.74230 266.000
46.76225 289.000
46.78220 300.000
46.80214 283.000
46.82209 258.000
46.84204 262.000
46.86199 286.000
46.88193 243.000
46.90188 251.000
46.92183 297.000
46.94177 261.000
46.96172 278.000
46.98167 269.000
47.00161 275.000
47.02156 260.000
47.04151 246.000
47.06146 255.000
47.08140 287.000
47.10135 290.000
47.12130 254.000
47.14124 294.000
47.16119 269.000
47.18114 296.000
47.20108 277.000
47.22103 269.000
47.24098 255.000
47.26092 274.000
47.28087 304.000
47.30082 293.000
47.32077 266.000
47.34071 261.000
47.36066 233.000
47.38061 290.000
47.40055 237.000
47.42050 253.000
47.44045 269.000
47.46039 289.000
47.48034 279.000
47.50029 270.000
47.52024 249.000
47.54018 263.000
47.56013 288.000
47.58008 256.000
47.60002 260.000
47.61997 269.000
47.63992 259.000
47.65986 286.000
47.67981 281.000
47.69976 270.000
47.71970 254.000
47.73965 310.000
47.75960 287.000
47.77955 253.000
47.79949 258.000
47.81944 287.000
47.83939 262.000
47.85933 257.000
47.87928 258.000
47.89923 280.000
47.91917 279.000
47.93912 302.000
47.95907 297.000
47.97902 297.000
47.99896 281.000
48.01891 252.000
48.03886 290.000
48.05880 287.000
48.07875 270.000
48.09870 288.000
48.11864 268.000
48.13859 275.000
48.15854 272.000
48.17848 296.000
48.19843 309.000
48.21838 291.000
48.23833 301.000
48.25827 285.000
48.27822 284.000
48.29817 314.000
48.31811 332.000
48.33806 298.000
48.35801 322.000
48.37795 332.000
48.39790 284.000
48.41785 354.000
48.43780 306.000
48.45774 336.000
48.47769 345.000
48.49764 343.000
48.51758 302.000
48.53753 305.000
48.55748 325.000
48.57742 351.000
48.59737 337.000
48.61732 372.000
48.63726 364.000
48.65721 357.000
48.67716 411.000
48.69711 431.000
48.71705 471.000
48.73700 470.000
48.75695 508.000
48.77689 598.000
48.79684 665.000
48.81679 830.000
48.83673 918.000
48.85668 1205.000
48.87663 1318.000
48.89658 1304.000
48.91652 1232.000
48.93647 1113.000
48.95642 977.000
48.97636 998.000
48.99631 930.000
49.01626 884.000
49.03620 794.000
49.05615 688.000
49.07610 574.000
49.09605 508.000
49.11599 450.000
49.13594 388.000
49.15589 360.000
49.17583 359.000
49.19578 357.000
49.21573 341.000
49.23567 331.000
49.25562 337.000
49.27557 305.000
49.29551 296.000
49.31546 315.000
49.33541 290.000
49.35536 290.000
49.37530 273.000
49.39525 284.000
49.41520 268.000
49.43514 292.000
49.45509 274.000
49.47504 267.000
49.49498 284.000
49.51493 276.000
49.53488 286.000
49.55483 288.000
49.57477 280.000
49.59472 267.000
49.61467 284.000
49.63461 284.000
49.65456 274.000
49.67451 280.000
49.69445 261.000
49.71440 242.000
49.73435 266.000
49.75429 283.000
49.77424 290.000
49.79419 275.000
49.81414 257.000
49.83408 300.000
49.85403 278.000
49.87398 284.000
49.89392 286.000
49.91387 289.000
49.93382 310.000
49.95376 278.000
49.97371 296.000
49.99366 274.000
50.01361 258.000
50.03355 256.000
50.05350 282.000
50.07345 296.000
50.09339 287.000
50.11334 237.000
50.13329 251.000
50.15323 262.000
50.17318 290.000
50.19313 299.000
50.21307 295.000
50.23302 263.000
50.25297 297.000
50.27292 274.000
50.29286 272.000
50.31281 300.000
50.33276 272.000
50.35270 302.000
50.37265 272.000
50.39260 279.000
50.41254 278.000
50.43249 270.000
50.45244 271.000
50.47239 254.000
50.49233 266.000
50.51228 252.000
50.53223 245.000
50.55217 272.000
50.57212 280.000
50.59207 257.000
50.61201 268.000
50.63196 255.000
50.65191 265.000
50.67186 257.000
50.69180 255.000
50.71175 262.000
50.73170 288.000
50.75164 280.000
50.77159 246.000
50.79154 249.000
50.81148 291.000
50.83143 272.000
50.85138 250.000
50.87132 261.000
50.89127 238.000
50.91122 256.000
50.93117 242.000
50.95111 284.000
50.97106 265.000
50.99101 261.000
51.01095 281.000
51.03090 254.000
51.05085 298.000
51.07079 307.000
51.09074 262.000
51.11069 239.000
51.13064 257.000
51.15058 273.000
51.17053 255.000
51.19048 241.000
51.21042 259.000
51.23037 262.000
51.25032 266.000
51.27026 266.000
51.29021 266.000
51.31016 277.000
51.33010 262.000
51.35005 285.000
51.37000 265.000
51.38995 261.000
51.40989 267.000
51.42984 250.000
51.44979 263.000
51.46973 244.000
51.48968 231.000
51.50963 259.000
51.52957 262.000
51.54952 258.000
51.56947 273.000
51.58942 257.000
51.60936 291.000
51.62931 258.000
51.64926 283.000
51.66920 250.000
51.68915 261.000
51.70910 260.000
51.72904 272.000
51.74899 263.000
51.76894 287.000
51.78888 263.000
51.80883 247.000
51.82878 258.000
51.84873 280.000
51.86867 268.000
51.88862 256.000
51.90857 271.000
51.92851 264.000
51.94846 290.000
51.96841 271.000
51.98835 279.000
52.00830 230.000
52.02825 278.000
52.04820 259.000
52.06814 287.000
52.08809 282.000
52.10804 269.000
52.12798 245.000
52.14793 287.000
52.16788 278.000
52.18782 286.000
52.20777 255.000
52.22772 275.000
52.24767 261.000
52.26761 277.000
52.28756 256.000
52.30751 246.000
52.32745 253.000
52.34740 282.000
52.36735 274.000
52.38729 292.000
52.40724 250.000
52.42719 266.000
52.44713 259.000
52.46708 267.000
52.48703 301.000
52.50698 270.000
52.52692 303.000
52.54687 282.000
52.56682 276.000
52.58676 255.000
52.60671 266.000
52.62666 228.000
52.64660 241.000
52.66655 275.000
52.68650 267.000
52.70645 274.000
52.72639 265.000
52.74634 255.000
52.76629 262.000
52.78623 256.000
52.80618 267.000
52.82613 269.000
52.84607 269.000
52.86602 277.000
52.88597 251.000
52.90591 269.000
52.92586 271.000
52.94581 292.000
52.96576 282.000
52.98570 276.000
53.00565 263.000
53.02560 278.000
53.04554 226.000
53.06549 261.000
53.08544 275.000
53.10538 274.000
53.12533 288.000
53.14528 237.000
53.16523 269.000
53.18517 268.000
53.20512 278.000
53.22507 284.000
53.24501 297.000
53.26496 245.000
53.28491 271.000
53.30485 270.000
53.32480 280.000
53.34475 276.000
53.36469 262.000
53.38464 260.000
53.40459 298.000
53.42454 263.000
53.44448 286.000
53.46443 281.000
53.48438 280.000
53.50432 257.000
53.52427 294.000
53.54422 255.000
53.56416 284.000
53.58411 270.000
53.60406 247.000
53.62401 254.000
53.64395 259.000
53.66390 280.000
53.68385 261.000
53.70379 244.000
53.72374 263.000
53.74369 276.000
53.76363 258.000
53.78358 293.000
53.80353 268.000
53.82348 258.000
53.84342 259.000
53.86337 273.000
53.88332 270.000
53.90326 244.000
53.92321 276.000
53.94316 254.000
53.96310 279.000
53.98305 278.000
54.00300 286.000
54.02294 275.000
54.04289 299.000
54.06284 262.000
54.08279 276.000
54.10273 281.000
54.12268 269.000
54.14263 258.000
54.16257 268.000
54.18252 289.000
54.20247 304.000
54.22241 233.000
54.24236 261.000
54.26231 298.000
54.28226 265.000
54.30220 269.000
54.32215 275.000
54.34210 243.000
54.36204 262.000
54.38199 271.000
54.40194 254.000
54.42188 241.000
54.44183 298.000
54.46178 280.000
54.48172 265.000
54.50167 278.000
54.52162 237.000
54.54157 263.000
54.56151 280.000
54.58146 261.000
54.60141 262.000
54.62135 277.000
54.64130 277.000
54.66125 296.000
54.68119 257.000
54.70114 289.000
54.72109 237.000
54.74104 245.000
54.76098 245.000
54.78093 267.000
54.80088 279.000
54.82082 294.000
54.84077 231.000
54.86072 247.000
54.88066 277.000
54.90061 289.000
54.92056 259.000
54.94050 301.000
54.96045 260.000
54.98040 265.000
55.00035 289.000
55.02029 276.000
55.04024 230.000
55.06019 284.000
55.08013 247.000
55.10008 266.000
55.12003 278.000
55.13997 269.000
55.15992 253.000
55.17987 245.000
55.19982 246.000
55.21976 267.000
55.23971 282.000
55.25966 284.000
55.27960 257.000
55.29955 274.000
55.31950 254.000
55.33944 271.000
55.35939 269.000
55.37934 233.000
55.39929 263.000
55.41923 263.000
55.43918 268.000
55.45913 273.000
55.47907 254.000
55.49902 257.000
55.51897 258.000
55.53891 275.000
55.55886 249.000
55.57881 266.000
55.59875 243.000
55.61870 292.000
55.63865 272.000
55.65860 242.000
55.67854 289.000
55.69849 284.000
55.71844 246.000
55.73838 266.000
55.75833 280.000
55.77828 237.000
55.79822 284.000
55.81817 307.000
55.83812 286.000
55.85807 270.000
55.87801 267.000
55.89796 264.000
55.91791 245.000
55.93785 273.000
55.95780 258.000
55.97775 272.000
55.99769 243.000
56.01764 249.000
56.03759 279.000
56.05753 262.000
56.07748 264.000
56.09743 279.000
56.11738 282.000
56.13732 278.000
56.15727 260.000
56.17722 254.000
56.19716 250.000
56.21711 261.000
56.23706 299.000
56.25700 272.000
56.27695 262.000
56.29690 282.000
56.31685 260.000
56.33679 264.000
56.35674 256.000
56.37669 283.000
56.39663 279.000
56.41658 269.000
56.43653 263.000
56.45647 272.000
56.47642 257.000
56.49637 244.000
56.51631 246.000
56.53626 252.000
56.55621 258.000
56.57616 235.000
56.59610 293.000
56.61605 277.000
56.63600 262.000
56.65594 248.000
56.67589 267.000
56.69584 265.000
56.71578 263.000
56.73573 261.000
56.75568 286.000
56.77563 258.000
56.79557 286.000
56.81552 265.000
56.83547 265.000
56.85541 280.000
56.87536 240.000
56.89531 250.000
56.91525 280.000
56.93520 279.000
56.95515 259.000
56.97510 300.000
56.99504 246.000
57.01499 308.000
57.03494 257.000
57.05488 283.000
57.07483 268.000
57.09478 247.000
57.11472 253.000
57.13467 306.000
57.15462 294.000
57.17456 254.000
57.19451 267.000
57.21446 307.000
57.23441 267.000
57.25435 262.000
57.27430 276.000
57.29425 289.000
57.31419 283.000
57.33414 271.000
57.35409 303.000
57.37403 269.000
57.39398 304.000
57.41393 291.000
57.43388 279.000
57.45382 262.000
57.47377 290.000
57.49372 261.000
57.51366 261.000
57.53361 272.000
57.55356 259.000
57.57350 284.000
57.59345 250.000
57.61340 301.000
57.63334 267.000
57.65329 267.000
57.67324 276.000
57.69319 263.000
57.71313 293.000
57.73308 282.000
57.75303 278.000
57.77297 323.000
57.79292 298.000
57.81287 262.000
57.83281 290.000
57.85276 252.000
57.87271 275.000
57.89266 267.000
57.91260 276.000
57.93255 306.000
57.95250 292.000
57.97244 318.000
57.99239 282.000
58.01234 280.000
58.03228 268.000
58.05223 292.000
58.07218 271.000
58.09212 299.000
58.11207 299.000
58.13202 287.000
58.15197 317.000
58.17191 283.000
58.19186 261.000
58.21181 260.000
58.23175 280.000
58.25170 260.000
58.27165 250.000
58.29159 247.000
58.31154 277.000
58.33149 271.000
58.35144 260.000
58.37138 271.000
58.39133 302.000
58.41128 303.000
58.43122 286.000
58.45117 260.000
58.47112 270.000
58.49106 292.000
58.51101 262.000
58.53096 252.000
58.55090 264.000
58.57085 277.000
58.59080 250.000
58.61075 261.000
58.63069 292.000
58.65064 281.000
58.67059 275.000
58.69053 289.000
58.71048 265.000
58.73043 255.000
58.75037 252.000
58.77032 266.000
58.79027 237.000
58.81022 253.000
58.83016 258.000
58.85011 278.000
58.87006 291.000
58.89000 259.000
58.90995 247.000
58.92990 256.000
58.94984 262.000
58.96979 255.000
58.98974 237.000
59.00969 276.000
59.02963 260.000
59.04958 259.000
59.06953 276.000
59.08947 264.000
59.10942 263.000
59.12937 295.000
59.14931 262.000
59.16926 246.000
59.18921 270.000
59.20915 282.000
59.22910 296.000
59.24905 280.000
59.26900 298.000
59.28894 258.000
59.30889 255.000
59.32884 246.000
59.34878 285.000
59.36873 267.000
59.38868 270.000
59.40862 257.000
59.42857 278.000
59.44852 283.000
59.46847 255.000
59.48841 274.000
59.50836 296.000
59.52831 271.000
59.54825 259.000
59.56820 295.000
59.58815 285.000
59.60809 271.000
59.62804 253.000
59.64799 274.000
59.66793 274.000
59.68788 253.000
59.70783 281.000
59.72778 280.000
59.74772 271.000
59.76767 254.000
59.78762 273.000
59.80756 256.000
59.82751 293.000
59.84746 255.000
59.86740 284.000
59.88735 275.000
59.90730 284.000
59.92725 265.000
59.94719 246.000
59.96714 265.000
59.98709 280.000
60.00703 260.000
60.02698 272.000
60.04693 265.000
60.06687 281.000
60.08682 261.000
60.10677 271.000
60.12671 265.000
60.14666 275.000
60.16661 285.000
60.18656 264.000
60.20650 281.000
60.22645 284.000
60.24640 318.000
60.26634 327.000
60.28629 285.000
60.30624 295.000
60.32618 269.000
60.34613 241.000
60.36608 280.000
60.38603 295.000
60.40597 245.000
60.42592 256.000
60.44587 297.000
60.46581 260.000
60.48576 274.000
60.50571 274.000
60.52565 276.000
60.54560 277.000
60.56555 255.000
60.58550 252.000
60.60544 292.000
60.62539 279.000
60.64534 245.000
60.66528 283.000
60.68523 288.000
60.70518 251.000
60.72512 298.000
60.74507 300.000
60.76502 292.000
60.78496 268.000
60.80491 309.000
60.82486 288.000
60.84481 309.000
60.86475 284.000
60.88470 254.000
60.90465 285.000
60.92459 294.000
60.94454 273.000
60.96449 275.000
60.98443 273.000
61.00438 259.000
61.02433 311.000
61.04428 277.000
61.06422 250.000
61.08417 241.000
61.10412 291.000
61.12406 283.000
61.14401 295.000
61.16396 250.000
61.18390 321.000
61.20385 269.000
61.22380 303.000
61.24374 260.000
61.26369 299.000
61.28364 286.000
61.30359 274.000
61.32353 294.000
61.34348 297.000
61.36343 266.000
61.38337 266.000
61.40332 330.000
61.42327 295.000
61.44321 285.000
61.46316 298.000
61.48311 284.000
61.50306 281.000
61.52300 272.000
61.54295 317.000
61.56290 307.000
61.58284 290.000
61.60279 289.000
61.62274 290.000
61.64268 263.000
61.66263 311.000
61.68258 328.000
61.70252 307.000
61.72247 273.000
61.74242 332.000
61.76237 268.000
61.78231 317.000
61.80226 300.000
61.82221 345.000
61.84215 350.000
61.86210 368.000
61.88205 326.000
61.90199 392.000
61.92194 372.000
61.94189 407.000
61.96184 490.000
61.98178 427.000
62.00173 461.000
62.02168 537.000
62.04162 604.000
62.06157 570.000
62.08152 620.000
62.10146 655.000
62.12141 660.000
62.14136 647.000
62.16131 697.000
62.18125 691.000
62.20120 636.000
62.22115 637.000
62.24109 599.000
62.26104 567.000
62.28099 585.000
62.30093 572.000
62.32088 566.000
62.34083 604.000
62.36077 543.000
62.38072 573.000
62.40067 571.000
62.42062 581.000
62.44056 595.000
62.46051 628.000
62.48046 624.000
62.50040 631.000
62.52035 649.000
62.54030 635.000
62.56024 682.000
62.58019 783.000
62.60014 883.000
62.62009 1032.000
62.64003 1175.000
62.65998 1400.000
62.67993 1931.000
62.69987 2475.000
62.71982 3169.000
62.73977 3747.000
62.75971 4109.000
62.77966 4150.000
62.79961 3833.000
62.81955 3227.000
62.83950 2706.000
62.85945 2308.000
62.87940 2098.000
62.89934 2194.000
62.91929 2435.000
62.93924 2346.000
62.95918 2296.000
62.97913 2001.000
62.99908 1583.000
63.01902 1197.000
63.03897 967.000
63.05892 778.000
63.07887 601.000
63.09881 539.000
63.11876 506.000
63.13871 452.000
63.15865 408.000
63.17860 424.000
63.19855 373.000
63.21849 374.000
63.23844 359.000
63.25839 335.000
63.27833 353.000
63.29828 354.000
63.31823 309.000
63.33818 347.000
63.35812 334.000
63.37807 320.000
63.39802 325.000
63.41796 303.000
63.43791 348.000
63.45786 343.000
63.47780 330.000
63.49775 347.000
63.51770 325.000
63.53765 323.000
63.55759 356.000
63.57754 332.000
63.59749 344.000
63.61743 330.000
63.63738 324.000
63.65733 299.000
63.67727 332.000
63.69722 329.000
63.71717 312.000
63.73712 356.000
63.75706 293.000
63.77701 308.000
63.79696 304.000
63.81690 315.000
63.83685 301.000
63.85680 312.000
63.87674 313.000
63.89669 328.000
63.91664 307.000
63.93658 286.000
63.95653 300.000
63.97648 304.000
63.99643 282.000
64.01637 288.000
64.03632 292.000
64.05627 299.000
64.07621 302.000
64.09616 269.000
64.11611 303.000
64.13605 288.000
64.15600 292.000
64.17595 288.000
64.19590 322.000
64.21584 287.000
64.23579 326.000
64.25574 304.000
64.27568 290.000
64.29563 310.000
64.31558 314.000
64.33552 331.000
64.35547 325.000
64.37542 350.000
64.39536 351.000
64.41531 359.000
64.43526 336.000
64.45521 382.000
64.47515 365.000
64.49510 438.000
64.51505 445.000
64.53499 490.000
64.55494 523.000
64.57489 486.000
64.59483 536.000
64.61478 539.000
64.63473 511.000
64.65468 553.000
64.67462 562.000
64.69457 529.000
64.71452 539.000
64.73446 491.000
64.75441 461.000
64.77436 436.000
64.79430 442.000
64.81425 412.000
64.83420 414.000
64.85414 386.000
64.87409 392.000
64.89404 349.000
64.91399 348.000
64.93393 331.000
64.95388 321.000
64.97383 292.000
64.99377 323.000
65.01372 321.000
65.03367 275.000
65.05361 291.000
65.07356 315.000
65.09351 318.000
65.11346 273.000
65.13340 272.000
65.15335 282.000
65.17330 288.000
65.19324 289.000
65.21319 294.000
65.23314 283.000
65.25308 246.000
65.27303 255.000
65.29298 271.000
65.31293 297.000
65.33287 267.000
65.35282 280.000
65.37277 289.000
65.39271 261.000
65.41266 301.000
65.43261 253.000
65.45255 264.000
65.47250 293.000
65.49245 299.000
65.51239 312.000
65.53234 264.000
65.55229 286.000
65.57224 289.000
65.59218 294.000
65.61213 285.000
65.63208 289.000
65.65202 286.000
65.67197 255.000
65.69192 282.000
65.71186 284.000
65.73181 265.000
65.75176 283.000
65.77171 264.000
65.79165 298.000
65.81160 282.000
65.83155 278.000
65.85149 286.000
65.87144 296.000
65.89139 289.000
65.91133 268.000
65.93128 269.000
65.95123 298.000
65.97117 295.000
65.99112 266.000
66.01107 267.000
66.03102 270.000
66.05096 249.000
66.07091 279.000
66.09086 283.000
66.11080 295.000
66.13075 249.000
66.15070 263.000
66.17064 295.000
66.19059 266.000
66.21054 289.000
66.23049 297.000
66.25043 267.000
66.27038 277.000
66.29033 305.000
66.31027 300.000
66.33022 250.000
66.35017 279.000
66.37011 272.000
66.39006 294.000
66.41001 276.000
66.42995 273.000
66.44990 255.000
66.46985 309.000
66.48980 282.000
66.50974 269.000
66.52969 259.000
66.54964 282.000
66.56958 289.000
66.58953 288.000
66.60948 287.000
66.62942 318.000
66.64937 324.000
66.66932 294.000
66.68927 300.000
66.70921 298.000
66.72916 346.000
66.74911 341.000
66.76905 348.000
66.78900 324.000
66.80895 367.000
66.82889 336.000
66.84884 351.000
66.86879 406.000
66.88874 441.000
66.90868 406.000
66.92863 432.000
66.94858 489.000
66.96852 464.000
66.98847 468.000
67.00842 516.000
67.02836 535.000
67.04831 476.000
67.06826 475.000
67.08820 483.000
67.10815 474.000
67.12810 414.000
67.14805 396.000
67.16799 376.000
67.18794 392.000
67.20789 405.000
67.22783 385.000
67.24778 401.000
67.26773 350.000
67.28767 310.000
67.30762 317.000
67.32757 304.000
67.34752 277.000
67.36746 278.000
67.38741 289.000
67.40736 267.000
67.42730 306.000
67.44725 280.000
67.46720 295.000
67.48714 294.000
67.50709 272.000
67.52704 314.000
67.54698 273.000
67.56693 294.000
67.58688 279.000
67.60683 294.000
67.62677 267.000
67.64672 296.000
67.66667 273.000
67.68661 259.000
67.70656 279.000
67.72651 273.000
67.74645 274.000
67.76640 290.000
67.78635 274.000
67.80630 294.000
67.82624 289.000
67.84619 289.000
67.86614 273.000
67.88608 282.000
67.90603 292.000
67.92598 278.000
67.94592 259.000
67.96587 250.000
67.98582 263.000
68.00576 266.000
68.02571 258.000
68.04566 268.000
68.06561 250.000
68.08555 256.000
68.10550 283.000
68.12545 292.000
68.14539 266.000
68.16534 247.000
68.18529 248.000
68.20523 264.000
68.22518 261.000
68.24513 248.000
68.26508 281.000
68.28502 256.000
68.30497 259.000
68.32492 256.000
68.34486 245.000
68.36481 244.000
68.38476 265.000
68.40470 283.000
68.42465 247.000
68.44460 269.000
68.46455 279.000
68.48449 297.000
68.50444 279.000
68.52439 287.000
68.54433 242.000
68.56428 259.000
68.58423 280.000
68.60417 268.000
68.62412 271.000
68.64407 268.000
68.66401 263.000
68.68396 281.000
68.70391 311.000
68.72386 256.000
68.74380 259.000
68.76375 271.000
68.78370 256.000
68.80364 281.000
68.82359 262.000
68.84354 246.000
68.86348 275.000
68.88343 257.000
68.90338 268.000
68.92333 268.000
68.94327 282.000
68.96322 298.000
68.98317 250.000
69.00311 255.000
69.02306 262.000
69.04301 261.000
69.06295 255.000
69.08290 250.000
69.10285 260.000
69.12279 285.000
69.14274 241.000
69.16269 253.000
69.18264 241.000
69.20258 251.000
69.22253 271.000
69.24248 245.000
69.26242 282.000
69.28237 268.000
69.30232 262.000
69.32226 253.000
69.34221 270.000
69.36216 271.000
69.38211 256.000
69.40205 275.000
69.42200 245.000
69.44195 304.000
69.46189 285.000
69.48184 263.000
69.50179 290.000
69.52173 251.000
69.54168 275.000
69.56163 250.000
69.58157 253.000
69.60152 264.000
69.62147 267.000
69.64142 291.000
69.66136 271.000
69.68131 281.000
69.70126 265.000
69.72120 269.000
69.74115 290.000
69.76110 267.000
69.78104 250.000
69.80099 316.000
69.82094 291.000
69.84089 299.000
69.86083 301.000
69.88078 276.000
69.90073 278.000
69.92067 249.000
69.94062 279.000
69.96057 288.000
69.98051 273.000
70.00046 252.000
70.02041 252.000
70.04035 258.000
70.06030 264.000
70.08025 285.000
70.10020 240.000
70.12014 251.000
70.14009 265.000
70.16004 269.000
70.17998 254.000
70.19993 259.000
70.21988 257.000
70.23982 277.000
70.25977 283.000
70.27972 241.000
70.29967 287.000
70.31961 277.000
70.33956 256.000
70.35951 268.000
70.37945 300.000
70.39940 274.000
70.41935 260.000
70.43929 284.000
70.45924 242.000
70.47919 274.000
70.49914 248.000
70.51908 289.000
70.53903 260.000
70.55898 263.000
70.57892 275.000
70.59887 276.000
70.61882 251.000
70.63876 243.000
70.65871 306.000
70.67866 267.000
70.69860 268.000
70.71855 231.000
70.73850 274.000
70.75845 262.000
70.77839 265.000
70.79834 273.000
70.81829 270.000
70.83823 285.000
70.85818 273.000
70.87813 282.000
70.89807 294.000
70.91802 250.000
70.93797 263.000
70.95792 260.000
70.97786 274.000
70.99781 249.000
71.01776 275.000
71.03770 272.000
71.05765 265.000
71.07760 269.000
71.09754 270.000
71.11749 270.000
71.13744 279.000
71.15738 285.000
71.17733 289.000
71.19728 258.000
71.21723 251.000
71.23717 243.000
71.25712 283.000
71.27707 256.000
71.29701 243.000
71.31696 261.000
71.33691 286.000
71.35685 247.000
71.37680 293.000
71.39675 256.000
71.41670 284.000
71.43664 251.000
71.45659 249.000
71.47654 285.000
71.49648 268.000
71.51643 284.000
71.53638 272.000
71.55632 259.000
71.57627 253.000
71.59622 256.000
71.61616 255.000
71.63611 251.000
71.65606 260.000
71.67601 258.000
71.69595 253.000
71.71590 262.000
71.73585 310.000
71.75579 295.000
71.77574 292.000
71.79569 270.000
71.81563 289.000
71.83558 258.000
71.85553 262.000
71.87548 269.000
71.89542 286.000
71.91537 246.000
71.93532 277.000
71.95526 242.000
71.97521 284.000
71.99516 260.000
72.01510 264.000
72.03505 263.000
72.05500 302.000
72.07495 248.000
72.09489 261.000
72.11484 299.000
72.13479 286.000
72.15473 274.000
72.17468 230.000
72.19463 259.000
72.21457 253.000
72.23452 227.000
72.25447 277.000
72.27441 246.000
72.29436 284.000
72.31431 283.000
72.33426 258.000
72.35420 274.000
72.37415 276.000
72.39410 291.000
72.41404 296.000
72.43399 285.000
72.45394 253.000
72.47388 272.000
72.49383 290.000
72.51378 272.000
72.53373 266.000
72.55367 270.000
72.57362 285.000
72.59357 263.000
72.61351 259.000
72.63346 238.000
72.65341 263.000
72.67335 284.000
72.69330 261.000
72.71325 300.000
72.73319 268.000
72.75314 281.000
72.77309 234.000
72.79304 249.000
72.81298 268.000
72.83293 298.000
72.85288 237.000
72.87282 255.000
72.89277 267.000
72.91272 282.000
72.93266 288.000
72.95261 287.000
72.97256 237.000
72.99251 275.000
73.01245 264.000
73.03240 257.000
73.05235 286.000
73.07229 254.000
73.09224 243.000
73.11219 269.000
73.13213 309.000
73.15208 257.000
73.17203 259.000
73.19197 246.000
73.21192 285.000
73.23187 278.000
73.25182 290.000
73.27176 285.000
73.29171 264.000
73.31166 279.000
73.33160 298.000
73.35155 310.000
73.37150 291.000
73.39144 268.000
73.41139 269.000
73.43134 255.000
73.45129 244.000
73.47123 282.000
73.49118 309.000
73.51113 278.000
73.53107 249.000
73.55102 255.000
73.57097 300.000
73.59091 255.000
73.61086 269.000
73.63081 284.000
73.65076 293.000
73.67070 320.000
73.69065 327.000
73.71060 258.000
73.73054 288.000
73.75049 280.000
73.77044 292.000
73.79038 273.000
73.81033 339.000
73.83028 352.000
73.85022 333.000
73.87017 354.000
73.89012 359.000
73.91007 379.000
73.93001 329.000
73.94996 361.000
73.96991 346.000
73.98985 355.000
74.00980 362.000
74.02975 334.000
74.04969 330.000
74.06964 313.000
74.08959 338.000
74.10954 339.000
74.12948 334.000
74.14943 301.000
74.16938 321.000
74.18932 312.000
74.20927 335.000
74.22922 308.000
74.24916 287.000
74.26911 267.000
74.28906 310.000
74.30900 267.000
74.32895 276.000
74.34890 262.000
74.36885 276.000
74.38879 292.000
74.40874 323.000
74.42869 299.000
74.44863 269.000
74.46858 320.000
74.48853 314.000
74.50847 291.000
74.52842 285.000
74.54837 289.000
74.56832 261.000
74.58826 266.000
74.60821 301.000
74.62816 287.000
74.64810 316.000
74.66805 298.000
74.68800 321.000
74.70794 282.000
74.72789 332.000
74.74784 331.000
74.76778 313.000
74.78773 334.000
74.80768 349.000
74.82763 339.000
74.84757 332.000
74.86752 326.000
74.88747 336.000
74.90741 347.000
74.92736 391.000
74.94731 409.000
74.96725 386.000
74.98720 383.000
75.00715 384.000
75.02710 413.000
75.04704 443.000
75.06699 482.000
75.08694 494.000
75.10688 601.000
75.12683 625.000
75.14678 757.000
75.16672 905.000
75.18667 1018.000
75.20662 1143.000
75.22657 1369.000
75.24651 1428.000
75.26646 1496.000
75.28641 1447.000
75.30635 1334.000
75.32630 1296.000
75.34625 985.000
75.36619 913.000
75.38614 871.000
75.40609 823.000
75.42603 946.000
75.44598 932.000
75.46593 913.000
75.48588 955.000
75.50582 894.000
75.52577 851.000
75.54572 752.000
75.56566 660.000
75.58561 555.000
75.60556 466.000
75.62550 426.000
75.64545 399.000
75.66540 374.000
75.68535 355.000
75.70529 329.000
75.72524 337.000
75.74519 333.000
75.76513 321.000
75.78508 289.000
75.80503 291.000
75.82497 286.000
75.84492 282.000
75.86487 322.000
75.88481 298.000
75.90476 297.000
75.92471 278.000
75.94466 288.000
75.96460 292.000
75.98455 309.000
76.00450 249.000
76.02444 291.000
76.04439 270.000
76.06434 292.000
76.08428 301.000
76.10423 297.000
76.12418 288.000
76.14413 314.000
76.16407 299.000
76.18402 306.000
76.20397 321.000
76.22391 303.000
76.24386 332.000
76.26381 285.000
76.28375 307.000
76.30370 325.000
76.32365 309.000
76.34359 303.000
76.36354 291.000
76.38349 295.000
76.40344 302.000
76.42338 300.000
76.44333 276.000
76.46328 291.000
76.48322 298.000
76.50317 293.000
76.52312 275.000
76.54306 259.000
76.56301 309.000
76.58296 279.000
76.60291 270.000
76.62285 247.000
76.64280 281.000
76.66275 261.000
76.68269 272.000
76.70264 309.000
76.72259 296.000
76.74253 271.000
76.76248 267.000
76.78243 266.000
76.80238 280.000
76.82232 289.000
76.84227 256.000
76.86222 289.000
76.88216 277.000
76.90211 254.000
76.92206 299.000
76.94200 247.000
76.96195 267.000
76.98190 266.000
77.00184 261.000
77.02179 281.000
77.04174 281.000
77.06169 266.000
77.08163 263.000
77.10158 307.000
77.12153 258.000
77.14147 274.000
77.16142 291.000
77.18137 291.000
77.20131 280.000
77.22126 275.000
77.24121 264.000
77.26116 279.000
77.28110 279.000
77.30105 274.000
77.32100 296.000
77.34094 263.000
77.36089 276.000
77.38084 263.000
77.40078 276.000
77.42073 279.000
77.44068 279.000
77.46062 286.000
77.48057 266.000
77.50052 263.000
77.52047 282.000
77.54041 293.000
77.56036 252.000
77.58031 218.000
77.60025 279.000
77.62020 276.000
77.64015 240.000
77.66009 271.000
77.68004 250.000
77.69999 246.000
77.71994 283.000
77.73988 298.000
77.75983 267.000
77.77978 264.000
77.79972 289.000
77.81967 284.000
77.83962 248.000
77.85956 280.000
77.87951 267.000
77.89946 272.000
77.91940 305.000
77.93935 299.000
77.95930 282.000
77.97925 296.000
77.99919 295.000
78.01914 278.000
78.03909 299.000
78.05903 278.000
78.07898 311.000
78.09893 313.000
78.11887 320.000
78.13882 314.000
78.15877 352.000
78.17872 347.000
78.19866 339.000
78.21861 354.000
78.23856 334.000
78.25850 347.000
78.27845 356.000
78.29840 346.000
78.31834 372.000
78.33829 372.000
78.35824 401.000
78.37819 439.000
78.39813 436.000
78.41808 409.000
78.43803 453.000
78.45797 431.000
78.47792 400.000
78.49787 422.000
78.51781 388.000
78.53776 349.000
78.55771 358.000
78.57765 376.000
78.59760 348.000
78.61755 395.000
78.63750 352.000
78.65744 366.000
78.67739 353.000
78.69734 353.000
78.71728 379.000
78.73723 353.000
78.75718 320.000
78.77712 326.000
78.79707 338.000
78.81702 370.000
78.83697 365.000
78.85691 343.000
78.87686 352.000
78.89681 332.000
78.91675 359.000
78.93670 372.000
78.95665 331.000
78.97659 355.000
78.99654 369.000
79.01649 401.000
79.03643 374.000
79.05638 417.000
79.07633 462.000
79.09628 494.000
79.11622 575.000
79.13617 684.000
79.15612 797.000
79.17606 882.000
79.19601 1121.000
79.21596 1152.000
79.23590 1222.000
79.25585 1169.000
79.27580 1038.000
79.29575 900.000
79.31569 870.000
79.33564 810.000
79.35559 742.000
79.37553 694.000
79.39548 694.000
79.41543 785.000
79.43537 731.000
79.45532 756.000
79.47527 762.000
79.49521 677.000
79.51516 679.000
79.53511 595.000
79.55506 487.000
79.57500 503.000
79.59495 436.000
79.61490 382.000
79.63484 348.000
79.65479 369.000
79.67474 327.000
79.69468 314.000
79.71463 310.000
79.73458 277.000
79.75453 292.000
79.77447 305.000
79.79442 287.000
79.81437 294.000
79.83431 290.000
79.85426 284.000
79.87421 248.000
79.89415 310.000
79.91410 290.000
79.93405 277.000
79.95399 299.000
79.97394 284.000
79.99389 277.000
80.01384 280.000
80.03378 274.000
80.05373 269.000
80.07368 259.000
80.09362 269.000
80.11357 265.000
80.13352 296.000
80.15346 284.000
80.17341 274.000
80.19336 297.000
80.21331 248.000
80.23325 243.000
80.25320 260.000
80.27315 258.000
80.29309 272.000
80.31304 272.000
80.33299 259.000
80.35293 228.000
80.37288 297.000
80.39283 274.000
80.41278 258.000
80.43272 261.000
80.45267 303.000
80.47262 257.000
80.49256 265.000
80.51251 294.000
80.53246 282.000
80.55240 259.000
80.57235 286.000
80.59230 290.000
80.61224 261.000
80.63219 262.000
80.65214 268.000
80.67209 259.000
80.69203 252.000
80.71198 278.000
80.73193 276.000
80.75187 266.000
80.77182 282.000
80.79177 289.000
80.81171 261.000
80.83166 298.000
80.85161 246.000
80.87156 264.000
80.89150 257.000
80.91145 298.000
80.93140 258.000
80.95134 261.000
80.97129 276.000
80.99124 294.000
81.01118 258.000
81.03113 232.000
81.05108 268.000
81.07102 279.000
81.09097 239.000
81.11092 281.000
81.13087 266.000
81.15081 276.000
81.17076 289.000
81.19071 266.000
81.21065 272.000
81.23060 276.000
81.25055 236.000
81.27049 307.000
81.29044 304.000
81.31039 270.000
81.33034 301.000
81.35028 259.000
81.37023 288.000
81.39018 262.000
81.41012 300.000
81.43007 311.000
81.45002 307.000
81.46996 261.000
81.48991 275.000
81.50986 270.000
81.52980 304.000
81.54975 270.000
81.56970 284.000
81.58965 255.000
81.60959 271.000
81.62954 283.000
81.64949 249.000
81.66943 246.000
81.68938 271.000
81.70933 257.000
81.72927 248.000
81.74922 251.000
81.76917 266.000
81.78912 260.000
81.80906 297.000
81.82901 260.000
81.84896 258.000
81.86890 266.000
81.88885 285.000
81.90880 255.000
81.92874 304.000
81.94869 276.000
81.96864 285.000
81.98859 293.000
82.00853 261.000
82.02848 286.000
82.04843 271.000
82.06837 287.000
82.08832 295.000
82.10827 249.000
82.12821 258.000
82.14816 281.000
82.16811 268.000
82.18805 300.000
82.20800 260.000
82.22795 295.000
82.24790 271.000
82.26784 266.000
82.28779 289.000
82.30774 259.000
82.32768 293.000
82.34763 270.000
82.36758 287.000
82.38752 240.000
82.40747 264.000
82.42742 250.000
82.44737 277.000
82.46731 279.000
82.48726 276.000
82.50721 258.000
82.52715 237.000
82.54710 262.000
82.56705 231.000
82.58699 266.000
82.60694 280.000
82.62689 239.000
82.64683 281.000
82.66678 272.000
82.68673 275.000
82.70668 248.000
82.72662 262.000
82.74657 251.000
82.76652 275.000
82.78646 277.000
82.80641 294.000
82.82636 249.000
82.84630 266.000
82.86625 279.000
82.88620 256.000
82.90615 269.000
82.92609 281.000
82.94604 277.000
82.96599 273.000
82.98593 258.000
83.00588 243.000
83.02583 255.000
83.04577 248.000
83.06572 276.000
83.08567 286.000
83.10561 270.000
83.12556 261.000
83.14551 264.000
83.16546 243.000
83.18540 257.000
83.20535 276.000
83.22530 283.000
83.24524 233.000
83.26519 242.000
83.28514 250.000
83.30508 231.000
83.32503 286.000
83.34498 278.000
83.36493 288.000
83.38487 277.000
83.40482 288.000
83.42477 247.000
83.44471 264.000
83.46466 280.000
83.48461 269.000
83.50455 263.000
83.52450 269.000
83.54445 273.000
83.56440 256.000
83.58434 281.000
83.60429 274.000
83.62424 271.000
83.64418 273.000
83.66413 267.000
83.68408 274.000
83.70402 299.000
83.72397 297.000
83.74392 258.000
83.76386 238.000
83.78381 256.000
83.80376 253.000
83.82371 263.000
83.84365 272.000
83.86360 277.000
83.88355 233.000
83.90349 254.000
83.92344 278.000
83.94339 253.000
83.96333 236.000
83.98328 262.000
84.00323 260.000
84.02318 304.000
84.04312 249.000
84.06307 294.000
84.08302 257.000
84.10296 249.000
84.12291 274.000
84.14286 281.000
84.16280 278.000
84.18275 274.000
84.20270 269.000
84.22264 242.000
84.24259 271.000
84.26254 248.000
84.28249 254.000
84.30243 250.000
84.32238 265.000
84.34233 264.000
84.36227 245.000
84.38222 252.000
84.40217 278.000
84.42211 283.000
84.44206 297.000
84.46201 268.000
84.48196 254.000
84.50190 284.000
84.52185 235.000
84.54180 278.000
84.56174 282.000
84.58169 295.000
84.60164 267.000
84.62158 244.000
84.64153 289.000
84.66148 259.000
84.68142 269.000
84.70137 292.000
84.72132 289.000
84.74127 302.000
84.76121 279.000
84.78116 297.000
84.80111 326.000
84.82105 305.000
84.84100 306.000
84.86095 316.000
84.88089 337.000
84.90084 343.000
84.92079 306.000
84.94074 359.000
84.96068 387.000
84.98063 354.000
85.00058 345.000
85.02052 386.000
85.04047 387.000
85.06042 387.000
85.08036 356.000
85.10031 325.000
85.12026 340.000
85.14021 342.000
85.16015 301.000
85.18010 321.000
85.20005 350.000
85.21999 322.000
85.23994 336.000
85.25989 327.000
85.27983 303.000
85.29978 310.000
85.31973 304.000
85.33967 304.000
85.35962 275.000
85.37957 302.000
85.39952 257.000
85.41946 295.000
85.43941 269.000
85.45936 266.000
85.47930 270.000
85.49925 267.000
85.51920 236.000
85.53914 234.000
85.55909 272.000
85.57904 234.000
85.59899 245.000
85.61893 238.000
85.63888 241.000
85.65883 264.000
85.67877 262.000
85.69872 251.000
85.71867 263.000
85.73861 267.000
85.75856 255.000
85.77851 280.000
85.79845 256.000
85.81840 287.000
85.83835 265.000
85.85830 273.000
85.87824 267.000
85.89819 272.000
85.91814 263.000
85.93808 241.000
85.95803 267.000
85.97798 239.000
85.99792 271.000
86.01787 265.000
86.03782 288.000
86.05777 270.000
86.07771 251.000
86.09766 250.000
86.11761 245.000
86.13755 276.000
86.15750 275.000
86.17745 271.000
86.19739 261.000
86.21734 249.000
86.23729 254.000
86.25723 287.000
86.27718 272.000
86.29713 239.000
86.31708 264.000
86.33702 280.000
86.35697 256.000
86.37692 281.000
86.39686 255.000
86.41681 296.000
86.43676 255.000
86.45670 275.000
86.47665 267.000
86.49660 266.000
86.51655 245.000
86.53649 262.000
86.55644 268.000
86.57639 241.000
86.59633 277.000
86.61628 251.000
86.63623 285.000
86.65617 280.000
86.67612 285.000
86.69607 278.000
86.71602 268.000
86.73596 260.000
86.75591 251.000
86.77586 246.000
86.79580 273.000
86.81575 268.000
86.83570 260.000
86.85564 285.000
86.87559 264.000
86.89554 266.000
86.91548 269.000
86.93543 296.000
86.95538 284.000
86.97533 314.000
86.99527 284.000
87.01522 281.000
87.03517 285.000
87.05511 263.000
87.07506 276.000
87.09501 289.000
87.11495 252.000
87.13490 265.000
87.15485 270.000
87.17480 284.000
87.19474 287.000
87.21469 279.000
87.23464 259.000
87.25458 286.000
87.27453 282.000
87.29448 271.000
87.31442 275.000
87.33437 273.000
87.35432 262.000
87.37426 290.000
87.39421 263.000
87.41416 247.000
87.43411 286.000
87.45405 294.000
87.47400 269.000
87.49395 261.000
87.51389 287.000
87.53384 281.000
87.55379 272.000
87.57373 280.000
87.59368 257.000
87.61363 248.000
87.63358 292.000
87.65352 252.000
87.67347 267.000
87.69342 254.000
87.71336 268.000
87.73331 261.000
87.75326 274.000
87.77320 287.000
87.79315 259.000
87.81310 291.000
87.83304 259.000
87.85299 289.000
87.87294 274.000
87.89289 263.000
87.91283 263.000
87.93278 272.000
87.95273 259.000
87.97267 259.000
87.99262 285.000
88.01257 248.000
88.03251 282.000
88.05246 242.000
88.07241 256.000
88.09236 273.000
88.11230 238.000
88.13225 262.000
88.15220 283.000
88.17214 275.000
88.19209 250.000
88.21204 280.000
88.23198 260.000
88.25193 268.000
88.27188 262.000
88.29183 276.000
88.31177 250.000
88.33172 272.000
88.35167 259.000
88.37161 252.000
88.39156 277.000
88.41151 272.000
88.43145 279.000
88.45140 270.000
88.47135 262.000
88.49129 255.000
88.51124 292.000
88.53119 243.000
88.55114 236.000
88.57108 265.000
88.59103 257.000
88.61098 262.000
88.63092 253.000
88.65087 296.000
88.67082 285.000
88.69076 289.000
88.71071 258.000
88.73066 268.000
88.75061 265.000
88.77055 267.000
88.79050 279.000
88.81045 276.000
88.83039 260.000
88.85034 291.000
88.87029 273.000
88.89023 255.000
88.91018 263.000
88.93013 246.000
88.95007 276.000
88.97002 265.000
88.98997 264.000
89.00992 249.000
89.02986 301.000
89.04981 271.000
89.06976 282.000
89.08970 256.000
89.10965 230.000
89.12960 271.000
89.14954 260.000
89.16949 245.000
89.18944 271.000
89.20939 286.000
89.22933 291.000
89.24928 278.000
89.26923 243.000
89.28917 257.000
89.30912 273.000
89.32907 266.000
89.34901 282.000
89.36896 245.000
89.38891 265.000
89.40885 261.000
89.42880 250.000
89.44875 271.000
89.46870 257.000
89.48864 247.000
89.50859 233.000
89.52854 229.000
89.54848 255.000
89.56843 287.000
89.58838 279.000
89.60832 251.000
89.62827 268.000
89.64822 250.000
89.66817 246.000
89.68811 255.000
89.70806 273.000
89.72801 282.000
89.74795 280.000
89.76790 252.000
89.78785 283.000
89.80779 264.000
89.82774 266.000
89.84769 285.000
89.86764 285.000
89.88758 262.000
89.90753 242.000
89.92748 281.000
89.94742 252.000
89.96737 274.000
89.98732 247.000
90.00726 260.000
