10.00000 76.000
10.01995 79.000
10.03989 84.000
10.05984 63.000
10.07979 89.000
10.09973 99.000
10.11968 85.000
10.13963 77.000
10.15958 80.000
10.17952 77.000
10.19947 87.000
10.21942 72.000
10.23936 76.000
10.25931 65.000
10.27926 58.000
10.29920 76.000
10.31915 64.000
10.33910 68.000
10.35905 74.000
10.37899 69.000
10.39894 74.000
10.41889 77.000
10.43883 89.000
10.45878 81.000
10.47873 76.000
10.49867 70.000
10.51862 77.000
10.53857 66.000
10.55851 77.000
10.57846 70.000
10.59841 83.000
10.61836 68.000
10.63830 85.000
10.65825 67.000
10.67820 77.000
10.69814 76.000
10.71809 77.000
10.73804 76.000
10.75798 75.000
10.77793 77.000
10.79788 91.000
10.81783 82.000
10.83777 79.000
10.85772 71.000
10.87767 75.000
10.89761 80.000
10.91756 65.000
10.93751 70.000
10.95745 68.000
10.97740 73.000
10.99735 68.000
11.01730 75.000
11.03724 84.000
11.05719 72.000
11.07714 67.000
11.09708 91.000
11.11703 94.000
11.13698 76.000
11.15692 82.000
11.17687 70.000
11.19682 71.000
11.21676 75.000
11.23671 67.000
11.25666 75.000
11.27661 74.000
11.29655 68.000
11.31650 67.000
11.33645 77.000
11.35639 78.000
11.37634 94.000
11.39629 84.000
11.41623 65.000
11.43618 72.000
11.45613 72.000
11.47608 89.000
11.49602 69.000
11.51597 67.000
11.53592 65.000
11.55586 84.000
11.57581 68.000
11.59576 83.000
11.61570 69.000
11.63565 75.000
11.65560 93.000
11.67554 80.000
11.69549 69.000
11.71544 95.000
11.73539 66.000
11.75533 90.000
11.77528 79.000
11.79523 80.000
11.81517 63.000
11.83512 82.000
11.85507 75.000
11.87501 72.000
11.89496 75.000
11.91491 76.000
11.93486 70.000
11.95480 74.000
11.97475 66.000
11.99470 55.000
12.01464 67.000
12.03459 72.000
12.05454 66.000
12.07448 69.000
12.09443 75.000
12.11438 88.000
12.13432 68.000
12.15427 73.000
12.17422 84.000
12.19417 69.000
12.21411 64.000
12.23406 68.000
12.25401 79.000
12.27395 64.000
12.29390 73.000
12.31385 66.000
12.33379 72.000
12.35374 77.000
12.37369 86.000
12.39364 76.000
12.41358 68.000
12.43353 86.000
12.45348 61.000
12.47342 75.000
12.49337 74.000
12.51332 90.000
12.53326 85.000
12.55321 82.000
12.57316 79.000
12.59311 73.000
12.61305 73.000
12.63300 78.000
12.65295 73.000
12.67289 62.000
12.69284 64.000
12.71279 74.000
12.73273 76.000
12.75268 75.000
12.77263 71.000
12.79257 81.000
12.81252 71.000
12.83247 78.000
12.85242 78.000
12.87236 70.000
12.89231 66.000
12.91226 76.000
12.93220 85.000
12.95215 72.000
12.97210 74.000
12.99204 91.000
13.01199 87.000
13.03194 85.000
13.05189 82.000
13.07183 84.000
13.09178 56.000
13.11173 77.000
13.13167 70.000
13.15162 77.000
13.17157 71.000
13.19151 77.000
13.21146 88.000
13.23141 64.000
13.25135 67.000
13.27130 53.000
13.29125 84.000
13.31120 55.000
13.33114 66.000
13.35109 73.000
13.37104 80.000
13.39098 81.000
13.41093 91.000
13.43088 81.000
13.45082 77.000
13.47077 77.000
13.49072 87.000
13.51067 61.000
13.53061 84.000
13.55056 94.000
13.57051 71.000
13.59045 84.000
13.61040 76.000
13.63035 82.000
13.65029 90.000
13.67024 70.000
13.69019 87.000
13.71013 96.000
13.73008 72.000
13.75003 73.000
13.76998 79.000
13.78992 76.000
13.80987 80.000
13.82982 92.000
13.84976 86.000
13.86971 80.000
13.88966 79.000
13.90960 102.000
13.92955 84.000
13.94950 76.000
13.96945 68.000
13.98939 82.000
14.00934 84.000
14.02929 79.000
14.04923 89.000
14.06918 77.000
14.08913 69.000
14.10907 75.000
14.12902 81.000
14.14897 88.000
14.16892 80.000
14.18886 80.000
14.20881 81.000
14.22876 83.000
14.24870 64.000
14.26865 84.000
14.28860 76.000
14.30854 70.000
14.32849 78.000
14.34844 92.000
14.36838 77.000
14.38833 86.000
14.40828 75.000
14.42823 77.000
14.44817 70.000
14.46812 84.000
14.48807 72.000
14.50801 76.000
14.52796 81.000
14.54791 82.000
14.56785 72.000
14.58780 92.000
14.60775 81.000
14.62770 87.000
14.64764 65.000
14.66759 101.000
14.68754 71.000
14.70748 84.000
14.72743 94.000
14.74738 95.000
14.76732 92.000
14.78727 85.000
14.80722 87.000
14.82716 90.000
14.84711 71.000
14.86706 89.000
14.88701 84.000
14.90695 88.000
14.92690 88.000
14.94685 84.000
14.96679 83.000
14.98674 88.000
15.00669 82.000
15.02663 94.000
15.04658 77.000
15.06653 73.000
15.08648 93.000
15.10642 90.000
15.12637 93.000
15.14632 83.000
15.16626 91.000
15.18621 87.000
15.20616 100.000
15.22610 92.000
15.24605 93.000
15.26600 103.000
15.28594 107.000
15.30589 103.000
15.32584 115.000
15.34579 118.000
15.36573 110.000
15.38568 127.000
15.40563 111.000
15.42557 106.000
15.44552 111.000
15.46547 147.000
15.48541 138.000
15.50536 158.000
15.52531 160.000
15.54526 156.000
15.56520 162.000
15.58515 139.000
15.60510 160.000
15.62504 175.000
15.64499 172.000
15.66494 199.000
15.68488 195.000
15.70483 218.000
15.72478 254.000
15.74472 319.000
15.76467 344.000
15.78462 460.000
15.80457 511.000
15.82451 751.000
15.84446 1000.000
15.86441 1264.000
15.88435 1479.000
15.90430 1638.000
15.92425 1632.000
15.94419 1607.000
15.96414 1257.000
15.98409 970.000
16.00404 893.000
16.02398 828.000
16.04393 859.000
16.06388 982.000
16.08382 1097.000
16.10377 1255.000
16.12372 1477.000
16.14366 1688.000
16.16361 1889.000
16.18356 2011.000
16.20351 2152.000
16.22345 2271.000
16.24340 2286.000
16.26335 2112.000
16.28329 2101.000
16.30324 1867.000
16.32319 1660.000
16.34313 1306.000
16.36308 1153.000
16.38303 841.000
16.40297 692.000
16.42292 535.000
16.44287 439.000
16.46282 383.000
16.48276 285.000
16.50271 252.000
16.52266 238.000
16.54260 192.000
16.56255 194.000
16.58250 182.000
16.60244 176.000
16.62239 171.000
16.64234 170.000
16.66229 143.000
16.68223 148.000
16.70218 157.000
16.72213 159.000
16.74207 144.000
16.76202 154.000
16.78197 128.000
16.80191 134.000
16.82186 145.000
16.84181 158.000
16.86175 162.000
16.88170 154.000
16.90165 148.000
16.92160 147.000
16.94154 120.000
16.96149 113.000
16.98144 109.000
17.00138 111.000
17.02133 125.000
17.04128 120.000
17.06122 108.000
17.08117 114.000
17.10112 111.000
17.12107 111.000
17.14101 99.000
17.16096 95.000
17.18091 95.000
17.20085 100.000
17.22080 115.000
17.24075 93.000
17.26069 126.000
17.28064 84.000
17.30059 90.000
17.32053 86.000
17.34048 95.000
17.36043 109.000
17.38038 102.000
17.40032 101.000
17.42027 89.000
17.44022 101.000
17.46016 95.000
17.48011 105.000
17.50006 98.000
17.52000 93.000
17.53995 93.000
17.55990 105.000
17.57985 98.000
17.59979 86.000
17.61974 84.000
17.63969 81.000
17.65963 71.000
17.67958 93.000
17.69953 89.000
17.71947 99.000
17.73942 91.000
17.75937 82.000
17.77932 94.000
17.79926 89.000
17.81921 64.000
17.83916 74.000
17.85910 74.000
17.87905 87.000
17.89900 92.000
17.91894 86.000
17.93889 84.000
17.95884 93.000
17.97878 85.000
17.99873 76.000
18.01868 98.000
18.03863 86.000
18.05857 95.000
18.07852 84.000
18.09847 85.000
18.11841 94.000
18.13836 99.000
18.15831 105.000
18.17825 89.000
18.19820 86.000
18.21815 84.000
18.23810 90.000
18.25804 80.000
18.27799 92.000
18.29794 88.000
18.31788 88.000
18.33783 108.000
18.35778 82.000
18.37772 98.000
18.39767 117.000
18.41762 136.000
18.43756 137.000
18.45751 133.000
18.47746 142.000
18.49741 114.000
18.51735 83.000
18.53730 97.000
18.55725 87.000
18.57719 104.000
18.59714 100.000
18.61709 72.000
18.63703 76.000
18.65698 76.000
18.67693 98.000
18.69688 104.000
18.71682 107.000
18.73677 84.000
18.75672 81.000
18.77666 99.000
18.79661 73.000
18.81656 78.000
18.83650 91.000
18.85645 74.000
18.87640 92.000
18.89634 94.000
18.91629 77.000
18.93624 65.000
18.95619 90.000
18.97613 75.000
18.99608 68.000
19.01603 97.000
19.03597 74.000
19.05592 77.000
19.07587 83.000
19.09581 74.000
19.11576 74.000
19.13571 74.000
19.15566 66.000
19.17560 89.000
19.19555 73.000
19.21550 90.000
19.23544 67.000
19.25539 98.000
19.27534 98.000
19.29528 76.000
19.31523 70.000
19.33518 76.000
19.35513 81.000
19.37507 67.000
19.39502 62.000
19.41497 61.000
19.43491 67.000
19.45486 84.000
19.47481 82.000
19.49475 94.000
19.51470 91.000
19.53465 72.000
19.55459 85.000
19.57454 94.000
19.59449 80.000
19.61444 100.000
19.63438 86.000
19.65433 79.000
19.67428 70.000
19.69422 86.000
19.71417 85.000
19.73412 62.000
19.75406 92.000
19.77401 79.000
19.79396 88.000
19.81391 79.000
19.83385 76.000
19.85380 73.000
19.87375 76.000
19.89369 68.000
19.91364 82.000
19.93359 73.000
19.95353 81.000
19.97348 82.000
19.99343 70.000
20.01337 78.000
20.03332 89.000
20.05327 77.000
20.07322 80.000
20.09316 79.000
20.11311 78.000
20.13306 78.000
20.15300 72.000
20.17295 91.000
20.19290 83.000
20.21284 88.000
20.23279 100.000
20.25274 79.000
20.27269 95.000
20.29263 71.000
20.31258 95.000
20.33253 71.000
20.35247 72.000
20.37242 82.000
20.39237 74.000
20.41231 79.000
20.43226 80.000
20.45221 77.000
20.47215 85.000
20.49210 91.000
20.51205 95.000
20.53200 73.000
20.55194 80.000
20.57189 75.000
20.59184 79.000
20.61178 85.000
20.63173 86.000
20.65168 91.000
20.67162 102.000
20.69157 92.000
20.71152 114.000
20.73147 131.000
20.75141 126.000
20.77136 137.000
20.79131 116.000
20.81125 111.000
20.83120 142.000
20.85115 142.000
20.87109 143.000
20.89104 125.000
20.91099 137.000
20.93094 147.000
20.95088 139.000
20.97083 141.000
20.99078 122.000
21.01072 140.000
21.03067 128.000
21.05062 121.000
21.07056 117.000
21.09051 111.000
21.11046 114.000
21.13040 105.000
21.15035 98.000
21.17030 108.000
21.19025 82.000
21.21019 88.000
21.23014 84.000
21.25009 80.000
21.27003 86.000
21.28998 76.000
21.30993 90.000
21.32987 70.000
21.34982 78.000
21.36977 89.000
21.38972 72.000
21.40966 68.000
21.42961 65.000
21.44956 75.000
21.46950 90.000
21.48945 89.000
21.50940 68.000
21.52934 69.000
21.54929 62.000
21.56924 89.000
21.58918 67.000
21.60913 69.000
21.62908 78.000
21.64903 83.000
21.66897 78.000
21.68892 73.000
21.70887 78.000
21.72881 78.000
21.74876 67.000
21.76871 66.000
21.78865 76.000
21.80860 73.000
21.82855 74.000
21.84850 73.000
21.86844 71.000
21.88839 68.000
21.90834 75.000
21.92828 91.000
21.94823 72.000
21.96818 77.000
21.98812 87.000
22.00807 67.000
22.02802 62.000
22.04796 61.000
22.06791 72.000
22.08786 66.000
22.10781 81.000
22.12775 80.000
22.14770 74.000
22.16765 71.000
22.18759 83.000
22.20754 72.000
22.22749 79.000
22.24743 72.000
22.26738 83.000
22.28733 89.000
22.30728 83.000
22.32722 63.000
22.34717 76.000
22.36712 89.000
22.38706 74.000
22.40701 76.000
22.42696 80.000
22.44690 86.000
22.46685 66.000
22.48680 67.000
22.50675 91.000
22.52669 78.000
22.54664 80.000
22.56659 75.000
22.58653 69.000
22.60648 84.000
22.62643 75.000
22.64637 85.000
22.66632 71.000
22.68627 84.000
22.70621 90.000
22.72616 86.000
22.74611 78.000
22.76606 75.000
22.78600 87.000
22.80595 76.000
22.82590 79.000
22.84584 82.000
22.86579 97.000
22.88574 106.000
22.90568 83.000
22.92563 83.000
22.94558 72.000
22.96553 63.000
22.98547 75.000
23.00542 66.000
23.02537 73.000
23.04531 65.000
23.06526 76.000
23.08521 88.000
23.10515 72.000
23.12510 77.000
23.14505 89.000
23.16499 77.000
23.18494 84.000
23.20489 87.000
23.22484 82.000
23.24478 84.000
23.26473 79.000
23.28468 70.000
23.30462 70.000
23.32457 86.000
23.34452 71.000
23.36446 72.000
23.38441 72.000
23.40436 87.000
23.42431 81.000
23.44425 87.000
23.46420 85.000
23.48415 82.000
23.50409 73.000
23.52404 70.000
23.54399 72.000
23.56393 85.000
23.58388 82.000
23.60383 66.000
23.62377 75.000
23.64372 67.000
23.66367 80.000
23.68362 76.000
23.70356 79.000
23.72351 80.000
23.74346 73.000
23.76340 80.000
23.78335 75.000
23.80330 89.000
23.82324 93.000
23.84319 79.000
23.86314 81.000
23.88309 72.000
23.90303 89.000
23.92298 74.000
23.94293 94.000
23.96287 93.000
23.98282 82.000
24.00277 76.000
24.02271 93.000
24.04266 76.000
24.06261 62.000
24.08256 59.000
24.10250 78.000
24.12245 83.000
24.14240 88.000
24.16234 94.000
24.18229 66.000
24.20224 77.000
24.22218 87.000
24.24213 84.000
24.26208 98.000
24.28202 75.000
24.30197 78.000
24.32192 78.000
24.34187 86.000
24.36181 80.000
24.38176 88.000
24.40171 78.000
24.42165 73.000
24.44160 88.000
24.46155 82.000
24.48149 76.000
24.50144 73.000
24.52139 89.000
24.54134 74.000
24.56128 99.000
24.58123 71.000
24.60118 85.000
24.62112 66.000
24.64107 71.000
24.66102 97.000
24.68096 86.000
24.70091 86.000
24.72086 79.000
24.74080 79.000
24.76075 86.000
24.78070 72.000
24.80065 97.000
24.82059 74.000
24.84054 82.000
24.86049 82.000
24.88043 91.000
24.90038 97.000
24.92033 100.000
24.94027 89.000
24.96022 83.000
24.98017 106.000
25.00012 98.000
25.02006 94.000
25.04001 92.000
25.05996 97.000
25.07990 87.000
25.09985 89.000
25.11980 77.000
25.13974 101.000
25.15969 84.000
25.17964 93.000
25.19958 90.000
25.21953 81.000
25.23948 93.000
25.25943 90.000
25.27937 69.000
25.29932 80.000
25.31927 70.000
25.33921 69.000
25.35916 84.000
25.37911 75.000
25.39905 89.000
25.41900 103.000
25.43895 83.000
25.45890 67.000
25.47884 76.000
25.49879 97.000
25.51874 82.000
25.53868 79.000
25.55863 85.000
25.57858 93.000
25.59852 76.000
25.61847 83.000
25.63842 77.000
25.65837 67.000
25.67831 85.000
25.69826 66.000
25.71821 91.000
25.73815 101.000
25.75810 76.000
25.77805 71.000
25.79799 75.000
25.81794 89.000
25.83789 81.000
25.85783 93.000
25.87778 79.000
25.89773 77.000
25.91768 76.000
25.93762 96.000
25.95757 93.000
25.97752 74.000
25.99746 100.000
26.01741 95.000
26.03736 77.000
26.05730 92.000
26.07725 109.000
26.09720 90.000
26.11715 72.000
26.13709 88.000
26.15704 82.000
26.17699 85.000
26.19693 88.000
26.21688 77.000
26.23683 82.000
26.25677 85.000
26.27672 76.000
26.29667 98.000
26.31661 74.000
26.33656 78.000
26.35651 83.000
26.37646 75.000
26.39640 84.000
26.41635 101.000
26.43630 85.000
26.45624 76.000
26.47619 82.000
26.49614 95.000
26.51608 78.000
26.53603 87.000
26.55598 77.000
26.57593 96.000
26.59587 82.000
26.61582 80.000
26.63577 78.000
26.65571 67.000
26.67566 98.000
26.69561 74.000
26.71555 83.000
26.73550 73.000
26.75545 79.000
26.77539 89.000
26.79534 105.000
26.81529 111.000
26.83524 91.000
26.85518 70.000
26.87513 87.000
26.89508 73.000
26.91502 101.000
26.93497 90.000
26.95492 87.000
26.97486 85.000
26.99481 83.000
27.01476 96.000
27.03471 97.000
27.05465 85.000
27.07460 88.000
27.09455 104.000
27.11449 105.000
27.13444 81.000
27.15439 84.000
27.17433 88.000
27.19428 88.000
27.21423 88.000
27.23417 90.000
27.25412 106.000
27.27407 86.000
27.29402 90.000
27.31396 92.000
27.33391 81.000
27.35386 84.000
27.37380 101.000
27.39375 97.000
27.41370 105.000
27.43364 80.000
27.45359 77.000
27.47354 91.000
27.49349 104.000
27.51343 83.000
27.53338 88.000
27.55333 112.000
27.57327 102.000
27.59322 96.000
27.61317 101.000
27.63311 87.000
27.65306 99.000
27.67301 99.000
27.69296 82.000
27.71290 90.000
27.73285 78.000
27.75280 92.000
27.77274 89.000
27.79269 93.000
27.81264 104.000
27.83258 83.000
27.85253 98.000
27.87248 86.000
27.89242 109.000
27.91237 86.000
27.93232 92.000
27.95227 85.000
27.97221 95.000
27.99216 74.000
28.01211 97.000
28.03205 82.000
28.05200 96.000
28.07195 94.000
28.09189 76.000
28.11184 83.000
28.13179 76.000
28.15174 98.000
28.17168 107.000
28.19163 93.000
28.21158 78.000
28.23152 82.000
28.25147 88.000
28.27142 89.000
28.29136 90.000
28.31131 82.000
28.33126 100.000
28.35120 81.000
28.37115 81.000
28.39110 84.000
28.41105 89.000
28.43099 100.000
28.45094 90.000
28.47089 95.000
28.49083 81.000
28.51078 92.000
28.53073 92.000
28.55067 94.000
28.57062 90.000
28.59057 90.000
28.61052 81.000
28.63046 92.000
28.65041 81.000
28.67036 86.000
28.69030 115.000
28.71025 90.000
28.73020 79.000
28.75014 97.000
28.77009 82.000
28.79004 106.000
28.80998 92.000
28.82993 80.000
28.84988 94.000
28.86983 102.000
28.88977 93.000
28.90972 93.000
28.92967 104.000
28.94961 67.000
28.96956 97.000
28.98951 74.000
29.00945 95.000
29.02940 93.000
29.04935 82.000
29.06930 100.000
29.08924 99.000
29.10919 81.000
29.12914 96.000
29.14908 92.000
29.16903 87.000
29.18898 105.000
29.20892 99.000
29.22887 108.000
29.24882 117.000
29.26877 125.000
29.28871 127.000
29.30866 138.000
29.32861 167.000
29.34855 157.000
29.36850 140.000
29.38845 178.000
29.40839 183.000
29.42834 173.000
29.44829 173.000
29.46823 172.000
29.48818 148.000
29.50813 152.000
29.52808 126.000
29.54802 121.000
29.56797 105.000
29.58792 130.000
29.60786 121.000
29.62781 102.000
29.64776 124.000
29.66770 106.000
29.68765 129.000
29.70760 92.000
29.72755 121.000
29.74749 110.000
29.76744 87.000
29.78739 93.000
29.80733 107.000
29.82728 101.000
29.84723 81.000
29.86717 77.000
29.88712 109.000
29.90707 107.000
29.92701 91.000
29.94696 95.000
29.96691 104.000
29.98686 95.000
30.00680 86.000
30.02675 102.000
30.04670 102.000
30.06664 118.000
30.08659 120.000
30.10654 127.000
30.12648 133.000
30.14643 149.000
30.16638 129.000
30.18633 149.000
30.20627 152.000
30.22622 150.000
30.24617 145.000
30.26611 197.000
30.28606 177.000
30.30601 217.000
30.32595 209.000
30.34590 194.000
30.36585 203.000
30.38579 201.000
30.40574 197.000
30.42569 166.000
30.44564 130.000
30.46558 138.000
30.48553 107.000
30.50548 115.000
30.52542 98.000
30.54537 101.000
30.56532 95.000
30.58526 99.000
30.60521 80.000
30.62516 98.000
30.64511 96.000
30.66505 99.000
30.68500 108.000
30.70495 92.000
30.72489 79.000
30.74484 92.000
30.76479 95.000
30.78473 92.000
30.80468 98.000
30.82463 115.000
30.84458 87.000
30.86452 98.000
30.88447 97.000
30.90442 95.000
30.92436 92.000
30.94431 133.000
30.96426 96.000
30.98420 106.000
31.00415 79.000
31.02410 102.000
31.04404 107.000
31.06399 89.000
31.08394 94.000
31.10389 97.000
31.12383 90.000
31.14378 112.000
31.16373 104.000
31.18367 88.000
31.20362 67.000
31.22357 89.000
31.24351 83.000
31.26346 109.000
31.28341 108.000
31.30336 112.000
31.32330 94.000
31.34325 93.000
31.36320 113.000
31.38314 112.000
31.40309 100.000
31.42304 80.000
31.44298 77.000
31.46293 92.000
31.48288 111.000
31.50282 108.000
31.52277 96.000
31.54272 105.000
31.56267 80.000
31.58261 84.000
31.60256 92.000
31.62251 112.000
31.64245 109.000
31.66240 102.000
31.68235 105.000
31.70229 105.000
31.72224 92.000
31.74219 104.000
31.76214 109.000
31.78208 99.000
31.80203 90.000
31.82198 96.000
31.84192 91.000
31.86187 113.000
31.88182 110.000
31.90176 115.000
31.92171 121.000
31.94166 107.000
31.96160 114.000
31.98155 154.000
32.00150 144.000
32.02145 165.000
32.04139 164.000
32.06134 170.000
32.08129 210.000
32.10123 216.000
32.12118 201.000
32.14113 217.000
32.16107 195.000
32.18102 191.000
32.20097 161.000
32.22092 149.000
32.24086 170.000
32.26081 150.000
32.28076 148.000
32.30070 133.000
32.32065 144.000
32.34060 125.000
32.36054 130.000
32.38049 127.000
32.40044 140.000
32.42039 121.000
32.44033 137.000
32.46028 133.000
32.48023 158.000
32.50017 142.000
32.52012 135.000
32.54007 156.000
32.56001 191.000
32.57996 187.000
32.59991 215.000
32.61985 169.000
32.63980 174.000
32.65975 218.000
32.67970 229.000
32.69964 241.000
32.71959 235.000
32.73954 235.000
32.75948 281.000
32.77943 252.000
32.79938 245.000
32.81932 262.000
32.83927 288.000
32.85922 280.000
32.87917 270.000
32.89911 279.000
32.91906 260.000
32.93901 256.000
32.95895 248.000
32.97890 229.000
32.99885 249.000
33.01879 205.000
33.03874 200.000
33.05869 196.000
33.07863 171.000
33.09858 162.000
33.11853 176.000
33.13848 171.000
33.15842 152.000
33.17837 143.000
33.19832 133.000
33.21826 131.000
33.23821 121.000
33.25816 148.000
33.27810 121.000
33.29805 121.000
33.31800 106.000
33.33795 133.000
33.35789 98.000
33.37784 115.000
33.39779 100.000
33.41773 94.000
33.43768 123.000
33.45763 101.000
33.47757 102.000
33.49752 110.000
33.51747 100.000
33.53741 111.000
33.55736 108.000
33.57731 94.000
33.59726 109.000
33.61720 93.000
33.63715 99.000
33.65710 109.000
33.67704 93.000
33.69699 106.000
33.71694 105.000
33.73688 93.000
33.75683 85.000
33.77678 107.000
33.79673 107.000
33.81667 103.000
33.83662 117.000
33.85657 87.000
33.87651 109.000
33.89646 98.000
33.91641 93.000
33.93635 117.000
33.95630 121.000
33.97625 114.000
33.99620 115.000
34.01614 119.000
34.03609 111.000
34.05604 125.000
34.07598 112.000
34.09593 123.000
34.11588 134.000
34.13582 131.000
34.15577 131.000
34.17572 145.000
34.19566 135.000
34.21561 141.000
34.23556 148.000
34.25551 149.000
34.27545 154.000
34.29540 151.000
34.31535 165.000
34.33529 165.000
34.35524 144.000
34.37519 163.000
34.39513 170.000
34.41508 167.000
34.43503 165.000
34.45498 164.000
34.47492 157.000
34.49487 158.000
34.51482 172.000
34.53476 137.000
34.55471 176.000
34.57466 134.000
34.59460 148.000
34.61455 170.000
34.63450 123.000
34.65444 116.000
34.67439 136.000
34.69434 126.000
34.71429 157.000
34.73423 170.000
34.75418 133.000
34.77413 128.000
34.79407 122.000
34.81402 135.000
34.83397 144.000
34.85391 138.000
34.87386 131.000
34.89381 143.000
34.91376 162.000
34.93370 130.000
34.95365 141.000
34.97360 132.000
34.99354 124.000
35.01349 126.000
35.03344 125.000
35.05338 109.000
35.07333 121.000
35.09328 146.000
35.11322 125.000
35.13317 123.000
35.15312 130.000
35.17307 135.000
35.19301 129.000
35.21296 150.000
35.23291 175.000
35.25285 163.000
35.27280 165.000
35.29275 147.000
35.31269 150.000
35.33264 183.000
35.35259 178.000
35.37254 187.000
35.39248 234.000
35.41243 205.000
35.43238 219.000
35.45232 241.000
35.47227 250.000
35.49222 320.000
35.51216 345.000
35.53211 397.000
35.55206 479.000
35.57201 534.000
35.59195 603.000
35.61190 663.000
35.63185 731.000
35.65179 784.000
35.67174 927.000
35.69169 986.000
35.71163 884.000
35.73158 926.000
35.75153 805.000
35.77147 776.000
35.79142 720.000
35.81137 580.000
35.83132 569.000
35.85126 409.000
35.87121 366.000
35.89116 319.000
35.91110 259.000
35.93105 221.000
35.95100 217.000
35.97094 187.000
35.99089 173.000
36.01084 170.000
36.03079 136.000
36.05073 139.000
36.07068 140.000
36.09063 158.000
36.11057 141.000
36.13052 123.000
36.15047 117.000
36.17041 151.000
36.19036 130.000
36.21031 127.000
36.23025 122.000
36.25020 125.000
36.27015 143.000
36.29010 129.000
36.31004 133.000
36.32999 134.000
36.34994 136.000
36.36988 123.000
36.38983 103.000
36.40978 122.000
36.42972 132.000
36.44967 130.000
36.46962 111.000
36.48957 125.000
36.50951 139.000
36.52946 157.000
36.54941 147.000
36.56935 142.000
36.58930 165.000
36.60925 179.000
36.62919 180.000
36.64914 183.000
36.66909 213.000
36.68903 194.000
36.70898 201.000
36.72893 235.000
36.74888 257.000
36.76882 292.000
36.78877 332.000
36.80872 339.000
36.82866 396.000
36.84861 434.000
36.86856 430.000
36.88850 494.000
36.90845 510.000
36.92840 524.000
36.94835 546.000
36.96829 498.000
36.98824 473.000
37.00819 399.000
37.02813 391.000
37.04808 376.000
37.06803 352.000
37.08797 346.000
37.10792 360.000
37.12787 356.000
37.14781 404.000
37.16776 456.000
37.18771 640.000
37.20766 669.000
37.22760 742.000
37.24755 748.000
37.26750 703.000
37.28744 665.000
37.30739 578.000
37.32734 534.000
37.34728 488.000
37.36723 382.000
37.38718 346.000
37.40713 269.000
37.42707 208.000
37.44702 181.000
37.46697 152.000
37.48691 151.000
37.50686 159.000
37.52681 139.000
37.54675 117.000
37.56670 123.000
37.58665 117.000
37.60660 129.000
37.62654 128.000
37.64649 109.000
37.66644 114.000
37.68638 121.000
37.70633 116.000
37.72628 103.000
37.74622 91.000
37.76617 98.000
37.78612 118.000
37.80606 96.000
37.82601 116.000
37.84596 130.000
37.86591 95.000
37.88585 101.000
37.90580 118.000
37.92575 106.000
37.94569 105.000
37.96564 115.000
37.98559 130.000
38.00553 108.000
38.02548 127.000
38.04543 113.000
38.06538 128.000
38.08532 117.000
38.10527 116.000
38.12522 98.000
38.14516 111.000
38.16511 129.000
38.18506 112.000
38.20500 108.000
38.22495 88.000
38.24490 105.000
38.26484 102.000
38.28479 113.000
38.30474 113.000
38.32469 111.000
38.34463 93.000
38.36458 95.000
38.38453 119.000
38.40447 91.000
38.42442 109.000
38.44437 113.000
38.46431 87.000
38.48426 84.000
38.50421 97.000
38.52416 78.000
38.54410 78.000
38.56405 94.000
38.58400 80.000
38.60394 107.000
38.62389 107.000
38.64384 95.000
38.66378 116.000
38.68373 102.000
38.70368 88.000
38.72362 87.000
38.74357 100.000
38.76352 110.000
38.78347 106.000
38.80341 119.000
38.82336 101.000
38.84331 89.000
38.86325 95.000
38.88320 111.000
38.90315 115.000
38.92309 90.000
38.94304 119.000
38.96299 101.000
38.98294 120.000
39.00288 112.000
39.02283 129.000
39.04278 113.000
39.06272 127.000
39.08267 164.000
39.10262 168.000
39.12256 180.000
39.14251 177.000
39.16246 247.000
39.18241 254.000
39.20235 279.000
39.22230 289.000
39.24225 287.000
39.26219 291.000
39.28214 256.000
39.30209 317.000
39.32203 272.000
39.34198 289.000
39.36193 269.000
39.38187 255.000
39.40182 230.000
39.42177 208.000
39.44172 194.000
39.46166 182.000
39.48161 163.000
39.50156 144.000
39.52150 140.000
39.54145 119.000
39.56140 138.000
39.58134 105.000
39.60129 109.000
39.62124 113.000
39.64119 102.000
39.66113 116.000
39.68108 95.000
39.70103 106.000
39.72097 110.000
39.74092 99.000
39.76087 94.000
39.78081 114.000
39.80076 117.000
39.82071 105.000
39.84065 102.000
39.86060 106.000
39.88055 112.000
39.90050 123.000
39.92044 95.000
39.94039 124.000
39.96034 108.000
39.98028 114.000
40.00023 125.000
40.02018 99.000
40.04012 105.000
40.06007 106.000
40.08002 77.000
40.09997 88.000
40.11991 87.000
40.13986 81.000
40.15981 114.000
40.17975 109.000
40.19970 85.000
40.21965 119.000
40.23959 108.000
40.25954 77.000
40.27949 91.000
40.29943 102.000
40.31938 83.000
40.33933 91.000
40.35928 100.000
40.37922 98.000
40.39917 96.000
40.41912 99.000
40.43906 115.000
40.45901 83.000
40.47896 104.000
40.49890 84.000
40.51885 99.000
40.53880 93.000
40.55875 95.000
40.57869 103.000
40.59864 94.000
40.61859 98.000
40.63853 94.000
40.65848 102.000
40.67843 107.000
40.69837 99.000
40.71832 93.000
40.73827 107.000
40.75822 111.000
40.77816 113.000
40.79811 106.000
40.81806 105.000
40.83800 109.000
40.85795 123.000
40.87790 121.000
40.89784 117.000
40.91779 126.000
40.93774 113.000
40.95768 116.000
40.97763 115.000
40.99758 116.000
41.01753 130.000
41.03747 111.000
41.05742 117.000
41.07737 144.000
41.09731 134.000
41.11726 146.000
41.13721 142.000
41.15715 156.000
41.17710 148.000
41.19705 155.000
41.21700 159.000
41.23694 163.000
41.25689 166.000
41.27684 145.000
41.29678 165.000
41.31673 172.000
41.33668 206.000
41.35662 209.000
41.37657 253.000
41.39652 225.000
41.41646 208.000
41.43641 246.000
41.45636 260.000
41.47631 312.000
41.49625 396.000
41.51620 374.000
41.53615 488.000
41.55609 515.000
41.57604 618.000
41.59599 827.000
41.61593 886.000
41.63588 1174.000
41.65583 1534.000
41.67578 1804.000
41.69572 2073.000
41.71567 2227.000
41.73562 2430.000
41.75556 2242.000
41.77551 2232.000
41.79546 2025.000
41.81540 1833.000
41.83535 1664.000
41.85530 1469.000
41.87524 1227.000
41.89519 1008.000
41.91514 784.000
41.93509 624.000
41.95503 500.000
41.97498 397.000
41.99493 342.000
42.01487 311.000
42.03482 250.000
42.05477 250.000
42.07471 224.000
42.09466 186.000
42.11461 170.000
42.13456 160.000
42.15450 181.000
42.17445 161.000
42.19440 161.000
42.21434 175.000
42.23429 137.000
42.25424 136.000
42.27418 145.000
42.29413 132.000
42.31408 141.000
42.33403 143.000
42.35397 124.000
42.37392 150.000
42.39387 122.000
42.41381 119.000
42.43376 135.000
42.45371 135.000
42.47365 149.000
42.49360 130.000
42.51355 127.000
42.53349 127.000
42.55344 104.000
42.57339 136.000
42.59334 117.000
42.61328 127.000
42.63323 128.000
42.65318 117.000
42.67312 104.000
42.69307 127.000
42.71302 103.000
42.73296 134.000
42.75291 127.000
42.77286 142.000
42.79281 148.000
42.81275 119.000
42.83270 120.000
42.85265 142.000
42.87259 140.000
42.89254 128.000
42.91249 126.000
42.93243 126.000
42.95238 143.000
42.97233 132.000
42.99227 138.000
43.01222 151.000
43.03217 139.000
43.05212 151.000
43.07206 172.000
43.09201 190.000
43.11196 207.000
43.13190 227.000
43.15185 291.000
43.17180 398.000
43.19174 552.000
43.21169 797.000
43.23164 946.000
43.25159 1056.000
43.27153 1096.000
43.29148 984.000
43.31143 943.000
43.33137 929.000
43.35132 869.000
43.37127 882.000
43.39121 719.000
43.41116 666.000
43.43111 536.000
43.45105 421.000
43.47100 395.000
43.49095 335.000
43.51090 263.000
43.53084 268.000
43.55079 246.000
43.57074 213.000
43.59068 203.000
43.61063 184.000
43.63058 156.000
43.65052 153.000
43.67047 129.000
43.69042 105.000
43.71037 108.000
43.73031 109.000
43.75026 135.000
43.77021 96.000
43.79015 110.000
43.81010 105.000
43.83005 101.000
43.84999 100.000
43.86994 112.000
43.88989 92.000
43.90984 102.000
43.92978 109.000
43.94973 104.000
43.96968 121.000
43.98962 101.000
44.00957 88.000
44.02952 89.000
44.04946 109.000
44.06941 82.000
44.08936 98.000
44.10930 100.000
44.12925 99.000
44.14920 92.000
44.16915 97.000
44.18909 105.000
44.20904 81.000
44.22899 105.000
44.24893 109.000
44.26888 91.000
44.28883 99.000
44.30877 98.000
44.32872 100.000
44.34867 91.000
44.36862 84.000
44.38856 76.000
44.40851 89.000
44.42846 91.000
44.44840 101.000
44.46835 100.000
44.48830 85.000
44.50824 95.000
44.52819 99.000
44.54814 116.000
44.56808 90.000
44.58803 77.000
44.60798 108.000
44.62793 116.000
44.64787 109.000
44.66782 94.000
44.68777 98.000
44.70771 86.000
44.72766 102.000
44.74761 106.000
44.76755 93.000
44.78750 96.000
44.80745 89.000
44.82740 103.000
44.84734 90.000
44.86729 102.000
44.88724 110.000
44.90718 119.000
44.92713 105.000
44.94708 120.000
44.96702 124.000
44.98697 132.000
45.00692 161.000
45.02686 160.000
45.04681 133.000
45.06676 148.000
45.08671 173.000
45.10665 160.000
45.12660 157.000
45.14655 136.000
45.16649 120.000
45.18644 125.000
45.20639 118.000
45.22633 116.000
45.24628 131.000
45.26623 114.000
45.28618 100.000
45.30612 110.000
45.32607 95.000
45.34602 110.000
45.36596 96.000
45.38591 103.000
45.40586 117.000
45.42580 88.000
45.44575 101.000
45.46570 100.000
45.48565 100.000
45.50559 93.000
45.52554 96.000
45.54549 87.000
45.56543 102.000
45.58538 74.000
45.60533 86.000
45.62527 92.000
45.64522 93.000
45.66517 102.000
45.68511 90.000
45.70506 100.000
45.72501 108.000
45.74496 106.000
45.76490 90.000
45.78485 78.000
45.80480 93.000
45.82474 98.000
45.84469 90.000
45.86464 87.000
45.88458 86.000
45.90453 77.000
45.92448 87.000
45.94443 71.000
45.96437 83.000
45.98432 105.000
46.00427 78.000
46.02421 83.000
46.04416 88.000
46.06411 95.000
46.08405 83.000
46.10400 81.000
46.12395 95.000
46.14389 89.000
46.16384 72.000
46.18379 75.000
46.20374 85.000
46.22368 87.000
46.24363 75.000
46.26358 73.000
46.28352 87.000
46.30347 94.000
46.32342 85.000
46.34336 82.000
46.36331 88.000
46.38326 75.000
46.40321 86.000
46.42315 76.000
46.44310 84.000
46.46305 94.000
46.48299 104.000
46.50294 83.000
46.52289 100.000
46.54283 104.000
46.56278 89.000
46.58273 83.000
46.60267 92.000
46.62262 88.000
46.64257 105.000
46.66252 101.000
46.68246 107.000
46.70241 81.000
46.72236 72.000
46.74230 87.000
46.76225 98.000
46.78220 80.000
46.80214 77.000
46.82209 96.000
46.84204 100.000
46.86199 95.000
46.88193 82.000
46.90188 75.000
46.92183 90.000
46.94177 81.000
46.96172 92.000
46.98167 85.000
47.00161 115.000
47.02156 78.000
47.04151 80.000
47.06146 84.000
47.08140 99.000
47.10135 87.000
47.12130 100.000
47.14124 86.000
47.16119 88.000
47.18114 80.000
47.20108 79.000
47.22103 87.000
47.24098 85.000
47.26092 77.000
47.28087 86.000
47.30082 87.000
47.32077 88.000
47.34071 86.000
47.36066 72.000
47.38061 87.000
47.40055 74.000
47.42050 83.000
47.44045 84.000
47.46039 84.000
47.48034 88.000
47.50029 93.000
47.52024 96.000
47.54018 91.000
47.56013 80.000
47.58008 78.000
47.60002 92.000
47.61997 91.000
47.63992 82.000
47.65986 93.000
47.67981 101.000
47.69976 88.000
47.71970 76.000
47.73965 89.000
47.75960 89.000
47.77955 80.000
47.79949 84.000
47.81944 97.000
47.83939 77.000
47.85933 89.000
47.87928 86.000
47.89923 83.000
47.91917 86.000
47.93912 97.000
47.95907 85.000
47.97902 86.000
47.99896 110.000
48.01891 83.000
48.03886 87.000
48.05880 99.000
48.07875 111.000
48.09870 110.000
48.11864 107.000
48.13859 123.000
48.15854 108.000
48.17848 91.000
48.19843 88.000
48.21838 100.000
48.23833 86.000
48.25827 91.000
48.27822 95.000
48.29817 107.000
48.31811 108.000
48.33806 87.000
48.35801 110.000
48.37795 111.000
48.39790 111.000
48.41785 82.000
48.43780 104.000
48.45774 106.000
48.47769 96.000
48.49764 118.000
48.51758 124.000
48.53753 120.000
48.55748 105.000
48.57742 149.000
48.59737 155.000
48.61732 196.000
48.63726 201.000
48.65721 245.000
48.67716 277.000
48.69711 246.000
48.71705 257.000
48.73700 275.000
48.75695 266.000
48.77689 224.000
48.79684 258.000
48.81679 275.000
48.83673 262.000
48.85668 232.000
48.87663 218.000
48.89658 178.000
48.91652 170.000
48.93647 186.000
48.95642 152.000
48.97636 157.000
48.99631 128.000
49.01626 138.000
49.03620 124.000
49.05615 121.000
49.07610 111.000
49.09605 97.000
49.11599 98.000
49.13594 96.000
49.15589 114.000
49.17583 106.000
49.19578 111.000
49.21573 80.000
49.23567 84.000
49.25562 99.000
49.27557 79.000
49.29551 90.000
49.31546 99.000
49.33541 91.000
49.35536 97.000
49.37530 107.000
49.39525 85.000
49.41520 110.000
49.43514 87.000
49.45509 77.000
49.47504 99.000
49.49498 104.000
49.51493 106.000
49.53488 88.000
49.55483 103.000
49.57477 84.000
49.59472 115.000
49.61467 91.000
49.63461 94.000
49.65456 82.000
49.67451 92.000
49.69445 86.000
49.71440 73.000
49.73435 100.000
49.75429 88.000
49.77424 79.000
49.79419 93.000
49.81414 85.000
49.83408 73.000
49.85403 78.000
49.87398 71.000
49.89392 90.000
49.91387 82.000
49.93382 92.000
49.95376 70.000
49.97371 88.000
49.99366 95.000
50.01361 73.000
50.03355 73.000
50.05350 108.000
50.07345 60.000
50.09339 87.000
50.11334 64.000
50.13329 67.000
50.15323 83.000
50.17318 78.000
50.19313 83.000
50.21307 81.000
50.23302 69.000
50.25297 80.000
50.27292 69.000
50.29286 93.000
50.31281 85.000
50.33276 87.000
50.35270 82.000
50.37265 91.000
50.39260 88.000
50.41254 95.000
50.43249 90.000
50.45244 77.000
50.47239 79.000
50.49233 84.000
50.51228 93.000
50.53223 76.000
50.55217 82.000
50.57212 76.000
50.59207 69.000
50.61201 99.000
50.63196 76.000
50.65191 81.000
50.67186 87.000
50.69180 68.000
50.71175 87.000
50.73170 65.000
50.75164 77.000
50.77159 84.000
50.79154 74.000
50.81148 82.000
50.83143 76.000
50.85138 93.000
50.87132 78.000
50.89127 88.000
50.91122 106.000
50.93117 79.000
50.95111 84.000
50.97106 82.000
50.99101 90.000
51.01095 75.000
51.03090 70.000
51.05085 95.000
51.07079 78.000
51.09074 89.000
51.11069 92.000
51.13064 74.000
51.15058 93.000
51.17053 72.000
51.19048 77.000
51.21042 95.000
51.23037 91.000
51.25032 79.000
51.27026 81.000
51.29021 80.000
51.31016 97.000
51.33010 70.000
51.35005 76.000
51.37000 88.000
51.38995 76.000
51.40989 66.000
51.42984 95.000
51.44979 81.000
51.46973 77.000
51.48968 71.000
51.50963 74.000
51.52957 75.000
51.54952 81.000
51.56947 84.000
51.58942 81.000
51.60936 94.000
51.62931 88.000
51.64926 89.000
51.66920 77.000
51.68915 96.000
51.70910 92.000
51.72904 86.000
51.74899 77.000
51.76894 93.000
51.78888 90.000
51.80883 89.000
51.82878 86.000
51.84873 85.000
51.86867 77.000
51.88862 98.000
51.90857 73.000
51.92851 93.000
51.94846 84.000
51.96841 85.000
51.98835 93.000
52.00830 101.000
52.02825 117.000
52.04820 91.000
52.06814 96.000
52.08809 92.000
52.10804 86.000
52.12798 123.000
52.14793 111.000
52.16788 100.000
52.18782 91.000
52.20777 102.000
52.22772 110.000
52.24767 121.000
52.26761 89.000
52.28756 88.000
52.30751 83.000
52.32745 111.000
52.34740 94.000
52.36735 85.000
52.38729 121.000
52.40724 100.000
52.42719 102.000
52.44713 94.000
52.46708 104.000
52.48703 87.000
52.50698 81.000
52.52692 106.000
52.54687 96.000
52.56682 107.000
52.58676 85.000
52.60671 97.000
52.62666 110.000
52.64660 99.000
52.66655 113.000
52.68650 101.000
52.70645 126.000
52.72639 87.000
52.74634 122.000
52.76629 123.000
52.78623 119.000
52.80618 134.000
52.82613 132.000
52.84607 126.000
52.86602 137.000
52.88597 153.000
52.90591 158.000
52.92586 173.000
52.94581 192.000
52.96576 203.000
52.98570 213.000
53.00565 248.000
53.02560 292.000
53.04554 291.000
53.06549 342.000
53.08544 330.000
53.10538 377.000
53.12533 359.000
53.14528 368.000
53.16523 349.000
53.18517 358.000
53.20512 315.000
53.22507 330.000
53.24501 295.000
53.26496 274.000
53.28491 218.000
53.30485 201.000
53.32480 204.000
53.34475 188.000
53.36469 171.000
53.38464 165.000
53.40459 139.000
53.42454 119.000
53.44448 131.000
53.46443 120.000
53.48438 116.000
53.50432 129.000
53.52427 117.000
53.54422 114.000
53.56416 107.000
53.58411 87.000
53.60406 117.000
53.62401 103.000
53.64395 109.000
53.66390 98.000
53.68385 111.000
53.70379 97.000
53.72374 104.000
53.74369 95.000
53.76363 109.000
53.78358 103.000
53.80353 124.000
53.82348 102.000
53.84342 96.000
53.86337 111.000
53.88332 130.000
53.90326 104.000
53.92321 97.000
53.94316 107.000
53.96310 105.000
53.98305 96.000
54.00300 116.000
54.02294 93.000
54.04289 99.000
54.06284 115.000
54.08279 116.000
54.10273 96.000
54.12268 108.000
54.14263 82.000
54.16257 83.000
54.18252 88.000
54.20247 88.000
54.22241 91.000
54.24236 90.000
54.26231 95.000
54.28226 86.000
54.30220 84.000
54.32215 108.000
54.34210 93.000
54.36204 85.000
54.38199 80.000
54.40194 84.000
54.42188 89.000
54.44183 83.000
54.46178 87.000
54.48172 89.000
54.50167 83.000
54.52162 73.000
54.54157 96.000
54.56151 90.000
54.58146 68.000
54.60141 86.000
54.62135 98.000
54.64130 88.000
54.66125 97.000
54.68119 74.000
54.70114 99.000
54.72109 96.000
54.74104 87.000
54.76098 82.000
54.78093 88.000
54.80088 93.000
54.82082 79.000
54.84077 93.000
54.86072 88.000
54.88066 90.000
54.90061 86.000
54.92056 101.000
54.94050 92.000
54.96045 83.000
54.98040 75.000
55.00035 90.000
55.02029 86.000
55.04024 87.000
55.06019 99.000
55.08013 89.000
55.10008 74.000
55.12003 89.000
55.13997 100.000
55.15992 75.000
55.17987 92.000
55.19982 89.000
55.21976 75.000
55.23971 89.000
55.25966 85.000
55.27960 90.000
55.29955 93.000
55.31950 91.000
55.33944 86.000
55.35939 81.000
55.37934 102.000
55.39929 89.000
55.41923 90.000
55.43918 82.000
55.45913 98.000
55.47907 85.000
55.49902 94.000
55.51897 77.000
55.53891 91.000
55.55886 101.000
55.57881 88.000
55.59875 79.000
55.61870 98.000
55.63865 80.000
55.65860 88.000
55.67854 84.000
55.69849 90.000
55.71844 84.000
55.73838 77.000
55.75833 79.000
55.77828 84.000
55.79822 103.000
55.81817 78.000
55.83812 90.000
55.85807 91.000
55.87801 92.000
55.89796 93.000
55.91791 68.000
55.93785 91.000
55.95780 86.000
55.97775 91.000
55.99769 94.000
56.01764 67.000
56.03759 72.000
56.05753 90.000
56.07748 84.000
56.09743 79.000
56.11738 85.000
56.13732 107.000
56.15727 83.000
56.17722 89.000
56.19716 80.000
56.21711 84.000
56.23706 97.000
56.25700 87.000
56.27695 91.000
56.29690 85.000
56.31685 97.000
56.33679 90.000
56.35674 85.000
56.37669 82.000
56.39663 93.000
56.41658 71.000
56.43653 88.000
56.45647 83.000
56.47642 81.000
56.49637 89.000
56.51631 82.000
56.53626 103.000
56.55621 81.000
56.57616 84.000
56.59610 83.000
56.61605 81.000
56.63600 75.000
56.65594 88.000
56.67589 83.000
56.69584 89.000
56.71578 92.000
56.73573 98.000
56.75568 72.000
56.77563 97.000
56.79557 102.000
56.81552 97.000
56.83547 88.000
56.85541 89.000
56.87536 88.000
56.89531 97.000
56.91525 105.000
56.93520 119.000
56.95515 80.000
56.97510 80.000
56.99504 89.000
57.01499 93.000
57.03494 120.000
57.05488 95.000
57.07483 91.000
57.09478 94.000
57.11472 113.000
57.13467 104.000
57.15462 131.000
57.17456 104.000
57.19451 104.000
57.21446 131.000
57.23441 116.000
57.25435 142.000
57.27430 143.000
57.29425 134.000
57.31419 142.000
57.33414 166.000
57.35409 179.000
57.37403 194.000
57.39398 217.000
57.41393 197.000
57.43388 214.000
57.45382 237.000
57.47377 245.000
57.49372 217.000
57.51366 256.000
57.53361 246.000
57.55356 264.000
57.57350 263.000
57.59345 313.000
57.61340 285.000
57.63334 295.000
57.65329 350.000
57.67324 364.000
57.69319 386.000
57.71313 382.000
57.73308 375.000
57.75303 439.000
57.77297 437.000
57.79292 406.000
57.81287 451.000
57.83281 426.000
57.85276 450.000
57.87271 397.000
57.89266 390.000
57.91260 345.000
57.93255 325.000
57.95250 324.000
57.97244 289.000
57.99239 286.000
58.01234 280.000
58.03228 228.000
58.05223 220.000
58.07218 208.000
58.09212 180.000
58.11207 166.000
58.13202 150.000
58.15197 147.000
58.17191 156.000
58.19186 126.000
58.21181 132.000
58.23175 121.000
58.25170 110.000
58.27165 95.000
58.29159 97.000
58.31154 109.000
58.33149 91.000
58.35144 100.000
58.37138 90.000
58.39133 95.000
58.41128 88.000
58.43122 97.000
58.45117 91.000
58.47112 92.000
58.49106 101.000
58.51101 102.000
58.53096 77.000
58.55090 86.000
58.57085 91.000
58.59080 77.000
58.61075 86.000
58.63069 95.000
58.65064 94.000
58.67059 89.000
58.69053 110.000
58.71048 94.000
58.73043 94.000
58.75037 81.000
58.77032 103.000
58.79027 103.000
58.81022 83.000
58.83016 80.000
58.85011 72.000
58.87006 89.000
58.89000 96.000
58.90995 79.000
58.92990 65.000
58.94984 103.000
58.96979 77.000
58.98974 87.000
59.00969 98.000
59.02963 94.000
59.04958 90.000
59.06953 92.000
59.08947 88.000
59.10942 94.000
59.12937 100.000
59.14931 70.000
59.16926 92.000
59.18921 81.000
59.20915 78.000
59.22910 96.000
59.24905 81.000
59.26900 83.000
59.28894 76.000
59.30889 89.000
59.32884 87.000
59.34878 67.000
59.36873 87.000
59.38868 93.000
59.40862 88.000
59.42857 89.000
59.44852 74.000
59.46847 76.000
59.48841 78.000
59.50836 82.000
59.52831 95.000
59.54825 78.000
59.56820 86.000
59.58815 92.000
59.60809 95.000
59.62804 73.000
59.64799 89.000
59.66793 88.000
59.68788 76.000
59.70783 85.000
59.72778 91.000
59.74772 94.000
59.76767 80.000
59.78762 111.000
59.80756 79.000
59.82751 67.000
59.84746 101.000
59.86740 85.000
59.88735 84.000
59.90730 80.000
59.92725 68.000
59.94719 83.000
59.96714 88.000
59.98709 83.000
60.00703 78.000
60.02698 89.000
60.04693 75.000
60.06687 106.000
60.08682 81.000
60.10677 95.000
60.12671 100.000
60.14666 100.000
60.16661 87.000
60.18656 68.000
60.20650 103.000
60.22645 79.000
60.24640 67.000
60.26634 97.000
60.28629 103.000
60.30624 80.000
60.32618 87.000
60.34613 85.000
60.36608 84.000
60.38603 92.000
60.40597 93.000
60.42592 91.000
60.44587 88.000
60.46581 65.000
60.48576 75.000
60.50571 78.000
60.52565 76.000
60.54560 92.000
60.56555 92.000
60.58550 79.000
60.60544 73.000
60.62539 85.000
60.64534 94.000
60.66528 101.000
60.68523 91.000
60.70518 92.000
60.72512 81.000
60.74507 78.000
60.76502 80.000
60.78496 83.000
60.80491 88.000
60.82486 95.000
60.84481 97.000
60.86475 104.000
60.88470 102.000
60.90465 103.000
60.92459 72.000
60.94454 105.000
60.96449 98.000
60.98443 103.000
61.00438 73.000
61.02433 90.000
61.04428 95.000
61.06422 86.000
61.08417 91.000
61.10412 97.000
61.12406 86.000
61.14401 89.000
61.16396 93.000
61.18390 95.000
61.20385 89.000
61.22380 93.000
61.24374 112.000
61.26369 80.000
61.28364 79.000
61.30359 98.000
61.32353 102.000
61.34348 90.000
61.36343 90.000
61.38337 101.000
61.40332 105.000
61.42327 102.000
61.44321 97.000
61.46316 80.000
61.48311 87.000
61.50306 96.000
61.52300 77.000
61.54295 94.000
61.56290 95.000
61.58284 92.000
61.60279 107.000
61.62274 98.000
61.64268 113.000
61.66263 92.000
61.68258 99.000
61.70252 123.000
61.72247 106.000
61.74242 103.000
61.76237 100.000
61.78231 102.000
61.80226 107.000
61.82221 108.000
61.84215 109.000
61.86210 138.000
61.88205 122.000
61.90199 148.000
61.92194 126.000
61.94189 150.000
61.96184 128.000
61.98178 175.000
62.00173 183.000
62.02168 157.000
62.04162 171.000
62.06157 175.000
62.08152 182.000
62.10146 169.000
62.12141 171.000
62.14136 127.000
62.16131 159.000
62.18125 162.000
62.20120 157.000
62.22115 138.000
62.24109 157.000
62.26104 149.000
62.28099 131.000
62.30093 151.000
62.32088 157.000
62.34083 154.000
62.36077 120.000
62.38072 124.000
62.40067 124.000
62.42062 131.000
62.44056 121.000
62.46051 135.000
62.48046 147.000
62.50040 124.000
62.52035 126.000
62.54030 131.000
62.56024 153.000
62.58019 144.000
62.60014 186.000
62.62009 162.000
62.64003 185.000
62.65998 215.000
62.67993 203.000
62.69987 267.000
62.71982 289.000
62.73977 386.000
62.75971 387.000
62.77966 447.000
62.79961 517.000
62.81955 491.000
62.83950 527.000
62.85945 523.000
62.87940 503.000
62.89934 503.000
62.91929 492.000
62.93924 518.000
62.95918 556.000
62.97913 580.000
62.99908 562.000
63.01902 572.000
63.03897 567.000
63.05892 539.000
63.07887 506.000
63.09881 516.000
63.11876 533.000
63.13871 487.000
63.15865 476.000
63.17860 442.000
63.19855 482.000
63.21849 461.000
63.23844 438.000
63.25839 405.000
63.27833 389.000
63.29828 354.000
63.31823 347.000
63.33818 293.000
63.35812 282.000
63.37807 282.000
63.39802 258.000
63.41796 215.000
63.43791 242.000
63.45786 221.000
63.47780 197.000
63.49775 180.000
63.51770 171.000
63.53765 130.000
63.55759 142.000
63.57754 137.000
63.59749 150.000
63.61743 124.000
63.63738 118.000
63.65733 118.000
63.67727 123.000
63.69722 104.000
63.71717 116.000
63.73712 111.000
63.75706 127.000
63.77701 104.000
63.79696 119.000
63.81690 115.000
63.83685 118.000
63.85680 113.000
63.87674 145.000
63.89669 120.000
63.91664 136.000
63.93658 132.000
63.95653 132.000
63.97648 159.000
63.99643 149.000
64.01637 149.000
64.03632 137.000
64.05627 129.000
64.07621 140.000
64.09616 145.000
64.11611 119.000
64.13605 127.000
64.15600 136.000
64.17595 139.000
64.19590 114.000
64.21584 128.000
64.23579 115.000
64.25574 116.000
64.27568 114.000
64.29563 129.000
64.31558 107.000
64.33552 113.000
64.35547 97.000
64.37542 123.000
64.39536 120.000
64.41531 108.000
64.43526 120.000
64.45521 102.000
64.47515 78.000
64.49510 100.000
64.51505 98.000
64.53499 106.000
64.55494 112.000
64.57489 93.000
64.59483 94.000
64.61478 94.000
64.63473 96.000
64.65468 98.000
64.67462 102.000
64.69457 103.000
64.71452 82.000
64.73446 99.000
64.75441 90.000
64.77436 90.000
64.79430 84.000
64.81425 85.000
64.83420 103.000
64.85414 82.000
64.87409 91.000
64.89404 99.000
64.91399 100.000
64.93393 86.000
64.95388 95.000
64.97383 98.000
64.99377 116.000
65.01372 84.000
65.03367 80.000
65.05361 85.000
65.07356 96.000
65.09351 97.000
65.11346 94.000
65.13340 101.000
65.15335 100.000
65.17330 96.000
65.19324 103.000
65.21319 115.000
65.23314 92.000
65.25308 112.000
65.27303 104.000
65.29298 115.000
65.31293 124.000
65.33287 121.000
65.35282 135.000
65.37277 122.000
65.39271 125.000
65.41266 137.000
65.43261 144.000
65.45255 160.000
65.47250 174.000
65.49245 179.000
65.51239 177.000
65.53234 196.000
65.55229 193.000
65.57224 213.000
65.59218 222.000
65.61213 224.000
65.63208 222.000
65.65202 237.000
65.67197 220.000
65.69192 248.000
65.71186 245.000
65.73181 233.000
65.75176 227.000
65.77171 224.000
65.79165 181.000
65.81160 197.000
65.83155 206.000
65.85149 210.000
65.87144 201.000
65.89139 197.000
65.91133 186.000
65.93128 165.000
65.95123 156.000
65.97117 172.000
65.99112 165.000
66.01107 148.000
66.03102 144.000
66.05096 113.000
66.07091 119.000
66.09086 113.000
66.11080 105.000
66.13075 106.000
66.15070 136.000
66.17064 115.000
66.19059 125.000
66.21054 96.000
66.23049 103.000
66.25043 104.000
66.27038 115.000
66.29033 109.000
66.31027 120.000
66.33022 114.000
66.35017 126.000
66.37011 119.000
66.39006 113.000
66.41001 116.000
66.42995 107.000
66.44990 105.000
66.46985 112.000
66.48980 123.000
66.50974 119.000
66.52969 112.000
66.54964 119.000
66.56958 120.000
66.58953 105.000
66.60948 127.000
66.62942 112.000
66.64937 105.000
66.66932 106.000
66.68927 114.000
66.70921 121.000
66.72916 118.000
66.74911 114.000
66.76905 105.000
66.78900 91.000
66.80895 102.000
66.82889 98.000
66.84884 117.000
66.86879 95.000
66.88874 128.000
66.90868 99.000
66.92863 90.000
66.94858 94.000
66.96852 94.000
66.98847 105.000
67.00842 100.000
67.02836 86.000
67.04831 87.000
67.06826 107.000
67.08820 91.000
67.10815 95.000
67.12810 97.000
67.14805 106.000
67.16799 102.000
67.18794 97.000
67.20789 91.000
67.22783 103.000
67.24778 92.000
67.26773 85.000
67.28767 102.000
67.30762 111.000
67.32757 98.000
67.34752 99.000
67.36746 108.000
67.38741 102.000
67.40736 88.000
67.42730 107.000
67.44725 79.000
67.46720 88.000
67.48714 94.000
67.50709 103.000
67.52704 99.000
67.54698 81.000
67.56693 105.000
67.58688 99.000
67.60683 102.000
67.62677 88.000
67.64672 100.000
67.66667 96.000
67.68661 84.000
67.70656 106.000
67.72651 104.000
67.74645 112.000
67.76640 97.000
67.78635 121.000
67.80630 127.000
67.82624 121.000
67.84619 114.000
67.86614 122.000
67.88608 132.000
67.90603 136.000
67.92598 131.000
67.94592 155.000
67.96587 157.000
67.98582 113.000
68.00576 163.000
68.02571 171.000
68.04566 137.000
68.06561 156.000
68.08555 132.000
68.10550 152.000
68.12545 143.000
68.14539 146.000
68.16534 154.000
68.18529 164.000
68.20523 141.000
68.22518 120.000
68.24513 133.000
68.26508 131.000
68.28502 153.000
68.30497 127.000
68.32492 111.000
68.34486 119.000
68.36481 126.000
68.38476 114.000
68.40470 112.000
68.42465 132.000
68.44460 123.000
68.46455 115.000
68.48449 107.000
68.50444 128.000
68.52439 97.000
68.54433 109.000
68.56428 122.000
68.58423 94.000
68.60417 88.000
68.62412 107.000
68.64407 117.000
68.66401 109.000
68.68396 111.000
68.70391 99.000
68.72386 98.000
68.74380 119.000
68.76375 108.000
68.78370 98.000
68.80364 106.000
68.82359 100.000
68.84354 96.000
68.86348 111.000
68.88343 99.000
68.90338 111.000
68.92333 101.000
68.94327 106.000
68.96322 105.000
68.98317 125.000
69.00311 103.000
69.02306 101.000
69.04301 114.000
69.06295 83.000
69.08290 105.000
69.10285 121.000
69.12279 93.000
69.14274 107.000
69.16269 93.000
69.18264 90.000
69.20258 94.000
69.22253 86.000
69.24248 84.000
69.26242 78.000
69.28237 82.000
69.30232 88.000
69.32226 76.000
69.34221 77.000
69.36216 81.000
69.38211 79.000
69.40205 99.000
69.42200 86.000
69.44195 77.000
69.46189 97.000
69.48184 98.000
69.50179 83.000
69.52173 84.000
69.54168 87.000
69.56163 117.000
69.58157 80.000
69.60152 80.000
69.62147 84.000
69.64142 79.000
69.66136 72.000
69.68131 82.000
69.70126 77.000
69.72120 69.000
69.74115 86.000
69.76110 81.000
69.78104 66.000
69.80099 90.000
69.82094 92.000
69.84089 105.000
69.86083 69.000
69.88078 82.000
69.90073 79.000
69.92067 80.000
69.94062 92.000
69.96057 71.000
69.98051 82.000
70.00046 90.000
70.02041 79.000
70.04035 94.000
70.06030 83.000
70.08025 83.000
70.10020 86.000
70.12014 77.000
70.14009 66.000
70.16004 55.000
70.17998 72.000
70.19993 62.000
70.21988 79.000
70.23982 91.000
70.25977 85.000
70.27972 75.000
70.29967 75.000
70.31961 69.000
70.33956 76.000
70.35951 80.000
70.37945 88.000
70.39940 80.000
70.41935 74.000
70.43929 76.000
70.45924 94.000
70.47919 77.000
70.49914 75.000
70.51908 87.000
70.53903 73.000
70.55898 85.000
70.57892 91.000
70.59887 86.000
70.61882 63.000
70.63876 88.000
70.65871 81.000
70.67866 56.000
70.69860 76.000
70.71855 64.000
70.73850 76.000
70.75845 73.000
70.77839 68.000
70.79834 88.000
70.81829 77.000
70.83823 89.000
70.85818 76.000
70.87813 82.000
70.89807 74.000
70.91802 65.000
70.93797 66.000
70.95792 83.000
70.97786 75.000
70.99781 75.000
71.01776 93.000
71.03770 86.000
71.05765 86.000
71.07760 79.000
71.09754 81.000
71.11749 67.000
71.13744 83.000
71.15738 87.000
71.17733 79.000
71.19728 68.000
71.21723 82.000
71.23717 79.000
71.25712 83.000
71.27707 73.000
71.29701 89.000
71.31696 74.000
71.33691 90.000
71.35685 82.000
71.37680 75.000
71.39675 94.000
71.41670 89.000
71.43664 73.000
71.45659 74.000
71.47654 83.000
71.49648 79.000
71.51643 86.000
71.53638 78.000
71.55632 84.000
71.57627 92.000
71.59622 98.000
71.61616 88.000
71.63611 84.000
71.65606 78.000
71.67601 97.000
71.69595 78.000
71.71590 78.000
71.73585 83.000
71.75579 76.000
71.77574 69.000
71.79569 102.000
71.81563 74.000
71.83558 85.000
71.85553 100.000
71.87548 89.000
71.89542 62.000
71.91537 75.000
71.93532 77.000
71.95526 71.000
71.97521 83.000
71.99516 72.000
72.01510 87.000
72.03505 77.000
72.05500 77.000
72.07495 80.000
72.09489 90.000
72.11484 92.000
72.13479 86.000
72.15473 76.000
72.17468 58.000
72.19463 68.000
72.21457 79.000
72.23452 76.000
72.25447 90.000
72.27441 72.000
72.29436 85.000
72.31431 91.000
72.33426 78.000
72.35420 98.000
72.37415 85.000
72.39410 80.000
72.41404 72.000
72.43399 78.000
72.45394 85.000
72.47388 88.000
72.49383 90.000
72.51378 79.000
72.53373 68.000
72.55367 97.000
72.57362 92.000
72.59357 89.000
72.61351 123.000
72.63346 117.000
72.65341 104.000
72.67335 125.000
72.69330 94.000
72.71325 111.000
72.73319 110.000
72.75314 120.000
72.77309 146.000
72.79304 130.000
72.81298 132.000
72.83293 157.000
72.85288 147.000
72.87282 156.000
72.89277 136.000
72.91272 154.000
72.93266 181.000
72.95261 172.000
72.97256 173.000
72.99251 182.000
73.01245 173.000
73.03240 160.000
73.05235 160.000
73.07229 145.000
73.09224 178.000
73.11219 157.000
73.13213 169.000
73.15208 158.000
73.17203 149.000
73.19197 167.000
73.21192 169.000
73.23187 136.000
73.25182 140.000
73.27176 144.000
73.29171 151.000
73.31166 141.000
73.33160 117.000
73.35155 141.000
73.37150 140.000
73.39144 120.000
73.41139 124.000
73.43134 131.000
73.45129 126.000
73.47123 129.000
73.49118 121.000
73.51113 172.000
73.53107 131.000
73.55102 127.000
73.57097 143.000
73.59091 140.000
73.61086 145.000
73.63081 153.000
73.65076 144.000
73.67070 135.000
73.69065 134.000
73.71060 139.000
73.73054 141.000
73.75049 148.000
73.77044 150.000
73.79038 144.000
73.81033 147.000
73.83028 131.000
73.85022 131.000
73.87017 119.000
73.89012 115.000
73.91007 128.000
73.93001 108.000
73.94996 133.000
73.96991 131.000
73.98985 108.000
74.00980 111.000
74.02975 117.000
74.04969 97.000
74.06964 102.000
74.08959 122.000
74.10954 111.000
74.12948 106.000
74.14943 102.000
74.16938 85.000
74.18932 88.000
74.20927 100.000
74.22922 82.000
74.24916 120.000
74.26911 102.000
74.28906 92.000
74.30900 91.000
74.32895 93.000
74.34890 96.000
74.36885 93.000
74.38879 87.000
74.40874 105.000
74.42869 105.000
74.44863 113.000
74.46858 133.000
74.48853 123.000
74.50847 126.000
74.52842 93.000
74.54837 119.000
74.56832 107.000
74.58826 146.000
74.60821 147.000
74.62816 119.000
74.64810 149.000
74.66805 129.000
74.68800 125.000
74.70794 107.000
74.72789 129.000
74.74784 129.000
74.76778 125.000
74.78773 113.000
74.80768 105.000
74.82763 129.000
74.84757 149.000
74.86752 111.000
74.88747 113.000
74.90741 107.000
74.92736 113.000
74.94731 104.000
74.96725 100.000
74.98720 114.000
75.00715 115.000
75.02710 109.000
75.04704 112.000
75.06699 110.000
75.08694 112.000
75.10688 115.000
75.12683 121.000
75.14678 117.000
75.16672 132.000
75.18667 152.000
75.20662 140.000
75.22657 165.000
75.24651 176.000
75.26646 199.000
75.28641 185.000
75.30635 203.000
75.32630 226.000
75.34625 204.000
75.36619 217.000
75.38614 207.000
75.40609 201.000
75.42603 193.000
75.44598 193.000
75.46593 181.000
75.48588 195.000
75.50582 195.000
75.52577 166.000
75.54572 218.000
75.56566 158.000
75.58561 178.000
75.60556 149.000
75.62550 166.000
75.64545 154.000
75.66540 147.000
75.68535 118.000
75.70529 125.000
75.72524 102.000
75.74519 114.000
75.76513 107.000
75.78508 105.000
75.80503 95.000
75.82497 115.000
75.84492 106.000
75.86487 92.000
75.88481 108.000
75.90476 90.000
75.92471 101.000
75.94466 97.000
75.96460 86.000
75.98455 91.000
76.00450 104.000
76.02444 89.000
76.04439 87.000
76.06434 88.000
76.08428 79.000
76.10423 74.000
76.12418 93.000
76.14413 83.000
76.16407 87.000
76.18402 90.000
76.20397 74.000
76.22391 83.000
76.24386 70.000
76.26381 68.000
76.28375 82.000
76.30370 90.000
76.32365 81.000
76.34359 80.000
76.36354 77.000
76.38349 78.000
76.40344 81.000
76.42338 74.000
76.44333 88.000
76.46328 91.000
76.48322 76.000
76.50317 76.000
76.52312 101.000
76.54306 81.000
76.56301 71.000
76.58296 87.000
76.60291 84.000
76.62285 71.000
76.64280 78.000
76.66275 73.000
76.68269 80.000
76.70264 65.000
76.72259 69.000
76.74253 81.000
76.76248 71.000
76.78243 68.000
76.80238 77.000
76.82232 72.000
76.84227 85.000
76.86222 80.000
76.88216 64.000
76.90211 83.000
76.92206 66.000
76.94200 75.000
76.96195 74.000
76.98190 80.000
77.00184 69.000
77.02179 91.000
77.04174 76.000
77.06169 84.000
77.08163 83.000
77.10158 66.000
77.12153 83.000
77.14147 82.000
77.16142 77.000
77.18137 97.000
77.20131 76.000
77.22126 87.000
77.24121 88.000
77.26116 83.000
77.28110 72.000
77.30105 72.000
77.32100 76.000
77.34094 75.000
77.36089 70.000
77.38084 70.000
77.40078 79.000
77.42073 95.000
77.44068 79.000
77.46062 71.000
77.48057 90.000
77.50052 81.000
77.52047 88.000
77.54041 87.000
77.56036 100.000
77.58031 99.000
77.60025 81.000
77.62020 105.000
77.64015 112.000
77.66009 91.000
77.68004 92.000
77.69999 92.000
77.71994 111.000
77.73988 119.000
77.75983 78.000
77.77978 119.000
77.79972 89.000
77.81967 115.000
77.83962 103.000
77.85956 81.000
77.87951 85.000
77.89946 98.000
77.91940 100.000
77.93935 101.000
77.95930 101.000
77.97925 97.000
77.99919 103.000
78.01914 89.000
78.03909 115.000
78.05903 106.000
78.07898 102.000
78.09893 91.000
78.11887 94.000
78.13882 108.000
78.15877 124.000
78.17872 108.000
78.19866 107.000
78.21861 121.000
78.23856 128.000
78.25850 123.000
78.27845 140.000
78.29840 134.000
78.31834 143.000
78.33829 144.000
78.35824 169.000
78.37819 154.000
78.39813 178.000
78.41808 161.000
78.43803 162.000
78.45797 169.000
78.47792 152.000
78.49787 169.000
78.51781 160.000
78.53776 164.000
78.55771 184.000
78.57765 187.000
78.59760 168.000
78.61755 172.000
78.63750 176.000
78.65744 165.000
78.67739 164.000
78.69734 183.000
78.71728 158.000
78.73723 161.000
78.75718 130.000
78.77712 154.000
78.79707 124.000
78.81702 136.000
78.83697 126.000
78.85691 125.000
78.87686 115.000
78.89681 136.000
78.91675 133.000
78.93670 114.000
78.95665 95.000
78.97659 130.000
78.99654 114.000
79.01649 113.000
79.03643 125.000
79.05638 97.000
79.07633 110.000
79.09628 92.000
79.11622 98.000
79.13617 109.000
79.15612 95.000
79.17606 127.000
79.19601 120.000
79.21596 136.000
79.23590 129.000
79.25585 126.000
79.27580 123.000
79.29575 162.000
79.31569 146.000
79.33564 167.000
79.35559 125.000
79.37553 149.000
79.39548 147.000
79.41543 131.000
79.43537 136.000
79.45532 124.000
79.47527 128.000
79.49521 133.000
79.51516 123.000
79.53511 115.000
79.55506 138.000
79.57500 141.000
79.59495 138.000
79.61490 112.000
79.63484 126.000
79.65479 116.000
79.67474 114.000
79.69468 103.000
79.71463 105.000
79.73458 88.000
79.75453 83.000
79.77447 116.000
79.79442 97.000
79.81437 86.000
79.83431 91.000
79.85426 93.000
79.87421 77.000
79.89415 72.000
79.91410 91.000
79.93405 78.000
79.95399 94.000
79.97394 90.000
79.99389 78.000
80.01384 78.000
80.03378 88.000
80.05373 87.000
80.07368 70.000
80.09362 68.000
80.11357 83.000
80.13352 94.000
80.15346 85.000
80.17341 91.000
80.19336 78.000
80.21331 75.000
80.23325 79.000
80.25320 71.000
80.27315 72.000
80.29309 99.000
80.31304 77.000
80.33299 86.000
80.35293 74.000
80.37288 87.000
80.39283 94.000
80.41278 98.000
80.43272 81.000
80.45267 77.000
80.47262 68.000
80.49256 74.000
80.51251 75.000
80.53246 83.000
80.55240 65.000
80.57235 92.000
80.59230 83.000
80.61224 78.000
80.63219 75.000
80.65214 79.000
80.67209 92.000
80.69203 91.000
80.71198 89.000
80.73193 95.000
80.75187 78.000
80.77182 94.000
80.79177 85.000
80.81171 100.000
80.83166 80.000
80.85161 77.000
80.87156 86.000
80.89150 74.000
80.91145 101.000
80.93140 83.000
80.95134 74.000
80.97129 75.000
80.99124 92.000
81.01118 73.000
81.03113 74.000
81.05108 81.000
81.07102 84.000
81.09097 61.000
81.11092 93.000
81.13087 92.000
81.15081 80.000
81.17076 72.000
81.19071 87.000
81.21065 61.000
81.23060 92.000
81.25055 93.000
81.27049 87.000
81.29044 70.000
81.31039 82.000
81.33034 81.000
81.35028 81.000
81.37023 89.000
81.39018 86.000
81.41012 73.000
81.43007 86.000
81.45002 75.000
81.46996 79.000
81.48991 76.000
81.50986 63.000
81.52980 78.000
81.54975 61.000
81.56970 81.000
81.58965 73.000
81.60959 74.000
81.62954 59.000
81.64949 86.000
81.66943 80.000
81.68938 78.000
81.70933 74.000
81.72927 70.000
81.74922 95.000
81.76917 74.000
81.78912 54.000
81.80906 66.000
81.82901 88.000
81.84896 80.000
81.86890 70.000
81.88885 70.000
81.90880 78.000
81.92874 66.000
81.94869 74.000
81.96864 68.000
81.98859 85.000
82.00853 78.000
82.02848 77.000
82.04843 67.000
82.06837 81.000
82.08832 73.000
82.10827 74.000
82.12821 79.000
82.14816 75.000
82.16811 75.000
82.18805 87.000
82.20800 78.000
82.22795 62.000
82.24790 67.000
82.26784 79.000
82.28779 83.000
82.30774 76.000
82.32768 77.000
82.34763 84.000
82.36758 86.000
82.38752 79.000
82.40747 75.000
82.42742 82.000
82.44737 85.000
82.46731 88.000
82.48726 80.000
82.50721 70.000
82.52715 82.000
82.54710 78.000
82.56705 73.000
82.58699 82.000
82.60694 76.000
82.62689 74.000
82.64683 85.000
82.66678 92.000
82.68673 88.000
82.70668 88.000
82.72662 76.000
82.74657 73.000
82.76652 84.000
82.78646 62.000
82.80641 81.000
82.82636 69.000
82.84630 80.000
82.86625 73.000
82.88620 76.000
82.90615 71.000
82.92609 62.000
82.94604 61.000
82.96599 74.000
82.98593 72.000
83.00588 60.000
83.02583 84.000
83.04577 75.000
83.06572 72.000
83.08567 67.000
83.10561 78.000
83.12556 75.000
83.14551 75.000
83.16546 77.000
83.18540 94.000
83.20535 70.000
83.22530 68.000
83.24524 83.000
83.26519 76.000
83.28514 82.000
83.30508 84.000
83.32503 67.000
83.34498 80.000
83.36493 80.000
83.38487 67.000
83.40482 76.000
83.42477 72.000
83.44471 70.000
83.46466 80.000
83.48461 71.000
83.50455 87.000
83.52450 78.000
83.54445 73.000
83.56440 71.000
83.58434 65.000
83.60429 71.000
83.62424 90.000
83.64418 76.000
83.66413 78.000
83.68408 80.000
83.70402 83.000
83.72397 71.000
83.74392 63.000
83.76386 60.000
83.78381 80.000
83.80376 96.000
83.82371 65.000
83.84365 65.000
83.86360 71.000
83.88355 77.000
83.90349 101.000
83.92344 81.000
83.94339 79.000
83.96333 69.000
83.98328 76.000
84.00323 77.000
84.02318 79.000
84.04312 66.000
84.06307 88.000
84.08302 76.000
84.10296 65.000
84.12291 96.000
84.14286 71.000
84.16280 84.000
84.18275 84.000
84.20270 98.000
84.22264 84.000
84.24259 81.000
84.26254 90.000
84.28249 85.000
84.30243 80.000
84.32238 97.000
84.34233 95.000
84.36227 95.000
84.38222 85.000
84.40217 99.000
84.42211 85.000
84.44206 112.000
84.46201 105.000
84.48196 94.000
84.50190 89.000
84.52185 102.000
84.54180 86.000
84.56174 95.000
84.58169 101.000
84.60164 83.000
84.62158 95.000
84.64153 91.000
84.66148 111.000
84.68142 88.000
84.70137 73.000
84.72132 98.000
84.74127 94.000
84.76121 104.000
84.78116 90.000
84.80111 108.000
84.82105 79.000
84.84100 77.000
84.86095 97.000
84.88089 87.000
84.90084 85.000
84.92079 96.000
84.94074 87.000
84.96068 61.000
84.98063 83.000
85.00058 60.000
85.02052 79.000
85.04047 92.000
85.06042 82.000
85.08036 102.000
85.10031 83.000
85.12026 98.000
85.14021 92.000
85.16015 78.000
85.18010 85.000
85.20005 99.000
85.21999 75.000
85.23994 69.000
85.25989 84.000
85.27983 91.000
85.29978 73.000
85.31973 79.000
85.33967 69.000
85.35962 71.000
85.37957 70.000
85.39952 80.000
85.41946 74.000
85.43941 82.000
85.45936 72.000
85.47930 84.000
85.49925 68.000
85.51920 81.000
85.53914 58.000
85.55909 82.000
85.57904 87.000
85.59899 84.000
85.61893 71.000
85.63888 65.000
85.65883 79.000
85.67877 84.000
85.69872 74.000
85.71867 73.000
85.73861 101.000
85.75856 80.000
85.77851 80.000
85.79845 92.000
85.81840 94.000
85.83835 66.000
85.85830 74.000
85.87824 66.000
85.89819 80.000
85.91814 74.000
85.93808 78.000
85.95803 79.000
85.97798 82.000
85.99792 78.000
86.01787 84.000
86.03782 69.000
86.05777 95.000
86.07771 88.000
86.09766 82.000
86.11761 78.000
86.13755 80.000
86.15750 73.000
86.17745 84.000
86.19739 97.000
86.21734 81.000
86.23729 70.000
86.25723 74.000
86.27718 71.000
86.29713 90.000
86.31708 82.000
86.33702 72.000
86.35697 74.000
86.37692 82.000
86.39686 86.000
86.41681 87.000
86.43676 76.000
86.45670 90.000
86.47665 74.000
86.49660 93.000
86.51655 81.000
86.53649 85.000
86.55644 82.000
86.57639 86.000
86.59633 86.000
86.61628 79.000
86.63623 84.000
86.65617 77.000
86.67612 95.000
86.69607 85.000
86.71602 105.000
86.73596 74.000
86.75591 111.000
86.77586 93.000
86.79580 95.000
86.81575 107.000
86.83570 95.000
86.85564 92.000
86.87559 97.000
86.89554 114.000
86.91548 109.000
86.93543 106.000
86.95538 116.000
86.97533 124.000
86.99527 118.000
87.01522 117.000
87.03517 102.000
87.05511 110.000
87.07506 123.000
87.09501 121.000
87.11495 120.000
87.13490 111.000
87.15485 105.000
87.17480 103.000
87.19474 119.000
87.21469 111.000
87.23464 101.000
87.25458 95.000
87.27453 112.000
87.29448 95.000
87.31442 110.000
87.33437 103.000
87.35432 99.000
87.37426 101.000
87.39421 95.000
87.41416 102.000
87.43411 96.000
87.45405 95.000
87.47400 114.000
87.49395 97.000
87.51389 106.000
87.53384 98.000
87.55379 103.000
87.57373 88.000
87.59368 94.000
87.61363 107.000
87.63358 94.000
87.65352 92.000
87.67347 118.000
87.69342 87.000
87.71336 108.000
87.73331 76.000
87.75326 83.000
87.77320 80.000
87.79315 103.000
87.81310 96.000
87.83304 78.000
87.85299 79.000
87.87294 95.000
87.89289 86.000
87.91283 76.000
87.93278 94.000
87.95273 88.000
87.97267 99.000
87.99262 70.000
88.01257 70.000
88.03251 79.000
88.05246 81.000
88.07241 68.000
88.09236 92.000
88.11230 86.000
88.13225 81.000
88.15220 73.000
88.17214 81.000
88.19209 87.000
88.21204 81.000
88.23198 78.000
88.25193 82.000
88.27188 86.000
88.29183 70.000
88.31177 61.000
88.33172 72.000
88.35167 81.000
88.37161 61.000
88.39156 78.000
88.41151 90.000
88.43145 79.000
88.45140 78.000
88.47135 63.000
88.49129 66.000
88.51124 87.000
88.53119 64.000
88.55114 81.000
88.57108 66.000
88.59103 81.000
88.61098 77.000
88.63092 77.000
88.65087 89.000
88.67082 83.000
88.69076 75.000
88.71071 84.000
88.73066 87.000
88.75061 66.000
88.77055 60.000
88.79050 63.000
88.81045 80.000
88.83039 66.000
88.85034 79.000
88.87029 87.000
88.89023 69.000
88.91018 80.000
88.93013 90.000
88.95007 82.000
88.97002 82.000
88.98997 92.000
89.00992 87.000
89.02986 68.000
89.04981 75.000
89.06976 62.000
89.08970 69.000
89.10965 94.000
89.12960 79.000
89.14954 80.000
89.16949 69.000
89.18944 80.000
89.20939 79.000
89.22933 92.000
89.24928 62.000
89.26923 82.000
89.28917 86.000
89.30912 81.000
89.32907 79.000
89.34901 65.000
89.36896 78.000
89.38891 61.000
89.40885 69.000
89.42880 78.000
89.44875 71.000
89.46870 70.000
89.48864 79.000
89.50859 86.000
89.52854 84.000
89.54848 81.000
89.56843 95.000
89.58838 84.000
89.60832 70.000
89.62827 79.000
89.64822 72.000
89.66817 85.000
89.68811 89.000
89.70806 101.000
89.72801 91.000
89.74795 76.000
89.76790 82.000
89.78785 71.000
89.80779 88.000
89.82774 96.000
89.84769 81.000
89.86764 92.000
89.88758 78.000
89.90753 76.000
89.92748 84.000
89.94742 98.000
89.96737 90.000
89.98732 87.000
90.00726 89.000
