10.00000 175.000
10.01995 180.000
10.03989 189.000
10.05984 188.000
10.07979 197.000
10.09973 194.000
10.11968 183.000
10.13963 206.000
10.15958 198.000
10.17952 187.000
10.19947 199.000
10.21942 173.000
10.23936 198.000
10.25931 200.000
10.27926 205.000
10.29920 184.000
10.31915 189.000
10.33910 188.000
10.35905 183.000
10.37899 150.000
10.39894 211.000
10.41889 199.000
10.43883 196.000
10.45878 168.000
10.47873 172.000
10.49867 195.000
10.51862 211.000
10.53857 230.000
10.55851 209.000
10.57846 222.000
10.59841 185.000
10.61836 193.000
10.63830 199.000
10.65825 190.000
10.67820 189.000
10.69814 182.000
10.71809 208.000
10.73804 199.000
10.75798 196.000
10.77793 191.000
10.79788 163.000
10.81783 218.000
10.83777 195.000
10.85772 170.000
10.87767 189.000
10.89761 217.000
10.91756 201.000
10.93751 202.000
10.95745 185.000
10.97740 198.000
10.99735 179.000
11.01730 181.000
11.03724 185.000
11.05719 188.000
11.07714 190.000
11.09708 201.000
11.11703 198.000
11.13698 191.000
11.15692 211.000
11.17687 179.000
11.19682 214.000
11.21676 204.000
11.23671 184.000
11.25666 206.000
11.27661 225.000
11.29655 196.000
11.31650 201.000
11.33645 212.000
11.35639 204.000
11.37634 182.000
11.39629 200.000
11.41623 203.000
11.43618 196.000
11.45613 209.000
11.47608 210.000
11.49602 218.000
11.51597 161.000
11.53592 203.000
11.55586 197.000
11.57581 205.000
11.59576 194.000
11.61570 187.000
11.63565 167.000
11.65560 192.000
11.67554 167.000
11.69549 196.000
11.71544 186.000
11.73539 204.000
11.75533 197.000
11.77528 192.000
11.79523 185.000
11.81517 192.000
11.83512 204.000
11.85507 187.000
11.87501 219.000
11.89496 200.000
11.91491 197.000
11.93486 204.000
11.95480 205.000
11.97475 169.000
11.99470 179.000
12.01464 201.000
12.03459 205.000
12.05454 205.000
12.07448 208.000
12.09443 194.000
12.11438 184.000
12.13432 198.000
12.15427 179.000
12.17422 227.000
12.19417 195.000
12.21411 203.000
12.23406 205.000
12.25401 184.000
12.27395 215.000
12.29390 164.000
12.31385 202.000
12.33379 203.000
12.35374 199.000
12.37369 213.000
12.39364 193.000
12.41358 236.000
12.43353 215.000
12.45348 185.000
12.47342 190.000
12.49337 195.000
12.51332 186.000
12.53326 190.000
12.55321 213.000
12.57316 191.000
12.59311 195.000
12.61305 186.000
12.63300 196.000
12.65295 183.000
12.67289 218.000
12.69284 204.000
12.71279 247.000
12.73273 193.000
12.75268 207.000
12.77263 193.000
12.79257 197.000
12.81252 203.000
12.83247 193.000
12.85242 201.000
12.87236 193.000
12.89231 206.000
12.91226 207.000
12.93220 211.000
12.95215 191.000
12.97210 210.000
12.99204 202.000
13.01199 205.000
13.03194 176.000
13.05189 190.000
13.07183 208.000
13.09178 203.000
13.11173 185.000
13.13167 188.000
13.15162 220.000
13.17157 189.000
13.19151 181.000
13.21146 210.000
13.23141 187.000
13.25135 226.000
13.27130 201.000
13.29125 164.000
13.31120 202.000
13.33114 218.000
13.35109 188.000
13.37104 194.000
13.39098 190.000
13.41093 193.000
13.43088 223.000
13.45082 211.000
13.47077 221.000
13.49072 181.000
13.51067 186.000
13.53061 218.000
13.55056 209.000
13.57051 211.000
13.59045 201.000
13.61040 209.000
13.63035 210.000
13.65029 199.000
13.67024 227.000
13.69019 217.000
13.71013 185.000
13.73008 210.000
13.75003 196.000
13.76998 217.000
13.78992 193.000
13.80987 197.000
13.82982 176.000
13.84976 188.000
13.86971 205.000
13.88966 207.000
13.90960 226.000
13.92955 204.000
13.94950 203.000
13.96945 197.000
13.98939 222.000
14.00934 199.000
14.02929 200.000
14.04923 205.000
14.06918 206.000
14.08913 200.000
14.10907 212.000
14.12902 211.000
14.14897 210.000
14.16892 200.000
14.18886 195.000
14.20881 210.000
14.22876 180.000
14.24870 207.000
14.26865 221.000
14.28860 209.000
14.30854 214.000
14.32849 219.000
14.34844 218.000
14.36838 201.000
14.38833 193.000
14.40828 223.000
14.42823 216.000
14.44817 226.000
14.46812 210.000
14.48807 228.000
14.50801 219.000
14.52796 188.000
14.54791 227.000
14.56785 222.000
14.58780 208.000
14.60775 203.000
14.62770 228.000
14.64764 224.000
14.66759 198.000
14.68754 194.000
14.70748 209.000
14.72743 195.000
14.74738 208.000
14.76732 202.000
14.78727 201.000
14.80722 233.000
14.82716 198.000
14.84711 204.000
14.86706 203.000
14.88701 221.000
14.90695 209.000
14.92690 181.000
14.94685 240.000
14.96679 181.000
14.98674 215.000
15.00669 224.000
15.02663 215.000
15.04658 211.000
15.06653 215.000
15.08648 215.000
15.10642 213.000
15.12637 180.000
15.14632 205.000
15.16626 208.000
15.18621 217.000
15.20616 212.000
15.22610 215.000
15.24605 212.000
15.26600 193.000
15.28594 224.000
15.30589 200.000
15.32584 207.000
15.34579 197.000
15.36573 194.000
15.38568 205.000
15.40563 198.000
15.42557 219.000
15.44552 209.000
15.46547 206.000
15.48541 243.000
15.50536 187.000
15.52531 184.000
15.54526 200.000
15.56520 211.000
15.58515 229.000
15.60510 212.000
15.62504 244.000
15.64499 230.000
15.66494 212.000
15.68488 253.000
15.70483 227.000
15.72478 238.000
15.74472 224.000
15.76467 228.000
15.78462 228.000
15.80457 222.000
15.82451 212.000
15.84446 226.000
15.86441 212.000
15.88435 228.000
15.90430 215.000
15.92425 200.000
15.94419 228.000
15.96414 223.000
15.98409 232.000
16.00404 218.000
16.02398 207.000
16.04393 216.000
16.06388 194.000
16.08382 240.000
16.10377 207.000
16.12372 225.000
16.14366 207.000
16.16361 236.000
16.18356 206.000
16.20351 225.000
16.22345 225.000
16.24340 229.000
16.26335 223.000
16.28329 251.000
16.30324 197.000
16.32319 234.000
16.34313 213.000
16.36308 206.000
16.38303 211.000
16.40297 246.000
16.42292 237.000
16.44287 212.000
16.46282 247.000
16.48276 249.000
16.50271 242.000
16.52266 210.000
16.54260 227.000
16.56255 223.000
16.58250 214.000
16.60244 231.000
16.62239 233.000
16.64234 208.000
16.66229 222.000
16.68223 198.000
16.70218 212.000
16.72213 218.000
16.74207 221.000
16.76202 239.000
16.78197 231.000
16.80191 280.000
16.82186 244.000
16.84181 239.000
16.86175 224.000
16.88170 216.000
16.90165 208.000
16.92160 240.000
16.94154 221.000
16.96149 223.000
16.98144 225.000
17.00138 254.000
17.02133 244.000
17.04128 225.000
17.06122 242.000
17.08117 279.000
17.10112 241.000
17.12107 292.000
17.14101 284.000
17.16096 285.000
17.18091 278.000
17.20085 277.000
17.22080 284.000
17.24075 281.000
17.26069 222.000
17.28064 235.000
17.30059 264.000
17.32053 249.000
17.34048 253.000
17.36043 218.000
17.38038 234.000
17.40032 213.000
17.42027 240.000
17.44022 194.000
17.46016 239.000
17.48011 230.000
17.50006 225.000
17.52000 220.000
17.53995 208.000
17.55990 225.000
17.57985 225.000
17.59979 226.000
17.61974 245.000
17.63969 280.000
17.65963 217.000
17.67958 231.000
17.69953 199.000
17.71947 219.000
17.73942 229.000
17.75937 240.000
17.77932 193.000
17.79926 221.000
17.81921 241.000
17.83916 229.000
17.85910 232.000
17.87905 233.000
17.89900 212.000
17.91894 237.000
17.93889 214.000
17.95884 187.000
17.97878 244.000
17.99873 219.000
18.01868 228.000
18.03863 240.000
18.05857 242.000
18.07852 224.000
18.09847 228.000
18.11841 236.000
18.13836 231.000
18.15831 238.000
18.17825 256.000
18.19820 235.000
18.21815 240.000
18.23810 232.000
18.25804 246.000
18.27799 270.000
18.29794 302.000
18.31788 320.000
18.33783 412.000
18.35778 410.000
18.37772 495.000
18.39767 434.000
18.41762 381.000
18.43756 325.000
18.45751 294.000
18.47746 260.000
18.49741 255.000
18.51735 254.000
18.53730 224.000
18.55725 224.000
18.57719 216.000
18.59714 220.000
18.61709 230.000
18.63703 196.000
18.65698 232.000
18.67693 220.000
18.69688 229.000
18.71682 203.000
18.73677 225.000
18.75672 209.000
18.77666 218.000
18.79661 249.000
18.81656 234.000
18.83650 211.000
18.85645 211.000
18.87640 230.000
18.89634 228.000
18.91629 211.000
18.93624 215.000
18.95619 253.000
18.97613 210.000
18.99608 221.000
19.01603 245.000
19.03597 252.000
19.05592 234.000
19.07587 206.000
19.09581 214.000
19.11576 268.000
19.13571 201.000
19.15566 211.000
19.17560 228.000
19.19555 197.000
19.21550 230.000
19.23544 241.000
19.25539 204.000
19.27534 239.000
19.29528 236.000
19.31523 219.000
19.33518 236.000
19.35513 228.000
19.37507 220.000
19.39502 215.000
19.41497 216.000
19.43491 222.000
19.45486 251.000
19.47481 224.000
19.49475 239.000
19.51470 229.000
19.53465 201.000
19.55459 247.000
19.57454 202.000
19.59449 218.000
19.61444 229.000
19.63438 229.000
19.65433 240.000
19.67428 228.000
19.69422 239.000
19.71417 240.000
19.73412 246.000
19.75406 221.000
19.77401 241.000
19.79396 220.000
19.81391 242.000
19.83385 227.000
19.85380 253.000
19.87375 246.000
19.89369 224.000
19.91364 248.000
19.93359 258.000
19.95353 237.000
19.97348 255.000
19.99343 220.000
20.01337 247.000
20.03332 243.000
20.05327 210.000
20.07322 255.000
20.09316 219.000
20.11311 207.000
20.13306 230.000
20.15300 221.000
20.17295 231.000
20.19290 228.000
20.21284 236.000
20.23279 207.000
20.25274 242.000
20.27269 245.000
20.29263 228.000
20.31258 224.000
20.33253 231.000
20.35247 225.000
20.37242 230.000
20.39237 236.000
20.41231 237.000
20.43226 244.000
20.45221 267.000
20.47215 243.000
20.49210 261.000
20.51205 222.000
20.53200 278.000
20.55194 260.000
20.57189 268.000
20.59184 229.000
20.61178 284.000
20.63173 273.000
20.65168 290.000
20.67162 260.000
20.69157 277.000
20.71152 296.000
20.73147 302.000
20.75141 332.000
20.77136 336.000
20.79131 352.000
20.81125 354.000
20.83120 390.000
20.85115 388.000
20.87109 341.000
20.89104 335.000
20.91099 327.000
20.93094 297.000
20.95088 301.000
20.97083 294.000
20.99078 317.000
21.01072 285.000
21.03067 248.000
21.05062 265.000
21.07056 281.000
21.09051 296.000
21.11046 288.000
21.13040 233.000
21.15035 266.000
21.17030 235.000
21.19025 236.000
21.21019 212.000
21.23014 245.000
21.25009 207.000
21.27003 221.000
21.28998 223.000
21.30993 244.000
21.32987 227.000
21.34982 234.000
21.36977 223.000
21.38972 212.000
21.40966 261.000
21.42961 237.000
21.44956 198.000
21.46950 265.000
21.48945 226.000
21.50940 235.000
21.52934 234.000
21.54929 260.000
21.56924 221.000
21.58918 248.000
21.60913 211.000
21.62908 242.000
21.64903 218.000
21.66897 227.000
21.68892 217.000
21.70887 225.000
21.72881 231.000
21.74876 241.000
21.76871 226.000
21.78865 232.000
21.80860 237.000
21.82855 247.000
21.84850 241.000
21.86844 208.000
21.88839 252.000
21.90834 256.000
21.92828 235.000
21.94823 209.000
21.96818 223.000
21.98812 255.000
22.00807 246.000
22.02802 225.000
22.04796 268.000
22.06791 241.000
22.08786 223.000
22.10781 237.000
22.12775 248.000
22.14770 279.000
22.16765 244.000
22.18759 234.000
22.20754 261.000
22.22749 229.000
22.24743 253.000
22.26738 267.000
22.28733 256.000
22.30728 221.000
22.32722 201.000
22.34717 238.000
22.36712 235.000
22.38706 237.000
22.40701 250.000
22.42696 232.000
22.44690 266.000
22.46685 252.000
22.48680 232.000
22.50675 230.000
22.52669 243.000
22.54664 250.000
22.56659 266.000
22.58653 217.000
22.60648 209.000
22.62643 236.000
22.64637 232.000
22.66632 241.000
22.68627 247.000
22.70621 238.000
22.72616 224.000
22.74611 257.000
22.76606 241.000
22.78600 232.000
22.80595 244.000
22.82590 255.000
22.84584 264.000
22.86579 219.000
22.88574 225.000
22.90568 272.000
22.92563 239.000
22.94558 233.000
22.96553 255.000
22.98547 232.000
23.00542 220.000
23.02537 205.000
23.04531 234.000
23.06526 226.000
23.08521 242.000
23.10515 231.000
23.12510 226.000
23.14505 267.000
23.16499 239.000
23.18494 241.000
23.20489 227.000
23.22484 227.000
23.24478 221.000
23.26473 238.000
23.28468 242.000
23.30462 212.000
23.32457 238.000
23.34452 216.000
23.36446 229.000
23.38441 249.000
23.40436 254.000
23.42431 236.000
23.44425 268.000
23.46420 241.000
23.48415 229.000
23.50409 249.000
23.52404 253.000
23.54399 231.000
23.56393 255.000
23.58388 234.000
23.60383 217.000
23.62377 253.000
23.64372 240.000
23.66367 221.000
23.68362 250.000
23.70356 258.000
23.72351 232.000
23.74346 209.000
23.76340 253.000
23.78335 264.000
23.80330 215.000
23.82324 225.000
23.84319 245.000
23.86314 259.000
23.88309 230.000
23.90303 220.000
23.92298 268.000
23.94293 235.000
23.96287 228.000
23.98282 250.000
24.00277 238.000
24.02271 234.000
24.04266 255.000
24.06261 236.000
24.08256 240.000
24.10250 244.000
24.12245 235.000
24.14240 249.000
24.16234 243.000
24.18229 220.000
24.20224 256.000
24.22218 236.000
24.24213 236.000
24.26208 252.000
24.28202 256.000
24.30197 225.000
24.32192 267.000
24.34187 257.000
24.36181 252.000
24.38176 280.000
24.40171 239.000
24.42165 234.000
24.44160 244.000
24.46155 263.000
24.48149 244.000
24.50144 269.000
24.52139 241.000
24.54134 242.000
24.56128 257.000
24.58123 258.000
24.60118 280.000
24.62112 239.000
24.64107 250.000
24.66102 232.000
24.68096 240.000
24.70091 256.000
24.72086 267.000
24.74080 255.000
24.76075 267.000
24.78070 244.000
24.80065 222.000
24.82059 267.000
24.84054 241.000
24.86049 252.000
24.88043 250.000
24.90038 269.000
24.92033 280.000
24.94027 232.000
24.96022 265.000
24.98017 255.000
25.00012 275.000
25.02006 228.000
25.04001 233.000
25.05996 269.000
25.07990 259.000
25.09985 275.000
25.11980 254.000
25.13974 232.000
25.15969 260.000
25.17964 246.000
25.19958 257.000
25.21953 252.000
25.23948 241.000
25.25943 263.000
25.27937 258.000
25.29932 223.000
25.31927 254.000
25.33921 284.000
25.35916 269.000
25.37911 245.000
25.39905 217.000
25.41900 260.000
25.43895 264.000
25.45890 256.000
25.47884 272.000
25.49879 248.000
25.51874 267.000
25.53868 234.000
25.55863 253.000
25.57858 267.000
25.59852 246.000
25.61847 257.000
25.63842 230.000
25.65837 260.000
25.67831 252.000
25.69826 248.000
25.71821 235.000
25.73815 246.000
25.75810 267.000
25.77805 295.000
25.79799 266.000
25.81794 266.000
25.83789 285.000
25.85783 251.000
25.87778 245.000
25.89773 253.000
25.91768 258.000
25.93762 255.000
25.95757 241.000
25.97752 252.000
25.99746 282.000
26.01741 262.000
26.03736 275.000
26.05730 260.000
26.07725 251.000
26.09720 263.000
26.11715 265.000
26.13709 257.000
26.15704 264.000
26.17699 253.000
26.19693 257.000
26.21688 255.000
26.23683 270.000
26.25677 276.000
26.27672 259.000
26.29667 275.000
26.31661 248.000
26.33656 277.000
26.35651 292.000
26.37646 290.000
26.39640 282.000
26.41635 274.000
26.43630 266.000
26.45624 297.000
26.47619 270.000
26.49614 263.000
26.51608 252.000
26.53603 266.000
26.55598 271.000
26.57593 269.000
26.59587 288.000
26.61582 255.000
26.63577 296.000
26.65571 264.000
26.67566 247.000
26.69561 260.000
26.71555 287.000
26.73550 230.000
26.75545 291.000
26.77539 240.000
26.79534 261.000
26.81529 282.000
26.83524 267.000
26.85518 280.000
26.87513 278.000
26.89508 265.000
26.91502 280.000
26.93497 277.000
26.95492 251.000
26.97486 291.000
26.99481 271.000
27.01476 253.000
27.03471 275.000
27.05465 236.000
27.07460 259.000
27.09455 276.000
27.11449 263.000
27.13444 273.000
27.15439 273.000
27.17433 267.000
27.19428 277.000
27.21423 294.000
27.23417 285.000
27.25412 247.000
27.27407 273.000
27.29402 261.000
27.31396 244.000
27.33391 274.000
27.35386 310.000
27.37380 269.000
27.39375 278.000
27.41370 267.000
27.43364 268.000
27.45359 252.000
27.47354 305.000
27.49349 281.000
27.51343 272.000
27.53338 298.000
27.55333 282.000
27.57327 285.000
27.59322 272.000
27.61317 263.000
27.63311 268.000
27.65306 258.000
27.67301 292.000
27.69296 292.000
27.71290 268.000
27.73285 278.000
27.75280 276.000
27.77274 283.000
27.79269 264.000
27.81264 279.000
27.83258 259.000
27.85253 280.000
27.87248 284.000
27.89242 283.000
27.91237 297.000
27.93232 284.000
27.95227 295.000
27.97221 264.000
27.99216 279.000
28.01211 323.000
28.03205 252.000
28.05200 274.000
28.07195 294.000
28.09189 284.000
28.11184 306.000
28.13179 287.000
28.15174 275.000
28.17168 280.000
28.19163 266.000
28.21158 272.000
28.23152 285.000
28.25147 270.000
28.27142 299.000
28.29136 225.000
28.31131 292.000
28.33126 273.000
28.35120 275.000
28.37115 294.000
28.39110 280.000
28.41105 287.000
28.43099 271.000
28.45094 254.000
28.47089 246.000
28.49083 289.000
28.51078 275.000
28.53073 281.000
28.55067 257.000
28.57062 266.000
28.59057 278.000
28.61052 247.000
28.63046 285.000
28.65041 302.000
28.67036 270.000
28.69030 280.000
28.71025 273.000
28.73020 291.000
28.75014 294.000
28.77009 287.000
28.79004 269.000
28.80998 298.000
28.82993 303.000
28.84988 284.000
28.86983 300.000
28.88977 278.000
28.90972 278.000
28.92967 297.000
28.94961 300.000
28.96956 287.000
28.98951 289.000
29.00945 288.000
29.02940 281.000
29.04935 290.000
29.06930 279.000
29.08924 319.000
29.10919 272.000
29.12914 333.000
29.14908 322.000
29.16903 273.000
29.18898 276.000
29.20892 325.000
29.22887 316.000
29.24882 305.000
29.26877 328.000
29.28871 309.000
29.30866 308.000
29.32861 344.000
29.34855 302.000
29.36850 305.000
29.38845 305.000
29.40839 334.000
29.42834 299.000
29.44829 327.000
29.46823 324.000
29.48818 299.000
29.50813 333.000
29.52808 327.000
29.54802 333.000
29.56797 310.000
29.58792 297.000
29.60786 301.000
29.62781 295.000
29.64776 327.000
29.66770 303.000
29.68765 314.000
29.70760 305.000
29.72755 323.000
29.74749 317.000
29.76744 299.000
29.78739 294.000
29.80733 324.000
29.82728 326.000
29.84723 315.000
29.86717 316.000
29.88712 298.000
29.90707 347.000
29.92701 332.000
29.94696 309.000
29.96691 320.000
29.98686 310.000
30.00680 308.000
30.02675 343.000
30.04670 381.000
30.06664 346.000
30.08659 378.000
30.10654 395.000
30.12648 444.000
30.14643 408.000
30.16638 481.000
30.18633 611.000
30.20627 773.000
30.22622 868.000
30.24617 886.000
30.26611 844.000
30.28606 738.000
30.30601 766.000
30.32595 668.000
30.34590 592.000
30.36585 482.000
30.38579 442.000
30.40574 360.000
30.42569 359.000
30.44564 320.000
30.46558 325.000
30.48553 315.000
30.50548 305.000
30.52542 294.000
30.54537 314.000
30.56532 302.000
30.58526 289.000
30.60521 330.000
30.62516 313.000
30.64511 316.000
30.66505 313.000
30.68500 298.000
30.70495 305.000
30.72489 278.000
30.74484 289.000
30.76479 311.000
30.78473 313.000
30.80468 265.000
30.82463 285.000
30.84458 271.000
30.86452 279.000
30.88447 300.000
30.90442 274.000
30.92436 295.000
30.94431 288.000
30.96426 270.000
30.98420 317.000
31.00415 319.000
31.02410 302.000
31.04404 336.000
31.06399 280.000
31.08394 285.000
31.10389 298.000
31.12383 299.000
31.14378 296.000
31.16373 268.000
31.18367 282.000
31.20362 298.000
31.22357 290.000
31.24351 266.000
31.26346 309.000
31.28341 299.000
31.30336 296.000
31.32330 305.000
31.34325 259.000
31.36320 294.000
31.38314 263.000
31.40309 286.000
31.42304 300.000
31.44298 302.000
31.46293 313.000
31.48288 280.000
31.50282 291.000
31.52277 264.000
31.54272 303.000
31.56267 311.000
31.58261 283.000
31.60256 316.000
31.62251 281.000
31.64245 283.000
31.66240 286.000
31.68235 332.000
31.70229 307.000
31.72224 297.000
31.74219 318.000
31.76214 299.000
31.78208 317.000
31.80203 320.000
31.82198 289.000
31.84192 317.000
31.86187 297.000
31.88182 299.000
31.90176 270.000
31.92171 287.000
31.94166 287.000
31.96160 305.000
31.98155 319.000
32.00150 320.000
32.02145 287.000
32.04139 317.000
32.06134 312.000
32.08129 291.000
32.10123 304.000
32.12118 282.000
32.14113 299.000
32.16107 316.000
32.18102 335.000
32.20097 312.000
32.22092 277.000
32.24086 320.000
32.26081 314.000
32.28076 295.000
32.30070 322.000
32.32065 289.000
32.34060 311.000
32.36054 315.000
32.38049 341.000
32.40044 351.000
32.42039 356.000
32.44033 364.000
32.46028 352.000
32.48023 356.000
32.50017 331.000
32.52012 352.000
32.54007 368.000
32.56001 329.000
32.57996 376.000
32.59991 352.000
32.61985 320.000
32.63980 317.000
32.65975 329.000
32.67970 297.000
32.69964 288.000
32.71959 305.000
32.73954 298.000
32.75948 327.000
32.77943 304.000
32.79938 296.000
32.81932 293.000
32.83927 303.000
32.85922 299.000
32.87917 281.000
32.89911 292.000
32.91906 307.000
32.93901 309.000
32.95895 316.000
32.97890 268.000
32.99885 279.000
33.01879 318.000
33.03874 300.000
33.05869 284.000
33.07863 314.000
33.09858 304.000
33.11853 294.000
33.13848 313.000
33.15842 298.000
33.17837 311.000
33.19832 313.000
33.21826 351.000
33.23821 326.000
33.25816 348.000
33.27810 341.000
33.29805 282.000
33.31800 288.000
33.33795 348.000
33.35789 312.000
33.37784 309.000
33.39779 286.000
33.41773 308.000
33.43768 295.000
33.45763 323.000
33.47757 281.000
33.49752 303.000
33.51747 308.000
33.53741 264.000
33.55736 267.000
33.57731 293.000
33.59726 301.000
33.61720 294.000
33.63715 297.000
33.65710 268.000
33.67704 262.000
33.69699 325.000
33.71694 302.000
33.73688 291.000
33.75683 314.000
33.77678 338.000
33.79673 289.000
33.81667 333.000
33.83662 295.000
33.85657 282.000
33.87651 328.000
33.89646 362.000
33.91641 342.000
33.93635 338.000
33.95630 332.000
33.97625 322.000
33.99620 353.000
34.01614 347.000
34.03609 370.000
34.05604 361.000
34.07598 356.000
34.09593 349.000
34.11588 346.000
34.13582 375.000
34.15577 357.000
34.17572 367.000
34.19566 341.000
34.21561 397.000
34.23556 379.000
34.25551 389.000
34.27545 406.000
34.29540 403.000
34.31535 409.000
34.33529 411.000
34.35524 364.000
34.37519 445.000
34.39513 386.000
34.41508 450.000
34.43503 423.000
34.45498 415.000
34.47492 405.000
34.49487 415.000
34.51482 442.000
34.53476 385.000
34.55471 376.000
34.57466 443.000
34.59460 416.000
34.61455 383.000
34.63450 429.000
34.65444 373.000
34.67439 402.000
34.69434 419.000
34.71429 403.000
34.73423 425.000
34.75418 394.000
34.77413 406.000
34.79407 444.000
34.81402 454.000
34.83397 455.000
34.85391 428.000
34.87386 408.000
34.89381 437.000
34.91376 392.000
34.93370 402.000
34.95365 415.000
34.97360 422.000
34.99354 420.000
35.01349 425.000
35.03344 418.000
35.05338 470.000
35.07333 423.000
35.09328 490.000
35.11322 435.000
35.13317 500.000
35.15312 522.000
35.17307 471.000
35.19301 550.000
35.21296 544.000
35.23291 472.000
35.25285 505.000
35.27280 550.000
35.29275 568.000
35.31269 653.000
35.33264 709.000
35.35259 710.000
35.37254 966.000
35.39248 1064.000
35.41243 1123.000
35.43238 1163.000
35.45232 1188.000
35.47227 1290.000
35.49222 1388.000
35.51216 1501.000
35.53211 1660.000
35.55206 1819.000
35.57201 2158.000
35.59195 2468.000
35.61190 2773.000
35.63185 2739.000
35.65179 2575.000
35.67174 2318.000
35.69169 2112.000
35.71163 1928.000
35.73158 1666.000
35.75153 1335.000
35.77147 1102.000
35.79142 925.000
35.81137 768.000
35.83132 646.000
35.85126 628.000
35.87121 561.000
35.89116 526.000
35.91110 450.000
35.93105 472.000
35.95100 471.000
35.97094 444.000
35.99089 447.000
36.01084 447.000
36.03079 417.000
36.05073 479.000
36.07068 425.000
36.09063 458.000
36.11057 408.000
36.13052 432.000
36.15047 421.000
36.17041 457.000
36.19036 469.000
36.21031 463.000
36.23025 564.000
36.25020 527.000
36.27015 546.000
36.29010 553.000
36.31004 534.000
36.32999 543.000
36.34994 568.000
36.36988 596.000
36.38983 526.000
36.40978 462.000
36.42972 500.000
36.44967 461.000
36.46962 473.000
36.48957 496.000
36.50951 471.000
36.52946 433.000
36.54941 460.000
36.56935 431.000
36.58930 496.000
36.60925 456.000
36.62919 436.000
36.64914 448.000
36.66909 487.000
36.68903 474.000
36.70898 479.000
36.72893 474.000
36.74888 469.000
36.76882 522.000
36.78877 513.000
36.80872 525.000
36.82866 499.000
36.84861 523.000
36.86856 570.000
36.88850 560.000
36.90845 568.000
36.92840 628.000
36.94835 630.000
36.96829 651.000
36.98824 635.000
37.00819 677.000
37.02813 707.000
37.04808 704.000
37.06803 699.000
37.08797 674.000
37.10792 718.000
37.12787 671.000
37.14781 681.000
37.16776 654.000
37.18771 599.000
37.20766 626.000
37.22760 594.000
37.24755 562.000
37.26750 539.000
37.28744 562.000
37.30739 492.000
37.32734 444.000
37.34728 443.000
37.36723 444.000
37.38718 372.000
37.40713 363.000
37.42707 344.000
37.44702 344.000
37.46697 341.000
37.48691 341.000
37.50686 350.000
37.52681 331.000
37.54675 319.000
37.56670 330.000
37.58665 296.000
37.60660 298.000
37.62654 308.000
37.64649 301.000
37.66644 314.000
37.68638 347.000
37.70633 313.000
37.72628 306.000
37.74622 298.000
37.76617 302.000
37.78612 318.000
37.80606 323.000
37.82601 313.000
37.84596 311.000
37.86591 304.000
37.88585 311.000
37.90580 314.000
37.92575 320.000
37.94569 314.000
37.96564 323.000
37.98559 281.000
38.00553 318.000
38.02548 362.000
38.04543 336.000
38.06538 338.000
38.08532 333.000
38.10527 300.000
38.12522 328.000
38.14516 334.000
38.16511 348.000
38.18506 367.000
38.20500 382.000
38.22495 391.000
38.24490 341.000
38.26484 372.000
38.28479 311.000
38.30474 337.000
38.32469 391.000
38.34463 407.000
38.36458 419.000
38.38453 472.000
38.40447 461.000
38.42442 439.000
38.44437 458.000
38.46431 518.000
38.48426 554.000
38.50421 592.000
38.52416 692.000
38.54410 712.000
38.56405 815.000
38.58400 833.000
38.60394 925.000
38.62389 1037.000
38.64384 1062.000
38.66378 1101.000
38.68373 1093.000
38.70368 1052.000
38.72362 934.000
38.74357 957.000
38.76352 905.000
38.78347 867.000
38.80341 826.000
38.82336 714.000
38.84331 729.000
38.86325 644.000
38.88320 632.000
38.90315 549.000
38.92309 562.000
38.94304 591.000
38.96299 596.000
38.98294 557.000
39.00288 516.000
39.02283 505.000
39.04278 454.000
39.06272 462.000
39.08267 446.000
39.10262 416.000
39.12256 422.000
39.14251 385.000
39.16246 360.000
39.18241 365.000
39.20235 352.000
39.22230 332.000
39.24225 353.000
39.26219 331.000
39.28214 322.000
39.30209 329.000
39.32203 360.000
39.34198 335.000
39.36193 325.000
39.38187 318.000
39.40182 332.000
39.42177 287.000
39.44172 301.000
39.46166 325.000
39.48161 346.000
39.50156 299.000
39.52150 322.000
39.54145 313.000
39.56140 339.000
39.58134 323.000
39.60129 300.000
39.62124 319.000
39.64119 294.000
39.66113 295.000
39.68108 291.000
39.70103 280.000
39.72097 290.000
39.74092 311.000
39.76087 286.000
39.78081 322.000
39.80076 328.000
39.82071 297.000
39.84065 313.000
39.86060 317.000
39.88055 313.000
39.90050 299.000
39.92044 298.000
39.94039 307.000
39.96034 282.000
39.98028 326.000
40.00023 321.000
40.02018 312.000
40.04012 271.000
40.06007 300.000
40.08002 305.000
40.09997 290.000
40.11991 335.000
40.13986 300.000
40.15981 310.000
40.17975 289.000
40.19970 292.000
40.21965 331.000
40.23959 321.000
40.25954 300.000
40.27949 321.000
40.29943 344.000
40.31938 317.000
40.33933 297.000
40.35928 292.000
40.37922 284.000
40.39917 325.000
40.41912 309.000
40.43906 319.000
40.45901 307.000
40.47896 300.000
40.49890 289.000
40.51885 301.000
40.53880 285.000
40.55875 276.000
40.57869 311.000
40.59864 317.000
40.61859 297.000
40.63853 312.000
40.65848 316.000
40.67843 321.000
40.69837 314.000
40.71832 332.000
40.73827 321.000
40.75822 334.000
40.77816 311.000
40.79811 310.000
40.81806 331.000
40.83800 343.000
40.85795 317.000
40.87790 352.000
40.89784 329.000
40.91779 345.000
40.93774 338.000
40.95768 377.000
40.97763 372.000
40.99758 330.000
41.01753 367.000
41.03747 348.000
41.05742 435.000
41.07737 385.000
41.09731 366.000
41.11726 374.000
41.13721 301.000
41.15715 392.000
41.17710 370.000
41.19705 368.000
41.21700 346.000
41.23694 368.000
41.25689 377.000
41.27684 384.000
41.29678 378.000
41.31673 371.000
41.33668 388.000
41.35662 379.000
41.37657 405.000
41.39652 373.000
41.41646 393.000
41.43641 450.000
41.45636 383.000
41.47631 418.000
41.49625 454.000
41.51620 491.000
41.53615 490.000
41.55609 500.000
41.57604 469.000
41.59599 550.000
41.61593 575.000
41.63588 566.000
41.65583 631.000
41.67578 627.000
41.69572 684.000
41.71567 730.000
41.73562 728.000
41.75556 717.000
41.77551 664.000
41.79546 660.000
41.81540 652.000
41.83535 677.000
41.85530 629.000
41.87524 595.000
41.89519 551.000
41.91514 524.000
41.93509 541.000
41.95503 517.000
41.97498 460.000
41.99493 447.000
42.01487 458.000
42.03482 440.000
42.05477 438.000
42.07471 412.000
42.09466 433.000
42.11461 443.000
42.13456 417.000
42.15450 390.000
42.17445 415.000
42.19440 397.000
42.21434 384.000
42.23429 401.000
42.25424 397.000
42.27418 424.000
42.29413 399.000
42.31408 425.000
42.33403 411.000
42.35397 395.000
42.37392 428.000
42.39387 368.000
42.41381 450.000
42.43376 391.000
42.45371 376.000
42.47365 399.000
42.49360 433.000
42.51355 441.000
42.53349 438.000
42.55344 410.000
42.57339 456.000
42.59334 482.000
42.61328 463.000
42.63323 503.000
42.65318 475.000
42.67312 463.000
42.69307 482.000
42.71302 484.000
42.73296 521.000
42.75291 521.000
42.77286 527.000
42.79281 550.000
42.81275 513.000
42.83270 497.000
42.85265 605.000
42.87259 575.000
42.89254 598.000
42.91249 647.000
42.93243 647.000
42.95238 616.000
42.97233 647.000
42.99227 709.000
43.01222 706.000
43.03217 768.000
43.05212 807.000
43.07206 767.000
43.09201 815.000
43.11196 793.000
43.13190 791.000
43.15185 815.000
43.17180 816.000
43.19174 811.000
43.21169 815.000
43.23164 787.000
43.25159 845.000
43.27153 862.000
43.29148 863.000
43.31143 898.000
43.33137 817.000
43.35132 780.000
43.37127 718.000
43.39121 697.000
43.41116 635.000
43.43111 623.000
43.45105 559.000
43.47100 475.000
43.49095 478.000
43.51090 445.000
43.53084 388.000
43.55079 371.000
43.57074 381.000
43.59068 333.000
43.61063 342.000
43.63058 339.000
43.65052 317.000
43.67047 304.000
43.69042 297.000
43.71037 326.000
43.73031 318.000
43.75026 322.000
43.77021 321.000
43.79015 280.000
43.81010 293.000
43.83005 346.000
43.84999 290.000
43.86994 258.000
43.88989 258.000
43.90984 309.000
43.92978 317.000
43.94973 287.000
43.96968 269.000
43.98962 302.000
44.00957 264.000
44.02952 302.000
44.04946 305.000
44.06941 285.000
44.08936 290.000
44.10930 291.000
44.12925 271.000
44.14920 262.000
44.16915 265.000
44.18909 294.000
44.20904 268.000
44.22899 266.000
44.24893 325.000
44.26888 285.000
44.28883 276.000
44.30877 287.000
44.32872 249.000
44.34867 283.000
44.36862 273.000
44.38856 241.000
44.40851 280.000
44.42846 288.000
44.44840 288.000
44.46835 280.000
44.48830 283.000
44.50824 300.000
44.52819 240.000
44.54814 271.000
44.56808 292.000
44.58803 277.000
44.60798 278.000
44.62793 285.000
44.64787 260.000
44.66782 288.000
44.68777 278.000
44.70771 304.000
44.72766 290.000
44.74761 272.000
44.76755 308.000
44.78750 290.000
44.80745 296.000
44.82740 294.000
44.84734 305.000
44.86729 280.000
44.88724 293.000
44.90718 280.000
44.92713 247.000
44.94708 266.000
44.96702 272.000
44.98697 311.000
45.00692 329.000
45.02686 261.000
45.04681 288.000
45.06676 297.000
45.08671 303.000
45.10665 292.000
45.12660 272.000
45.14655 306.000
45.16649 275.000
45.18644 268.000
45.20639 260.000
45.22633 268.000
45.24628 290.000
45.26623 313.000
45.28618 301.000
45.30612 258.000
45.32607 290.000
45.34602 273.000
45.36596 293.000
45.38591 292.000
45.40586 285.000
45.42580 268.000
45.44575 281.000
45.46570 276.000
45.48565 280.000
45.50559 309.000
45.52554 275.000
45.54549 293.000
45.56543 257.000
45.58538 302.000
45.60533 286.000
45.62527 268.000
45.64522 281.000
45.66517 262.000
45.68511 297.000
45.70506 306.000
45.72501 286.000
45.74496 264.000
45.76490 260.000
45.78485 268.000
45.80480 261.000
45.82474 277.000
45.84469 275.000
45.86464 306.000
45.88458 300.000
45.90453 301.000
45.92448 287.000
45.94443 291.000
45.96437 294.000
45.98432 298.000
46.00427 272.000
46.02421 261.000
46.04416 292.000
46.06411 289.000
46.08405 276.000
46.10400 296.000
46.12395 269.000
46.14389 314.000
46.16384 294.000
46.18379 260.000
46.20374 298.000
46.22368 296.000
46.24363 284.000
46.26358 286.000
46.28352 265.000
46.30347 271.000
46.32342 310.000
46.34336 296.000
46.36331 294.000
46.38326 294.000
46.40321 271.000
46.42315 283.000
46.44310 264.000
46.46305 293.000
46.48299 274.000
46.50294 285.000
46.52289 268.000
46.54283 289.000
46.56278 271.000
46.58273 266.000
46.60267 300.000
46.62262 295.000
46.64257 273.000
46.66252 257.000
46.68246 281.000
46.70241 253.000
46.72236 267.000
46.74230 263.000
46.76225 306.000
46.78220 266.000
46.80214 285.000
46.82209 256.000
46.84204 288.000
46.86199 283.000
46.88193 299.000
46.90188 270.000
46.92183 281.000
46.94177 257.000
46.96172 256.000
46.98167 256.000
47.00161 271.000
47.02156 270.000
47.04151 283.000
47.06146 243.000
47.08140 274.000
47.10135 269.000
47.12130 230.000
47.14124 286.000
47.16119 275.000
47.18114 253.000
47.20108 277.000
47.22103 271.000
47.24098 266.000
47.26092 296.000
47.28087 294.000
47.30082 264.000
47.32077 257.000
47.34071 241.000
47.36066 287.000
47.38061 271.000
47.40055 285.000
47.42050 274.000
47.44045 278.000
47.46039 290.000
47.48034 269.000
47.50029 284.000
47.52024 306.000
47.54018 283.000
47.56013 274.000
47.58008 284.000
47.60002 253.000
47.61997 292.000
47.63992 313.000
47.65986 293.000
47.67981 255.000
47.69976 288.000
47.71970 301.000
47.73965 315.000
47.75960 289.000
47.77955 262.000
47.79949 299.000
47.81944 267.000
47.83939 296.000
47.85933 277.000
47.87928 285.000
47.89923 282.000
47.91917 241.000
47.93912 282.000
47.95907 267.000
47.97902 289.000
47.99896 289.000
48.01891 256.000
48.03886 295.000
48.05880 267.000
48.07875 264.000
48.09870 282.000
48.11864 310.000
48.13859 308.000
48.15854 245.000
48.17848 255.000
48.19843 270.000
48.21838 257.000
48.23833 292.000
48.25827 306.000
48.27822 298.000
48.29817 267.000
48.31811 323.000
48.33806 293.000
48.35801 288.000
48.37795 295.000
48.39790 306.000
48.41785 306.000
48.43780 297.000
48.45774 309.000
48.47769 304.000
48.49764 325.000
48.51758 348.000
48.53753 304.000
48.55748 294.000
48.57742 317.000
48.59737 346.000
48.61732 374.000
48.63726 374.000
48.65721 383.000
48.67716 367.000
48.69711 401.000
48.71705 392.000
48.73700 430.000
48.75695 453.000
48.77689 489.000
48.79684 555.000
48.81679 523.000
48.83673 548.000
48.85668 531.000
48.87663 543.000
48.89658 503.000
48.91652 505.000
48.93647 482.000
48.95642 450.000
48.97636 431.000
48.99631 447.000
49.01626 372.000
49.03620 414.000
49.05615 350.000
49.07610 327.000
49.09605 347.000
49.11599 327.000
49.13594 301.000
49.15589 343.000
49.17583 303.000
49.19578 304.000
49.21573 294.000
49.23567 299.000
49.25562 306.000
49.27557 287.000
49.29551 285.000
49.31546 323.000
49.33541 290.000
49.35536 300.000
49.37530 307.000
49.39525 263.000
49.41520 280.000
49.43514 296.000
49.45509 298.000
49.47504 267.000
49.49498 267.000
49.51493 257.000
49.53488 265.000
49.55483 263.000
49.57477 286.000
49.59472 250.000
49.61467 273.000
49.63461 269.000
49.65456 250.000
49.67451 301.000
49.69445 304.000
49.71440 276.000
49.73435 301.000
49.75429 251.000
49.77424 296.000
49.79419 265.000
49.81414 290.000
49.83408 270.000
49.85403 290.000
49.87398 277.000
49.89392 284.000
49.91387 278.000
49.93382 280.000
49.95376 272.000
49.97371 288.000
49.99366 299.000
50.01361 246.000
50.03355 275.000
50.05350 251.000
50.07345 301.000
50.09339 300.000
50.11334 249.000
50.13329 245.000
50.15323 263.000
50.17318 267.000
50.19313 279.000
50.21307 273.000
50.23302 250.000
50.25297 263.000
50.27292 245.000
50.29286 276.000
50.31281 279.000
50.33276 262.000
50.35270 255.000
50.37265 268.000
50.39260 268.000
50.41254 267.000
50.43249 281.000
50.45244 287.000
50.47239 264.000
50.49233 259.000
50.51228 266.000
50.53223 280.000
50.55217 251.000
50.57212 256.000
50.59207 248.000
50.61201 295.000
50.63196 247.000
50.65191 277.000
50.67186 284.000
50.69180 267.000
50.71175 283.000
50.73170 241.000
50.75164 237.000
50.77159 251.000
50.79154 242.000
50.81148 252.000
50.83143 246.000
50.85138 263.000
50.87132 263.000
50.89127 232.000
50.91122 292.000
50.93117 266.000
50.95111 284.000
50.97106 274.000
50.99101 268.000
51.01095 266.000
51.03090 275.000
51.05085 265.000
51.07079 257.000
51.09074 257.000
51.11069 272.000
51.13064 252.000
51.15058 273.000
51.17053 253.000
51.19048 271.000
51.21042 248.000
51.23037 251.000
51.25032 274.000
51.27026 265.000
51.29021 249.000
51.31016 245.000
51.33010 251.000
51.35005 256.000
51.37000 265.000
51.38995 266.000
51.40989 269.000
51.42984 280.000
51.44979 266.000
51.46973 284.000
51.48968 267.000
51.50963 270.000
51.52957 255.000
51.54952 267.000
51.56947 279.000
51.58942 272.000
51.60936 270.000
51.62931 266.000
51.64926 269.000
51.66920 294.000
51.68915 249.000
51.70910 264.000
51.72904 250.000
51.74899 287.000
51.76894 249.000
51.78888 245.000
51.80883 291.000
51.82878 255.000
51.84873 252.000
51.86867 246.000
51.88862 275.000
51.90857 261.000
51.92851 245.000
51.94846 269.000
51.96841 277.000
51.98835 271.000
52.00830 276.000
52.02825 274.000
52.04820 275.000
52.06814 277.000
52.08809 279.000
52.10804 270.000
52.12798 260.000
52.14793 281.000
52.16788 249.000
52.18782 264.000
52.20777 285.000
52.22772 280.000
52.24767 263.000
52.26761 266.000
52.28756 295.000
52.30751 258.000
52.32745 222.000
52.34740 231.000
52.36735 263.000
52.38729 261.000
52.40724 279.000
52.42719 259.000
52.44713 277.000
52.46708 272.000
52.48703 275.000
52.50698 265.000
52.52692 274.000
52.54687 282.000
52.56682 272.000
52.58676 244.000
52.60671 250.000
52.62666 244.000
52.64660 257.000
52.66655 268.000
52.68650 264.000
52.70645 252.000
52.72639 266.000
52.74634 260.000
52.76629 304.000
52.78623 274.000
52.80618 268.000
52.82613 290.000
52.84607 275.000
52.86602 256.000
52.88597 278.000
52.90591 266.000
52.92586 268.000
52.94581 289.000
52.96576 302.000
52.98570 276.000
53.00565 271.000
53.02560 310.000
53.04554 341.000
53.06549 267.000
53.08544 290.000
53.10538 292.000
53.12533 276.000
53.14528 272.000
53.16523 297.000
53.18517 268.000
53.20512 306.000
53.22507 282.000
53.24501 318.000
53.26496 284.000
53.28491 281.000
53.30485 341.000
53.32480 330.000
53.34475 300.000
53.36469 315.000
53.38464 315.000
53.40459 303.000
53.42454 282.000
53.44448 328.000
53.46443 307.000
53.48438 300.000
53.50432 320.000
53.52427 325.000
53.54422 306.000
53.56416 302.000
53.58411 313.000
53.60406 317.000
53.62401 336.000
53.64395 357.000
53.66390 360.000
53.68385 415.000
53.70379 400.000
53.72374 413.000
53.74369 481.000
53.76363 421.000
53.78358 431.000
53.80353 378.000
53.82348 417.000
53.84342 384.000
53.86337 404.000
53.88332 432.000
53.90326 373.000
53.92321 342.000
53.94316 343.000
53.96310 307.000
53.98305 313.000
54.00300 312.000
54.02294 298.000
54.04289 286.000
54.06284 270.000
54.08279 315.000
54.10273 289.000
54.12268 259.000
54.14263 278.000
54.16257 287.000
54.18252 265.000
54.20247 262.000
54.22241 294.000
54.24236 276.000
54.26231 282.000
54.28226 271.000
54.30220 272.000
54.32215 282.000
54.34210 341.000
54.36204 282.000
54.38199 291.000
54.40194 263.000
54.42188 270.000
54.44183 251.000
54.46178 280.000
54.48172 305.000
54.50167 259.000
54.52162 268.000
54.54157 300.000
54.56151 265.000
54.58146 288.000
54.60141 278.000
54.62135 275.000
54.64130 262.000
54.66125 257.000
54.68119 271.000
54.70114 270.000
54.72109 293.000
54.74104 287.000
54.76098 276.000
54.78093 291.000
54.80088 264.000
54.82082 265.000
54.84077 256.000
54.86072 268.000
54.88066 308.000
54.90061 279.000
54.92056 266.000
54.94050 240.000
54.96045 279.000
54.98040 276.000
55.00035 276.000
55.02029 266.000
55.04024 284.000
55.06019 263.000
55.08013 270.000
55.10008 316.000
55.12003 272.000
55.13997 269.000
55.15992 253.000
55.17987 269.000
55.19982 303.000
55.21976 263.000
55.23971 282.000
55.25966 252.000
55.27960 281.000
55.29955 240.000
55.31950 270.000
55.33944 271.000
55.35939 271.000
55.37934 270.000
55.39929 268.000
55.41923 270.000
55.43918 248.000
55.45913 217.000
55.47907 260.000
55.49902 251.000
55.51897 288.000
55.53891 250.000
55.55886 275.000
55.57881 272.000
55.59875 276.000
55.61870 280.000
55.63865 273.000
55.65860 249.000
55.67854 275.000
55.69849 285.000
55.71844 272.000
55.73838 271.000
55.75833 297.000
55.77828 274.000
55.79822 280.000
55.81817 260.000
55.83812 266.000
55.85807 286.000
55.87801 258.000
55.89796 263.000
55.91791 247.000
55.93785 263.000
55.95780 256.000
55.97775 260.000
55.99769 274.000
56.01764 266.000
56.03759 276.000
56.05753 268.000
56.07748 279.000
56.09743 297.000
56.11738 293.000
56.13732 248.000
56.15727 295.000
56.17722 235.000
56.19716 267.000
56.21711 262.000
56.23706 254.000
56.25700 266.000
56.27695 265.000
56.29690 263.000
56.31685 262.000
56.33679 255.000
56.35674 274.000
56.37669 297.000
56.39663 265.000
56.41658 275.000
56.43653 284.000
56.45647 279.000
56.47642 269.000
56.49637 270.000
56.51631 288.000
56.53626 292.000
56.55621 281.000
56.57616 252.000
56.59610 249.000
56.61605 275.000
56.63600 298.000
56.65594 284.000
56.67589 289.000
56.69584 305.000
56.71578 254.000
56.73573 262.000
56.75568 285.000
56.77563 282.000
56.79557 298.000
56.81552 258.000
56.83547 288.000
56.85541 322.000
56.87536 295.000
56.89531 313.000
56.91525 292.000
56.93520 331.000
56.95515 288.000
56.97510 300.000
56.99504 306.000
57.01499 329.000
57.03494 306.000
57.05488 332.000
57.07483 362.000
57.09478 329.000
57.11472 368.000
57.13467 354.000
57.15462 395.000
57.17456 411.000
57.19451 469.000
57.21446 510.000
57.23441 581.000
57.25435 675.000
57.27430 703.000
57.29425 737.000
57.31419 724.000
57.33414 661.000
57.35409 627.000
57.37403 595.000
57.39398 604.000
57.41393 577.000
57.43388 594.000
57.45382 561.000
57.47377 562.000
57.49372 502.000
57.51366 455.000
57.53361 429.000
57.55356 390.000
57.57350 353.000
57.59345 377.000
57.61340 348.000
57.63334 318.000
57.65329 336.000
57.67324 354.000
57.69319 291.000
57.71313 295.000
57.73308 303.000
57.75303 304.000
57.77297 319.000
57.79292 268.000
57.81287 306.000
57.83281 307.000
57.85276 299.000
57.87271 301.000
57.89266 280.000
57.91260 315.000
57.93255 318.000
57.95250 311.000
57.97244 269.000
57.99239 339.000
58.01234 337.000
58.03228 314.000
58.05223 314.000
58.07218 335.000
58.09212 315.000
58.11207 351.000
58.13202 341.000
58.15197 381.000
58.17191 340.000
58.19186 366.000
58.21181 326.000
58.23175 362.000
58.25170 363.000
58.27165 356.000
58.29159 364.000
58.31154 360.000
58.33149 303.000
58.35144 384.000
58.37138 346.000
58.39133 351.000
58.41128 314.000
58.43122 335.000
58.45117 318.000
58.47112 296.000
58.49106 292.000
58.51101 319.000
58.53096 314.000
58.55090 289.000
58.57085 314.000
58.59080 278.000
58.61075 301.000
58.63069 282.000
58.65064 280.000
58.67059 306.000
58.69053 277.000
58.71048 281.000
58.73043 283.000
58.75037 296.000
58.77032 273.000
58.79027 270.000
58.81022 274.000
58.83016 298.000
58.85011 288.000
58.87006 301.000
58.89000 296.000
58.90995 300.000
58.92990 284.000
58.94984 270.000
58.96979 280.000
58.98974 291.000
59.00969 313.000
59.02963 296.000
59.04958 323.000
59.06953 321.000
59.08947 323.000
59.10942 271.000
59.12937 286.000
59.14931 270.000
59.16926 305.000
59.18921 300.000
59.20915 298.000
59.22910 283.000
59.24905 288.000
59.26900 319.000
59.28894 290.000
59.30889 325.000
59.32884 332.000
59.34878 317.000
59.36873 320.000
59.38868 383.000
59.40862 319.000
59.42857 324.000
59.44852 337.000
59.46847 308.000
59.48841 320.000
59.50836 300.000
59.52831 311.000
59.54825 345.000
59.56820 323.000
59.58815 337.000
59.60809 300.000
59.62804 310.000
59.64799 328.000
59.66793 374.000
59.68788 340.000
59.70783 351.000
59.72778 328.000
59.74772 344.000
59.76767 322.000
59.78762 330.000
59.80756 332.000
59.82751 333.000
59.84746 336.000
59.86740 289.000
59.88735 327.000
59.90730 333.000
59.92725 308.000
59.94719 343.000
59.96714 333.000
59.98709 326.000
60.00703 301.000
60.02698 305.000
60.04693 294.000
60.06687 278.000
60.08682 320.000
60.10677 282.000
60.12671 306.000
60.14666 324.000
60.16661 301.000
60.18656 339.000
60.20650 303.000
60.22645 283.000
60.24640 319.000
60.26634 284.000
60.28629 287.000
60.30624 309.000
60.32618 274.000
60.34613 266.000
60.36608 281.000
60.38603 279.000
60.40597 273.000
60.42592 306.000
60.44587 287.000
60.46581 260.000
60.48576 330.000
60.50571 318.000
60.52565 289.000
60.54560 290.000
60.56555 299.000
60.58550 308.000
60.60544 279.000
60.62539 322.000
60.64534 292.000
60.66528 280.000
60.68523 305.000
60.70518 297.000
60.72512 288.000
60.74507 319.000
60.76502 311.000
60.78496 303.000
60.80491 297.000
60.82486 308.000
60.84481 299.000
60.86475 307.000
60.88470 318.000
60.90465 312.000
60.92459 293.000
60.94454 305.000
60.96449 317.000
60.98443 282.000
61.00438 308.000
61.02433 353.000
61.04428 300.000
61.06422 317.000
61.08417 340.000
61.10412 346.000
61.12406 383.000
61.14401 360.000
61.16396 344.000
61.18390 337.000
61.20385 366.000
61.22380 355.000
61.24374 332.000
61.26369 366.000
61.28364 393.000
61.30359 434.000
61.32353 354.000
61.34348 416.000
61.36343 447.000
61.38337 429.000
61.40332 489.000
61.42327 510.000
61.44321 523.000
61.46316 582.000
61.48311 517.000
61.50306 566.000
61.52300 579.000
61.54295 600.000
61.56290 611.000
61.58284 590.000
61.60279 537.000
61.62274 545.000
61.64268 550.000
61.66263 532.000
61.68258 508.000
61.70252 502.000
61.72247 493.000
61.74242 488.000
61.76237 475.000
61.78231 464.000
61.80226 430.000
61.82221 446.000
61.84215 445.000
61.86210 409.000
61.88205 407.000
61.90199 395.000
61.92194 403.000
61.94189 407.000
61.96184 413.000
61.98178 385.000
62.00173 419.000
62.02168 424.000
62.04162 411.000
62.06157 422.000
62.08152 394.000
62.10146 408.000
62.12141 410.000
62.14136 427.000
62.16131 389.000
62.18125 408.000
62.20120 412.000
62.22115 399.000
62.24109 459.000
62.26104 433.000
62.28099 437.000
62.30093 457.000
62.32088 472.000
62.34083 514.000
62.36077 463.000
62.38072 463.000
62.40067 506.000
62.42062 474.000
62.44056 554.000
62.46051 475.000
62.48046 483.000
62.50040 531.000
62.52035 523.000
62.54030 497.000
62.56024 508.000
62.58019 579.000
62.60014 509.000
62.62009 606.000
62.64003 554.000
62.65998 550.000
62.67993 570.000
62.69987 566.000
62.71982 510.000
62.73977 537.000
62.75971 557.000
62.77966 556.000
62.79961 684.000
62.81955 623.000
62.83950 726.000
62.85945 741.000
62.87940 845.000
62.89934 917.000
62.91929 924.000
62.93924 939.000
62.95918 904.000
62.97913 798.000
62.99908 776.000
63.01902 712.000
63.03897 710.000
63.05892 725.000
63.07887 712.000
63.09881 753.000
63.11876 673.000
63.13871 588.000
63.15865 529.000
63.17860 459.000
63.19855 475.000
63.21849 424.000
63.23844 415.000
63.25839 403.000
63.27833 369.000
63.29828 352.000
63.31823 318.000
63.33818 301.000
63.35812 312.000
63.37807 329.000
63.39802 307.000
63.41796 288.000
63.43791 313.000
63.45786 322.000
63.47780 314.000
63.49775 283.000
63.51770 280.000
63.53765 285.000
63.55759 289.000
63.57754 291.000
63.59749 300.000
63.61743 281.000
63.63738 298.000
63.65733 309.000
63.67727 315.000
63.69722 261.000
63.71717 318.000
63.73712 284.000
63.75706 308.000
63.77701 257.000
63.79696 302.000
63.81690 328.000
63.83685 299.000
63.85680 293.000
63.87674 314.000
63.89669 289.000
63.91664 288.000
63.93658 294.000
63.95653 267.000
63.97648 285.000
63.99643 306.000
64.01637 304.000
64.03632 284.000
64.05627 275.000
64.07621 291.000
64.09616 262.000
64.11611 285.000
64.13605 268.000
64.15600 273.000
64.17595 268.000
64.19590 290.000
64.21584 269.000
64.23579 313.000
64.25574 265.000
64.27568 303.000
64.29563 284.000
64.31558 280.000
64.33552 283.000
64.35547 311.000
64.37542 299.000
64.39536 295.000
64.41531 280.000
64.43526 226.000
64.45521 284.000
64.47515 285.000
64.49510 282.000
64.51505 296.000
64.53499 290.000
64.55494 295.000
64.57489 288.000
64.59483 277.000
64.61478 261.000
64.63473 254.000
64.65468 305.000
64.67462 287.000
64.69457 289.000
64.71452 304.000
64.73446 298.000
64.75441 279.000
64.77436 286.000
64.79430 291.000
64.81425 259.000
64.83420 244.000
64.85414 284.000
64.87409 305.000
64.89404 299.000
64.91399 299.000
64.93393 273.000
64.95388 281.000
64.97383 294.000
64.99377 270.000
65.01372 295.000
65.03367 268.000
65.05361 281.000
65.07356 299.000
65.09351 288.000
65.11346 297.000
65.13340 279.000
65.15335 278.000
65.17330 269.000
65.19324 302.000
65.21319 305.000
65.23314 298.000
65.25308 333.000
65.27303 293.000
65.29298 306.000
65.31293 306.000
65.33287 313.000
65.35282 308.000
65.37277 309.000
65.39271 291.000
65.41266 296.000
65.43261 295.000
65.45255 305.000
65.47250 339.000
65.49245 315.000
65.51239 317.000
65.53234 318.000
65.55229 329.000
65.57224 311.000
65.59218 367.000
65.61213 348.000
65.63208 368.000
65.65202 322.000
65.67197 306.000
65.69192 330.000
65.71186 349.000
65.73181 323.000
65.75176 336.000
65.77171 355.000
65.79165 298.000
65.81160 342.000
65.83155 337.000
65.85149 347.000
65.87144 325.000
65.89139 352.000
65.91133 335.000
65.93128 375.000
65.95123 356.000
65.97117 364.000
65.99112 330.000
66.01107 333.000
66.03102 381.000
66.05096 381.000
66.07091 344.000
66.09086 353.000
66.11080 340.000
66.13075 353.000
66.15070 341.000
66.17064 340.000
66.19059 385.000
66.21054 367.000
66.23049 366.000
66.25043 371.000
66.27038 372.000
66.29033 368.000
66.31027 396.000
66.33022 380.000
66.35017 395.000
66.37011 388.000
66.39006 360.000
66.41001 391.000
66.42995 388.000
66.44990 345.000
66.46985 339.000
66.48980 376.000
66.50974 349.000
66.52969 365.000
66.54964 323.000
66.56958 326.000
66.58953 341.000
66.60948 343.000
66.62942 258.000
66.64937 301.000
66.66932 296.000
66.68927 276.000
66.70921 301.000
66.72916 278.000
66.74911 294.000
66.76905 300.000
66.78900 277.000
66.80895 311.000
66.82889 302.000
66.84884 316.000
66.86879 297.000
66.88874 249.000
66.90868 260.000
66.92863 298.000
66.94858 274.000
66.96852 261.000
66.98847 272.000
67.00842 282.000
67.02836 301.000
67.04831 255.000
67.06826 268.000
67.08820 310.000
67.10815 308.000
67.12810 279.000
67.14805 286.000
67.16799 288.000
67.18794 281.000
67.20789 304.000
67.22783 272.000
67.24778 317.000
67.26773 264.000
67.28767 264.000
67.30762 280.000
67.32757 314.000
67.34752 254.000
67.36746 308.000
67.38741 285.000
67.40736 280.000
67.42730 284.000
67.44725 288.000
67.46720 300.000
67.48714 298.000
67.50709 287.000
67.52704 300.000
67.54698 271.000
67.56693 296.000
67.58688 278.000
67.60683 325.000
67.62677 328.000
67.64672 266.000
67.66667 302.000
67.68661 331.000
67.70656 349.000
67.72651 326.000
67.74645 346.000
67.76640 326.000
67.78635 351.000
67.80630 341.000
67.82624 305.000
67.84619 339.000
67.86614 376.000
67.88608 363.000
67.90603 340.000
67.92598 369.000
67.94592 321.000
67.96587 376.000
67.98582 381.000
68.00576 392.000
68.02571 357.000
68.04566 366.000
68.06561 379.000
68.08555 321.000
68.10550 342.000
68.12545 324.000
68.14539 349.000
68.16534 362.000
68.18529 330.000
68.20523 342.000
68.22518 328.000
68.24513 364.000
68.26508 346.000
68.28502 302.000
68.30497 274.000
68.32492 299.000
68.34486 296.000
68.36481 299.000
68.38476 324.000
68.40470 276.000
68.42465 313.000
68.44460 276.000
68.46455 318.000
68.48449 290.000
68.50444 264.000
68.52439 290.000
68.54433 289.000
68.56428 297.000
68.58423 295.000
68.60417 279.000
68.62412 267.000
68.64407 263.000
68.66401 268.000
68.68396 281.000
68.70391 295.000
68.72386 291.000
68.74380 252.000
68.76375 286.000
68.78370 295.000
68.80364 248.000
68.82359 267.000
68.84354 273.000
68.86348 275.000
68.88343 262.000
68.90338 272.000
68.92333 272.000
68.94327 322.000
68.96322 285.000
68.98317 279.000
69.00311 268.000
69.02306 271.000
69.04301 266.000
69.06295 283.000
69.08290 271.000
69.10285 265.000
69.12279 293.000
69.14274 281.000
69.16269 283.000
69.18264 263.000
69.20258 305.000
69.22253 247.000
69.24248 256.000
69.26242 269.000
69.28237 292.000
69.30232 300.000
69.32226 269.000
69.34221 276.000
69.36216 269.000
69.38211 264.000
69.40205 277.000
69.42200 239.000
69.44195 262.000
69.46189 273.000
69.48184 259.000
69.50179 254.000
69.52173 262.000
69.54168 263.000
69.56163 292.000
69.58157 262.000
69.60152 253.000
69.62147 281.000
69.64142 248.000
69.66136 258.000
69.68131 253.000
69.70126 255.000
69.72120 276.000
69.74115 264.000
69.76110 282.000
69.78104 282.000
69.80099 288.000
69.82094 264.000
69.84089 267.000
69.86083 260.000
69.88078 258.000
69.90073 263.000
69.92067 275.000
69.94062 306.000
69.96057 281.000
69.98051 291.000
70.00046 282.000
70.02041 272.000
70.04035 296.000
70.06030 275.000
70.08025 268.000
70.10020 265.000
70.12014 283.000
70.14009 235.000
70.16004 303.000
70.17998 259.000
70.19993 296.000
70.21988 249.000
70.23982 259.000
70.25977 299.000
70.27972 270.000
70.29967 266.000
70.31961 297.000
70.33956 273.000
70.35951 265.000
70.37945 254.000
70.39940 274.000
70.41935 262.000
70.43929 283.000
70.45924 233.000
70.47919 291.000
70.49914 254.000
70.51908 290.000
70.53903 262.000
70.55898 295.000
70.57892 274.000
70.59887 275.000
70.61882 286.000
70.63876 268.000
70.65871 279.000
70.67866 291.000
70.69860 257.000
70.71855 238.000
70.73850 281.000
70.75845 300.000
70.77839 266.000
70.79834 310.000
70.81829 305.000
70.83823 280.000
70.85818 295.000
70.87813 303.000
70.89807 291.000
70.91802 268.000
70.93797 306.000
70.95792 273.000
70.97786 273.000
70.99781 269.000
71.01776 294.000
71.03770 283.000
71.05765 254.000
71.07760 267.000
71.09754 295.000
71.11749 280.000
71.13744 297.000
71.15738 272.000
71.17733 318.000
71.19728 309.000
71.21723 292.000
71.23717 310.000
71.25712 288.000
71.27707 323.000
71.29701 293.000
71.31696 304.000
71.33691 310.000
71.35685 330.000
71.37680 354.000
71.39675 296.000
71.41670 293.000
71.43664 324.000
71.45659 364.000
71.47654 296.000
71.49648 289.000
71.51643 349.000
71.53638 298.000
71.55632 312.000
71.57627 315.000
71.59622 288.000
71.61616 317.000
71.63611 299.000
71.65606 308.000
71.67601 260.000
71.69595 303.000
71.71590 314.000
71.73585 277.000
71.75579 252.000
71.77574 320.000
71.79569 294.000
71.81563 286.000
71.83558 273.000
71.85553 295.000
71.87548 301.000
71.89542 263.000
71.91537 269.000
71.93532 255.000
71.95526 309.000
71.97521 314.000
71.99516 294.000
72.01510 274.000
72.03505 295.000
72.05500 269.000
72.07495 290.000
72.09489 289.000
72.11484 290.000
72.13479 313.000
72.15473 331.000
72.17468 308.000
72.19463 275.000
72.21457 310.000
72.23452 297.000
72.25447 328.000
72.27441 295.000
72.29436 301.000
72.31431 296.000
72.33426 340.000
72.35420 371.000
72.37415 318.000
72.39410 337.000
72.41404 315.000
72.43399 323.000
72.45394 307.000
72.47388 337.000
72.49383 302.000
72.51378 306.000
72.53373 310.000
72.55367 322.000
72.57362 319.000
72.59357 329.000
72.61351 339.000
72.63346 314.000
72.65341 302.000
72.67335 341.000
72.69330 324.000
72.71325 329.000
72.73319 326.000
72.75314 288.000
72.77309 311.000
72.79304 308.000
72.81298 283.000
72.83293 329.000
72.85288 326.000
72.87282 321.000
72.89277 310.000
72.91272 298.000
72.93266 304.000
72.95261 305.000
72.97256 298.000
72.99251 283.000
73.01245 309.000
73.03240 287.000
73.05235 281.000
73.07229 262.000
73.09224 297.000
73.11219 287.000
73.13213 296.000
73.15208 305.000
73.17203 263.000
73.19197 301.000
73.21192 297.000
73.23187 283.000
73.25182 307.000
73.27176 312.000
73.29171 297.000
73.31166 327.000
73.33160 275.000
73.35155 303.000
73.37150 275.000
73.39144 271.000
73.41139 295.000
73.43134 276.000
73.45129 305.000
73.47123 290.000
73.49118 301.000
73.51113 312.000
73.53107 312.000
73.55102 298.000
73.57097 290.000
73.59091 322.000
73.61086 298.000
73.63081 291.000
73.65076 281.000
73.67070 275.000
73.69065 295.000
73.71060 288.000
73.73054 295.000
73.75049 320.000
73.77044 289.000
73.79038 305.000
73.81033 302.000
73.83028 290.000
73.85022 296.000
73.87017 305.000
73.89012 278.000
73.91007 289.000
73.93001 272.000
73.94996 295.000
73.96991 308.000
73.98985 299.000
74.00980 295.000
74.02975 284.000
74.04969 278.000
74.06964 319.000
74.08959 282.000
74.10954 316.000
74.12948 305.000
74.14943 348.000
74.16938 291.000
74.18932 313.000
74.20927 305.000
74.22922 302.000
74.24916 343.000
74.26911 299.000
74.28906 322.000
74.30900 311.000
74.32895 336.000
74.34890 357.000
74.36885 325.000
74.38879 386.000
74.40874 367.000
74.42869 416.000
74.44863 395.000
74.46858 398.000
74.48853 424.000
74.50847 417.000
74.52842 429.000
74.54837 378.000
74.56832 364.000
74.58826 368.000
74.60821 380.000
74.62816 395.000
74.64810 397.000
74.66805 436.000
74.68800 436.000
74.70794 389.000
74.72789 366.000
74.74784 360.000
74.76778 382.000
74.78773 379.000
74.80768 374.000
74.82763 332.000
74.84757 396.000
74.86752 361.000
74.88747 373.000
74.90741 372.000
74.92736 367.000
74.94731 379.000
74.96725 366.000
74.98720 381.000
75.00715 422.000
75.02710 345.000
75.04704 414.000
75.06699 392.000
75.08694 385.000
75.10688 384.000
75.12683 371.000
75.14678 377.000
75.16672 374.000
75.18667 416.000
75.20662 393.000
75.22657 366.000
75.24651 373.000
75.26646 359.000
75.28641 370.000
75.30635 361.000
75.32630 354.000
75.34625 377.000
75.36619 400.000
75.38614 334.000
75.40609 351.000
75.42603 398.000
75.44598 407.000
75.46593 317.000
75.48588 366.000
75.50582 329.000
75.52577 316.000
75.54572 362.000
75.56566 355.000
75.58561 333.000
75.60556 353.000
75.62550 327.000
75.64545 283.000
75.66540 315.000
75.68535 335.000
75.70529 298.000
75.72524 309.000
75.74519 315.000
75.76513 267.000
75.78508 286.000
75.80503 279.000
75.82497 306.000
75.84492 277.000
75.86487 289.000
75.88481 310.000
75.90476 285.000
75.92471 277.000
75.94466 249.000
75.96460 281.000
75.98455 284.000
76.00450 260.000
76.02444 280.000
76.04439 254.000
76.06434 266.000
76.08428 275.000
76.10423 304.000
76.12418 292.000
76.14413 280.000
76.16407 283.000
76.18402 279.000
76.20397 325.000
76.22391 262.000
76.24386 283.000
76.26381 287.000
76.28375 270.000
76.30370 256.000
76.32365 276.000
76.34359 256.000
76.36354 248.000
76.38349 264.000
76.40344 282.000
76.42338 273.000
76.44333 299.000
76.46328 265.000
76.48322 260.000
76.50317 274.000
76.52312 283.000
76.54306 289.000
76.56301 276.000
76.58296 281.000
76.60291 314.000
76.62285 297.000
76.64280 307.000
76.66275 303.000
76.68269 269.000
76.70264 261.000
76.72259 281.000
76.74253 282.000
76.76248 277.000
76.78243 300.000
76.80238 289.000
76.82232 290.000
76.84227 293.000
76.86222 285.000
76.88216 286.000
76.90211 282.000
76.92206 288.000
76.94200 287.000
76.96195 289.000
76.98190 275.000
77.00184 309.000
77.02179 318.000
77.04174 314.000
77.06169 298.000
77.08163 315.000
77.10158 310.000
77.12153 288.000
77.14147 284.000
77.16142 275.000
77.18137 303.000
77.20131 311.000
77.22126 278.000
77.24121 312.000
77.26116 313.000
77.28110 321.000
77.30105 282.000
77.32100 307.000
77.34094 304.000
77.36089 315.000
77.38084 306.000
77.40078 273.000
77.42073 283.000
77.44068 290.000
77.46062 281.000
77.48057 292.000
77.50052 280.000
77.52047 282.000
77.54041 260.000
77.56036 278.000
77.58031 280.000
77.60025 311.000
77.62020 301.000
77.64015 298.000
77.66009 285.000
77.68004 302.000
77.69999 286.000
77.71994 276.000
77.73988 248.000
77.75983 296.000
77.77978 273.000
77.79972 279.000
77.81967 246.000
77.83962 273.000
77.85956 306.000
77.87951 286.000
77.89946 307.000
77.91940 238.000
77.93935 300.000
77.95930 284.000
77.97925 288.000
77.99919 292.000
78.01914 260.000
78.03909 267.000
78.05903 286.000
78.07898 292.000
78.09893 280.000
78.11887 267.000
78.13882 292.000
78.15877 276.000
78.17872 281.000
78.19866 289.000
78.21861 296.000
78.23856 298.000
78.25850 285.000
78.27845 304.000
78.29840 295.000
78.31834 288.000
78.33829 296.000
78.35824 298.000
78.37819 289.000
78.39813 273.000
78.41808 305.000
78.43803 285.000
78.45797 296.000
78.47792 301.000
78.49787 340.000
78.51781 278.000
78.53776 299.000
78.55771 287.000
78.57765 277.000
78.59760 289.000
78.61755 283.000
78.63750 330.000
78.65744 317.000
78.67739 306.000
78.69734 283.000
78.71728 300.000
78.73723 314.000
78.75718 334.000
78.77712 304.000
78.79707 305.000
78.81702 324.000
78.83697 308.000
78.85691 274.000
78.87686 309.000
78.89681 316.000
78.91675 303.000
78.93670 291.000
78.95665 294.000
78.97659 312.000
78.99654 323.000
79.01649 319.000
79.03643 305.000
79.05638 333.000
79.07633 313.000
79.09628 332.000
79.11622 330.000
79.13617 332.000
79.15612 300.000
79.17606 299.000
79.19601 324.000
79.21596 279.000
79.23590 307.000
79.25585 295.000
79.27580 292.000
79.29575 305.000
79.31569 288.000
79.33564 312.000
79.35559 308.000
79.37553 317.000
79.39548 327.000
79.41543 288.000
79.43537 318.000
79.45532 304.000
79.47527 306.000
79.49521 292.000
79.51516 268.000
79.53511 318.000
79.55506 289.000
79.57500 270.000
79.59495 264.000
79.61490 281.000
79.63484 304.000
79.65479 284.000
79.67474 304.000
79.69468 282.000
79.71463 294.000
79.73458 277.000
79.75453 280.000
79.77447 277.000
79.79442 296.000
79.81437 277.000
79.83431 280.000
79.85426 241.000
79.87421 287.000
79.89415 279.000
79.91410 299.000
79.93405 293.000
79.95399 313.000
79.97394 294.000
79.99389 256.000
80.01384 268.000
80.03378 265.000
80.05373 285.000
80.07368 281.000
80.09362 256.000
80.11357 285.000
80.13352 260.000
80.15346 279.000
80.17341 319.000
80.19336 274.000
80.21331 285.000
80.23325 268.000
80.25320 267.000
80.27315 284.000
80.29309 284.000
80.31304 248.000
80.33299 288.000
80.35293 269.000
80.37288 297.000
80.39283 291.000
80.41278 290.000
80.43272 285.000
80.45267 309.000
80.47262 271.000
80.49256 275.000
80.51251 263.000
80.53246 316.000
80.55240 290.000
80.57235 284.000
80.59230 255.000
80.61224 242.000
80.63219 280.000
80.65214 295.000
80.67209 258.000
80.69203 254.000
80.71198 286.000
80.73193 285.000
80.75187 289.000
80.77182 274.000
80.79177 259.000
80.81171 256.000
80.83166 287.000
80.85161 273.000
80.87156 278.000
80.89150 255.000
80.91145 293.000
80.93140 251.000
80.95134 296.000
80.97129 246.000
80.99124 275.000
81.01118 278.000
81.03113 254.000
81.05108 270.000
81.07102 274.000
81.09097 264.000
81.11092 268.000
81.13087 264.000
81.15081 318.000
81.17076 246.000
81.19071 244.000
81.21065 264.000
81.23060 264.000
81.25055 264.000
81.27049 259.000
81.29044 262.000
81.31039 283.000
81.33034 278.000
81.35028 222.000
81.37023 266.000
81.39018 285.000
81.41012 285.000
81.43007 270.000
81.45002 238.000
81.46996 247.000
81.48991 245.000
81.50986 253.000
81.52980 250.000
81.54975 297.000
81.56970 235.000
81.58965 275.000
81.60959 290.000
81.62954 264.000
81.64949 302.000
81.66943 294.000
81.68938 257.000
81.70933 272.000
81.72927 240.000
81.74922 282.000
81.76917 257.000
81.78912 264.000
81.80906 268.000
81.82901 255.000
81.84896 267.000
81.86890 279.000
81.88885 258.000
81.90880 239.000
81.92874 292.000
81.94869 293.000
81.96864 273.000
81.98859 277.000
82.00853 239.000
82.02848 269.000
82.04843 269.000
82.06837 273.000
82.08832 258.000
82.10827 295.000
82.12821 294.000
82.14816 254.000
82.16811 291.000
82.18805 259.000
82.20800 304.000
82.22795 231.000
82.24790 284.000
82.26784 286.000
82.28779 317.000
82.30774 260.000
82.32768 260.000
82.34763 289.000
82.36758 291.000
82.38752 262.000
82.40747 313.000
82.42742 301.000
82.44737 293.000
82.46731 302.000
82.48726 322.000
82.50721 305.000
82.52715 322.000
82.54710 282.000
82.56705 336.000
82.58699 317.000
82.60694 313.000
82.62689 312.000
82.64683 290.000
82.66678 294.000
82.68673 296.000
82.70668 301.000
82.72662 304.000
82.74657 320.000
82.76652 313.000
82.78646 315.000
82.80641 285.000
82.82636 318.000
82.84630 297.000
82.86625 305.000
82.88620 281.000
82.90615 310.000
82.92609 294.000
82.94604 283.000
82.96599 297.000
82.98593 295.000
83.00588 294.000
83.02583 281.000
83.04577 264.000
83.06572 288.000
83.08567 278.000
83.10561 288.000
83.12556 275.000
83.14551 284.000
83.16546 323.000
83.18540 307.000
83.20535 291.000
83.22530 280.000
83.24524 283.000
83.26519 285.000
83.28514 272.000
83.30508 268.000
83.32503 279.000
83.34498 291.000
83.36493 265.000
83.38487 321.000
83.40482 262.000
83.42477 271.000
83.44471 287.000
83.46466 298.000
83.48461 293.000
83.50455 326.000
83.52450 284.000
83.54445 281.000
83.56440 310.000
83.58434 276.000
83.60429 293.000
83.62424 306.000
83.64418 256.000
83.66413 274.000
83.68408 282.000
83.70402 279.000
83.72397 293.000
83.74392 267.000
83.76386 295.000
83.78381 266.000
83.80376 274.000
83.82371 275.000
83.84365 301.000
83.86360 289.000
83.88355 266.000
83.90349 246.000
83.92344 291.000
83.94339 290.000
83.96333 286.000
83.98328 247.000
84.00323 275.000
84.02318 293.000
84.04312 269.000
84.06307 271.000
84.08302 254.000
84.10296 253.000
84.12291 289.000
84.14286 279.000
84.16280 255.000
84.18275 262.000
84.20270 300.000
84.22264 271.000
84.24259 283.000
84.26254 254.000
84.28249 226.000
84.30243 274.000
84.32238 279.000
84.34233 264.000
84.36227 259.000
84.38222 269.000
84.40217 266.000
84.42211 277.000
84.44206 256.000
84.46201 277.000
84.48196 265.000
84.50190 256.000
84.52185 286.000
84.54180 273.000
84.56174 296.000
84.58169 274.000
84.60164 271.000
84.62158 280.000
84.64153 296.000
84.66148 280.000
84.68142 263.000
84.70137 241.000
84.72132 267.000
84.74127 260.000
84.76121 266.000
84.78116 230.000
84.80111 273.000
84.82105 256.000
84.84100 264.000
84.86095 241.000
84.88089 241.000
84.90084 291.000
84.92079 231.000
84.94074 264.000
84.96068 291.000
84.98063 246.000
85.00058 269.000
85.02052 271.000
85.04047 281.000
85.06042 245.000
85.08036 250.000
85.10031 266.000
85.12026 274.000
85.14021 246.000
85.16015 262.000
85.18010 265.000
85.20005 260.000
85.21999 256.000
85.23994 257.000
85.25989 251.000
85.27983 287.000
85.29978 276.000
85.31973 280.000
85.33967 259.000
85.35962 258.000
85.37957 274.000
85.39952 223.000
85.41946 248.000
85.43941 271.000
85.45936 268.000
85.47930 279.000
85.49925 274.000
85.51920 250.000
85.53914 246.000
85.55909 269.000
85.57904 262.000
85.59899 265.000
85.61893 262.000
85.63888 257.000
85.65883 254.000
85.67877 258.000
85.69872 264.000
85.71867 291.000
85.73861 267.000
85.75856 284.000
85.77851 251.000
85.79845 263.000
85.81840 282.000
85.83835 261.000
85.85830 265.000
85.87824 267.000
85.89819 281.000
85.91814 246.000
85.93808 242.000
85.95803 278.000
85.97798 292.000
85.99792 251.000
86.01787 260.000
86.03782 273.000
86.05777 267.000
86.07771 293.000
86.09766 279.000
86.11761 245.000
86.13755 294.000
86.15750 267.000
86.17745 255.000
86.19739 298.000
86.21734 248.000
86.23729 259.000
86.25723 265.000
86.27718 265.000
86.29713 271.000
86.31708 296.000
86.33702 300.000
86.35697 270.000
86.37692 243.000
86.39686 280.000
86.41681 265.000
86.43676 258.000
86.45670 271.000
86.47665 294.000
86.49660 262.000
86.51655 249.000
86.53649 292.000
86.55644 259.000
86.57639 268.000
86.59633 260.000
86.61628 254.000
86.63623 250.000
86.65617 248.000
86.67612 271.000
86.69607 277.000
86.71602 255.000
86.73596 303.000
86.75591 301.000
86.77586 292.000
86.79580 294.000
86.81575 288.000
86.83570 265.000
86.85564 293.000
86.87559 285.000
86.89554 252.000
86.91548 267.000
86.93543 278.000
86.95538 282.000
86.97533 280.000
86.99527 305.000
87.01522 300.000
87.03517 283.000
87.05511 288.000
87.07506 297.000
87.09501 302.000
87.11495 314.000
87.13490 252.000
87.15485 260.000
87.17480 278.000
87.19474 286.000
87.21469 274.000
87.23464 268.000
87.25458 289.000
87.27453 323.000
87.29448 314.000
87.31442 292.000
87.33437 314.000
87.35432 313.000
87.37426 293.000
87.39421 307.000
87.41416 313.000
87.43411 293.000
87.45405 312.000
87.47400 345.000
87.49395 268.000
87.51389 295.000
87.53384 302.000
87.55379 297.000
87.57373 295.000
87.59368 298.000
87.61363 294.000
87.63358 293.000
87.65352 311.000
87.67347 298.000
87.69342 262.000
87.71336 276.000
87.73331 263.000
87.75326 284.000
87.77320 229.000
87.79315 260.000
87.81310 275.000
87.83304 275.000
87.85299 255.000
87.87294 273.000
87.89289 286.000
87.91283 266.000
87.93278 264.000
87.95273 271.000
87.97267 286.000
87.99262 270.000
88.01257 268.000
88.03251 271.000
88.05246 292.000
88.07241 282.000
88.09236 270.000
88.11230 259.000
88.13225 276.000
88.15220 272.000
88.17214 241.000
88.19209 248.000
88.21204 227.000
88.23198 262.000
88.25193 279.000
88.27188 265.000
88.29183 255.000
88.31177 270.000
88.33172 270.000
88.35167 260.000
88.37161 249.000
88.39156 252.000
88.41151 256.000
88.43145 254.000
88.45140 294.000
88.47135 284.000
88.49129 284.000
88.51124 236.000
88.53119 238.000
88.55114 271.000
88.57108 283.000
88.59103 266.000
88.61098 262.000
88.63092 283.000
88.65087 261.000
88.67082 266.000
88.69076 262.000
88.71071 235.000
88.73066 284.000
88.75061 261.000
88.77055 269.000
88.79050 286.000
88.81045 293.000
88.83039 289.000
88.85034 255.000
88.87029 272.000
88.89023 258.000
88.91018 259.000
88.93013 289.000
88.95007 276.000
88.97002 269.000
88.98997 268.000
89.00992 277.000
89.02986 271.000
89.04981 274.000
89.06976 282.000
89.08970 285.000
89.10965 269.000
89.12960 269.000
89.14954 268.000
89.16949 249.000
89.18944 282.000
89.20939 265.000
89.22933 284.000
89.24928 288.000
89.26923 249.000
89.28917 254.000
89.30912 289.000
89.32907 249.000
89.34901 302.000
89.36896 313.000
89.38891 295.000
89.40885 269.000
89.42880 272.000
89.44875 300.000
89.46870 288.000
89.48864 298.000
89.50859 318.000
89.52854 289.000
89.54848 281.000
89.56843 304.000
89.58838 294.000
89.60832 306.000
89.62827 279.000
89.64822 294.000
89.66817 277.000
89.68811 303.000
89.70806 268.000
89.72801 315.000
89.74795 274.000
89.76790 264.000
89.78785 326.000
89.80779 281.000
89.82774 284.000
89.84769 282.000
89.86764 276.000
89.88758 312.000
89.90753 310.000
89.92748 302.000
89.94742 301.000
89.96737 268.000
89.98732 316.000
90.00726 330.000
