10.00000 229.000
10.01995 224.000
10.03989 200.000
10.05984 256.000
10.07979 226.000
10.09973 232.000
10.11968 224.000
10.13963 212.000
10.15958 222.000
10.17952 205.000
10.19947 191.000
10.21942 190.000
10.23936 208.000
10.25931 220.000
10.27926 200.000
10.29920 229.000
10.31915 214.000
10.33910 195.000
10.35905 219.000
10.37899 248.000
10.39894 207.000
10.41889 208.000
10.43883 207.000
10.45878 200.000
10.47873 236.000
10.49867 203.000
10.51862 197.000
10.53857 262.000
10.55851 204.000
10.57846 214.000
10.59841 228.000
10.61836 212.000
10.63830 223.000
10.65825 197.000
10.67820 245.000
10.69814 214.000
10.71809 200.000
10.73804 221.000
10.75798 203.000
10.77793 244.000
10.79788 225.000
10.81783 219.000
10.83777 231.000
10.85772 213.000
10.87767 220.000
10.89761 223.000
10.91756 223.000
10.93751 232.000
10.95745 216.000
10.97740 257.000
10.99735 248.000
11.01730 240.000
11.03724 247.000
11.05719 242.000
11.07714 220.000
11.09708 223.000
11.11703 253.000
11.13698 209.000
11.15692 225.000
11.17687 225.000
11.19682 205.000
11.21676 223.000
11.23671 249.000
11.25666 227.000
11.27661 217.000
11.29655 223.000
11.31650 207.000
11.33645 214.000
11.35639 209.000
11.37634 230.000
11.39629 233.000
11.41623 263.000
11.43618 211.000
11.45613 258.000
11.47608 219.000
11.49602 182.000
11.51597 249.000
11.53592 233.000
11.55586 229.000
11.57581 231.000
11.59576 219.000
11.61570 218.000
11.63565 238.000
11.65560 225.000
11.67554 239.000
11.69549 213.000
11.71544 214.000
11.73539 219.000
11.75533 258.000
11.77528 232.000
11.79523 225.000
11.81517 242.000
11.83512 225.000
11.85507 240.000
11.87501 234.000
11.89496 230.000
11.91491 227.000
11.93486 240.000
11.95480 226.000
11.97475 215.000
11.99470 205.000
12.01464 201.000
12.03459 241.000
12.05454 219.000
12.07448 200.000
12.09443 205.000
12.11438 224.000
12.13432 230.000
12.15427 241.000
12.17422 240.000
12.19417 225.000
12.21411 205.000
12.23406 227.000
12.25401 238.000
12.27395 225.000
12.29390 203.000
12.31385 222.000
12.33379 221.000
12.35374 210.000
12.37369 259.000
12.39364 215.000
12.41358 197.000
12.43353 225.000
12.45348 221.000
12.47342 245.000
12.49337 242.000
12.51332 212.000
12.53326 240.000
12.55321 229.000
12.57316 241.000
12.59311 241.000
12.61305 244.000
12.63300 218.000
12.65295 249.000
12.67289 248.000
12.69284 235.000
12.71279 232.000
12.73273 227.000
12.75268 231.000
12.77263 261.000
12.79257 247.000
12.81252 224.000
12.83247 218.000
12.85242 271.000
12.87236 218.000
12.89231 223.000
12.91226 240.000
12.93220 245.000
12.95215 229.000
12.97210 243.000
12.99204 233.000
13.01199 238.000
13.03194 221.000
13.05189 225.000
13.07183 249.000
13.09178 236.000
13.11173 213.000
13.13167 247.000
13.15162 230.000
13.17157 234.000
13.19151 237.000
13.21146 226.000
13.23141 217.000
13.25135 227.000
13.27130 238.000
13.29125 219.000
13.31120 223.000
13.33114 231.000
13.35109 230.000
13.37104 212.000
13.39098 240.000
13.41093 213.000
13.43088 256.000
13.45082 224.000
13.47077 258.000
13.49072 239.000
13.51067 222.000
13.53061 240.000
13.55056 257.000
13.57051 240.000
13.59045 237.000
13.61040 217.000
13.63035 229.000
13.65029 218.000
13.67024 236.000
13.69019 233.000
13.71013 207.000
13.73008 229.000
13.75003 228.000
13.76998 250.000
13.78992 220.000
13.80987 245.000
13.82982 232.000
13.84976 210.000
13.86971 215.000
13.88966 229.000
13.90960 232.000
13.92955 236.000
13.94950 236.000
13.96945 238.000
13.98939 221.000
14.00934 208.000
14.02929 214.000
14.04923 234.000
14.06918 224.000
14.08913 238.000
14.10907 233.000
14.12902 244.000
14.14897 216.000
14.16892 241.000
14.18886 255.000
14.20881 208.000
14.22876 229.000
14.24870 240.000
14.26865 224.000
14.28860 230.000
14.30854 246.000
14.32849 243.000
14.34844 256.000
14.36838 242.000
14.38833 264.000
14.40828 258.000
14.42823 237.000
14.44817 228.000
14.46812 237.000
14.48807 237.000
14.50801 260.000
14.52796 249.000
14.54791 234.000
14.56785 247.000
14.58780 231.000
14.60775 251.000
14.62770 262.000
14.64764 233.000
14.66759 242.000
14.68754 207.000
14.70748 243.000
14.72743 233.000
14.74738 239.000
14.76732 222.000
14.78727 233.000
14.80722 222.000
14.82716 250.000
14.84711 225.000
14.86706 232.000
14.88701 239.000
14.90695 229.000
14.92690 230.000
14.94685 223.000
14.96679 242.000
14.98674 229.000
15.00669 235.000
15.02663 220.000
15.04658 249.000
15.06653 229.000
15.08648 233.000
15.10642 207.000
15.12637 247.000
15.14632 254.000
15.16626 230.000
15.18621 230.000
15.20616 252.000
15.22610 228.000
15.24605 225.000
15.26600 222.000
15.28594 215.000
15.30589 240.000
15.32584 253.000
15.34579 250.000
15.36573 253.000
15.38568 257.000
15.40563 237.000
15.42557 279.000
15.44552 246.000
15.46547 258.000
15.48541 272.000
15.50536 284.000
15.52531 257.000
15.54526 276.000
15.56520 309.000
15.58515 283.000
15.60510 280.000
15.62504 308.000
15.64499 322.000
15.66494 368.000
15.68488 403.000
15.70483 503.000
15.72478 595.000
15.74472 760.000
15.76467 1101.000
15.78462 1320.000
15.80457 1660.000
15.82451 1701.000
15.84446 1489.000
15.86441 1249.000
15.88435 980.000
15.90430 767.000
15.92425 638.000
15.94419 497.000
15.96414 396.000
15.98409 356.000
16.00404 353.000
16.02398 393.000
16.04393 408.000
16.06388 430.000
16.08382 527.000
16.10377 591.000
16.12372 775.000
16.14366 866.000
16.16361 935.000
16.18356 1120.000
16.20351 1203.000
16.22345 1090.000
16.24340 984.000
16.26335 845.000
16.28329 675.000
16.30324 559.000
16.32319 452.000
16.34313 394.000
16.36308 382.000
16.38303 346.000
16.40297 285.000
16.42292 266.000
16.44287 307.000
16.46282 275.000
16.48276 282.000
16.50271 222.000
16.52266 259.000
16.54260 243.000
16.56255 256.000
16.58250 251.000
16.60244 270.000
16.62239 231.000
16.64234 277.000
16.66229 223.000
16.68223 264.000
16.70218 251.000
16.72213 254.000
16.74207 241.000
16.76202 268.000
16.78197 257.000
16.80191 273.000
16.82186 243.000
16.84181 261.000
16.86175 242.000
16.88170 247.000
16.90165 286.000
16.92160 252.000
16.94154 262.000
16.96149 239.000
16.98144 247.000
17.00138 207.000
17.02133 238.000
17.04128 259.000
17.06122 257.000
17.08117 252.000
17.10112 235.000
17.12107 242.000
17.14101 261.000
17.16096 213.000
17.18091 252.000
17.20085 239.000
17.22080 223.000
17.24075 247.000
17.26069 234.000
17.28064 228.000
17.30059 238.000
17.32053 247.000
17.34048 224.000
17.36043 238.000
17.38038 232.000
17.40032 223.000
17.42027 229.000
17.44022 259.000
17.46016 241.000
17.48011 266.000
17.50006 244.000
17.52000 202.000
17.53995 200.000
17.55990 233.000
17.57985 209.000
17.59979 241.000
17.61974 236.000
17.63969 261.000
17.65963 249.000
17.67958 236.000
17.69953 237.000
17.71947 230.000
17.73942 248.000
17.75937 248.000
17.77932 202.000
17.79926 240.000
17.81921 228.000
17.83916 218.000
17.85910 246.000
17.87905 220.000
17.89900 260.000
17.91894 224.000
17.93889 266.000
17.95884 238.000
17.97878 218.000
17.99873 238.000
18.01868 232.000
18.03863 242.000
18.05857 252.000
18.07852 233.000
18.09847 218.000
18.11841 238.000
18.13836 223.000
18.15831 231.000
18.17825 253.000
18.19820 243.000
18.21815 213.000
18.23810 232.000
18.25804 236.000
18.27799 259.000
18.29794 278.000
18.31788 281.000
18.33783 332.000
18.35778 308.000
18.37772 328.000
18.39767 338.000
18.41762 340.000
18.43756 264.000
18.45751 277.000
18.47746 254.000
18.49741 254.000
18.51735 235.000
18.53730 254.000
18.55725 241.000
18.57719 248.000
18.59714 228.000
18.61709 221.000
18.63703 231.000
18.65698 254.000
18.67693 251.000
18.69688 243.000
18.71682 223.000
18.73677 240.000
18.75672 218.000
18.77666 218.000
18.79661 240.000
18.81656 211.000
18.83650 225.000
18.85645 223.000
18.87640 230.000
18.89634 264.000
18.91629 232.000
18.93624 259.000
18.95619 218.000
18.97613 254.000
18.99608 235.000
19.01603 252.000
19.03597 262.000
19.05592 241.000
19.07587 229.000
19.09581 239.000
19.11576 238.000
19.13571 241.000
19.15566 258.000
19.17560 233.000
19.19555 245.000
19.21550 252.000
19.23544 235.000
19.25539 273.000
19.27534 274.000
19.29528 231.000
19.31523 238.000
19.33518 239.000
19.35513 251.000
19.37507 225.000
19.39502 231.000
19.41497 247.000
19.43491 231.000
19.45486 236.000
19.47481 215.000
19.49475 211.000
19.51470 232.000
19.53465 240.000
19.55459 250.000
19.57454 229.000
19.59449 234.000
19.61444 260.000
19.63438 223.000
19.65433 223.000
19.67428 243.000
19.69422 229.000
19.71417 249.000
19.73412 252.000
19.75406 268.000
19.77401 233.000
19.79396 229.000
19.81391 231.000
19.83385 264.000
19.85380 226.000
19.87375 243.000
19.89369 255.000
19.91364 232.000
19.93359 235.000
19.95353 236.000
19.97348 227.000
19.99343 267.000
20.01337 232.000
20.03332 248.000
20.05327 248.000
20.07322 243.000
20.09316 236.000
20.11311 232.000
20.13306 233.000
20.15300 243.000
20.17295 237.000
20.19290 219.000
20.21284 250.000
20.23279 216.000
20.25274 253.000
20.27269 235.000
20.29263 252.000
20.31258 240.000
20.33253 279.000
20.35247 240.000
20.37242 239.000
20.39237 250.000
20.41231 238.000
20.43226 255.000
20.45221 274.000
20.47215 225.000
20.49210 246.000
20.51205 279.000
20.53200 252.000
20.55194 278.000
20.57189 276.000
20.59184 299.000
20.61178 239.000
20.63173 266.000
20.65168 250.000
20.67162 247.000
20.69157 286.000
20.71152 215.000
20.73147 275.000
20.75141 228.000
20.77136 281.000
20.79131 301.000
20.81125 321.000
20.83120 315.000
20.85115 352.000
20.87109 361.000
20.89104 394.000
20.91099 464.000
20.93094 505.000
20.95088 597.000
20.97083 606.000
20.99078 597.000
21.01072 603.000
21.03067 517.000
21.05062 538.000
21.07056 450.000
21.09051 412.000
21.11046 364.000
21.13040 302.000
21.15035 279.000
21.17030 269.000
21.19025 253.000
21.21019 266.000
21.23014 265.000
21.25009 259.000
21.27003 243.000
21.28998 263.000
21.30993 256.000
21.32987 220.000
21.34982 267.000
21.36977 249.000
21.38972 264.000
21.40966 235.000
21.42961 245.000
21.44956 235.000
21.46950 246.000
21.48945 250.000
21.50940 262.000
21.52934 224.000
21.54929 225.000
21.56924 265.000
21.58918 243.000
21.60913 282.000
21.62908 260.000
21.64903 267.000
21.66897 244.000
21.68892 238.000
21.70887 226.000
21.72881 265.000
21.74876 254.000
21.76871 245.000
21.78865 247.000
21.80860 249.000
21.82855 255.000
21.84850 246.000
21.86844 242.000
21.88839 255.000
21.90834 231.000
21.92828 256.000
21.94823 246.000
21.96818 273.000
21.98812 254.000
22.00807 225.000
22.02802 234.000
22.04796 242.000
22.06791 254.000
22.08786 271.000
22.10781 257.000
22.12775 260.000
22.14770 215.000
22.16765 259.000
22.18759 248.000
22.20754 262.000
22.22749 253.000
22.24743 254.000
22.26738 225.000
22.28733 258.000
22.30728 238.000
22.32722 227.000
22.34717 242.000
22.36712 244.000
22.38706 252.000
22.40701 255.000
22.42696 255.000
22.44690 257.000
22.46685 251.000
22.48680 246.000
22.50675 246.000
22.52669 253.000
22.54664 254.000
22.56659 266.000
22.58653 263.000
22.60648 252.000
22.62643 248.000
22.64637 236.000
22.66632 250.000
22.68627 260.000
22.70621 269.000
22.72616 247.000
22.74611 240.000
22.76606 273.000
22.78600 232.000
22.80595 295.000
22.82590 252.000
22.84584 285.000
22.86579 255.000
22.88574 254.000
22.90568 231.000
22.92563 248.000
22.94558 249.000
22.96553 254.000
22.98547 249.000
23.00542 229.000
23.02537 262.000
23.04531 279.000
23.06526 286.000
23.08521 254.000
23.10515 230.000
23.12510 268.000
23.14505 243.000
23.16499 276.000
23.18494 241.000
23.20489 249.000
23.22484 241.000
23.24478 254.000
23.26473 250.000
23.28468 236.000
23.30462 244.000
23.32457 262.000
23.34452 263.000
23.36446 238.000
23.38441 244.000
23.40436 238.000
23.42431 242.000
23.44425 240.000
23.46420 267.000
23.48415 254.000
23.50409 237.000
23.52404 243.000
23.54399 266.000
23.56393 244.000
23.58388 231.000
23.60383 292.000
23.62377 255.000
23.64372 241.000
23.66367 278.000
23.68362 255.000
23.70356 263.000
23.72351 268.000
23.74346 249.000
23.76340 256.000
23.78335 234.000
23.80330 267.000
23.82324 242.000
23.84319 248.000
23.86314 273.000
23.88309 259.000
23.90303 240.000
23.92298 231.000
23.94293 262.000
23.96287 252.000
23.98282 240.000
24.00277 249.000
24.02271 262.000
24.04266 248.000
24.06261 259.000
24.08256 255.000
24.10250 254.000
24.12245 254.000
24.14240 275.000
24.16234 279.000
24.18229 272.000
24.20224 251.000
24.22218 243.000
24.24213 270.000
24.26208 291.000
24.28202 272.000
24.30197 264.000
24.32192 270.000
24.34187 235.000
24.36181 262.000
24.38176 243.000
24.40171 253.000
24.42165 236.000
24.44160 274.000
24.46155 254.000
24.48149 242.000
24.50144 263.000
24.52139 240.000
24.54134 262.000
24.56128 240.000
24.58123 262.000
24.60118 258.000
24.62112 250.000
24.64107 235.000
24.66102 289.000
24.68096 240.000
24.70091 224.000
24.72086 231.000
24.74080 285.000
24.76075 259.000
24.78070 244.000
24.80065 240.000
24.82059 266.000
24.84054 267.000
24.86049 255.000
24.88043 282.000
24.90038 250.000
24.92033 258.000
24.94027 290.000
24.96022 242.000
24.98017 283.000
25.00012 262.000
25.02006 260.000
25.04001 278.000
25.05996 245.000
25.07990 258.000
25.09985 257.000
25.11980 270.000
25.13974 274.000
25.15969 265.000
25.17964 259.000
25.19958 267.000
25.21953 261.000
25.23948 252.000
25.25943 240.000
25.27937 267.000
25.29932 259.000
25.31927 251.000
25.33921 260.000
25.35916 239.000
25.37911 256.000
25.39905 237.000
25.41900 257.000
25.43895 257.000
25.45890 264.000
25.47884 237.000
25.49879 257.000
25.51874 243.000
25.53868 258.000
25.55863 240.000
25.57858 259.000
25.59852 262.000
25.61847 253.000
25.63842 219.000
25.65837 242.000
25.67831 261.000
25.69826 279.000
25.71821 228.000
25.73815 262.000
25.75810 250.000
25.77805 253.000
25.79799 272.000
25.81794 274.000
25.83789 260.000
25.85783 263.000
25.87778 285.000
25.89773 249.000
25.91768 284.000
25.93762 274.000
25.95757 236.000
25.97752 273.000
25.99746 283.000
26.01741 258.000
26.03736 281.000
26.05730 261.000
26.07725 275.000
26.09720 238.000
26.11715 265.000
26.13709 244.000
26.15704 264.000
26.17699 245.000
26.19693 269.000
26.21688 249.000
26.23683 234.000
26.25677 263.000
26.27672 296.000
26.29667 268.000
26.31661 269.000
26.33656 283.000
26.35651 250.000
26.37646 282.000
26.39640 276.000
26.41635 246.000
26.43630 282.000
26.45624 270.000
26.47619 240.000
26.49614 263.000
26.51608 280.000
26.53603 282.000
26.55598 286.000
26.57593 252.000
26.59587 250.000
26.61582 299.000
26.63577 260.000
26.65571 288.000
26.67566 299.000
26.69561 281.000
26.71555 293.000
26.73550 270.000
26.75545 278.000
26.77539 282.000
26.79534 282.000
26.81529 282.000
26.83524 298.000
26.85518 276.000
26.87513 253.000
26.89508 265.000
26.91502 270.000
26.93497 274.000
26.95492 278.000
26.97486 320.000
26.99481 259.000
27.01476 263.000
27.03471 299.000
27.05465 275.000
27.07460 296.000
27.09455 251.000
27.11449 246.000
27.13444 292.000
27.15439 271.000
27.17433 270.000
27.19428 280.000
27.21423 260.000
27.23417 325.000
27.25412 250.000
27.27407 265.000
27.29402 304.000
27.31396 281.000
27.33391 279.000
27.35386 213.000
27.37380 241.000
27.39375 276.000
27.41370 266.000
27.43364 266.000
27.45359 284.000
27.47354 255.000
27.49349 258.000
27.51343 287.000
27.53338 265.000
27.55333 259.000
27.57327 237.000
27.59322 272.000
27.61317 270.000
27.63311 281.000
27.65306 281.000
27.67301 276.000
27.69296 279.000
27.71290 302.000
27.73285 278.000
27.75280 296.000
27.77274 265.000
27.79269 274.000
27.81264 274.000
27.83258 293.000
27.85253 256.000
27.87248 266.000
27.89242 311.000
27.91237 247.000
27.93232 290.000
27.95227 265.000
27.97221 287.000
27.99216 291.000
28.01211 277.000
28.03205 267.000
28.05200 255.000
28.07195 285.000
28.09189 281.000
28.11184 278.000
28.13179 282.000
28.15174 299.000
28.17168 262.000
28.19163 277.000
28.21158 288.000
28.23152 310.000
28.25147 270.000
28.27142 309.000
28.29136 270.000
28.31131 263.000
28.33126 290.000
28.35120 275.000
28.37115 284.000
28.39110 282.000
28.41105 312.000
28.43099 268.000
28.45094 311.000
28.47089 243.000
28.49083 279.000
28.51078 277.000
28.53073 271.000
28.55067 283.000
28.57062 282.000
28.59057 273.000
28.61052 296.000
28.63046 270.000
28.65041 302.000
28.67036 277.000
28.69030 285.000
28.71025 274.000
28.73020 280.000
28.75014 271.000
28.77009 266.000
28.79004 276.000
28.80998 306.000
28.82993 301.000
28.84988 281.000
28.86983 297.000
28.88977 272.000
28.90972 279.000
28.92967 304.000
28.94961 281.000
28.96956 294.000
28.98951 264.000
29.00945 279.000
29.02940 313.000
29.04935 288.000
29.06930 297.000
29.08924 289.000
29.10919 283.000
29.12914 272.000
29.14908 297.000
29.16903 294.000
29.18898 314.000
29.20892 302.000
29.22887 281.000
29.24882 312.000
29.26877 337.000
29.28871 344.000
29.30866 363.000
29.32861 290.000
29.34855 332.000
29.36850 336.000
29.38845 317.000
29.40839 334.000
29.42834 323.000
29.44829 301.000
29.46823 284.000
29.48818 294.000
29.50813 293.000
29.52808 329.000
29.54802 332.000
29.56797 270.000
29.58792 291.000
29.60786 279.000
29.62781 287.000
29.64776 295.000
29.66770 297.000
29.68765 298.000
29.70760 293.000
29.72755 276.000
29.74749 291.000
29.76744 267.000
29.78739 292.000
29.80733 319.000
29.82728 298.000
29.84723 286.000
29.86717 281.000
29.88712 258.000
29.90707 282.000
29.92701 348.000
29.94696 291.000
29.96691 298.000
29.98686 310.000
30.00680 305.000
30.02675 304.000
30.04670 334.000
30.06664 330.000
30.08659 342.000
30.10654 298.000
30.12648 339.000
30.14643 355.000
30.16638 348.000
30.18633 386.000
30.20627 435.000
30.22622 469.000
30.24617 507.000
30.26611 526.000
30.28606 419.000
30.30601 423.000
30.32595 406.000
30.34590 374.000
30.36585 365.000
30.38579 338.000
30.40574 348.000
30.42569 319.000
30.44564 290.000
30.46558 311.000
30.48553 297.000
30.50548 287.000
30.52542 291.000
30.54537 263.000
30.56532 312.000
30.58526 293.000
30.60521 277.000
30.62516 297.000
30.64511 294.000
30.66505 309.000
30.68500 305.000
30.70495 290.000
30.72489 305.000
30.74484 318.000
30.76479 284.000
30.78473 289.000
30.80468 302.000
30.82463 294.000
30.84458 304.000
30.86452 324.000
30.88447 283.000
30.90442 327.000
30.92436 296.000
30.94431 292.000
30.96426 288.000
30.98420 290.000
31.00415 311.000
31.02410 270.000
31.04404 256.000
31.06399 320.000
31.08394 290.000
31.10389 296.000
31.12383 294.000
31.14378 303.000
31.16373 314.000
31.18367 295.000
31.20362 304.000
31.22357 277.000
31.24351 311.000
31.26346 294.000
31.28341 279.000
31.30336 284.000
31.32330 275.000
31.34325 285.000
31.36320 284.000
31.38314 303.000
31.40309 276.000
31.42304 279.000
31.44298 292.000
31.46293 304.000
31.48288 297.000
31.50282 272.000
31.52277 302.000
31.54272 309.000
31.56267 307.000
31.58261 314.000
31.60256 285.000
31.62251 296.000
31.64245 310.000
31.66240 286.000
31.68235 339.000
31.70229 285.000
31.72224 301.000
31.74219 272.000
31.76214 317.000
31.78208 320.000
31.80203 318.000
31.82198 299.000
31.84192 303.000
31.86187 325.000
31.88182 303.000
31.90176 366.000
31.92171 328.000
31.94166 392.000
31.96160 398.000
31.98155 389.000
32.00150 415.000
32.02145 369.000
32.04139 367.000
32.06134 373.000
32.08129 382.000
32.10123 377.000
32.12118 357.000
32.14113 372.000
32.16107 345.000
32.18102 363.000
32.20097 333.000
32.22092 317.000
32.24086 294.000
32.26081 297.000
32.28076 283.000
32.30070 289.000
32.32065 321.000
32.34060 271.000
32.36054 300.000
32.38049 295.000
32.40044 302.000
32.42039 286.000
32.44033 331.000
32.46028 284.000
32.48023 299.000
32.50017 285.000
32.52012 307.000
32.54007 295.000
32.56001 322.000
32.57996 293.000
32.59991 320.000
32.61985 318.000
32.63980 295.000
32.65975 321.000
32.67970 335.000
32.69964 332.000
32.71959 376.000
32.73954 348.000
32.75948 355.000
32.77943 355.000
32.79938 407.000
32.81932 352.000
32.83927 376.000
32.85922 346.000
32.87917 346.000
32.89911 352.000
32.91906 388.000
32.93901 333.000
32.95895 356.000
32.97890 311.000
32.99885 335.000
33.01879 310.000
33.03874 300.000
33.05869 309.000
33.07863 326.000
33.09858 319.000
33.11853 319.000
33.13848 315.000
33.15842 288.000
33.17837 277.000
33.19832 299.000
33.21826 289.000
33.23821 298.000
33.25816 311.000
33.27810 292.000
33.29805 305.000
33.31800 262.000
33.33795 334.000
33.35789 294.000
33.37784 288.000
33.39779 284.000
33.41773 283.000
33.43768 288.000
33.45763 321.000
33.47757 297.000
33.49752 286.000
33.51747 311.000
33.53741 282.000
33.55736 323.000
33.57731 282.000
33.59726 288.000
33.61720 295.000
33.63715 300.000
33.65710 283.000
33.67704 311.000
33.69699 306.000
33.71694 264.000
33.73688 268.000
33.75683 305.000
33.77678 286.000
33.79673 295.000
33.81667 318.000
33.83662 279.000
33.85657 310.000
33.87651 272.000
33.89646 286.000
33.91641 264.000
33.93635 348.000
33.95630 323.000
33.97625 307.000
33.99620 298.000
34.01614 299.000
34.03609 288.000
34.05604 311.000
34.07598 310.000
34.09593 298.000
34.11588 300.000
34.13582 300.000
34.15577 297.000
34.17572 312.000
34.19566 279.000
34.21561 313.000
34.23556 324.000
34.25551 329.000
34.27545 356.000
34.29540 277.000
34.31535 335.000
34.33529 349.000
34.35524 333.000
34.37519 358.000
34.39513 382.000
34.41508 387.000
34.43503 415.000
34.45498 406.000
34.47492 395.000
34.49487 427.000
34.51482 460.000
34.53476 486.000
34.55471 522.000
34.57466 500.000
34.59460 564.000
34.61455 578.000
34.63450 613.000
34.65444 591.000
34.67439 644.000
34.69434 579.000
34.71429 563.000
34.73423 577.000
34.75418 534.000
34.77413 490.000
34.79407 432.000
34.81402 397.000
34.83397 418.000
34.85391 395.000
34.87386 369.000
34.89381 327.000
34.91376 361.000
34.93370 306.000
34.95365 321.000
34.97360 330.000
34.99354 311.000
35.01349 329.000
35.03344 297.000
35.05338 362.000
35.07333 338.000
35.09328 307.000
35.11322 332.000
35.13317 300.000
35.15312 316.000
35.17307 304.000
35.19301 315.000
35.21296 330.000
35.23291 332.000
35.25285 321.000
35.27280 337.000
35.29275 350.000
35.31269 354.000
35.33264 359.000
35.35259 344.000
35.37254 387.000
35.39248 411.000
35.41243 432.000
35.43238 425.000
35.45232 476.000
35.47227 481.000
35.49222 526.000
35.51216 549.000
35.53211 639.000
35.55206 684.000
35.57201 710.000
35.59195 860.000
35.61190 920.000
35.63185 996.000
35.65179 1018.000
35.67174 955.000
35.69169 837.000
35.71163 834.000
35.73158 823.000
35.75153 753.000
35.77147 644.000
35.79142 535.000
35.81137 522.000
35.83132 527.000
35.85126 488.000
35.87121 417.000
35.89116 420.000
35.91110 406.000
35.93105 351.000
35.95100 337.000
35.97094 301.000
35.99089 323.000
36.01084 349.000
36.03079 309.000
36.05073 312.000
36.07068 310.000
36.09063 301.000
36.11057 350.000
36.13052 293.000
36.15047 332.000
36.17041 310.000
36.19036 332.000
36.21031 370.000
36.23025 349.000
36.25020 363.000
36.27015 403.000
36.29010 366.000
36.31004 395.000
36.32999 359.000
36.34994 385.000
36.36988 385.000
36.38983 390.000
36.40978 336.000
36.42972 341.000
36.44967 362.000
36.46962 373.000
36.48957 386.000
36.50951 341.000
36.52946 356.000
36.54941 366.000
36.56935 375.000
36.58930 402.000
36.60925 416.000
36.62919 379.000
36.64914 412.000
36.66909 477.000
36.68903 472.000
36.70898 472.000
36.72893 525.000
36.74888 552.000
36.76882 561.000
36.78877 582.000
36.80872 687.000
36.82866 735.000
36.84861 824.000
36.86856 910.000
36.88850 933.000
36.90845 1092.000
36.92840 1217.000
36.94835 1448.000
36.96829 1730.000
36.98824 2153.000
37.00819 2539.000
37.02813 2850.000
37.04808 3256.000
37.06803 3662.000
37.08797 4081.000
37.10792 4569.000
37.12787 4531.000
37.14781 4183.000
37.16776 3526.000
37.18771 2961.000
37.20766 2653.000
37.22760 2254.000
37.24755 1851.000
37.26750 1347.000
37.28744 1085.000
37.30739 820.000
37.32734 619.000
37.34728 525.000
37.36723 502.000
37.38718 464.000
37.40713 416.000
37.42707 384.000
37.44702 426.000
37.46697 421.000
37.48691 381.000
37.50686 382.000
37.52681 369.000
37.54675 384.000
37.56670 348.000
37.58665 355.000
37.60660 329.000
37.62654 311.000
37.64649 346.000
37.66644 347.000
37.68638 332.000
37.70633 337.000
37.72628 261.000
37.74622 321.000
37.76617 275.000
37.78612 304.000
37.80606 311.000
37.82601 326.000
37.84596 311.000
37.86591 321.000
37.88585 302.000
37.90580 313.000
37.92575 288.000
37.94569 283.000
37.96564 324.000
37.98559 270.000
38.00553 307.000
38.02548 314.000
38.04543 318.000
38.06538 296.000
38.08532 275.000
38.10527 291.000
38.12522 312.000
38.14516 284.000
38.16511 293.000
38.18506 298.000
38.20500 295.000
38.22495 290.000
38.24490 306.000
38.26484 301.000
38.28479 278.000
38.30474 256.000
38.32469 309.000
38.34463 302.000
38.36458 309.000
38.38453 278.000
38.40447 274.000
38.42442 285.000
38.44437 299.000
38.46431 264.000
38.48426 279.000
38.50421 299.000
38.52416 312.000
38.54410 310.000
38.56405 334.000
38.58400 301.000
38.60394 317.000
38.62389 304.000
38.64384 306.000
38.66378 287.000
38.68373 293.000
38.70368 323.000
38.72362 306.000
38.74357 272.000
38.76352 306.000
38.78347 311.000
38.80341 298.000
38.82336 307.000
38.84331 319.000
38.86325 311.000
38.88320 280.000
38.90315 334.000
38.92309 287.000
38.94304 306.000
38.96299 324.000
38.98294 307.000
39.00288 300.000
39.02283 307.000
39.04278 303.000
39.06272 300.000
39.08267 316.000
39.10262 298.000
39.12256 311.000
39.14251 329.000
39.16246 300.000
39.18241 371.000
39.20235 317.000
39.22230 383.000
39.24225 372.000
39.26219 437.000
39.28214 458.000
39.30209 482.000
39.32203 534.000
39.34198 532.000
39.36193 537.000
39.38187 504.000
39.40182 550.000
39.42177 510.000
39.44172 472.000
39.46166 436.000
39.48161 403.000
39.50156 377.000
39.52150 376.000
39.54145 317.000
39.56140 319.000
39.58134 301.000
39.60129 343.000
39.62124 296.000
39.64119 278.000
39.66113 310.000
39.68108 286.000
39.70103 292.000
39.72097 304.000
39.74092 262.000
39.76087 288.000
39.78081 294.000
39.80076 277.000
39.82071 256.000
39.84065 298.000
39.86060 273.000
39.88055 266.000
39.90050 300.000
39.92044 286.000
39.94039 291.000
39.96034 283.000
39.98028 286.000
40.00023 306.000
40.02018 261.000
40.04012 277.000
40.06007 275.000
40.08002 276.000
40.09997 294.000
40.11991 284.000
40.13986 273.000
40.15981 261.000
40.17975 298.000
40.19970 268.000
40.21965 286.000
40.23959 259.000
40.25954 304.000
40.27949 294.000
40.29943 317.000
40.31938 285.000
40.33933 277.000
40.35928 315.000
40.37922 285.000
40.39917 266.000
40.41912 264.000
40.43906 243.000
40.45901 260.000
40.47896 297.000
40.49890 250.000
40.51885 290.000
40.53880 280.000
40.55875 300.000
40.57869 285.000
40.59864 272.000
40.61859 307.000
40.63853 289.000
40.65848 301.000
40.67843 296.000
40.69837 264.000
40.71832 273.000
40.73827 299.000
40.75822 311.000
40.77816 277.000
40.79811 315.000
40.81806 284.000
40.83800 297.000
40.85795 305.000
40.87790 313.000
40.89784 278.000
40.91779 277.000
40.93774 258.000
40.95768 263.000
40.97763 271.000
40.99758 312.000
41.01753 311.000
41.03747 295.000
41.05742 304.000
41.07737 268.000
41.09731 316.000
41.11726 314.000
41.13721 280.000
41.15715 302.000
41.17710 326.000
41.19705 337.000
41.21700 306.000
41.23694 289.000
41.25689 319.000
41.27684 315.000
41.29678 333.000
41.31673 347.000
41.33668 338.000
41.35662 310.000
41.37657 369.000
41.39652 335.000
41.41646 341.000
41.43641 343.000
41.45636 411.000
41.47631 376.000
41.49625 412.000
41.51620 465.000
41.53615 483.000
41.55609 538.000
41.57604 640.000
41.59599 732.000
41.61593 766.000
41.63588 877.000
41.65583 785.000
41.67578 899.000
41.69572 835.000
41.71567 809.000
41.73562 711.000
41.75556 732.000
41.77551 680.000
41.79546 605.000
41.81540 538.000
41.83535 507.000
41.85530 453.000
41.87524 432.000
41.89519 392.000
41.91514 421.000
41.93509 346.000
41.95503 346.000
41.97498 310.000
41.99493 329.000
42.01487 315.000
42.03482 346.000
42.05477 309.000
42.07471 319.000
42.09466 310.000
42.11461 359.000
42.13456 337.000
42.15450 336.000
42.17445 361.000
42.19440 317.000
42.21434 298.000
42.23429 267.000
42.25424 336.000
42.27418 350.000
42.29413 351.000
42.31408 331.000
42.33403 317.000
42.35397 336.000
42.37392 345.000
42.39387 389.000
42.41381 368.000
42.43376 355.000
42.45371 352.000
42.47365 377.000
42.49360 399.000
42.51355 398.000
42.53349 396.000
42.55344 407.000
42.57339 432.000
42.59334 434.000
42.61328 444.000
42.63323 452.000
42.65318 494.000
42.67312 513.000
42.69307 570.000
42.71302 584.000
42.73296 617.000
42.75291 609.000
42.77286 648.000
42.79281 683.000
42.81275 828.000
42.83270 854.000
42.85265 1021.000
42.87259 1089.000
42.89254 1330.000
42.91249 1561.000
42.93243 1721.000
42.95238 2115.000
42.97233 2499.000
42.99227 2939.000
43.01222 3398.000
43.03217 3980.000
43.05212 4279.000
43.07206 4703.000
43.09201 5183.000
43.11196 5546.000
43.13190 5909.000
43.15185 6043.000
43.17180 5522.000
43.19174 5007.000
43.21169 4274.000
43.23164 3706.000
43.25159 3366.000
43.27153 2932.000
43.29148 2438.000
43.31143 1979.000
43.33137 1481.000
43.35132 1139.000
43.37127 949.000
43.39121 789.000
43.41116 753.000
43.43111 672.000
43.45105 680.000
43.47100 600.000
43.49095 595.000
43.51090 548.000
43.53084 471.000
43.55079 468.000
43.57074 438.000
43.59068 436.000
43.61063 412.000
43.63058 389.000
43.65052 395.000
43.67047 372.000
43.69042 388.000
43.71037 348.000
43.73031 367.000
43.75026 313.000
43.77021 335.000
43.79015 368.000
43.81010 333.000
43.83005 368.000
43.84999 299.000
43.86994 304.000
43.88989 358.000
43.90984 309.000
43.92978 331.000
43.94973 308.000
43.96968 320.000
43.98962 286.000
44.00957 290.000
44.02952 310.000
44.04946 307.000
44.06941 304.000
44.08936 310.000
44.10930 302.000
44.12925 286.000
44.14920 318.000
44.16915 300.000
44.18909 346.000
44.20904 319.000
44.22899 310.000
44.24893 323.000
44.26888 307.000
44.28883 283.000
44.30877 266.000
44.32872 298.000
44.34867 300.000
44.36862 338.000
44.38856 260.000
44.40851 307.000
44.42846 318.000
44.44840 291.000
44.46835 285.000
44.48830 301.000
44.50824 279.000
44.52819 271.000
44.54814 286.000
44.56808 282.000
44.58803 281.000
44.60798 300.000
44.62793 291.000
44.64787 291.000
44.66782 318.000
44.68777 316.000
44.70771 316.000
44.72766 288.000
44.74761 276.000
44.76755 291.000
44.78750 322.000
44.80745 252.000
44.82740 298.000
44.84734 302.000
44.86729 287.000
44.88724 272.000
44.90718 312.000
44.92713 311.000
44.94708 284.000
44.96702 330.000
44.98697 301.000
45.00692 327.000
45.02686 313.000
45.04681 331.000
45.06676 309.000
45.08671 330.000
45.10665 333.000
45.12660 358.000
45.14655 341.000
45.16649 321.000
45.18644 337.000
45.20639 331.000
45.22633 347.000
45.24628 328.000
45.26623 349.000
45.28618 304.000
45.30612 307.000
45.32607 305.000
45.34602 294.000
45.36596 278.000
45.38591 291.000
45.40586 296.000
45.42580 285.000
45.44575 277.000
45.46570 265.000
45.48565 283.000
45.50559 294.000
45.52554 257.000
45.54549 286.000
45.56543 264.000
45.58538 294.000
45.60533 260.000
45.62527 288.000
45.64522 267.000
45.66517 282.000
45.68511 282.000
45.70506 282.000
45.72501 294.000
45.74496 287.000
45.76490 268.000
45.78485 296.000
45.80480 259.000
45.82474 271.000
45.84469 218.000
45.86464 281.000
45.88458 263.000
45.90453 271.000
45.92448 243.000
45.94443 278.000
45.96437 315.000
45.98432 277.000
46.00427 266.000
46.02421 282.000
46.04416 291.000
46.06411 261.000
46.08405 270.000
46.10400 267.000
46.12395 244.000
46.14389 290.000
46.16384 276.000
46.18379 272.000
46.20374 270.000
46.22368 235.000
46.24363 256.000
46.26358 258.000
46.28352 265.000
46.30347 268.000
46.32342 271.000
46.34336 256.000
46.36331 249.000
46.38326 260.000
46.40321 260.000
46.42315 245.000
46.44310 293.000
46.46305 249.000
46.48299 252.000
46.50294 271.000
46.52289 307.000
46.54283 286.000
46.56278 258.000
46.58273 289.000
46.60267 280.000
46.62262 275.000
46.64257 251.000
46.66252 245.000
46.68246 262.000
46.70241 267.000
46.72236 289.000
46.74230 268.000
46.76225 289.000
46.78220 292.000
46.80214 230.000
46.82209 262.000
46.84204 256.000
46.86199 283.000
46.88193 278.000
46.90188 229.000
46.92183 287.000
46.94177 235.000
46.96172 296.000
46.98167 266.000
47.00161 264.000
47.02156 262.000
47.04151 249.000
47.06146 278.000
47.08140 265.000
47.10135 265.000
47.12130 270.000
47.14124 286.000
47.16119 247.000
47.18114 280.000
47.20108 282.000
47.22103 265.000
47.24098 268.000
47.26092 266.000
47.28087 237.000
47.30082 237.000
47.32077 271.000
47.34071 271.000
47.36066 274.000
47.38061 246.000
47.40055 261.000
47.42050 272.000
47.44045 272.000
47.46039 267.000
47.48034 222.000
47.50029 268.000
47.52024 295.000
47.54018 255.000
47.56013 246.000
47.58008 264.000
47.60002 244.000
47.61997 252.000
47.63992 264.000
47.65986 283.000
47.67981 266.000
47.69976 261.000
47.71970 251.000
47.73965 304.000
47.75960 267.000
47.77955 256.000
47.79949 265.000
47.81944 256.000
47.83939 265.000
47.85933 242.000
47.87928 258.000
47.89923 266.000
47.91917 270.000
47.93912 270.000
47.95907 278.000
47.97902 250.000
47.99896 294.000
48.01891 284.000
48.03886 280.000
48.05880 294.000
48.07875 295.000
48.09870 268.000
48.11864 289.000
48.13859 314.000
48.15854 290.000
48.17848 254.000
48.19843 243.000
48.21838 254.000
48.23833 264.000
48.25827 264.000
48.27822 251.000
48.29817 265.000
48.31811 276.000
48.33806 288.000
48.35801 258.000
48.37795 250.000
48.39790 244.000
48.41785 294.000
48.43780 279.000
48.45774 275.000
48.47769 283.000
48.49764 282.000
48.51758 315.000
48.53753 285.000
48.55748 258.000
48.57742 298.000
48.59737 299.000
48.61732 297.000
48.63726 320.000
48.65721 363.000
48.67716 383.000
48.69711 402.000
48.71705 461.000
48.73700 520.000
48.75695 495.000
48.77689 485.000
48.79684 484.000
48.81679 454.000
48.83673 426.000
48.85668 422.000
48.87663 418.000
48.89658 399.000
48.91652 358.000
48.93647 365.000
48.95642 317.000
48.97636 316.000
48.99631 295.000
49.01626 311.000
49.03620 269.000
49.05615 285.000
49.07610 291.000
49.09605 280.000
49.11599 277.000
49.13594 291.000
49.15589 293.000
49.17583 287.000
49.19578 262.000
49.21573 275.000
49.23567 269.000
49.25562 269.000
49.27557 296.000
49.29551 282.000
49.31546 309.000
49.33541 302.000
49.35536 256.000
49.37530 255.000
49.39525 243.000
49.41520 262.000
49.43514 293.000
49.45509 249.000
49.47504 269.000
49.49498 268.000
49.51493 263.000
49.53488 286.000
49.55483 262.000
49.57477 296.000
49.59472 281.000
49.61467 264.000
49.63461 275.000
49.65456 262.000
49.67451 267.000
49.69445 258.000
49.71440 288.000
49.73435 258.000
49.75429 273.000
49.77424 286.000
49.79419 308.000
49.81414 307.000
49.83408 308.000
49.85403 300.000
49.87398 267.000
49.89392 249.000
49.91387 288.000
49.93382 282.000
49.95376 280.000
49.97371 281.000
49.99366 278.000
50.01361 255.000
50.03355 318.000
50.05350 289.000
50.07345 246.000
50.09339 254.000
50.11334 255.000
50.13329 253.000
50.15323 223.000
50.17318 216.000
50.19313 256.000
50.21307 267.000
50.23302 260.000
50.25297 250.000
50.27292 238.000
50.29286 295.000
50.31281 279.000
50.33276 270.000
50.35270 259.000
50.37265 258.000
50.39260 258.000
50.41254 272.000
50.43249 224.000
50.45244 254.000
50.47239 279.000
50.49233 281.000
50.51228 270.000
50.53223 296.000
50.55217 296.000
50.57212 248.000
50.59207 237.000
50.61201 279.000
50.63196 242.000
50.65191 258.000
50.67186 249.000
50.69180 280.000
50.71175 249.000
50.73170 272.000
50.75164 252.000
50.77159 272.000
50.79154 256.000
50.81148 265.000
50.83143 273.000
50.85138 245.000
50.87132 278.000
50.89127 245.000
50.91122 245.000
50.93117 265.000
50.95111 271.000
50.97106 267.000
50.99101 253.000
51.01095 261.000
51.03090 277.000
51.05085 262.000
51.07079 238.000
51.09074 262.000
51.11069 253.000
51.13064 282.000
51.15058 265.000
51.17053 252.000
51.19048 226.000
51.21042 281.000
51.23037 252.000
51.25032 240.000
51.27026 257.000
51.29021 282.000
51.31016 255.000
51.33010 275.000
51.35005 244.000
51.37000 241.000
51.38995 266.000
51.40989 283.000
51.42984 261.000
51.44979 263.000
51.46973 254.000
51.48968 268.000
51.50963 273.000
51.52957 248.000
51.54952 286.000
51.56947 261.000
51.58942 293.000
51.60936 269.000
51.62931 256.000
51.64926 231.000
51.66920 265.000
51.68915 296.000
51.70910 259.000
51.72904 241.000
51.74899 242.000
51.76894 241.000
51.78888 266.000
51.80883 257.000
51.82878 237.000
51.84873 270.000
51.86867 257.000
51.88862 280.000
51.90857 270.000
51.92851 257.000
51.94846 271.000
51.96841 255.000
51.98835 251.000
52.00830 299.000
52.02825 280.000
52.04820 272.000
52.06814 234.000
52.08809 273.000
52.10804 256.000
52.12798 273.000
52.14793 269.000
52.16788 280.000
52.18782 252.000
52.20777 251.000
52.22772 256.000
52.24767 276.000
52.26761 218.000
52.28756 297.000
52.30751 248.000
52.32745 248.000
52.34740 261.000
52.36735 243.000
52.38729 230.000
52.40724 275.000
52.42719 250.000
52.44713 264.000
52.46708 267.000
52.48703 237.000
52.50698 292.000
52.52692 264.000
52.54687 274.000
52.56682 264.000
52.58676 249.000
52.60671 273.000
52.62666 275.000
52.64660 265.000
52.66655 254.000
52.68650 267.000
52.70645 306.000
52.72639 272.000
52.74634 302.000
52.76629 277.000
52.78623 298.000
52.80618 274.000
52.82613 288.000
52.84607 301.000
52.86602 293.000
52.88597 271.000
52.90591 298.000
52.92586 320.000
52.94581 289.000
52.96576 291.000
52.98570 299.000
53.00565 298.000
53.02560 346.000
53.04554 333.000
53.06549 338.000
53.08544 344.000
53.10538 360.000
53.12533 341.000
53.14528 347.000
53.16523 301.000
53.18517 328.000
53.20512 344.000
53.22507 302.000
53.24501 291.000
53.26496 284.000
53.28491 270.000
53.30485 298.000
53.32480 271.000
53.34475 270.000
53.36469 277.000
53.38464 283.000
53.40459 277.000
53.42454 302.000
53.44448 254.000
53.46443 240.000
53.48438 263.000
53.50432 255.000
53.52427 277.000
53.54422 253.000
53.56416 261.000
53.58411 263.000
53.60406 272.000
53.62401 245.000
53.64395 302.000
53.66390 299.000
53.68385 254.000
53.70379 281.000
53.72374 300.000
53.74369 296.000
53.76363 310.000
53.78358 296.000
53.80353 303.000
53.82348 292.000
53.84342 280.000
53.86337 267.000
53.88332 290.000
53.90326 294.000
53.92321 314.000
53.94316 291.000
53.96310 276.000
53.98305 255.000
54.00300 270.000
54.02294 259.000
54.04289 274.000
54.06284 256.000
54.08279 270.000
54.10273 272.000
54.12268 259.000
54.14263 259.000
54.16257 270.000
54.18252 297.000
54.20247 251.000
54.22241 248.000
54.24236 285.000
54.26231 284.000
54.28226 270.000
54.30220 248.000
54.32215 248.000
54.34210 275.000
54.36204 257.000
54.38199 256.000
54.40194 237.000
54.42188 266.000
54.44183 255.000
54.46178 267.000
54.48172 245.000
54.50167 251.000
54.52162 257.000
54.54157 257.000
54.56151 263.000
54.58146 252.000
54.60141 228.000
54.62135 284.000
54.64130 270.000
54.66125 269.000
54.68119 255.000
54.70114 262.000
54.72109 267.000
54.74104 283.000
54.76098 270.000
54.78093 266.000
54.80088 287.000
54.82082 250.000
54.84077 276.000
54.86072 232.000
54.88066 250.000
54.90061 258.000
54.92056 260.000
54.94050 262.000
54.96045 287.000
54.98040 279.000
55.00035 266.000
55.02029 238.000
55.04024 250.000
55.06019 251.000
55.08013 264.000
55.10008 264.000
55.12003 267.000
55.13997 248.000
55.15992 261.000
55.17987 247.000
55.19982 268.000
55.21976 276.000
55.23971 276.000
55.25966 264.000
55.27960 263.000
55.29955 274.000
55.31950 304.000
55.33944 297.000
55.35939 280.000
55.37934 259.000
55.39929 223.000
55.41923 237.000
55.43918 271.000
55.45913 273.000
55.47907 242.000
55.49902 261.000
55.51897 261.000
55.53891 249.000
55.55886 282.000
55.57881 240.000
55.59875 280.000
55.61870 251.000
55.63865 256.000
55.65860 267.000
55.67854 253.000
55.69849 241.000
55.71844 271.000
55.73838 247.000
55.75833 249.000
55.77828 272.000
55.79822 264.000
55.81817 263.000
55.83812 275.000
55.85807 235.000
55.87801 226.000
55.89796 266.000
55.91791 259.000
55.93785 260.000
55.95780 260.000
55.97775 290.000
55.99769 235.000
56.01764 263.000
56.03759 288.000
56.05753 241.000
56.07748 262.000
56.09743 259.000
56.11738 238.000
56.13732 235.000
56.15727 233.000
56.17722 259.000
56.19716 251.000
56.21711 246.000
56.23706 234.000
56.25700 259.000
56.27695 239.000
56.29690 255.000
56.31685 257.000
56.33679 293.000
56.35674 261.000
56.37669 253.000
56.39663 287.000
56.41658 249.000
56.43653 261.000
56.45647 266.000
56.47642 241.000
56.49637 271.000
56.51631 277.000
56.53626 290.000
56.55621 267.000
56.57616 244.000
56.59610 247.000
56.61605 265.000
56.63600 257.000
56.65594 258.000
56.67589 270.000
56.69584 252.000
56.71578 261.000
56.73573 256.000
56.75568 254.000
56.77563 255.000
56.79557 299.000
56.81552 250.000
56.83547 258.000
56.85541 288.000
56.87536 249.000
56.89531 243.000
56.91525 264.000
56.93520 268.000
56.95515 259.000
56.97510 249.000
56.99504 291.000
57.01499 264.000
57.03494 260.000
57.05488 307.000
57.07483 269.000
57.09478 277.000
57.11472 291.000
57.13467 292.000
57.15462 297.000
57.17456 320.000
57.19451 347.000
57.21446 337.000
57.23441 333.000
57.25435 382.000
57.27430 428.000
57.29425 421.000
57.31419 437.000
57.33414 450.000
57.35409 386.000
57.37403 397.000
57.39398 369.000
57.41393 364.000
57.43388 371.000
57.45382 386.000
57.47377 367.000
57.49372 381.000
57.51366 342.000
57.53361 336.000
57.55356 368.000
57.57350 345.000
57.59345 339.000
57.61340 362.000
57.63334 352.000
57.65329 380.000
57.67324 382.000
57.69319 399.000
57.71313 353.000
57.73308 385.000
57.75303 390.000
57.77297 359.000
57.79292 357.000
57.81287 379.000
57.83281 334.000
57.85276 346.000
57.87271 324.000
57.89266 343.000
57.91260 320.000
57.93255 294.000
57.95250 319.000
57.97244 278.000
57.99239 282.000
58.01234 298.000
58.03228 309.000
58.05223 286.000
58.07218 285.000
58.09212 252.000
58.11207 274.000
58.13202 285.000
58.15197 276.000
58.17191 293.000
58.19186 273.000
58.21181 283.000
58.23175 290.000
58.25170 286.000
58.27165 284.000
58.29159 285.000
58.31154 260.000
58.33149 257.000
58.35144 284.000
58.37138 243.000
58.39133 249.000
58.41128 260.000
58.43122 292.000
58.45117 221.000
58.47112 277.000
58.49106 227.000
58.51101 264.000
58.53096 273.000
58.55090 279.000
58.57085 307.000
58.59080 243.000
58.61075 249.000
58.63069 262.000
58.65064 236.000
58.67059 284.000
58.69053 258.000
58.71048 261.000
58.73043 297.000
58.75037 243.000
58.77032 272.000
58.79027 255.000
58.81022 245.000
58.83016 266.000
58.85011 295.000
58.87006 271.000
58.89000 272.000
58.90995 264.000
58.92990 266.000
58.94984 262.000
58.96979 280.000
58.98974 286.000
59.00969 241.000
59.02963 242.000
59.04958 272.000
59.06953 249.000
59.08947 268.000
59.10942 279.000
59.12937 256.000
59.14931 251.000
59.16926 276.000
59.18921 245.000
59.20915 285.000
59.22910 263.000
59.24905 241.000
59.26900 268.000
59.28894 243.000
59.30889 275.000
59.32884 264.000
59.34878 267.000
59.36873 273.000
59.38868 255.000
59.40862 248.000
59.42857 288.000
59.44852 279.000
59.46847 280.000
59.48841 254.000
59.50836 270.000
59.52831 273.000
59.54825 249.000
59.56820 287.000
59.58815 268.000
59.60809 287.000
59.62804 275.000
59.64799 271.000
59.66793 253.000
59.68788 234.000
59.70783 291.000
59.72778 287.000
59.74772 257.000
59.76767 266.000
59.78762 264.000
59.80756 240.000
59.82751 232.000
59.84746 262.000
59.86740 257.000
59.88735 271.000
59.90730 236.000
59.92725 263.000
59.94719 253.000
59.96714 266.000
59.98709 278.000
60.00703 283.000
60.02698 260.000
60.04693 296.000
60.06687 289.000
60.08682 279.000
60.10677 298.000
60.12671 255.000
60.14666 287.000
60.16661 275.000
60.18656 253.000
60.20650 265.000
60.22645 276.000
60.24640 259.000
60.26634 288.000
60.28629 273.000
60.30624 248.000
60.32618 257.000
60.34613 253.000
60.36608 260.000
60.38603 274.000
60.40597 273.000
60.42592 269.000
60.44587 236.000
60.46581 275.000
60.48576 273.000
60.50571 271.000
60.52565 269.000
60.54560 253.000
60.56555 253.000
60.58550 277.000
60.60544 288.000
60.62539 247.000
60.64534 290.000
60.66528 254.000
60.68523 278.000
60.70518 270.000
60.72512 277.000
60.74507 289.000
60.76502 266.000
60.78496 246.000
60.80491 283.000
60.82486 279.000
60.84481 265.000
60.86475 273.000
60.88470 289.000
60.90465 251.000
60.92459 269.000
60.94454 271.000
60.96449 260.000
60.98443 272.000
61.00438 271.000
61.02433 263.000
61.04428 290.000
61.06422 271.000
61.08417 272.000
61.10412 277.000
61.12406 236.000
61.14401 272.000
61.16396 281.000
61.18390 303.000
61.20385 286.000
61.22380 311.000
61.24374 256.000
61.26369 301.000
61.28364 295.000
61.30359 313.000
61.32353 285.000
61.34348 287.000
61.36343 263.000
61.38337 301.000
61.40332 289.000
61.42327 258.000
61.44321 316.000
61.46316 269.000
61.48311 325.000
61.50306 290.000
61.52300 309.000
61.54295 324.000
61.56290 280.000
61.58284 277.000
61.60279 302.000
61.62274 296.000
61.64268 281.000
61.66263 309.000
61.68258 293.000
61.70252 324.000
61.72247 263.000
61.74242 317.000
61.76237 314.000
61.78231 337.000
61.80226 319.000
61.82221 335.000
61.84215 350.000
61.86210 316.000
61.88205 345.000
61.90199 339.000
61.92194 323.000
61.94189 374.000
61.96184 431.000
61.98178 421.000
62.00173 464.000
62.02168 469.000
62.04162 459.000
62.06157 475.000
62.08152 478.000
62.10146 520.000
62.12141 502.000
62.14136 503.000
62.16131 534.000
62.18125 525.000
62.20120 596.000
62.22115 561.000
62.24109 593.000
62.26104 584.000
62.28099 628.000
62.30093 660.000
62.32088 697.000
62.34083 762.000
62.36077 797.000
62.38072 906.000
62.40067 978.000
62.42062 1109.000
62.44056 1272.000
62.46051 1230.000
62.48046 1327.000
62.50040 1530.000
62.52035 1615.000
62.54030 1697.000
62.56024 1784.000
62.58019 1913.000
62.60014 2076.000
62.62009 2216.000
62.64003 2340.000
62.65998 2494.000
62.67993 2609.000
62.69987 2407.000
62.71982 2383.000
62.73977 2145.000
62.75971 2048.000
62.77966 1775.000
62.79961 1639.000
62.81955 1546.000
62.83950 1536.000
62.85945 1480.000
62.87940 1384.000
62.89934 1234.000
62.91929 1108.000
62.93924 1061.000
62.95918 890.000
62.97913 807.000
62.99908 778.000
63.01902 642.000
63.03897 567.000
63.05892 565.000
63.07887 493.000
63.09881 578.000
63.11876 536.000
63.13871 516.000
63.15865 455.000
63.17860 457.000
63.19855 456.000
63.21849 439.000
63.23844 379.000
63.25839 393.000
63.27833 312.000
63.29828 362.000
63.31823 351.000
63.33818 350.000
63.35812 335.000
63.37807 303.000
63.39802 341.000
63.41796 319.000
63.43791 330.000
63.45786 332.000
63.47780 323.000
63.49775 317.000
63.51770 349.000
63.53765 290.000
63.55759 293.000
63.57754 290.000
63.59749 290.000
63.61743 287.000
63.63738 283.000
63.65733 299.000
63.67727 288.000
63.69722 303.000
63.71717 290.000
63.73712 282.000
63.75706 299.000
63.77701 298.000
63.79696 304.000
63.81690 309.000
63.83685 299.000
63.85680 275.000
63.87674 301.000
63.89669 290.000
63.91664 281.000
63.93658 266.000
63.95653 296.000
63.97648 281.000
63.99643 302.000
64.01637 318.000
64.03632 279.000
64.05627 314.000
64.07621 290.000
64.09616 278.000
64.11611 322.000
64.13605 279.000
64.15600 291.000
64.17595 319.000
64.19590 316.000
64.21584 321.000
64.23579 319.000
64.25574 327.000
64.27568 307.000
64.29563 326.000
64.31558 312.000
64.33552 309.000
64.35547 344.000
64.37542 350.000
64.39536 342.000
64.41531 354.000
64.43526 342.000
64.45521 310.000
64.47515 318.000
64.49510 323.000
64.51505 343.000
64.53499 327.000
64.55494 306.000
64.57489 299.000
64.59483 294.000
64.61478 318.000
64.63473 293.000
64.65468 300.000
64.67462 274.000
64.69457 290.000
64.71452 295.000
64.73446 286.000
64.75441 303.000
64.77436 307.000
64.79430 306.000
64.81425 245.000
64.83420 279.000
64.85414 288.000
64.87409 283.000
64.89404 270.000
64.91399 286.000
64.93393 268.000
64.95388 277.000
64.97383 275.000
64.99377 282.000
65.01372 280.000
65.03367 269.000
65.05361 256.000
65.07356 305.000
65.09351 266.000
65.11346 269.000
65.13340 290.000
65.15335 281.000
65.17330 270.000
65.19324 290.000
65.21319 247.000
65.23314 268.000
65.25308 265.000
65.27303 289.000
65.29298 273.000
65.31293 268.000
65.33287 271.000
65.35282 296.000
65.37277 288.000
65.39271 289.000
65.41266 290.000
65.43261 278.000
65.45255 293.000
65.47250 308.000
65.49245 300.000
65.51239 303.000
65.53234 293.000
65.55229 314.000
65.57224 328.000
65.59218 283.000
65.61213 274.000
65.63208 299.000
65.65202 290.000
65.67197 328.000
65.69192 289.000
65.71186 326.000
65.73181 279.000
65.75176 299.000
65.77171 267.000
65.79165 302.000
65.81160 325.000
65.83155 287.000
65.85149 276.000
65.87144 306.000
65.89139 314.000
65.91133 325.000
65.93128 318.000
65.95123 303.000
65.97117 317.000
65.99112 292.000
66.01107 290.000
66.03102 265.000
66.05096 271.000
66.07091 306.000
66.09086 297.000
66.11080 297.000
66.13075 282.000
66.15070 286.000
66.17064 287.000
66.19059 284.000
66.21054 295.000
66.23049 297.000
66.25043 281.000
66.27038 269.000
66.29033 275.000
66.31027 301.000
66.33022 284.000
66.35017 284.000
66.37011 271.000
66.39006 288.000
66.41001 274.000
66.42995 266.000
66.44990 273.000
66.46985 289.000
66.48980 289.000
66.50974 315.000
66.52969 289.000
66.54964 287.000
66.56958 265.000
66.58953 303.000
66.60948 293.000
66.62942 287.000
66.64937 302.000
66.66932 305.000
66.68927 312.000
66.70921 304.000
66.72916 317.000
66.74911 332.000
66.76905 284.000
66.78900 291.000
66.80895 321.000
66.82889 291.000
66.84884 306.000
66.86879 332.000
66.88874 284.000
66.90868 295.000
66.92863 307.000
66.94858 305.000
66.96852 300.000
66.98847 301.000
67.00842 330.000
67.02836 282.000
67.04831 302.000
67.06826 279.000
67.08820 276.000
67.10815 279.000
67.12810 315.000
67.14805 266.000
67.16799 286.000
67.18794 286.000
67.20789 251.000
67.22783 270.000
67.24778 282.000
67.26773 299.000
67.28767 271.000
67.30762 275.000
67.32757 246.000
67.34752 233.000
67.36746 269.000
67.38741 246.000
67.40736 281.000
67.42730 243.000
67.44725 262.000
67.46720 275.000
67.48714 249.000
67.50709 258.000
67.52704 273.000
67.54698 239.000
67.56693 268.000
67.58688 248.000
67.60683 300.000
67.62677 274.000
67.64672 262.000
67.66667 294.000
67.68661 262.000
67.70656 246.000
67.72651 267.000
67.74645 261.000
67.76640 263.000
67.78635 254.000
67.80630 285.000
67.82624 259.000
67.84619 285.000
67.86614 292.000
67.88608 270.000
67.90603 254.000
67.92598 301.000
67.94592 288.000
67.96587 274.000
67.98582 309.000
68.00576 292.000
68.02571 315.000
68.04566 297.000
68.06561 328.000
68.08555 307.000
68.10550 254.000
68.12545 270.000
68.14539 276.000
68.16534 275.000
68.18529 283.000
68.20523 281.000
68.22518 288.000
68.24513 286.000
68.26508 264.000
68.28502 272.000
68.30497 236.000
68.32492 269.000
68.34486 242.000
68.36481 276.000
68.38476 262.000
68.40470 246.000
68.42465 278.000
68.44460 265.000
68.46455 258.000
68.48449 248.000
68.50444 276.000
68.52439 289.000
68.54433 274.000
68.56428 254.000
68.58423 243.000
68.60417 260.000
68.62412 276.000
68.64407 249.000
68.66401 258.000
68.68396 258.000
68.70391 253.000
68.72386 288.000
68.74380 242.000
68.76375 280.000
68.78370 294.000
68.80364 300.000
68.82359 255.000
68.84354 272.000
68.86348 251.000
68.88343 263.000
68.90338 286.000
68.92333 249.000
68.94327 259.000
68.96322 284.000
68.98317 259.000
69.00311 242.000
69.02306 240.000
69.04301 257.000
69.06295 279.000
69.08290 254.000
69.10285 250.000
69.12279 280.000
69.14274 259.000
69.16269 251.000
69.18264 259.000
69.20258 264.000
69.22253 231.000
69.24248 263.000
69.26242 239.000
69.28237 230.000
69.30232 289.000
69.32226 232.000
69.34221 299.000
69.36216 271.000
69.38211 257.000
69.40205 255.000
69.42200 246.000
69.44195 261.000
69.46189 271.000
69.48184 276.000
69.50179 267.000
69.52173 230.000
69.54168 277.000
69.56163 246.000
69.58157 231.000
69.60152 279.000
69.62147 253.000
69.64142 253.000
69.66136 253.000
69.68131 257.000
69.70126 268.000
69.72120 250.000
69.74115 245.000
69.76110 270.000
69.78104 286.000
69.80099 253.000
69.82094 236.000
69.84089 236.000
69.86083 254.000
69.88078 267.000
69.90073 265.000
69.92067 237.000
69.94062 243.000
69.96057 250.000
69.98051 267.000
70.00046 293.000
70.02041 245.000
70.04035 244.000
70.06030 253.000
70.08025 267.000
70.10020 236.000
70.12014 278.000
70.14009 256.000
70.16004 242.000
70.17998 263.000
70.19993 262.000
70.21988 262.000
70.23982 266.000
70.25977 234.000
70.27972 256.000
70.29967 245.000
70.31961 290.000
70.33956 246.000
70.35951 281.000
70.37945 244.000
70.39940 262.000
70.41935 279.000
70.43929 271.000
70.45924 250.000
70.47919 222.000
70.49914 257.000
70.51908 257.000
70.53903 247.000
70.55898 240.000
70.57892 260.000
70.59887 307.000
70.61882 226.000
70.63876 261.000
70.65871 260.000
70.67866 284.000
70.69860 255.000
70.71855 265.000
70.73850 270.000
70.75845 266.000
70.77839 279.000
70.79834 272.000
70.81829 255.000
70.83823 275.000
70.85818 265.000
70.87813 255.000
70.89807 243.000
70.91802 263.000
70.93797 290.000
70.95792 252.000
70.97786 269.000
70.99781 241.000
71.01776 248.000
71.03770 257.000
71.05765 258.000
71.07760 251.000
71.09754 253.000
71.11749 238.000
71.13744 267.000
71.15738 244.000
71.17733 245.000
71.19728 245.000
71.21723 298.000
71.23717 249.000
71.25712 223.000
71.27707 243.000
71.29701 248.000
71.31696 271.000
71.33691 266.000
71.35685 287.000
71.37680 247.000
71.39675 271.000
71.41670 266.000
71.43664 281.000
71.45659 268.000
71.47654 289.000
71.49648 256.000
71.51643 238.000
71.53638 247.000
71.55632 263.000
71.57627 239.000
71.59622 285.000
71.61616 241.000
71.63611 252.000
71.65606 253.000
71.67601 227.000
71.69595 255.000
71.71590 266.000
71.73585 262.000
71.75579 252.000
71.77574 257.000
71.79569 269.000
71.81563 252.000
71.83558 272.000
71.85553 218.000
71.87548 270.000
71.89542 226.000
71.91537 256.000
71.93532 265.000
71.95526 252.000
71.97521 269.000
71.99516 256.000
72.01510 274.000
72.03505 254.000
72.05500 254.000
72.07495 267.000
72.09489 239.000
72.11484 269.000
72.13479 251.000
72.15473 264.000
72.17468 236.000
72.19463 266.000
72.21457 265.000
72.23452 237.000
72.25447 254.000
72.27441 255.000
72.29436 251.000
72.31431 269.000
72.33426 262.000
72.35420 249.000
72.37415 280.000
72.39410 250.000
72.41404 263.000
72.43399 270.000
72.45394 270.000
72.47388 291.000
72.49383 283.000
72.51378 255.000
72.53373 258.000
72.55367 255.000
72.57362 283.000
72.59357 253.000
72.61351 259.000
72.63346 256.000
72.65341 251.000
72.67335 275.000
72.69330 270.000
72.71325 248.000
72.73319 268.000
72.75314 277.000
72.77309 292.000
72.79304 294.000
72.81298 254.000
72.83293 286.000
72.85288 286.000
72.87282 288.000
72.89277 298.000
72.91272 289.000
72.93266 272.000
72.95261 285.000
72.97256 322.000
72.99251 242.000
73.01245 283.000
73.03240 280.000
73.05235 290.000
73.07229 257.000
73.09224 302.000
73.11219 278.000
73.13213 300.000
73.15208 298.000
73.17203 277.000
73.19197 294.000
73.21192 282.000
73.23187 272.000
73.25182 302.000
73.27176 257.000
73.29171 281.000
73.31166 301.000
73.33160 282.000
73.35155 264.000
73.37150 251.000
73.39144 273.000
73.41139 296.000
73.43134 284.000
73.45129 273.000
73.47123 284.000
73.49118 288.000
73.51113 316.000
73.53107 294.000
73.55102 286.000
73.57097 311.000
73.59091 277.000
73.61086 285.000
73.63081 272.000
73.65076 290.000
73.67070 271.000
73.69065 305.000
73.71060 298.000
73.73054 306.000
73.75049 285.000
73.77044 296.000
73.79038 292.000
73.81033 315.000
73.83028 317.000
73.85022 286.000
73.87017 296.000
73.89012 288.000
73.91007 282.000
73.93001 286.000
73.94996 272.000
73.96991 285.000
73.98985 282.000
74.00980 272.000
74.02975 259.000
74.04969 276.000
74.06964 274.000
74.08959 268.000
74.10954 302.000
74.12948 290.000
74.14943 264.000
74.16938 306.000
74.18932 273.000
74.20927 259.000
74.22922 263.000
74.24916 295.000
74.26911 313.000
74.28906 256.000
74.30900 258.000
74.32895 290.000
74.34890 248.000
74.36885 283.000
74.38879 270.000
74.40874 276.000
74.42869 301.000
74.44863 294.000
74.46858 309.000
74.48853 327.000
74.50847 338.000
74.52842 353.000
74.54837 350.000
74.56832 311.000
74.58826 332.000
74.60821 337.000
74.62816 356.000
74.64810 325.000
74.66805 382.000
74.68800 372.000
74.70794 353.000
74.72789 380.000
74.74784 438.000
74.76778 402.000
74.78773 467.000
74.80768 439.000
74.82763 503.000
74.84757 500.000
74.86752 534.000
74.88747 559.000
74.90741 580.000
74.92736 629.000
74.94731 575.000
74.96725 674.000
74.98720 701.000
75.00715 690.000
75.02710 806.000
75.04704 807.000
75.06699 833.000
75.08694 806.000
75.10688 903.000
75.12683 925.000
75.14678 877.000
75.16672 949.000
75.18667 937.000
75.20662 924.000
75.22657 924.000
75.24651 844.000
75.26646 866.000
75.28641 718.000
75.30635 712.000
75.32630 679.000
75.34625 613.000
75.36619 633.000
75.38614 567.000
75.40609 589.000
75.42603 549.000
75.44598 545.000
75.46593 489.000
75.48588 461.000
75.50582 461.000
75.52577 406.000
75.54572 365.000
75.56566 355.000
75.58561 360.000
75.60556 294.000
75.62550 313.000
75.64545 324.000
75.66540 298.000
75.68535 262.000
75.70529 297.000
75.72524 250.000
75.74519 299.000
75.76513 300.000
75.78508 281.000
75.80503 277.000
75.82497 298.000
75.84492 271.000
75.86487 271.000
75.88481 263.000
75.90476 300.000
75.92471 281.000
75.94466 254.000
75.96460 258.000
75.98455 277.000
76.00450 296.000
76.02444 262.000
76.04439 251.000
76.06434 287.000
76.08428 265.000
76.10423 285.000
76.12418 240.000
76.14413 292.000
76.16407 288.000
76.18402 284.000
76.20397 279.000
76.22391 253.000
76.24386 254.000
76.26381 266.000
76.28375 281.000
76.30370 263.000
76.32365 248.000
76.34359 271.000
76.36354 257.000
76.38349 218.000
76.40344 256.000
76.42338 259.000
76.44333 264.000
76.46328 243.000
76.48322 263.000
76.50317 270.000
76.52312 275.000
76.54306 259.000
76.56301 274.000
76.58296 229.000
76.60291 266.000
76.62285 280.000
76.64280 255.000
76.66275 265.000
76.68269 286.000
76.70264 284.000
76.72259 263.000
76.74253 285.000
76.76248 299.000
76.78243 246.000
76.80238 281.000
76.82232 264.000
76.84227 277.000
76.86222 268.000
76.88216 281.000
76.90211 256.000
76.92206 230.000
76.94200 272.000
76.96195 261.000
76.98190 285.000
77.00184 287.000
77.02179 265.000
77.04174 264.000
77.06169 268.000
77.08163 272.000
77.10158 247.000
77.12153 265.000
77.14147 253.000
77.16142 258.000
77.18137 272.000
77.20131 278.000
77.22126 289.000
77.24121 273.000
77.26116 254.000
77.28110 275.000
77.30105 281.000
77.32100 263.000
77.34094 264.000
77.36089 248.000
77.38084 262.000
77.40078 255.000
77.42073 257.000
77.44068 269.000
77.46062 264.000
77.48057 242.000
77.50052 257.000
77.52047 282.000
77.54041 273.000
77.56036 282.000
77.58031 279.000
77.60025 258.000
77.62020 262.000
77.64015 286.000
77.66009 255.000
77.68004 283.000
77.69999 256.000
77.71994 264.000
77.73988 261.000
77.75983 254.000
77.77978 249.000
77.79972 266.000
77.81967 289.000
77.83962 270.000
77.85956 276.000
77.87951 270.000
77.89946 289.000
77.91940 248.000
77.93935 243.000
77.95930 281.000
77.97925 293.000
77.99919 264.000
78.01914 253.000
78.03909 306.000
78.05903 293.000
78.07898 287.000
78.09893 291.000
78.11887 291.000
78.13882 290.000
78.15877 305.000
78.17872 310.000
78.19866 301.000
78.21861 295.000
78.23856 307.000
78.25850 296.000
78.27845 312.000
78.29840 338.000
78.31834 319.000
78.33829 309.000
78.35824 304.000
78.37819 308.000
78.39813 319.000
78.41808 290.000
78.43803 307.000
78.45797 321.000
78.47792 303.000
78.49787 324.000
78.51781 343.000
78.53776 329.000
78.55771 375.000
78.57765 318.000
78.59760 299.000
78.61755 373.000
78.63750 357.000
78.65744 331.000
78.67739 359.000
78.69734 335.000
78.71728 355.000
78.73723 365.000
78.75718 374.000
78.77712 388.000
78.79707 408.000
78.81702 451.000
78.83697 448.000
78.85691 482.000
78.87686 505.000
78.89681 528.000
78.91675 561.000
78.93670 542.000
78.95665 521.000
78.97659 594.000
78.99654 591.000
79.01649 605.000
79.03643 632.000
79.05638 655.000
79.07633 676.000
79.09628 691.000
79.11622 701.000
79.13617 777.000
79.15612 768.000
79.17606 763.000
79.19601 691.000
79.21596 707.000
79.23590 694.000
79.25585 627.000
79.27580 573.000
79.29575 566.000
79.31569 558.000
79.33564 519.000
79.35559 545.000
79.37553 493.000
79.39548 504.000
79.41543 487.000
79.43537 495.000
79.45532 464.000
79.47527 431.000
79.49521 388.000
79.51516 359.000
79.53511 344.000
79.55506 355.000
79.57500 343.000
79.59495 299.000
79.61490 338.000
79.63484 311.000
79.65479 304.000
79.67474 295.000
79.69468 293.000
79.71463 247.000
79.73458 262.000
79.75453 299.000
79.77447 274.000
79.79442 256.000
79.81437 280.000
79.83431 273.000
79.85426 287.000
79.87421 254.000
79.89415 250.000
79.91410 287.000
79.93405 277.000
79.95399 255.000
79.97394 272.000
79.99389 246.000
80.01384 283.000
80.03378 243.000
80.05373 235.000
80.07368 244.000
80.09362 282.000
80.11357 254.000
80.13352 239.000
80.15346 277.000
80.17341 264.000
80.19336 266.000
80.21331 241.000
80.23325 272.000
80.25320 272.000
80.27315 239.000
80.29309 272.000
80.31304 265.000
80.33299 292.000
80.35293 260.000
80.37288 254.000
80.39283 260.000
80.41278 248.000
80.43272 270.000
80.45267 248.000
80.47262 254.000
80.49256 263.000
80.51251 263.000
80.53246 224.000
80.55240 268.000
80.57235 250.000
80.59230 252.000
80.61224 266.000
80.63219 245.000
80.65214 249.000
80.67209 247.000
80.69203 263.000
80.71198 257.000
80.73193 274.000
80.75187 229.000
80.77182 261.000
80.79177 250.000
80.81171 253.000
80.83166 271.000
80.85161 238.000
80.87156 268.000
80.89150 270.000
80.91145 254.000
80.93140 264.000
80.95134 262.000
80.97129 289.000
80.99124 285.000
81.01118 277.000
81.03113 248.000
81.05108 262.000
81.07102 258.000
81.09097 254.000
81.11092 254.000
81.13087 260.000
81.15081 242.000
81.17076 248.000
81.19071 249.000
81.21065 243.000
81.23060 250.000
81.25055 254.000
81.27049 249.000
81.29044 264.000
81.31039 250.000
81.33034 253.000
81.35028 227.000
81.37023 280.000
81.39018 257.000
81.41012 240.000
81.43007 257.000
81.45002 260.000
81.46996 281.000
81.48991 259.000
81.50986 231.000
81.52980 269.000
81.54975 245.000
81.56970 252.000
81.58965 249.000
81.60959 286.000
81.62954 274.000
81.64949 257.000
81.66943 254.000
81.68938 254.000
81.70933 268.000
81.72927 230.000
81.74922 234.000
81.76917 255.000
81.78912 293.000
81.80906 274.000
81.82901 276.000
81.84896 261.000
81.86890 283.000
81.88885 256.000
81.90880 269.000
81.92874 251.000
81.94869 245.000
81.96864 255.000
81.98859 245.000
82.00853 248.000
82.02848 225.000
82.04843 256.000
82.06837 280.000
82.08832 252.000
82.10827 243.000
82.12821 263.000
82.14816 254.000
82.16811 293.000
82.18805 248.000
82.20800 253.000
82.22795 223.000
82.24790 252.000
82.26784 247.000
82.28779 225.000
82.30774 268.000
82.32768 252.000
82.34763 279.000
82.36758 254.000
82.38752 247.000
82.40747 209.000
82.42742 263.000
82.44737 237.000
82.46731 262.000
82.48726 296.000
82.50721 281.000
82.52715 246.000
82.54710 222.000
82.56705 251.000
82.58699 276.000
82.60694 262.000
82.62689 248.000
82.64683 253.000
82.66678 237.000
82.68673 273.000
82.70668 258.000
82.72662 242.000
82.74657 250.000
82.76652 265.000
82.78646 269.000
82.80641 249.000
82.82636 227.000
82.84630 258.000
82.86625 227.000
82.88620 267.000
82.90615 234.000
82.92609 256.000
82.94604 252.000
82.96599 268.000
82.98593 266.000
83.00588 284.000
83.02583 253.000
83.04577 251.000
83.06572 276.000
83.08567 244.000
83.10561 252.000
83.12556 230.000
83.14551 244.000
83.16546 242.000
83.18540 263.000
83.20535 241.000
83.22530 248.000
83.24524 274.000
83.26519 230.000
83.28514 267.000
83.30508 261.000
83.32503 256.000
83.34498 262.000
83.36493 267.000
83.38487 245.000
83.40482 272.000
83.42477 254.000
83.44471 260.000
83.46466 253.000
83.48461 231.000
83.50455 280.000
83.52450 265.000
83.54445 265.000
83.56440 250.000
83.58434 263.000
83.60429 254.000
83.62424 232.000
83.64418 286.000
83.66413 275.000
83.68408 241.000
83.70402 246.000
83.72397 269.000
83.74392 267.000
83.76386 251.000
83.78381 247.000
83.80376 234.000
83.82371 249.000
83.84365 260.000
83.86360 270.000
83.88355 244.000
83.90349 240.000
83.92344 294.000
83.94339 256.000
83.96333 237.000
83.98328 247.000
84.00323 232.000
84.02318 268.000
84.04312 250.000
84.06307 256.000
84.08302 248.000
84.10296 249.000
84.12291 248.000
84.14286 256.000
84.16280 253.000
84.18275 259.000
84.20270 237.000
84.22264 277.000
84.24259 239.000
84.26254 260.000
84.28249 245.000
84.30243 265.000
84.32238 240.000
84.34233 271.000
84.36227 257.000
84.38222 254.000
84.40217 258.000
84.42211 260.000
84.44206 241.000
84.46201 261.000
84.48196 275.000
84.50190 248.000
84.52185 270.000
84.54180 266.000
84.56174 242.000
84.58169 248.000
84.60164 259.000
84.62158 281.000
84.64153 279.000
84.66148 252.000
84.68142 288.000
84.70137 274.000
84.72132 252.000
84.74127 255.000
84.76121 274.000
84.78116 265.000
84.80111 277.000
84.82105 273.000
84.84100 234.000
84.86095 278.000
84.88089 287.000
84.90084 263.000
84.92079 284.000
84.94074 272.000
84.96068 276.000
84.98063 264.000
85.00058 268.000
85.02052 274.000
85.04047 270.000
85.06042 268.000
85.08036 232.000
85.10031 272.000
85.12026 280.000
85.14021 259.000
85.16015 268.000
85.18010 258.000
85.20005 235.000
85.21999 233.000
85.23994 251.000
85.25989 248.000
85.27983 246.000
85.29978 244.000
85.31973 258.000
85.33967 249.000
85.35962 261.000
85.37957 221.000
85.39952 260.000
85.41946 235.000
85.43941 235.000
85.45936 243.000
85.47930 234.000
85.49925 273.000
85.51920 249.000
85.53914 236.000
85.55909 250.000
85.57904 219.000
85.59899 241.000
85.61893 240.000
85.63888 239.000
85.65883 238.000
85.67877 275.000
85.69872 265.000
85.71867 269.000
85.73861 255.000
85.75856 237.000
85.77851 270.000
85.79845 259.000
85.81840 211.000
85.83835 258.000
85.85830 279.000
85.87824 264.000
85.89819 257.000
85.91814 230.000
85.93808 235.000
85.95803 270.000
85.97798 258.000
85.99792 263.000
86.01787 241.000
86.03782 255.000
86.05777 249.000
86.07771 244.000
86.09766 267.000
86.11761 233.000
86.13755 225.000
86.15750 232.000
86.17745 238.000
86.19739 230.000
86.21734 234.000
86.23729 245.000
86.25723 233.000
86.27718 253.000
86.29713 286.000
86.31708 231.000
86.33702 257.000
86.35697 232.000
86.37692 271.000
86.39686 247.000
86.41681 221.000
86.43676 246.000
86.45670 262.000
86.47665 259.000
86.49660 243.000
86.51655 253.000
86.53649 242.000
86.55644 267.000
86.57639 235.000
86.59633 245.000
86.61628 260.000
86.63623 241.000
86.65617 249.000
86.67612 238.000
86.69607 239.000
86.71602 254.000
86.73596 234.000
86.75591 249.000
86.77586 257.000
86.79580 233.000
86.81575 247.000
86.83570 246.000
86.85564 254.000
86.87559 256.000
86.89554 278.000
86.91548 261.000
86.93543 270.000
86.95538 287.000
86.97533 303.000
86.99527 262.000
87.01522 231.000
87.03517 258.000
87.05511 270.000
87.07506 250.000
87.09501 248.000
87.11495 255.000
87.13490 269.000
87.15485 266.000
87.17480 264.000
87.19474 273.000
87.21469 228.000
87.23464 275.000
87.25458 256.000
87.27453 241.000
87.29448 242.000
87.31442 293.000
87.33437 280.000
87.35432 260.000
87.37426 235.000
87.39421 259.000
87.41416 248.000
87.43411 299.000
87.45405 271.000
87.47400 277.000
87.49395 270.000
87.51389 272.000
87.53384 240.000
87.55379 263.000
87.57373 275.000
87.59368 246.000
87.61363 261.000
87.63358 288.000
87.65352 290.000
87.67347 284.000
87.69342 275.000
87.71336 270.000
87.73331 253.000
87.75326 293.000
87.77320 264.000
87.79315 268.000
87.81310 252.000
87.83304 259.000
87.85299 273.000
87.87294 267.000
87.89289 247.000
87.91283 267.000
87.93278 257.000
87.95273 264.000
87.97267 250.000
87.99262 255.000
88.01257 249.000
88.03251 247.000
88.05246 275.000
88.07241 290.000
88.09236 279.000
88.11230 246.000
88.13225 275.000
88.15220 236.000
88.17214 254.000
88.19209 246.000
88.21204 247.000
88.23198 234.000
88.25193 268.000
88.27188 277.000
88.29183 239.000
88.31177 246.000
88.33172 252.000
88.35167 233.000
88.37161 250.000
88.39156 229.000
88.41151 257.000
88.43145 274.000
88.45140 262.000
88.47135 247.000
88.49129 234.000
88.51124 269.000
88.53119 236.000
88.55114 282.000
88.57108 242.000
88.59103 264.000
88.61098 237.000
88.63092 227.000
88.65087 264.000
88.67082 265.000
88.69076 255.000
88.71071 269.000
88.73066 261.000
88.75061 250.000
88.77055 237.000
88.79050 259.000
88.81045 274.000
88.83039 248.000
88.85034 243.000
88.87029 233.000
88.89023 272.000
88.91018 255.000
88.93013 235.000
88.95007 246.000
88.97002 259.000
88.98997 256.000
89.00992 252.000
89.02986 273.000
89.04981 295.000
89.06976 235.000
89.08970 245.000
89.10965 246.000
89.12960 240.000
89.14954 265.000
89.16949 238.000
89.18944 278.000
89.20939 255.000
89.22933 247.000
89.24928 259.000
89.26923 272.000
89.28917 253.000
89.30912 254.000
89.32907 238.000
89.34901 279.000
89.36896 245.000
89.38891 233.000
89.40885 253.000
89.42880 233.000
89.44875 279.000
89.46870 257.000
89.48864 255.000
89.50859 248.000
89.52854 251.000
89.54848 247.000
89.56843 254.000
89.58838 249.000
89.60832 236.000
89.62827 266.000
89.64822 274.000
89.66817 262.000
89.68811 243.000
89.70806 225.000
89.72801 220.000
89.74795 263.000
89.76790 262.000
89.78785 261.000
89.80779 261.000
89.82774 267.000
89.84769 238.000
89.86764 258.000
89.88758 230.000
89.90753 278.000
89.92748 269.000
89.94742 275.000
89.96737 277.000
89.98732 250.000
90.00726 281.000
