10.00000 146.000
10.01995 158.000
10.03989 152.000
10.05984 136.000
10.07979 168.000
10.09973 186.000
10.11968 163.000
10.13963 151.000
10.15958 153.000
10.17952 173.000
10.19947 159.000
10.21942 161.000
10.23936 171.000
10.25931 156.000
10.27926 159.000
10.29920 145.000
10.31915 159.000
10.33910 167.000
10.35905 153.000
10.37899 150.000
10.39894 168.000
10.41889 166.000
10.43883 172.000
10.45878 165.000
10.47873 153.000
10.49867 134.000
10.51862 153.000
10.53857 183.000
10.55851 165.000
10.57846 159.000
10.59841 141.000
10.61836 155.000
10.63830 172.000
10.65825 172.000
10.67820 151.000
10.69814 154.000
10.71809 151.000
10.73804 171.000
10.75798 160.000
10.77793 174.000
10.79788 172.000
10.81783 162.000
10.83777 188.000
10.85772 150.000
10.87767 157.000
10.89761 154.000
10.91756 138.000
10.93751 166.000
10.95745 162.000
10.97740 174.000
10.99735 175.000
11.01730 143.000
11.03724 164.000
11.05719 164.000
11.07714 148.000
11.09708 155.000
11.11703 161.000
11.13698 166.000
11.15692 139.000
11.17687 142.000
11.19682 127.000
11.21676 154.000
11.23671 148.000
11.25666 175.000
11.27661 164.000
11.29655 134.000
11.31650 160.000
11.33645 174.000
11.35639 172.000
11.37634 167.000
11.39629 159.000
11.41623 163.000
11.43618 158.000
11.45613 150.000
11.47608 150.000
11.49602 147.000
11.51597 159.000
11.53592 133.000
11.55586 137.000
11.57581 149.000
11.59576 165.000
11.61570 156.000
11.63565 147.000
11.65560 137.000
11.67554 164.000
11.69549 140.000
11.71544 157.000
11.73539 142.000
11.75533 158.000
11.77528 144.000
11.79523 175.000
11.81517 139.000
11.83512 154.000
11.85507 137.000
11.87501 146.000
11.89496 162.000
11.91491 160.000
11.93486 147.000
11.95480 137.000
11.97475 135.000
11.99470 167.000
12.01464 162.000
12.03459 155.000
12.05454 174.000
12.07448 185.000
12.09443 167.000
12.11438 151.000
12.13432 147.000
12.15427 158.000
12.17422 145.000
12.19417 170.000
12.21411 168.000
12.23406 152.000
12.25401 136.000
12.27395 155.000
12.29390 170.000
12.31385 151.000
12.33379 167.000
12.35374 175.000
12.37369 163.000
12.39364 162.000
12.41358 173.000
12.43353 154.000
12.45348 148.000
12.47342 152.000
12.49337 141.000
12.51332 154.000
12.53326 149.000
12.55321 157.000
12.57316 149.000
12.59311 170.000
12.61305 152.000
12.63300 161.000
12.65295 150.000
12.67289 180.000
12.69284 163.000
12.71279 146.000
12.73273 170.000
12.75268 171.000
12.77263 185.000
12.79257 135.000
12.81252 158.000
12.83247 150.000
12.85242 150.000
12.87236 164.000
12.89231 131.000
12.91226 163.000
12.93220 162.000
12.95215 178.000
12.97210 155.000
12.99204 159.000
13.01199 166.000
13.03194 150.000
13.05189 155.000
13.07183 178.000
13.09178 162.000
13.11173 160.000
13.13167 147.000
13.15162 148.000
13.17157 162.000
13.19151 139.000
13.21146 141.000
13.23141 128.000
13.25135 140.000
13.27130 146.000
13.29125 168.000
13.31120 156.000
13.33114 168.000
13.35109 154.000
13.37104 158.000
13.39098 154.000
13.41093 146.000
13.43088 152.000
13.45082 165.000
13.47077 156.000
13.49072 146.000
13.51067 156.000
13.53061 156.000
13.55056 161.000
13.57051 179.000
13.59045 145.000
13.61040 187.000
13.63035 156.000
13.65029 150.000
13.67024 141.000
13.69019 143.000
13.71013 171.000
13.73008 166.000
13.75003 134.000
13.76998 177.000
13.78992 176.000
13.80987 158.000
13.82982 152.000
13.84976 168.000
13.86971 169.000
13.88966 160.000
13.90960 149.000
13.92955 181.000
13.94950 172.000
13.96945 168.000
13.98939 169.000
14.00934 165.000
14.02929 156.000
14.04923 158.000
14.06918 163.000
14.08913 147.000
14.10907 173.000
14.12902 149.000
14.14897 179.000
14.16892 167.000
14.18886 159.000
14.20881 167.000
14.22876 144.000
14.24870 169.000
14.26865 173.000
14.28860 158.000
14.30854 159.000
14.32849 149.000
14.34844 162.000
14.36838 168.000
14.38833 151.000
14.40828 175.000
14.42823 162.000
14.44817 144.000
14.46812 137.000
14.48807 152.000
14.50801 162.000
14.52796 164.000
14.54791 178.000
14.56785 152.000
14.58780 155.000
14.60775 166.000
14.62770 164.000
14.64764 205.000
14.66759 186.000
14.68754 169.000
14.70748 163.000
14.72743 165.000
14.74738 166.000
14.76732 158.000
14.78727 172.000
14.80722 171.000
14.82716 161.000
14.84711 157.000
14.86706 179.000
14.88701 160.000
14.90695 189.000
14.92690 163.000
14.94685 148.000
14.96679 201.000
14.98674 184.000
15.00669 163.000
15.02663 173.000
15.04658 181.000
15.06653 198.000
15.08648 177.000
15.10642 189.000
15.12637 192.000
15.14632 253.000
15.16626 199.000
15.18621 176.000
15.20616 196.000
15.22610 188.000
15.24605 203.000
15.26600 210.000
15.28594 204.000
15.30589 227.000
15.32584 223.000
15.34579 230.000
15.36573 282.000
15.38568 237.000
15.40563 245.000
15.42557 247.000
15.44552 286.000
15.46547 307.000
15.48541 323.000
15.50536 305.000
15.52531 354.000
15.54526 343.000
15.56520 372.000
15.58515 449.000
15.60510 457.000
15.62504 615.000
15.64499 752.000
15.66494 981.000
15.68488 1311.000
15.70483 1945.000
15.72478 2960.000
15.74472 4851.000
15.76467 7464.000
15.78462 10276.000
15.80457 12535.000
15.82451 12290.000
15.84446 9854.000
15.86441 6188.000
15.88435 3417.000
15.90430 1685.000
15.92425 926.000
15.94419 606.000
15.96414 484.000
15.98409 461.000
16.00404 358.000
16.02398 354.000
16.04393 320.000
16.06388 286.000
16.08382 311.000
16.10377 296.000
16.12372 253.000
16.14366 255.000
16.16361 268.000
16.18356 242.000
16.20351 240.000
16.22345 229.000
16.24340 239.000
16.26335 235.000
16.28329 197.000
16.30324 215.000
16.32319 209.000
16.34313 228.000
16.36308 207.000
16.38303 235.000
16.40297 187.000
16.42292 217.000
16.44287 208.000
16.46282 199.000
16.48276 174.000
16.50271 195.000
16.52266 178.000
16.54260 230.000
16.56255 185.000
16.58250 225.000
16.60244 170.000
16.62239 182.000
16.64234 173.000
16.66229 165.000
16.68223 175.000
16.70218 170.000
16.72213 185.000
16.74207 218.000
16.76202 183.000
16.78197 152.000
16.80191 170.000
16.82186 182.000
16.84181 177.000
16.86175 177.000
16.88170 188.000
16.90165 163.000
16.92160 177.000
16.94154 182.000
16.96149 145.000
16.98144 168.000
17.00138 164.000
17.02133 160.000
17.04128 150.000
17.06122 167.000
17.08117 183.000
17.10112 171.000
17.12107 156.000
17.14101 157.000
17.16096 161.000
17.18091 184.000
17.20085 165.000
17.22080 172.000
17.24075 153.000
17.26069 143.000
17.28064 166.000
17.30059 167.000
17.32053 172.000
17.34048 147.000
17.36043 163.000
17.38038 143.000
17.40032 155.000
17.42027 149.000
17.44022 178.000
17.46016 154.000
17.48011 157.000
17.50006 144.000
17.52000 146.000
17.53995 154.000
17.55990 166.000
17.57985 166.000
17.59979 182.000
17.61974 159.000
17.63969 161.000
17.65963 164.000
17.67958 185.000
17.69953 175.000
17.71947 178.000
17.73942 180.000
17.75937 166.000
17.77932 148.000
17.79926 156.000
17.81921 165.000
17.83916 168.000
17.85910 145.000
17.87905 168.000
17.89900 157.000
17.91894 122.000
17.93889 153.000
17.95884 156.000
17.97878 179.000
17.99873 162.000
18.01868 147.000
18.03863 141.000
18.05857 159.000
18.07852 161.000
18.09847 172.000
18.11841 132.000
18.13836 144.000
18.15831 146.000
18.17825 165.000
18.19820 170.000
18.21815 157.000
18.23810 142.000
18.25804 154.000
18.27799 147.000
18.29794 166.000
18.31788 177.000
18.33783 166.000
18.35778 169.000
18.37772 190.000
18.39767 168.000
18.41762 167.000
18.43756 146.000
18.45751 162.000
18.47746 151.000
18.49741 154.000
18.51735 176.000
18.53730 157.000
18.55725 164.000
18.57719 154.000
18.59714 158.000
18.61709 140.000
18.63703 174.000
18.65698 162.000
18.67693 164.000
18.69688 184.000
18.71682 171.000
18.73677 154.000
18.75672 134.000
18.77666 150.000
18.79661 149.000
18.81656 167.000
18.83650 157.000
18.85645 159.000
18.87640 138.000
18.89634 144.000
18.91629 156.000
18.93624 170.000
18.95619 168.000
18.97613 163.000
18.99608 172.000
19.01603 176.000
19.03597 178.000
19.05592 180.000
19.07587 177.000
19.09581 147.000
19.11576 130.000
19.13571 157.000
19.15566 134.000
19.17560 158.000
19.19555 168.000
19.21550 153.000
19.23544 158.000
19.25539 168.000
19.27534 159.000
19.29528 165.000
19.31523 153.000
19.33518 154.000
19.35513 149.000
19.37507 149.000
19.39502 176.000
19.41497 146.000
19.43491 146.000
19.45486 146.000
19.47481 166.000
19.49475 165.000
19.51470 159.000
19.53465 130.000
19.55459 153.000
19.57454 156.000
19.59449 151.000
19.61444 144.000
19.63438 146.000
19.65433 156.000
19.67428 160.000
19.69422 189.000
19.71417 129.000
19.73412 149.000
19.75406 177.000
19.77401 164.000
19.79396 149.000
19.81391 161.000
19.83385 154.000
19.85380 147.000
19.87375 139.000
19.89369 153.000
19.91364 149.000
19.93359 154.000
19.95353 171.000
19.97348 165.000
19.99343 139.000
20.01337 153.000
20.03332 149.000
20.05327 151.000
20.07322 156.000
20.09316 166.000
20.11311 160.000
20.13306 170.000
20.15300 153.000
20.17295 169.000
20.19290 178.000
20.21284 151.000
20.23279 167.000
20.25274 145.000
20.27269 149.000
20.29263 145.000
20.31258 141.000
20.33253 150.000
20.35247 175.000
20.37242 175.000
20.39237 171.000
20.41231 165.000
20.43226 168.000
20.45221 169.000
20.47215 170.000
20.49210 162.000
20.51205 161.000
20.53200 168.000
20.55194 165.000
20.57189 198.000
20.59184 149.000
20.61178 168.000
20.63173 173.000
20.65168 149.000
20.67162 153.000
20.69157 161.000
20.71152 149.000
20.73147 163.000
20.75141 139.000
20.77136 168.000
20.79131 212.000
20.81125 207.000
20.83120 202.000
20.85115 214.000
20.87109 231.000
20.89104 249.000
20.91099 278.000
20.93094 348.000
20.95088 361.000
20.97083 372.000
20.99078 452.000
21.01072 366.000
21.03067 404.000
21.05062 422.000
21.07056 332.000
21.09051 324.000
21.11046 264.000
21.13040 232.000
21.15035 210.000
21.17030 216.000
21.19025 177.000
21.21019 180.000
21.23014 181.000
21.25009 167.000
21.27003 163.000
21.28998 155.000
21.30993 168.000
21.32987 161.000
21.34982 166.000
21.36977 152.000
21.38972 147.000
21.40966 147.000
21.42961 146.000
21.44956 156.000
21.46950 158.000
21.48945 163.000
21.50940 163.000
21.52934 157.000
21.54929 158.000
21.56924 159.000
21.58918 168.000
21.60913 156.000
21.62908 148.000
21.64903 161.000
21.66897 170.000
21.68892 183.000
21.70887 169.000
21.72881 160.000
21.74876 148.000
21.76871 180.000
21.78865 165.000
21.80860 144.000
21.82855 152.000
21.84850 163.000
21.86844 173.000
21.88839 159.000
21.90834 158.000
21.92828 166.000
21.94823 171.000
21.96818 145.000
21.98812 157.000
22.00807 180.000
22.02802 160.000
22.04796 162.000
22.06791 142.000
22.08786 168.000
22.10781 147.000
22.12775 139.000
22.14770 154.000
22.16765 156.000
22.18759 158.000
22.20754 151.000
22.22749 165.000
22.24743 166.000
22.26738 155.000
22.28733 164.000
22.30728 155.000
22.32722 159.000
22.34717 151.000
22.36712 150.000
22.38706 161.000
22.40701 149.000
22.42696 165.000
22.44690 154.000
22.46685 179.000
22.48680 156.000
22.50675 153.000
22.52669 162.000
22.54664 173.000
22.56659 162.000
22.58653 155.000
22.60648 145.000
22.62643 178.000
22.64637 151.000
22.66632 172.000
22.68627 167.000
22.70621 145.000
22.72616 166.000
22.74611 156.000
22.76606 153.000
22.78600 160.000
22.80595 152.000
22.82590 159.000
22.84584 143.000
22.86579 190.000
22.88574 151.000
22.90568 124.000
22.92563 184.000
22.94558 138.000
22.96553 143.000
22.98547 122.000
23.00542 158.000
23.02537 154.000
23.04531 151.000
23.06526 151.000
23.08521 151.000
23.10515 167.000
23.12510 169.000
23.14505 149.000
23.16499 143.000
23.18494 181.000
23.20489 160.000
23.22484 159.000
23.24478 161.000
23.26473 163.000
23.28468 185.000
23.30462 154.000
23.32457 150.000
23.34452 151.000
23.36446 167.000
23.38441 178.000
23.40436 146.000
23.42431 176.000
23.44425 169.000
23.46420 155.000
23.48415 165.000
23.50409 158.000
23.52404 137.000
23.54399 176.000
23.56393 172.000
23.58388 152.000
23.60383 168.000
23.62377 173.000
23.64372 147.000
23.66367 141.000
23.68362 158.000
23.70356 157.000
23.72351 166.000
23.74346 143.000
23.76340 149.000
23.78335 139.000
23.80330 174.000
23.82324 132.000
23.84319 161.000
23.86314 157.000
23.88309 154.000
23.90303 160.000
23.92298 163.000
23.94293 159.000
23.96287 159.000
23.98282 166.000
24.00277 178.000
24.02271 150.000
24.04266 165.000
24.06261 159.000
24.08256 165.000
24.10250 161.000
24.12245 159.000
24.14240 177.000
24.16234 159.000
24.18229 172.000
24.20224 161.000
24.22218 184.000
24.24213 156.000
24.26208 156.000
24.28202 164.000
24.30197 160.000
24.32192 165.000
24.34187 170.000
24.36181 157.000
24.38176 147.000
24.40171 141.000
24.42165 168.000
24.44160 164.000
24.46155 160.000
24.48149 146.000
24.50144 153.000
24.52139 155.000
24.54134 147.000
24.56128 163.000
24.58123 164.000
24.60118 163.000
24.62112 162.000
24.64107 147.000
24.66102 178.000
24.68096 145.000
24.70091 156.000
24.72086 152.000
24.74080 145.000
24.76075 156.000
24.78070 176.000
24.80065 151.000
24.82059 143.000
24.84054 160.000
24.86049 172.000
24.88043 165.000
24.90038 159.000
24.92033 174.000
24.94027 150.000
24.96022 172.000
24.98017 164.000
25.00012 153.000
25.02006 183.000
25.04001 171.000
25.05996 138.000
25.07990 165.000
25.09985 148.000
25.11980 184.000
25.13974 161.000
25.15969 171.000
25.17964 158.000
25.19958 172.000
25.21953 155.000
25.23948 160.000
25.25943 181.000
25.27937 152.000
25.29932 141.000
25.31927 158.000
25.33921 175.000
25.35916 151.000
25.37911 155.000
25.39905 155.000
25.41900 188.000
25.43895 170.000
25.45890 171.000
25.47884 123.000
25.49879 144.000
25.51874 178.000
25.53868 156.000
25.55863 160.000
25.57858 147.000
25.59852 167.000
25.61847 143.000
25.63842 153.000
25.65837 172.000
25.67831 174.000
25.69826 156.000
25.71821 169.000
25.73815 153.000
25.75810 156.000
25.77805 164.000
25.79799 190.000
25.81794 176.000
25.83789 197.000
25.85783 160.000
25.87778 139.000
25.89773 171.000
25.91768 195.000
25.93762 174.000
25.95757 169.000
25.97752 163.000
25.99746 184.000
26.01741 164.000
26.03736 189.000
26.05730 172.000
26.07725 160.000
26.09720 154.000
26.11715 166.000
26.13709 171.000
26.15704 164.000
26.17699 154.000
26.19693 165.000
26.21688 150.000
26.23683 157.000
26.25677 139.000
26.27672 154.000
26.29667 154.000
26.31661 170.000
26.33656 182.000
26.35651 182.000
26.37646 177.000
26.39640 152.000
26.41635 167.000
26.43630 169.000
26.45624 186.000
26.47619 141.000
26.49614 174.000
26.51608 157.000
26.53603 164.000
26.55598 169.000
26.57593 172.000
26.59587 189.000
26.61582 184.000
26.63577 177.000
26.65571 156.000
26.67566 148.000
26.69561 150.000
26.71555 160.000
26.73550 145.000
26.75545 160.000
26.77539 169.000
26.79534 173.000
26.81529 163.000
26.83524 179.000
26.85518 173.000
26.87513 171.000
26.89508 173.000
26.91502 206.000
26.93497 196.000
26.95492 162.000
26.97486 180.000
26.99481 158.000
27.01476 172.000
27.03471 155.000
27.05465 185.000
27.07460 177.000
27.09455 188.000
27.11449 174.000
27.13444 195.000
27.15439 174.000
27.17433 182.000
27.19428 200.000
27.21423 179.000
27.23417 171.000
27.25412 171.000
27.27407 150.000
27.29402 200.000
27.31396 185.000
27.33391 173.000
27.35386 195.000
27.37380 144.000
27.39375 180.000
27.41370 174.000
27.43364 153.000
27.45359 160.000
27.47354 163.000
27.49349 170.000
27.51343 173.000
27.53338 173.000
27.55333 168.000
27.57327 173.000
27.59322 157.000
27.61317 191.000
27.63311 187.000
27.65306 175.000
27.67301 188.000
27.69296 171.000
27.71290 181.000
27.73285 178.000
27.75280 165.000
27.77274 174.000
27.79269 177.000
27.81264 171.000
27.83258 157.000
27.85253 178.000
27.87248 173.000
27.89242 177.000
27.91237 159.000
27.93232 155.000
27.95227 161.000
27.97221 171.000
27.99216 163.000
28.01211 191.000
28.03205 199.000
28.05200 162.000
28.07195 167.000
28.09189 162.000
28.11184 189.000
28.13179 184.000
28.15174 183.000
28.17168 193.000
28.19163 201.000
28.21158 183.000
28.23152 191.000
28.25147 174.000
28.27142 193.000
28.29136 188.000
28.31131 184.000
28.33126 196.000
28.35120 168.000
28.37115 173.000
28.39110 192.000
28.41105 183.000
28.43099 188.000
28.45094 170.000
28.47089 193.000
28.49083 191.000
28.51078 158.000
28.53073 168.000
28.55067 159.000
28.57062 156.000
28.59057 179.000
28.61052 166.000
28.63046 170.000
28.65041 185.000
28.67036 166.000
28.69030 159.000
28.71025 157.000
28.73020 162.000
28.75014 182.000
28.77009 181.000
28.79004 183.000
28.80998 168.000
28.82993 180.000
28.84988 142.000
28.86983 181.000
28.88977 144.000
28.90972 172.000
28.92967 148.000
28.94961 165.000
28.96956 153.000
28.98951 160.000
29.00945 186.000
29.02940 170.000
29.04935 189.000
29.06930 193.000
29.08924 165.000
29.10919 154.000
29.12914 181.000
29.14908 187.000
29.16903 155.000
29.18898 168.000
29.20892 167.000
29.22887 211.000
29.24882 186.000
29.26877 182.000
29.28871 212.000
29.30866 205.000
29.32861 198.000
29.34855 200.000
29.36850 185.000
29.38845 186.000
29.40839 192.000
29.42834 184.000
29.44829 175.000
29.46823 170.000
29.48818 174.000
29.50813 181.000
29.52808 187.000
29.54802 174.000
29.56797 163.000
29.58792 171.000
29.60786 172.000
29.62781 176.000
29.64776 191.000
29.66770 164.000
29.68765 181.000
29.70760 172.000
29.72755 163.000
29.74749 179.000
29.76744 170.000
29.78739 166.000
29.80733 190.000
29.82728 180.000
29.84723 193.000
29.86717 168.000
29.88712 157.000
29.90707 212.000
29.92701 198.000
29.94696 168.000
29.96691 172.000
29.98686 173.000
30.00680 182.000
30.02675 195.000
30.04670 198.000
30.06664 180.000
30.08659 177.000
30.10654 206.000
30.12648 185.000
30.14643 211.000
30.16638 225.000
30.18633 223.000
30.20627 233.000
30.22622 248.000
30.24617 252.000
30.26611 235.000
30.28606 218.000
30.30601 223.000
30.32595 210.000
30.34590 209.000
30.36585 193.000
30.38579 188.000
30.40574 180.000
30.42569 184.000
30.44564 160.000
30.46558 195.000
30.48553 183.000
30.50548 190.000
30.52542 155.000
30.54537 178.000
30.56532 173.000
30.58526 187.000
30.60521 201.000
30.62516 196.000
30.64511 187.000
30.66505 204.000
30.68500 144.000
30.70495 179.000
30.72489 186.000
30.74484 183.000
30.76479 173.000
30.78473 165.000
30.80468 173.000
30.82463 166.000
30.84458 190.000
30.86452 185.000
30.88447 184.000
30.90442 149.000
30.92436 167.000
30.94431 184.000
30.96426 183.000
30.98420 189.000
31.00415 177.000
31.02410 181.000
31.04404 184.000
31.06399 176.000
31.08394 160.000
31.10389 166.000
31.12383 194.000
31.14378 190.000
31.16373 187.000
31.18367 178.000
31.20362 186.000
31.22357 201.000
31.24351 150.000
31.26346 176.000
31.28341 195.000
31.30336 176.000
31.32330 180.000
31.34325 191.000
31.36320 175.000
31.38314 189.000
31.40309 183.000
31.42304 204.000
31.44298 185.000
31.46293 184.000
31.48288 199.000
31.50282 204.000
31.52277 182.000
31.54272 218.000
31.56267 195.000
31.58261 221.000
31.60256 180.000
31.62251 190.000
31.64245 193.000
31.66240 217.000
31.68235 220.000
31.70229 190.000
31.72224 190.000
31.74219 193.000
31.76214 226.000
31.78208 212.000
31.80203 237.000
31.82198 246.000
31.84192 254.000
31.86187 326.000
31.88182 369.000
31.90176 458.000
31.92171 573.000
31.94166 805.000
31.96160 1060.000
31.98155 1165.000
32.00150 1253.000
32.02145 1142.000
32.04139 986.000
32.06134 838.000
32.08129 767.000
32.10123 527.000
32.12118 448.000
32.14113 320.000
32.16107 274.000
32.18102 228.000
32.20097 241.000
32.22092 223.000
32.24086 191.000
32.26081 197.000
32.28076 200.000
32.30070 207.000
32.32065 190.000
32.34060 195.000
32.36054 187.000
32.38049 178.000
32.40044 193.000
32.42039 189.000
32.44033 171.000
32.46028 186.000
32.48023 177.000
32.50017 178.000
32.52012 170.000
32.54007 166.000
32.56001 192.000
32.57996 182.000
32.59991 187.000
32.61985 180.000
32.63980 184.000
32.65975 164.000
32.67970 177.000
32.69964 180.000
32.71959 166.000
32.73954 196.000
32.75948 145.000
32.77943 174.000
32.79938 192.000
32.81932 170.000
32.83927 177.000
32.85922 179.000
32.87917 187.000
32.89911 156.000
32.91906 176.000
32.93901 189.000
32.95895 179.000
32.97890 182.000
32.99885 180.000
33.01879 172.000
33.03874 160.000
33.05869 173.000
33.07863 161.000
33.09858 184.000
33.11853 178.000
33.13848 184.000
33.15842 176.000
33.17837 180.000
33.19832 184.000
33.21826 170.000
33.23821 173.000
33.25816 164.000
33.27810 165.000
33.29805 168.000
33.31800 173.000
33.33795 166.000
33.35789 167.000
33.37784 176.000
33.39779 179.000
33.41773 179.000
33.43768 158.000
33.45763 181.000
33.47757 171.000
33.49752 180.000
33.51747 178.000
33.53741 159.000
33.55736 145.000
33.57731 178.000
33.59726 165.000
33.61720 181.000
33.63715 166.000
33.65710 164.000
33.67704 195.000
33.69699 200.000
33.71694 166.000
33.73688 193.000
33.75683 195.000
33.77678 172.000
33.79673 169.000
33.81667 191.000
33.83662 173.000
33.85657 182.000
33.87651 184.000
33.89646 171.000
33.91641 162.000
33.93635 176.000
33.95630 188.000
33.97625 167.000
33.99620 169.000
34.01614 189.000
34.03609 193.000
34.05604 196.000
34.07598 191.000
34.09593 192.000
34.11588 211.000
34.13582 172.000
34.15577 174.000
34.17572 197.000
34.19566 198.000
34.21561 197.000
34.23556 194.000
34.25551 174.000
34.27545 193.000
34.29540 169.000
34.31535 230.000
34.33529 213.000
34.35524 166.000
34.37519 197.000
34.39513 201.000
34.41508 203.000
34.43503 239.000
34.45498 215.000
34.47492 231.000
34.49487 221.000
34.51482 282.000
34.53476 267.000
34.55471 255.000
34.57466 285.000
34.59460 326.000
34.61455 321.000
34.63450 361.000
34.65444 336.000
34.67439 335.000
34.69434 312.000
34.71429 324.000
34.73423 358.000
34.75418 296.000
34.77413 287.000
34.79407 275.000
34.81402 258.000
34.83397 265.000
34.85391 243.000
34.87386 210.000
34.89381 253.000
34.91376 205.000
34.93370 192.000
34.95365 181.000
34.97360 226.000
34.99354 199.000
35.01349 197.000
35.03344 207.000
35.05338 220.000
35.07333 228.000
35.09328 183.000
35.11322 186.000
35.13317 192.000
35.15312 223.000
35.17307 214.000
35.19301 206.000
35.21296 231.000
35.23291 236.000
35.25285 226.000
35.27280 235.000
35.29275 221.000
35.31269 226.000
35.33264 225.000
35.35259 272.000
35.37254 265.000
35.39248 247.000
35.41243 299.000
35.43238 269.000
35.45232 293.000
35.47227 328.000
35.49222 378.000
35.51216 369.000
35.53211 411.000
35.55206 466.000
35.57201 550.000
35.59195 573.000
35.61190 663.000
35.63185 767.000
35.65179 862.000
35.67174 894.000
35.69169 970.000
35.71163 1042.000
35.73158 998.000
35.75153 1030.000
35.77147 959.000
35.79142 894.000
35.81137 821.000
35.83132 775.000
35.85126 672.000
35.87121 529.000
35.89116 493.000
35.91110 413.000
35.93105 356.000
35.95100 315.000
35.97094 299.000
35.99089 262.000
36.01084 220.000
36.03079 216.000
36.05073 235.000
36.07068 217.000
36.09063 201.000
36.11057 203.000
36.13052 217.000
36.15047 183.000
36.17041 228.000
36.19036 199.000
36.21031 199.000
36.23025 217.000
36.25020 213.000
36.27015 232.000
36.29010 207.000
36.31004 220.000
36.32999 207.000
36.34994 216.000
36.36988 221.000
36.38983 206.000
36.40978 225.000
36.42972 203.000
36.44967 220.000
36.46962 224.000
36.48957 226.000
36.50951 201.000
36.52946 233.000
36.54941 226.000
36.56935 215.000
36.58930 244.000
36.60925 288.000
36.62919 249.000
36.64914 258.000
36.66909 245.000
36.68903 266.000
36.70898 259.000
36.72893 251.000
36.74888 260.000
36.76882 244.000
36.78877 250.000
36.80872 257.000
36.82866 270.000
36.84861 260.000
36.86856 276.000
36.88850 309.000
36.90845 305.000
36.92840 377.000
36.94835 437.000
36.96829 525.000
36.98824 647.000
37.00819 822.000
37.02813 995.000
37.04808 1257.000
37.06803 1265.000
37.08797 1390.000
37.10792 1410.000
37.12787 1384.000
37.14781 1161.000
37.16776 1097.000
37.18771 906.000
37.20766 827.000
37.22760 646.000
37.24755 518.000
37.26750 415.000
37.28744 346.000
37.30739 344.000
37.32734 264.000
37.34728 274.000
37.36723 248.000
37.38718 219.000
37.40713 224.000
37.42707 210.000
37.44702 215.000
37.46697 205.000
37.48691 192.000
37.50686 199.000
37.52681 186.000
37.54675 194.000
37.56670 203.000
37.58665 211.000
37.60660 196.000
37.62654 208.000
37.64649 190.000
37.66644 182.000
37.68638 173.000
37.70633 218.000
37.72628 194.000
37.74622 179.000
37.76617 186.000
37.78612 185.000
37.80606 198.000
37.82601 168.000
37.84596 184.000
37.86591 199.000
37.88585 176.000
37.90580 197.000
37.92575 178.000
37.94569 173.000
37.96564 181.000
37.98559 191.000
38.00553 174.000
38.02548 185.000
38.04543 195.000
38.06538 196.000
38.08532 189.000
38.10527 186.000
38.12522 191.000
38.14516 173.000
38.16511 183.000
38.18506 187.000
38.20500 188.000
38.22495 198.000
38.24490 174.000
38.26484 189.000
38.28479 200.000
38.30474 186.000
38.32469 208.000
38.34463 207.000
38.36458 203.000
38.38453 183.000
38.40447 193.000
38.42442 201.000
38.44437 200.000
38.46431 207.000
38.48426 201.000
38.50421 181.000
38.52416 232.000
38.54410 202.000
38.56405 252.000
38.58400 233.000
38.60394 220.000
38.62389 232.000
38.64384 245.000
38.66378 212.000
38.68373 226.000
38.70368 233.000
38.72362 241.000
38.74357 228.000
38.76352 217.000
38.78347 256.000
38.80341 220.000
38.82336 225.000
38.84331 242.000
38.86325 216.000
38.88320 241.000
38.90315 254.000
38.92309 232.000
38.94304 244.000
38.96299 252.000
38.98294 248.000
39.00288 275.000
39.02283 261.000
39.04278 310.000
39.06272 304.000
39.08267 306.000
39.10262 364.000
39.12256 408.000
39.14251 445.000
39.16246 528.000
39.18241 688.000
39.20235 836.000
39.22230 1058.000
39.24225 1243.000
39.26219 1367.000
39.28214 1637.000
39.30209 1592.000
39.32203 1665.000
39.34198 1675.000
39.36193 1652.000
39.38187 1504.000
39.40182 1282.000
39.42177 1225.000
39.44172 971.000
39.46166 803.000
39.48161 674.000
39.50156 564.000
39.52150 505.000
39.54145 417.000
39.56140 380.000
39.58134 346.000
39.60129 284.000
39.62124 285.000
39.64119 258.000
39.66113 225.000
39.68108 232.000
39.70103 242.000
39.72097 248.000
39.74092 201.000
39.76087 220.000
39.78081 201.000
39.80076 211.000
39.82071 204.000
39.84065 221.000
39.86060 161.000
39.88055 203.000
39.90050 197.000
39.92044 198.000
39.94039 193.000
39.96034 196.000
39.98028 180.000
40.00023 198.000
40.02018 198.000
40.04012 174.000
40.06007 180.000
40.08002 201.000
40.09997 189.000
40.11991 166.000
40.13986 188.000
40.15981 175.000
40.17975 168.000
40.19970 167.000
40.21965 158.000
40.23959 162.000
40.25954 162.000
40.27949 191.000
40.29943 168.000
40.31938 189.000
40.33933 158.000
40.35928 161.000
40.37922 185.000
40.39917 185.000
40.41912 163.000
40.43906 177.000
40.45901 163.000
40.47896 175.000
40.49890 171.000
40.51885 210.000
40.53880 185.000
40.55875 170.000
40.57869 163.000
40.59864 192.000
40.61859 164.000
40.63853 172.000
40.65848 184.000
40.67843 162.000
40.69837 161.000
40.71832 171.000
40.73827 165.000
40.75822 188.000
40.77816 159.000
40.79811 158.000
40.81806 166.000
40.83800 164.000
40.85795 180.000
40.87790 159.000
40.89784 178.000
40.91779 181.000
40.93774 165.000
40.95768 187.000
40.97763 163.000
40.99758 199.000
41.01753 179.000
41.03747 182.000
41.05742 179.000
41.07737 168.000
41.09731 153.000
41.11726 165.000
41.13721 156.000
41.15715 183.000
41.17710 168.000
41.19705 176.000
41.21700 174.000
41.23694 156.000
41.25689 194.000
41.27684 201.000
41.29678 180.000
41.31673 198.000
41.33668 178.000
41.35662 163.000
41.37657 168.000
41.39652 225.000
41.41646 196.000
41.43641 205.000
41.45636 156.000
41.47631 201.000
41.49625 197.000
41.51620 188.000
41.53615 161.000
41.55609 169.000
41.57604 160.000
41.59599 185.000
41.61593 190.000
41.63588 163.000
41.65583 172.000
41.67578 164.000
41.69572 159.000
41.71567 164.000
41.73562 165.000
41.75556 187.000
41.77551 182.000
41.79546 175.000
41.81540 165.000
41.83535 178.000
41.85530 175.000
41.87524 164.000
41.89519 167.000
41.91514 175.000
41.93509 167.000
41.95503 173.000
41.97498 192.000
41.99493 168.000
42.01487 157.000
42.03482 208.000
42.05477 185.000
42.07471 168.000
42.09466 183.000
42.11461 172.000
42.13456 179.000
42.15450 176.000
42.17445 157.000
42.19440 154.000
42.21434 184.000
42.23429 226.000
42.25424 219.000
42.27418 186.000
42.29413 179.000
42.31408 158.000
42.33403 195.000
42.35397 196.000
42.37392 179.000
42.39387 199.000
42.41381 184.000
42.43376 196.000
42.45371 198.000
42.47365 209.000
42.49360 245.000
42.51355 216.000
42.53349 219.000
42.55344 217.000
42.57339 215.000
42.59334 231.000
42.61328 208.000
42.63323 205.000
42.65318 185.000
42.67312 254.000
42.69307 223.000
42.71302 251.000
42.73296 289.000
42.75291 278.000
42.77286 291.000
42.79281 313.000
42.81275 318.000
42.83270 361.000
42.85265 390.000
42.87259 425.000
42.89254 482.000
42.91249 562.000
42.93243 635.000
42.95238 664.000
42.97233 726.000
42.99227 799.000
43.01222 926.000
43.03217 1032.000
43.05212 1145.000
43.07206 1235.000
43.09201 1344.000
43.11196 1483.000
43.13190 1552.000
43.15185 1569.000
43.17180 1537.000
43.19174 1377.000
43.21169 1368.000
43.23164 1252.000
43.25159 1164.000
43.27153 1082.000
43.29148 1018.000
43.31143 919.000
43.33137 835.000
43.35132 898.000
43.37127 929.000
43.39121 965.000
43.41116 905.000
43.43111 975.000
43.45105 915.000
43.47100 800.000
43.49095 794.000
43.51090 717.000
43.53084 682.000
43.55079 622.000
43.57074 534.000
43.59068 474.000
43.61063 442.000
43.63058 376.000
43.65052 330.000
43.67047 297.000
43.69042 246.000
43.71037 265.000
43.73031 239.000
43.75026 246.000
43.77021 223.000
43.79015 244.000
43.81010 217.000
43.83005 207.000
43.84999 204.000
43.86994 196.000
43.88989 216.000
43.90984 240.000
43.92978 189.000
43.94973 173.000
43.96968 192.000
43.98962 220.000
44.00957 193.000
44.02952 217.000
44.04946 180.000
44.06941 172.000
44.08936 189.000
44.10930 168.000
44.12925 167.000
44.14920 170.000
44.16915 165.000
44.18909 198.000
44.20904 174.000
44.22899 192.000
44.24893 187.000
44.26888 190.000
44.28883 157.000
44.30877 160.000
44.32872 167.000
44.34867 192.000
44.36862 169.000
44.38856 206.000
44.40851 156.000
44.42846 165.000
44.44840 166.000
44.46835 177.000
44.48830 165.000
44.50824 186.000
44.52819 195.000
44.54814 158.000
44.56808 165.000
44.58803 206.000
44.60798 152.000
44.62793 162.000
44.64787 175.000
44.66782 187.000
44.68777 174.000
44.70771 181.000
44.72766 186.000
44.74761 179.000
44.76755 166.000
44.78750 203.000
44.80745 160.000
44.82740 180.000
44.84734 178.000
44.86729 154.000
44.88724 171.000
44.90718 194.000
44.92713 152.000
44.94708 173.000
44.96702 215.000
44.98697 173.000
45.00692 146.000
45.02686 171.000
45.04681 151.000
45.06676 172.000
45.08671 175.000
45.10665 174.000
45.12660 162.000
45.14655 176.000
45.16649 182.000
45.18644 149.000
45.20639 146.000
45.22633 161.000
45.24628 177.000
45.26623 156.000
45.28618 162.000
45.30612 167.000
45.32607 166.000
45.34602 158.000
45.36596 163.000
45.38591 158.000
45.40586 172.000
45.42580 189.000
45.44575 161.000
45.46570 138.000
45.48565 182.000
45.50559 157.000
45.52554 177.000
45.54549 178.000
45.56543 184.000
45.58538 165.000
45.60533 175.000
45.62527 168.000
45.64522 144.000
45.66517 161.000
45.68511 160.000
45.70506 166.000
45.72501 155.000
45.74496 161.000
45.76490 163.000
45.78485 167.000
45.80480 167.000
45.82474 163.000
45.84469 142.000
45.86464 184.000
45.88458 150.000
45.90453 169.000
45.92448 150.000
45.94443 157.000
45.96437 153.000
45.98432 171.000
46.00427 166.000
46.02421 169.000
46.04416 180.000
46.06411 192.000
46.08405 141.000
46.10400 147.000
46.12395 159.000
46.14389 150.000
46.16384 169.000
46.18379 167.000
46.20374 159.000
46.22368 146.000
46.24363 168.000
46.26358 200.000
46.28352 172.000
46.30347 152.000
46.32342 178.000
46.34336 154.000
46.36331 185.000
46.38326 146.000
46.40321 161.000
46.42315 183.000
46.44310 163.000
46.46305 153.000
46.48299 167.000
46.50294 174.000
46.52289 183.000
46.54283 136.000
46.56278 176.000
46.58273 177.000
46.60267 180.000
46.62262 168.000
46.64257 155.000
46.66252 161.000
46.68246 186.000
46.70241 148.000
46.72236 168.000
46.74230 156.000
46.76225 176.000
46.78220 184.000
46.80214 159.000
46.82209 181.000
46.84204 170.000
46.86199 162.000
46.88193 160.000
46.90188 158.000
46.92183 202.000
46.94177 170.000
46.96172 166.000
46.98167 151.000
47.00161 181.000
47.02156 157.000
47.04151 154.000
47.06146 149.000
47.08140 193.000
47.10135 154.000
47.12130 150.000
47.14124 145.000
47.16119 154.000
47.18114 156.000
47.20108 174.000
47.22103 158.000
47.24098 173.000
47.26092 172.000
47.28087 184.000
47.30082 168.000
47.32077 174.000
47.34071 180.000
47.36066 158.000
47.38061 157.000
47.40055 153.000
47.42050 192.000
47.44045 184.000
47.46039 148.000
47.48034 162.000
47.50029 161.000
47.52024 158.000
47.54018 154.000
47.56013 177.000
47.58008 167.000
47.60002 168.000
47.61997 191.000
47.63992 167.000
47.65986 182.000
47.67981 156.000
47.69976 167.000
47.71970 174.000
47.73965 158.000
47.75960 150.000
47.77955 163.000
47.79949 166.000
47.81944 173.000
47.83939 165.000
47.85933 202.000
47.87928 167.000
47.89923 183.000
47.91917 174.000
47.93912 202.000
47.95907 190.000
47.97902 167.000
47.99896 173.000
48.01891 210.000
48.03886 188.000
48.05880 186.000
48.07875 188.000
48.09870 189.000
48.11864 193.000
48.13859 209.000
48.15854 183.000
48.17848 191.000
48.19843 186.000
48.21838 178.000
48.23833 198.000
48.25827 215.000
48.27822 218.000
48.29817 228.000
48.31811 242.000
48.33806 232.000
48.35801 211.000
48.37795 217.000
48.39790 242.000
48.41785 275.000
48.43780 317.000
48.45774 317.000
48.47769 324.000
48.49764 339.000
48.51758 374.000
48.53753 380.000
48.55748 437.000
48.57742 541.000
48.59737 579.000
48.61732 697.000
48.63726 891.000
48.65721 1179.000
48.67716 1340.000
48.69711 1472.000
48.71705 1625.000
48.73700 1607.000
48.75695 1530.000
48.77689 1417.000
48.79684 1396.000
48.81679 1360.000
48.83673 1302.000
48.85668 1164.000
48.87663 1044.000
48.89658 885.000
48.91652 793.000
48.93647 632.000
48.95642 550.000
48.97636 498.000
48.99631 432.000
49.01626 365.000
49.03620 308.000
49.05615 293.000
49.07610 259.000
49.09605 261.000
49.11599 250.000
49.13594 244.000
49.15589 251.000
49.17583 216.000
49.19578 216.000
49.21573 204.000
49.23567 213.000
49.25562 215.000
49.27557 202.000
49.29551 197.000
49.31546 190.000
49.33541 198.000
49.35536 185.000
49.37530 202.000
49.39525 175.000
49.41520 191.000
49.43514 208.000
49.45509 196.000
49.47504 179.000
49.49498 163.000
49.51493 182.000
49.53488 195.000
49.55483 183.000
49.57477 169.000
49.59472 158.000
49.61467 199.000
49.63461 177.000
49.65456 195.000
49.67451 198.000
49.69445 198.000
49.71440 185.000
49.73435 163.000
49.75429 189.000
49.77424 172.000
49.79419 155.000
49.81414 184.000
49.83408 178.000
49.85403 172.000
49.87398 175.000
49.89392 193.000
49.91387 208.000
49.93382 176.000
49.95376 144.000
49.97371 185.000
49.99366 167.000
50.01361 185.000
50.03355 190.000
50.05350 175.000
50.07345 197.000
50.09339 145.000
50.11334 143.000
50.13329 190.000
50.15323 175.000
50.17318 172.000
50.19313 177.000
50.21307 174.000
50.23302 180.000
50.25297 141.000
50.27292 155.000
50.29286 164.000
50.31281 182.000
50.33276 148.000
50.35270 178.000
50.37265 173.000
50.39260 161.000
50.41254 180.000
50.43249 171.000
50.45244 176.000
50.47239 158.000
50.49233 156.000
50.51228 184.000
50.53223 162.000
50.55217 185.000
50.57212 166.000
50.59207 160.000
50.61201 143.000
50.63196 156.000
50.65191 161.000
50.67186 144.000
50.69180 154.000
50.71175 170.000
50.73170 148.000
50.75164 140.000
50.77159 169.000
50.79154 149.000
50.81148 159.000
50.83143 150.000
50.85138 161.000
50.87132 156.000
50.89127 154.000
50.91122 143.000
50.93117 146.000
50.95111 170.000
50.97106 159.000
50.99101 162.000
51.01095 151.000
51.03090 167.000
51.05085 144.000
51.07079 157.000
51.09074 163.000
51.11069 157.000
51.13064 169.000
51.15058 187.000
51.17053 159.000
51.19048 165.000
51.21042 159.000
51.23037 152.000
51.25032 188.000
51.27026 166.000
51.29021 159.000
51.31016 164.000
51.33010 154.000
51.35005 142.000
51.37000 163.000
51.38995 155.000
51.40989 168.000
51.42984 152.000
51.44979 159.000
51.46973 158.000
51.48968 155.000
51.50963 168.000
51.52957 170.000
51.54952 159.000
51.56947 152.000
51.58942 197.000
51.60936 165.000
51.62931 164.000
51.64926 152.000
51.66920 162.000
51.68915 151.000
51.70910 161.000
51.72904 139.000
51.74899 177.000
51.76894 161.000
51.78888 181.000
51.80883 146.000
51.82878 158.000
51.84873 165.000
51.86867 159.000
51.88862 149.000
51.90857 170.000
51.92851 178.000
51.94846 156.000
51.96841 154.000
51.98835 172.000
52.00830 153.000
52.02825 178.000
52.04820 170.000
52.06814 159.000
52.08809 144.000
52.10804 161.000
52.12798 176.000
52.14793 157.000
52.16788 180.000
52.18782 171.000
52.20777 168.000
52.22772 151.000
52.24767 157.000
52.26761 179.000
52.28756 155.000
52.30751 176.000
52.32745 185.000
52.34740 172.000
52.36735 154.000
52.38729 173.000
52.40724 155.000
52.42719 146.000
52.44713 143.000
52.46708 151.000
52.48703 187.000
52.50698 151.000
52.52692 141.000
52.54687 184.000
52.56682 158.000
52.58676 134.000
52.60671 150.000
52.62666 148.000
52.64660 182.000
52.66655 153.000
52.68650 165.000
52.70645 149.000
52.72639 167.000
52.74634 157.000
52.76629 166.000
52.78623 149.000
52.80618 148.000
52.82613 151.000
52.84607 161.000
52.86602 153.000
52.88597 162.000
52.90591 164.000
52.92586 151.000
52.94581 145.000
52.96576 161.000
52.98570 163.000
53.00565 150.000
53.02560 147.000
53.04554 157.000
53.06549 142.000
53.08544 160.000
53.10538 182.000
53.12533 161.000
53.14528 142.000
53.16523 171.000
53.18517 172.000
53.20512 159.000
53.22507 164.000
53.24501 149.000
53.26496 174.000
53.28491 176.000
53.30485 160.000
53.32480 153.000
53.34475 170.000
53.36469 146.000
53.38464 163.000
53.40459 171.000
53.42454 166.000
53.44448 170.000
53.46443 178.000
53.48438 177.000
53.50432 152.000
53.52427 167.000
53.54422 160.000
53.56416 193.000
53.58411 163.000
53.60406 161.000
53.62401 149.000
53.64395 164.000
53.66390 171.000
53.68385 179.000
53.70379 171.000
53.72374 174.000
53.74369 149.000
53.76363 157.000
53.78358 146.000
53.80353 169.000
53.82348 166.000
53.84342 159.000
53.86337 180.000
53.88332 160.000
53.90326 166.000
53.92321 176.000
53.94316 149.000
53.96310 168.000
53.98305 153.000
54.00300 139.000
54.02294 168.000
54.04289 142.000
54.06284 178.000
54.08279 168.000
54.10273 146.000
54.12268 154.000
54.14263 169.000
54.16257 155.000
54.18252 174.000
54.20247 139.000
54.22241 164.000
54.24236 154.000
54.26231 159.000
54.28226 183.000
54.30220 166.000
54.32215 161.000
54.34210 180.000
54.36204 173.000
54.38199 159.000
54.40194 177.000
54.42188 150.000
54.44183 151.000
54.46178 162.000
54.48172 149.000
54.50167 175.000
54.52162 164.000
54.54157 152.000
54.56151 161.000
54.58146 140.000
54.60141 176.000
54.62135 157.000
54.64130 166.000
54.66125 180.000
54.68119 169.000
54.70114 168.000
54.72109 157.000
54.74104 165.000
54.76098 172.000
54.78093 174.000
54.80088 183.000
54.82082 161.000
54.84077 148.000
54.86072 152.000
54.88066 156.000
54.90061 164.000
54.92056 147.000
54.94050 197.000
54.96045 161.000
54.98040 155.000
55.00035 161.000
55.02029 163.000
55.04024 172.000
55.06019 134.000
55.08013 157.000
55.10008 149.000
55.12003 160.000
55.13997 160.000
55.15992 125.000
55.17987 162.000
55.19982 163.000
55.21976 173.000
55.23971 149.000
55.25966 163.000
55.27960 139.000
55.29955 133.000
55.31950 156.000
55.33944 152.000
55.35939 141.000
55.37934 168.000
55.39929 156.000
55.41923 174.000
55.43918 165.000
55.45913 177.000
55.47907 167.000
55.49902 145.000
55.51897 150.000
55.53891 163.000
55.55886 160.000
55.57881 161.000
55.59875 153.000
55.61870 151.000
55.63865 156.000
55.65860 151.000
55.67854 153.000
55.69849 155.000
55.71844 154.000
55.73838 154.000
55.75833 154.000
55.77828 170.000
55.79822 169.000
55.81817 168.000
55.83812 166.000
55.85807 164.000
55.87801 167.000
55.89796 168.000
55.91791 154.000
55.93785 175.000
55.95780 166.000
55.97775 172.000
55.99769 147.000
56.01764 150.000
56.03759 165.000
56.05753 141.000
56.07748 186.000
56.09743 159.000
56.11738 163.000
56.13732 163.000
56.15727 160.000
56.17722 164.000
56.19716 135.000
56.21711 179.000
56.23706 141.000
56.25700 157.000
56.27695 150.000
56.29690 148.000
56.31685 169.000
56.33679 180.000
56.35674 162.000
56.37669 154.000
56.39663 149.000
56.41658 165.000
56.43653 163.000
56.45647 165.000
56.47642 165.000
56.49637 174.000
56.51631 148.000
56.53626 165.000
56.55621 168.000
56.57616 168.000
56.59610 176.000
56.61605 166.000
56.63600 164.000
56.65594 145.000
56.67589 164.000
56.69584 164.000
56.71578 147.000
56.73573 166.000
56.75568 148.000
56.77563 176.000
56.79557 165.000
56.81552 156.000
56.83547 158.000
56.85541 168.000
56.87536 155.000
56.89531 171.000
56.91525 169.000
56.93520 174.000
56.95515 162.000
56.97510 137.000
56.99504 152.000
57.01499 171.000
57.03494 172.000
57.05488 172.000
57.07483 134.000
57.09478 178.000
57.11472 156.000
57.13467 177.000
57.15462 172.000
57.17456 181.000
57.19451 208.000
57.21446 193.000
57.23441 209.000
57.25435 195.000
57.27430 194.000
57.29425 184.000
57.31419 193.000
57.33414 212.000
57.35409 172.000
57.37403 202.000
57.39398 210.000
57.41393 179.000
57.43388 186.000
57.45382 172.000
57.47377 174.000
57.49372 182.000
57.51366 180.000
57.53361 160.000
57.55356 197.000
57.57350 156.000
57.59345 173.000
57.61340 143.000
57.63334 151.000
57.65329 173.000
57.67324 187.000
57.69319 183.000
57.71313 185.000
57.73308 167.000
57.75303 168.000
57.77297 158.000
57.79292 165.000
57.81287 144.000
57.83281 170.000
57.85276 158.000
57.87271 160.000
57.89266 176.000
57.91260 163.000
57.93255 171.000
57.95250 174.000
57.97244 182.000
57.99239 153.000
58.01234 168.000
58.03228 148.000
58.05223 171.000
58.07218 155.000
58.09212 171.000
58.11207 165.000
58.13202 180.000
58.15197 166.000
58.17191 168.000
58.19186 159.000
58.21181 152.000
58.23175 172.000
58.25170 152.000
58.27165 164.000
58.29159 170.000
58.31154 185.000
58.33149 156.000
58.35144 175.000
58.37138 188.000
58.39133 167.000
58.41128 171.000
58.43122 149.000
58.45117 165.000
58.47112 162.000
58.49106 184.000
58.51101 165.000
58.53096 159.000
58.55090 150.000
58.57085 156.000
58.59080 135.000
58.61075 168.000
58.63069 150.000
58.65064 148.000
58.67059 145.000
58.69053 165.000
58.71048 182.000
58.73043 162.000
58.75037 156.000
58.77032 155.000
58.79027 184.000
58.81022 137.000
58.83016 175.000
58.85011 144.000
58.87006 154.000
58.89000 165.000
58.90995 169.000
58.92990 173.000
58.94984 173.000
58.96979 174.000
58.98974 155.000
59.00969 170.000
59.02963 168.000
59.04958 162.000
59.06953 178.000
59.08947 190.000
59.10942 161.000
59.12937 167.000
59.14931 153.000
59.16926 175.000
59.18921 152.000
59.20915 156.000
59.22910 177.000
59.24905 160.000
59.26900 170.000
59.28894 162.000
59.30889 162.000
59.32884 160.000
59.34878 186.000
59.36873 188.000
59.38868 140.000
59.40862 165.000
59.42857 145.000
59.44852 154.000
59.46847 157.000
59.48841 171.000
59.50836 148.000
59.52831 164.000
59.54825 189.000
59.56820 162.000
59.58815 155.000
59.60809 180.000
59.62804 173.000
59.64799 165.000
59.66793 168.000
59.68788 148.000
59.70783 183.000
59.72778 160.000
59.74772 189.000
59.76767 188.000
59.78762 156.000
59.80756 164.000
59.82751 163.000
59.84746 155.000
59.86740 186.000
59.88735 168.000
59.90730 203.000
59.92725 143.000
59.94719 174.000
59.96714 176.000
59.98709 153.000
60.00703 135.000
60.02698 171.000
60.04693 187.000
60.06687 177.000
60.08682 165.000
60.10677 179.000
60.12671 169.000
60.14666 170.000
60.16661 163.000
60.18656 175.000
60.20650 145.000
60.22645 139.000
60.24640 157.000
60.26634 133.000
60.28629 183.000
60.30624 152.000
60.32618 156.000
60.34613 169.000
60.36608 168.000
60.38603 191.000
60.40597 184.000
60.42592 162.000
60.44587 173.000
60.46581 185.000
60.48576 149.000
60.50571 201.000
60.52565 162.000
60.54560 146.000
60.56555 157.000
60.58550 139.000
60.60544 160.000
60.62539 193.000
60.64534 180.000
60.66528 169.000
60.68523 168.000
60.70518 163.000
60.72512 176.000
60.74507 167.000
60.76502 175.000
60.78496 171.000
60.80491 149.000
60.82486 154.000
60.84481 173.000
60.86475 172.000
60.88470 177.000
60.90465 178.000
60.92459 185.000
60.94454 179.000
60.96449 135.000
60.98443 174.000
61.00438 183.000
61.02433 182.000
61.04428 167.000
61.06422 168.000
61.08417 171.000
61.10412 172.000
61.12406 173.000
61.14401 183.000
61.16396 158.000
61.18390 190.000
61.20385 182.000
61.22380 186.000
61.24374 174.000
61.26369 209.000
61.28364 175.000
61.30359 201.000
61.32353 172.000
61.34348 183.000
61.36343 192.000
61.38337 187.000
61.40332 182.000
61.42327 203.000
61.44321 195.000
61.46316 208.000
61.48311 188.000
61.50306 198.000
61.52300 223.000
61.54295 203.000
61.56290 209.000
61.58284 221.000
61.60279 227.000
61.62274 209.000
61.64268 232.000
61.66263 239.000
61.68258 239.000
61.70252 217.000
61.72247 268.000
61.74242 253.000
61.76237 259.000
61.78231 289.000
61.80226 262.000
61.82221 325.000
61.84215 314.000
61.86210 363.000
61.88205 432.000
61.90199 484.000
61.92194 564.000
61.94189 610.000
61.96184 719.000
61.98178 767.000
62.00173 820.000
62.02168 782.000
62.04162 726.000
62.06157 692.000
62.08152 615.000
62.10146 649.000
62.12141 666.000
62.14136 619.000
62.16131 612.000
62.18125 577.000
62.20120 525.000
62.22115 493.000
62.24109 511.000
62.26104 462.000
62.28099 422.000
62.30093 406.000
62.32088 391.000
62.34083 372.000
62.36077 426.000
62.38072 365.000
62.40067 378.000
62.42062 423.000
62.44056 431.000
62.46051 492.000
62.48046 495.000
62.50040 535.000
62.52035 578.000
62.54030 585.000
62.56024 624.000
62.58019 607.000
62.60014 687.000
62.62009 707.000
62.64003 777.000
62.65998 803.000
62.67993 736.000
62.69987 764.000
62.71982 694.000
62.73977 718.000
62.75971 599.000
62.77966 554.000
62.79961 557.000
62.81955 571.000
62.83950 510.000
62.85945 496.000
62.87940 514.000
62.89934 436.000
62.91929 401.000
62.93924 357.000
62.95918 356.000
62.97913 325.000
62.99908 304.000
63.01902 296.000
63.03897 255.000
63.05892 259.000
63.07887 205.000
63.09881 266.000
63.11876 218.000
63.13871 246.000
63.15865 213.000
63.17860 235.000
63.19855 209.000
63.21849 184.000
63.23844 185.000
63.25839 169.000
63.27833 172.000
63.29828 188.000
63.31823 192.000
63.33818 161.000
63.35812 195.000
63.37807 188.000
63.39802 187.000
63.41796 182.000
63.43791 181.000
63.45786 169.000
63.47780 172.000
63.49775 179.000
63.51770 183.000
63.53765 199.000
63.55759 185.000
63.57754 176.000
63.59749 180.000
63.61743 173.000
63.63738 167.000
63.65733 182.000
63.67727 176.000
63.69722 188.000
63.71717 180.000
63.73712 194.000
63.75706 173.000
63.77701 189.000
63.79696 200.000
63.81690 140.000
63.83685 180.000
63.85680 210.000
63.87674 208.000
63.89669 209.000
63.91664 214.000
63.93658 197.000
63.95653 209.000
63.97648 220.000
63.99643 247.000
64.01637 240.000
64.03632 258.000
64.05627 263.000
64.07621 338.000
64.09616 354.000
64.11611 368.000
64.13605 391.000
64.15600 436.000
64.17595 422.000
64.19590 414.000
64.21584 442.000
64.23579 424.000
64.25574 470.000
64.27568 486.000
64.29563 489.000
64.31558 486.000
64.33552 483.000
64.35547 475.000
64.37542 433.000
64.39536 437.000
64.41531 394.000
64.43526 389.000
64.45521 385.000
64.47515 344.000
64.49510 317.000
64.51505 338.000
64.53499 294.000
64.55494 315.000
64.57489 261.000
64.59483 275.000
64.61478 276.000
64.63473 250.000
64.65468 221.000
64.67462 217.000
64.69457 230.000
64.71452 210.000
64.73446 184.000
64.75441 180.000
64.77436 170.000
64.79430 194.000
64.81425 202.000
64.83420 207.000
64.85414 167.000
64.87409 178.000
64.89404 201.000
64.91399 182.000
64.93393 196.000
64.95388 197.000
64.97383 175.000
64.99377 185.000
65.01372 186.000
65.03367 163.000
65.05361 169.000
65.07356 180.000
65.09351 164.000
65.11346 174.000
65.13340 159.000
65.15335 175.000
65.17330 154.000
65.19324 180.000
65.21319 161.000
65.23314 192.000
65.25308 159.000
65.27303 174.000
65.29298 152.000
65.31293 168.000
65.33287 150.000
65.35282 172.000
65.37277 190.000
65.39271 164.000
65.41266 181.000
65.43261 148.000
65.45255 164.000
65.47250 196.000
65.49245 164.000
65.51239 191.000
65.53234 205.000
65.55229 166.000
65.57224 197.000
65.59218 164.000
65.61213 165.000
65.63208 172.000
65.65202 171.000
65.67197 189.000
65.69192 203.000
65.71186 182.000
65.73181 184.000
65.75176 173.000
65.77171 164.000
65.79165 161.000
65.81160 170.000
65.83155 183.000
65.85149 193.000
65.87144 190.000
65.89139 199.000
65.91133 185.000
65.93128 193.000
65.95123 193.000
65.97117 187.000
65.99112 163.000
66.01107 177.000
66.03102 179.000
66.05096 181.000
66.07091 204.000
66.09086 178.000
66.11080 168.000
66.13075 181.000
66.15070 185.000
66.17064 176.000
66.19059 187.000
66.21054 188.000
66.23049 200.000
66.25043 190.000
66.27038 185.000
66.29033 170.000
66.31027 185.000
66.33022 189.000
66.35017 203.000
66.37011 225.000
66.39006 236.000
66.41001 255.000
66.42995 222.000
66.44990 252.000
66.46985 265.000
66.48980 312.000
66.50974 318.000
66.52969 333.000
66.54964 339.000
66.56958 339.000
66.58953 329.000
66.60948 360.000
66.62942 353.000
66.64937 367.000
66.66932 347.000
66.68927 334.000
66.70921 367.000
66.72916 364.000
66.74911 374.000
66.76905 393.000
66.78900 371.000
66.80895 370.000
66.82889 399.000
66.84884 341.000
66.86879 350.000
66.88874 345.000
66.90868 347.000
66.92863 357.000
66.94858 424.000
66.96852 330.000
66.98847 337.000
67.00842 318.000
67.02836 280.000
67.04831 272.000
67.06826 270.000
67.08820 255.000
67.10815 232.000
67.12810 221.000
67.14805 253.000
67.16799 234.000
67.18794 242.000
67.20789 223.000
67.22783 202.000
67.24778 172.000
67.26773 183.000
67.28767 186.000
67.30762 178.000
67.32757 170.000
67.34752 158.000
67.36746 172.000
67.38741 168.000
67.40736 160.000
67.42730 181.000
67.44725 170.000
67.46720 187.000
67.48714 156.000
67.50709 170.000
67.52704 203.000
67.54698 156.000
67.56693 207.000
67.58688 166.000
67.60683 158.000
67.62677 170.000
67.64672 162.000
67.66667 168.000
67.68661 178.000
67.70656 166.000
67.72651 175.000
67.74645 148.000
67.76640 163.000
67.78635 162.000
67.80630 166.000
67.82624 160.000
67.84619 154.000
67.86614 180.000
67.88608 152.000
67.90603 160.000
67.92598 171.000
67.94592 177.000
67.96587 163.000
67.98582 192.000
68.00576 177.000
68.02571 175.000
68.04566 150.000
68.06561 170.000
68.08555 157.000
68.10550 151.000
68.12545 163.000
68.14539 169.000
68.16534 180.000
68.18529 169.000
68.20523 153.000
68.22518 156.000
68.24513 169.000
68.26508 148.000
68.28502 172.000
68.30497 175.000
68.32492 166.000
68.34486 148.000
68.36481 141.000
68.38476 165.000
68.40470 150.000
68.42465 175.000
68.44460 172.000
68.46455 172.000
68.48449 173.000
68.50444 149.000
68.52439 169.000
68.54433 148.000
68.56428 171.000
68.58423 162.000
68.60417 176.000
68.62412 158.000
68.64407 147.000
68.66401 146.000
68.68396 152.000
68.70391 175.000
68.72386 139.000
68.74380 173.000
68.76375 180.000
68.78370 156.000
68.80364 146.000
68.82359 170.000
68.84354 168.000
68.86348 127.000
68.88343 175.000
68.90338 146.000
68.92333 145.000
68.94327 173.000
68.96322 157.000
68.98317 144.000
69.00311 165.000
69.02306 155.000
69.04301 141.000
69.06295 162.000
69.08290 173.000
69.10285 139.000
69.12279 171.000
69.14274 138.000
69.16269 146.000
69.18264 150.000
69.20258 163.000
69.22253 161.000
69.24248 157.000
69.26242 131.000
69.28237 135.000
69.30232 169.000
69.32226 157.000
69.34221 159.000
69.36216 176.000
69.38211 163.000
69.40205 152.000
69.42200 155.000
69.44195 180.000
69.46189 158.000
69.48184 152.000
69.50179 143.000
69.52173 147.000
69.54168 174.000
69.56163 164.000
69.58157 174.000
69.60152 141.000
69.62147 135.000
69.64142 156.000
69.66136 164.000
69.68131 171.000
69.70126 166.000
69.72120 173.000
69.74115 155.000
69.76110 158.000
69.78104 179.000
69.80099 154.000
69.82094 140.000
69.84089 157.000
69.86083 175.000
69.88078 169.000
69.90073 144.000
69.92067 166.000
69.94062 155.000
69.96057 181.000
69.98051 165.000
70.00046 152.000
70.02041 155.000
70.04035 170.000
70.06030 149.000
70.08025 152.000
70.10020 161.000
70.12014 155.000
70.14009 165.000
70.16004 160.000
70.17998 161.000
70.19993 141.000
70.21988 156.000
70.23982 139.000
70.25977 171.000
70.27972 136.000
70.29967 173.000
70.31961 156.000
70.33956 138.000
70.35951 165.000
70.37945 176.000
70.39940 178.000
70.41935 158.000
70.43929 170.000
70.45924 174.000
70.47919 171.000
70.49914 172.000
70.51908 164.000
70.53903 127.000
70.55898 157.000
70.57892 155.000
70.59887 175.000
70.61882 198.000
70.63876 153.000
70.65871 154.000
70.67866 161.000
70.69860 164.000
70.71855 181.000
70.73850 176.000
70.75845 173.000
70.77839 168.000
70.79834 163.000
70.81829 137.000
70.83823 166.000
70.85818 165.000
70.87813 135.000
70.89807 161.000
70.91802 150.000
70.93797 130.000
70.95792 156.000
70.97786 147.000
70.99781 157.000
71.01776 176.000
71.03770 160.000
71.05765 169.000
71.07760 156.000
71.09754 164.000
71.11749 169.000
71.13744 173.000
71.15738 163.000
71.17733 156.000
71.19728 154.000
71.21723 139.000
71.23717 158.000
71.25712 126.000
71.27707 156.000
71.29701 159.000
71.31696 156.000
71.33691 163.000
71.35685 150.000
71.37680 185.000
71.39675 148.000
71.41670 144.000
71.43664 152.000
71.45659 154.000
71.47654 166.000
71.49648 144.000
71.51643 161.000
71.53638 153.000
71.55632 158.000
71.57627 155.000
71.59622 173.000
71.61616 152.000
71.63611 159.000
71.65606 157.000
71.67601 166.000
71.69595 144.000
71.71590 147.000
71.73585 161.000
71.75579 152.000
71.77574 151.000
71.79569 150.000
71.81563 167.000
71.83558 160.000
71.85553 165.000
71.87548 176.000
71.89542 148.000
71.91537 153.000
71.93532 166.000
71.95526 179.000
71.97521 143.000
71.99516 174.000
72.01510 152.000
72.03505 155.000
72.05500 151.000
72.07495 148.000
72.09489 185.000
72.11484 168.000
72.13479 142.000
72.15473 180.000
72.17468 141.000
72.19463 137.000
72.21457 152.000
72.23452 137.000
72.25447 142.000
72.27441 174.000
72.29436 162.000
72.31431 179.000
72.33426 159.000
72.35420 168.000
72.37415 163.000
72.39410 170.000
72.41404 163.000
72.43399 174.000
72.45394 140.000
72.47388 155.000
72.49383 205.000
72.51378 152.000
72.53373 188.000
72.55367 151.000
72.57362 147.000
72.59357 157.000
72.61351 169.000
72.63346 178.000
72.65341 155.000
72.67335 137.000
72.69330 155.000
72.71325 168.000
72.73319 148.000
72.75314 153.000
72.77309 153.000
72.79304 152.000
72.81298 163.000
72.83293 151.000
72.85288 163.000
72.87282 181.000
72.89277 170.000
72.91272 152.000
72.93266 158.000
72.95261 169.000
72.97256 146.000
72.99251 154.000
73.01245 159.000
73.03240 159.000
73.05235 167.000
73.07229 160.000
73.09224 159.000
73.11219 146.000
73.13213 146.000
73.15208 145.000
73.17203 153.000
73.19197 170.000
73.21192 164.000
73.23187 152.000
73.25182 155.000
73.27176 204.000
73.29171 202.000
73.31166 179.000
73.33160 180.000
73.35155 187.000
73.37150 204.000
73.39144 213.000
73.41139 188.000
73.43134 203.000
73.45129 211.000
73.47123 247.000
73.49118 241.000
73.51113 249.000
73.53107 238.000
73.55102 273.000
73.57097 258.000
73.59091 271.000
73.61086 251.000
73.63081 260.000
73.65076 260.000
73.67070 236.000
73.69065 250.000
73.71060 253.000
73.73054 268.000
73.75049 253.000
73.77044 237.000
73.79038 226.000
73.81033 227.000
73.83028 211.000
73.85022 259.000
73.87017 207.000
73.89012 222.000
73.91007 198.000
73.93001 167.000
73.94996 215.000
73.96991 192.000
73.98985 194.000
74.00980 180.000
74.02975 153.000
74.04969 184.000
74.06964 203.000
74.08959 175.000
74.10954 178.000
74.12948 153.000
74.14943 158.000
74.16938 160.000
74.18932 157.000
74.20927 179.000
74.22922 149.000
74.24916 173.000
74.26911 169.000
74.28906 173.000
74.30900 140.000
74.32895 156.000
74.34890 172.000
74.36885 184.000
74.38879 179.000
74.40874 171.000
74.42869 155.000
74.44863 183.000
74.46858 155.000
74.48853 190.000
74.50847 174.000
74.52842 175.000
74.54837 161.000
74.56832 198.000
74.58826 133.000
74.60821 212.000
74.62816 183.000
74.64810 199.000
74.66805 190.000
74.68800 199.000
74.70794 193.000
74.72789 210.000
74.74784 186.000
74.76778 192.000
74.78773 197.000
74.80768 203.000
74.82763 225.000
74.84757 218.000
74.86752 225.000
74.88747 246.000
74.90741 222.000
74.92736 241.000
74.94731 272.000
74.96725 244.000
74.98720 244.000
75.00715 278.000
75.02710 278.000
75.04704 309.000
75.06699 291.000
75.08694 305.000
75.10688 310.000
75.12683 323.000
75.14678 332.000
75.16672 328.000
75.18667 309.000
75.20662 347.000
75.22657 321.000
75.24651 308.000
75.26646 307.000
75.28641 294.000
75.30635 289.000
75.32630 251.000
75.34625 261.000
75.36619 280.000
75.38614 253.000
75.40609 260.000
75.42603 242.000
75.44598 267.000
75.46593 253.000
75.48588 224.000
75.50582 238.000
75.52577 213.000
75.54572 203.000
75.56566 211.000
75.58561 221.000
75.60556 209.000
75.62550 216.000
75.64545 203.000
75.66540 215.000
75.68535 207.000
75.70529 170.000
75.72524 201.000
75.74519 218.000
75.76513 210.000
75.78508 194.000
75.80503 192.000
75.82497 177.000
75.84492 185.000
75.86487 184.000
75.88481 206.000
75.90476 198.000
75.92471 181.000
75.94466 169.000
75.96460 193.000
75.98455 194.000
76.00450 170.000
76.02444 202.000
76.04439 191.000
76.06434 162.000
76.08428 180.000
76.10423 199.000
76.12418 187.000
76.14413 184.000
76.16407 169.000
76.18402 181.000
76.20397 158.000
76.22391 151.000
76.24386 150.000
76.26381 155.000
76.28375 182.000
76.30370 169.000
76.32365 158.000
76.34359 173.000
76.36354 149.000
76.38349 160.000
76.40344 183.000
76.42338 160.000
76.44333 157.000
76.46328 155.000
76.48322 154.000
76.50317 158.000
76.52312 158.000
76.54306 177.000
76.56301 152.000
76.58296 173.000
76.60291 150.000
76.62285 151.000
76.64280 172.000
76.66275 170.000
76.68269 129.000
76.70264 166.000
76.72259 177.000
76.74253 135.000
76.76248 167.000
76.78243 168.000
76.80238 167.000
76.82232 140.000
76.84227 169.000
76.86222 164.000
76.88216 171.000
76.90211 164.000
76.92206 171.000
76.94200 160.000
76.96195 143.000
76.98190 156.000
77.00184 162.000
77.02179 147.000
77.04174 165.000
77.06169 150.000
77.08163 152.000
77.10158 174.000
77.12153 151.000
77.14147 168.000
77.16142 147.000
77.18137 189.000
77.20131 165.000
77.22126 141.000
77.24121 151.000
77.26116 161.000
77.28110 163.000
77.30105 157.000
77.32100 165.000
77.34094 182.000
77.36089 189.000
77.38084 158.000
77.40078 173.000
77.42073 187.000
77.44068 147.000
77.46062 189.000
77.48057 147.000
77.50052 145.000
77.52047 159.000
77.54041 180.000
77.56036 179.000
77.58031 186.000
77.60025 165.000
77.62020 180.000
77.64015 181.000
77.66009 175.000
77.68004 186.000
77.69999 182.000
77.71994 172.000
77.73988 199.000
77.75983 196.000
77.77978 191.000
77.79972 215.000
77.81967 231.000
77.83962 223.000
77.85956 223.000
77.87951 261.000
77.89946 241.000
77.91940 248.000
77.93935 233.000
77.95930 269.000
77.97925 265.000
77.99919 254.000
78.01914 297.000
78.03909 283.000
78.05903 287.000
78.07898 282.000
78.09893 280.000
78.11887 290.000
78.13882 293.000
78.15877 285.000
78.17872 299.000
78.19866 312.000
78.21861 336.000
78.23856 336.000
78.25850 362.000
78.27845 354.000
78.29840 371.000
78.31834 354.000
78.33829 364.000
78.35824 368.000
78.37819 332.000
78.39813 284.000
78.41808 307.000
78.43803 300.000
78.45797 270.000
78.47792 281.000
78.49787 278.000
78.51781 257.000
78.53776 251.000
78.55771 275.000
78.57765 247.000
78.59760 260.000
78.61755 212.000
78.63750 240.000
78.65744 227.000
78.67739 207.000
78.69734 171.000
78.71728 210.000
78.73723 183.000
78.75718 222.000
78.77712 203.000
78.79707 225.000
78.81702 190.000
78.83697 191.000
78.85691 236.000
78.87686 220.000
78.89681 229.000
78.91675 255.000
78.93670 232.000
78.95665 245.000
78.97659 251.000
78.99654 255.000
79.01649 295.000
79.03643 279.000
79.05638 257.000
79.07633 282.000
79.09628 272.000
79.11622 285.000
79.13617 305.000
79.15612 278.000
79.17606 262.000
79.19601 287.000
79.21596 279.000
79.23590 267.000
79.25585 232.000
79.27580 249.000
79.29575 235.000
79.31569 249.000
79.33564 229.000
79.35559 231.000
79.37553 208.000
79.39548 232.000
79.41543 210.000
79.43537 202.000
79.45532 205.000
79.47527 202.000
79.49521 204.000
79.51516 179.000
79.53511 164.000
79.55506 170.000
79.57500 146.000
79.59495 180.000
79.61490 176.000
79.63484 150.000
79.65479 157.000
79.67474 144.000
79.69468 176.000
79.71463 163.000
79.73458 164.000
79.75453 167.000
79.77447 144.000
79.79442 165.000
79.81437 168.000
79.83431 157.000
79.85426 154.000
79.87421 164.000
79.89415 154.000
79.91410 148.000
79.93405 154.000
79.95399 156.000
79.97394 185.000
79.99389 170.000
80.01384 142.000
80.03378 155.000
80.05373 165.000
80.07368 165.000
80.09362 157.000
80.11357 151.000
80.13352 164.000
80.15346 142.000
80.17341 176.000
80.19336 153.000
80.21331 161.000
80.23325 159.000
80.25320 174.000
80.27315 163.000
80.29309 169.000
80.31304 162.000
80.33299 178.000
80.35293 149.000
80.37288 152.000
80.39283 154.000
80.41278 169.000
80.43272 147.000
80.45267 133.000
80.47262 178.000
80.49256 146.000
80.51251 157.000
80.53246 156.000
80.55240 171.000
80.57235 151.000
80.59230 148.000
80.61224 183.000
80.63219 162.000
80.65214 175.000
80.67209 163.000
80.69203 174.000
80.71198 139.000
80.73193 173.000
80.75187 172.000
80.77182 152.000
80.79177 180.000
80.81171 158.000
80.83166 201.000
80.85161 186.000
80.87156 148.000
80.89150 188.000
80.91145 174.000
80.93140 158.000
80.95134 147.000
80.97129 164.000
80.99124 197.000
81.01118 150.000
81.03113 174.000
81.05108 167.000
81.07102 164.000
81.09097 158.000
81.11092 131.000
81.13087 158.000
81.15081 148.000
81.17076 163.000
81.19071 168.000
81.21065 165.000
81.23060 153.000
81.25055 159.000
81.27049 160.000
81.29044 158.000
81.31039 147.000
81.33034 159.000
81.35028 169.000
81.37023 174.000
81.39018 151.000
81.41012 155.000
81.43007 127.000
81.45002 159.000
81.46996 135.000
81.48991 143.000
81.50986 167.000
81.52980 143.000
81.54975 129.000
81.56970 156.000
81.58965 165.000
81.60959 180.000
81.62954 147.000
81.64949 146.000
81.66943 160.000
81.68938 164.000
81.70933 165.000
81.72927 161.000
81.74922 163.000
81.76917 151.000
81.78912 162.000
81.80906 161.000
81.82901 148.000
81.84896 149.000
81.86890 145.000
81.88885 181.000
81.90880 153.000
81.92874 141.000
81.94869 146.000
81.96864 145.000
81.98859 176.000
82.00853 159.000
82.02848 152.000
82.04843 146.000
82.06837 147.000
82.08832 158.000
82.10827 165.000
82.12821 148.000
82.14816 171.000
82.16811 132.000
82.18805 133.000
82.20800 140.000
82.22795 163.000
82.24790 157.000
82.26784 167.000
82.28779 154.000
82.30774 151.000
82.32768 171.000
82.34763 153.000
82.36758 151.000
82.38752 154.000
82.40747 172.000
82.42742 139.000
82.44737 185.000
82.46731 143.000
82.48726 146.000
82.50721 154.000
82.52715 140.000
82.54710 167.000
82.56705 151.000
82.58699 153.000
82.60694 148.000
82.62689 176.000
82.64683 154.000
82.66678 168.000
82.68673 159.000
82.70668 144.000
82.72662 165.000
82.74657 153.000
82.76652 164.000
82.78646 141.000
82.80641 145.000
82.82636 163.000
82.84630 187.000
82.86625 153.000
82.88620 119.000
82.90615 166.000
82.92609 134.000
82.94604 167.000
82.96599 145.000
82.98593 136.000
83.00588 157.000
83.02583 160.000
83.04577 156.000
83.06572 149.000
83.08567 168.000
83.10561 120.000
83.12556 156.000
83.14551 151.000
83.16546 149.000
83.18540 158.000
83.20535 143.000
83.22530 156.000
83.24524 145.000
83.26519 160.000
83.28514 161.000
83.30508 143.000
83.32503 179.000
83.34498 161.000
83.36493 168.000
83.38487 157.000
83.40482 163.000
83.42477 149.000
83.44471 155.000
83.46466 144.000
83.48461 149.000
83.50455 153.000
83.52450 152.000
83.54445 163.000
83.56440 147.000
83.58434 135.000
83.60429 152.000
83.62424 178.000
83.64418 158.000
83.66413 165.000
83.68408 157.000
83.70402 160.000
83.72397 168.000
83.74392 157.000
83.76386 165.000
83.78381 144.000
83.80376 156.000
83.82371 151.000
83.84365 156.000
83.86360 179.000
83.88355 148.000
83.90349 156.000
83.92344 162.000
83.94339 184.000
83.96333 150.000
83.98328 162.000
84.00323 169.000
84.02318 152.000
84.04312 129.000
84.06307 149.000
84.08302 151.000
84.10296 135.000
84.12291 156.000
84.14286 149.000
84.16280 146.000
84.18275 171.000
84.20270 146.000
84.22264 149.000
84.24259 166.000
84.26254 147.000
84.28249 179.000
84.30243 172.000
84.32238 167.000
84.34233 184.000
84.36227 163.000
84.38222 195.000
84.40217 192.000
84.42211 216.000
84.44206 201.000
84.46201 236.000
84.48196 200.000
84.50190 232.000
84.52185 222.000
84.54180 238.000
84.56174 239.000
84.58169 239.000
84.60164 242.000
84.62158 246.000
84.64153 251.000
84.66148 266.000
84.68142 242.000
84.70137 258.000
84.72132 258.000
84.74127 248.000
84.76121 254.000
84.78116 256.000
84.80111 289.000
84.82105 259.000
84.84100 249.000
84.86095 237.000
84.88089 239.000
84.90084 222.000
84.92079 225.000
84.94074 221.000
84.96068 234.000
84.98063 218.000
85.00058 206.000
85.02052 179.000
85.04047 180.000
85.06042 162.000
85.08036 196.000
85.10031 183.000
85.12026 185.000
85.14021 186.000
85.16015 157.000
85.18010 171.000
85.20005 179.000
85.21999 173.000
85.23994 162.000
85.25989 154.000
85.27983 144.000
85.29978 167.000
85.31973 151.000
85.33967 158.000
85.35962 147.000
85.37957 143.000
85.39952 155.000
85.41946 183.000
85.43941 156.000
85.45936 176.000
85.47930 156.000
85.49925 143.000
85.51920 162.000
85.53914 136.000
85.55909 143.000
85.57904 158.000
85.59899 161.000
85.61893 146.000
85.63888 161.000
85.65883 169.000
85.67877 130.000
85.69872 163.000
85.71867 153.000
85.73861 136.000
85.75856 132.000
85.77851 147.000
85.79845 144.000
85.81840 145.000
85.83835 156.000
85.85830 142.000
85.87824 135.000
85.89819 141.000
85.91814 151.000
85.93808 158.000
85.95803 147.000
85.97798 137.000
85.99792 164.000
86.01787 158.000
86.03782 138.000
86.05777 153.000
86.07771 146.000
86.09766 142.000
86.11761 155.000
86.13755 158.000
86.15750 145.000
86.17745 145.000
86.19739 141.000
86.21734 160.000
86.23729 156.000
86.25723 150.000
86.27718 158.000
86.29713 143.000
86.31708 131.000
86.33702 150.000
86.35697 130.000
86.37692 146.000
86.39686 185.000
86.41681 160.000
86.43676 178.000
86.45670 142.000
86.47665 151.000
86.49660 156.000
86.51655 154.000
86.53649 172.000
86.55644 185.000
86.57639 143.000
86.59633 141.000
86.61628 176.000
86.63623 164.000
86.65617 158.000
86.67612 152.000
86.69607 179.000
86.71602 149.000
86.73596 138.000
86.75591 161.000
86.77586 149.000
86.79580 171.000
86.81575 154.000
86.83570 145.000
86.85564 179.000
86.87559 168.000
86.89554 174.000
86.91548 182.000
86.93543 156.000
86.95538 155.000
86.97533 166.000
86.99527 170.000
87.01522 154.000
87.03517 173.000
87.05511 175.000
87.07506 174.000
87.09501 173.000
87.11495 194.000
87.13490 170.000
87.15485 196.000
87.17480 156.000
87.19474 167.000
87.21469 146.000
87.23464 195.000
87.25458 176.000
87.27453 189.000
87.29448 172.000
87.31442 170.000
87.33437 153.000
87.35432 177.000
87.37426 166.000
87.39421 180.000
87.41416 190.000
87.43411 187.000
87.45405 184.000
87.47400 163.000
87.49395 191.000
87.51389 156.000
87.53384 175.000
87.55379 170.000
87.57373 190.000
87.59368 163.000
87.61363 176.000
87.63358 156.000
87.65352 167.000
87.67347 194.000
87.69342 173.000
87.71336 179.000
87.73331 171.000
87.75326 172.000
87.77320 166.000
87.79315 153.000
87.81310 155.000
87.83304 157.000
87.85299 163.000
87.87294 183.000
87.89289 151.000
87.91283 169.000
87.93278 185.000
87.95273 162.000
87.97267 166.000
87.99262 154.000
88.01257 149.000
88.03251 172.000
88.05246 139.000
88.07241 172.000
88.09236 150.000
88.11230 147.000
88.13225 167.000
88.15220 165.000
88.17214 152.000
88.19209 155.000
88.21204 151.000
88.23198 152.000
88.25193 165.000
88.27188 118.000
88.29183 141.000
88.31177 173.000
88.33172 126.000
88.35167 163.000
88.37161 154.000
88.39156 149.000
88.41151 157.000
88.43145 161.000
88.45140 143.000
88.47135 156.000
88.49129 143.000
88.51124 150.000
88.53119 142.000
88.55114 179.000
88.57108 162.000
88.59103 160.000
88.61098 164.000
88.63092 156.000
88.65087 159.000
88.67082 164.000
88.69076 159.000
88.71071 154.000
88.73066 144.000
88.75061 166.000
88.77055 156.000
88.79050 168.000
88.81045 154.000
88.83039 141.000
88.85034 141.000
88.87029 145.000
88.89023 157.000
88.91018 152.000
88.93013 164.000
88.95007 148.000
88.97002 155.000
88.98997 153.000
89.00992 133.000
89.02986 156.000
89.04981 134.000
89.06976 130.000
89.08970 138.000
89.10965 171.000
89.12960 146.000
89.14954 142.000
89.16949 124.000
89.18944 135.000
89.20939 130.000
89.22933 177.000
89.24928 144.000
89.26923 138.000
89.28917 131.000
89.30912 152.000
89.32907 160.000
89.34901 151.000
89.36896 149.000
89.38891 164.000
89.40885 147.000
89.42880 154.000
89.44875 169.000
89.46870 142.000
89.48864 166.000
89.50859 152.000
89.52854 168.000
89.54848 160.000
89.56843 138.000
89.58838 146.000
89.60832 152.000
89.62827 159.000
89.64822 126.000
89.66817 154.000
89.68811 161.000
89.70806 168.000
89.72801 147.000
89.74795 142.000
89.76790 160.000
89.78785 164.000
89.80779 115.000
89.82774 161.000
89.84769 167.000
89.86764 150.000
89.88758 119.000
89.90753 161.000
89.92748 170.000
89.94742 125.000
89.96737 136.000
89.98732 149.000
90.00726 160.000
