10.00000 92.000
10.01995 100.000
10.03989 93.000
10.05984 74.000
10.07979 95.000
10.09973 100.000
10.11968 90.000
10.13963 99.000
10.15958 98.000
10.17952 103.000
10.19947 104.000
10.21942 103.000
10.23936 92.000
10.25931 114.000
10.27926 89.000
10.29920 96.000
10.31915 116.000
10.33910 114.000
10.35905 99.000
10.37899 95.000
10.39894 87.000
10.41889 110.000
10.43883 110.000
10.45878 126.000
10.47873 94.000
10.49867 93.000
10.51862 101.000
10.53857 92.000
10.55851 111.000
10.57846 102.000
10.59841 95.000
10.61836 109.000
10.63830 99.000
10.65825 119.000
10.67820 104.000
10.69814 89.000
10.71809 100.000
10.73804 100.000
10.75798 116.000
10.77793 105.000
10.79788 80.000
10.81783 94.000
10.83777 94.000
10.85772 92.000
10.87767 94.000
10.89761 105.000
10.91756 86.000
10.93751 89.000
10.95745 109.000
10.97740 98.000
10.99735 95.000
11.01730 82.000
11.03724 91.000
11.05719 103.000
11.07714 97.000
11.09708 84.000
11.11703 104.000
11.13698 113.000
11.15692 96.000
11.17687 111.000
11.19682 95.000
11.21676 103.000
11.23671 120.000
11.25666 122.000
11.27661 95.000
11.29655 112.000
11.31650 106.000
11.33645 89.000
11.35639 118.000
11.37634 117.000
11.39629 99.000
11.41623 98.000
11.43618 110.000
11.45613 109.000
11.47608 116.000
11.49602 95.000
11.51597 104.000
11.53592 100.000
11.55586 94.000
11.57581 110.000
11.59576 94.000
11.61570 129.000
11.63565 87.000
11.65560 120.000
11.67554 118.000
11.69549 109.000
11.71544 106.000
11.73539 110.000
11.75533 110.000
11.77528 116.000
11.79523 110.000
11.81517 92.000
11.83512 84.000
11.85507 92.000
11.87501 117.000
11.89496 113.000
11.91491 105.000
11.93486 119.000
11.95480 112.000
11.97475 91.000
11.99470 96.000
12.01464 113.000
12.03459 93.000
12.05454 106.000
12.07448 89.000
12.09443 115.000
12.11438 95.000
12.13432 105.000
12.15427 110.000
12.17422 110.000
12.19417 116.000
12.21411 116.000
12.23406 106.000
12.25401 98.000
12.27395 109.000
12.29390 109.000
12.31385 100.000
12.33379 126.000
12.35374 119.000
12.37369 132.000
12.39364 99.000
12.41358 112.000
12.43353 90.000
12.45348 107.000
12.47342 108.000
12.49337 98.000
12.51332 127.000
12.53326 102.000
12.55321 118.000
12.57316 106.000
12.59311 99.000
12.61305 115.000
12.63300 109.000
12.65295 97.000
12.67289 114.000
12.69284 124.000
12.71279 111.000
12.73273 108.000
12.75268 111.000
12.77263 118.000
12.79257 114.000
12.81252 112.000
12.83247 110.000
12.85242 110.000
12.87236 99.000
12.89231 106.000
12.91226 108.000
12.93220 95.000
12.95215 103.000
12.97210 106.000
12.99204 116.000
13.01199 115.000
13.03194 104.000
13.05189 112.000
13.07183 112.000
13.09178 112.000
13.11173 105.000
13.13167 123.000
13.15162 105.000
13.17157 109.000
13.19151 127.000
13.21146 136.000
13.23141 106.000
13.25135 115.000
13.27130 122.000
13.29125 113.000
13.31120 123.000
13.33114 117.000
13.35109 85.000
13.37104 109.000
13.39098 105.000
13.41093 100.000
13.43088 103.000
13.45082 119.000
13.47077 109.000
13.49072 133.000
13.51067 136.000
13.53061 118.000
13.55056 104.000
13.57051 125.000
13.59045 103.000
13.61040 104.000
13.63035 136.000
13.65029 122.000
13.67024 123.000
13.69019 113.000
13.71013 109.000
13.73008 105.000
13.75003 131.000
13.76998 112.000
13.78992 121.000
13.80987 101.000
13.82982 107.000
13.84976 117.000
13.86971 116.000
13.88966 123.000
13.90960 110.000
13.92955 102.000
13.94950 103.000
13.96945 117.000
13.98939 131.000
14.00934 116.000
14.02929 125.000
14.04923 132.000
14.06918 117.000
14.08913 116.000
14.10907 111.000
14.12902 130.000
14.14897 108.000
14.16892 134.000
14.18886 120.000
14.20881 135.000
14.22876 116.000
14.24870 131.000
14.26865 120.000
14.28860 109.000
14.30854 133.000
14.32849 124.000
14.34844 112.000
14.36838 130.000
14.38833 133.000
14.40828 124.000
14.42823 119.000
14.44817 121.000
14.46812 111.000
14.48807 137.000
14.50801 132.000
14.52796 134.000
14.54791 131.000
14.56785 128.000
14.58780 123.000
14.60775 127.000
14.62770 137.000
14.64764 137.000
14.66759 120.000
14.68754 121.000
14.70748 111.000
14.72743 122.000
14.74738 126.000
14.76732 131.000
14.78727 115.000
14.80722 135.000
14.82716 118.000
14.84711 131.000
14.86706 139.000
14.88701 145.000
14.90695 123.000
14.92690 144.000
14.94685 144.000
14.96679 134.000
14.98674 125.000
15.00669 131.000
15.02663 132.000
15.04658 136.000
15.06653 128.000
15.08648 135.000
15.10642 151.000
15.12637 151.000
15.14632 144.000
15.16626 148.000
15.18621 154.000
15.20616 152.000
15.22610 155.000
15.24605 188.000
15.26600 166.000
15.28594 179.000
15.30589 184.000
15.32584 232.000
15.34579 291.000
15.36573 319.000
15.38568 355.000
15.40563 406.000
15.42557 404.000
15.44552 485.000
15.46547 510.000
15.48541 544.000
15.50536 551.000
15.52531 567.000
15.54526 605.000
15.56520 625.000
15.58515 662.000
15.60510 682.000
15.62504 729.000
15.64499 775.000
15.66494 653.000
15.68488 557.000
15.70483 435.000
15.72478 406.000
15.74472 335.000
15.76467 337.000
15.78462 298.000
15.80457 351.000
15.82451 318.000
15.84446 326.000
15.86441 376.000
15.88435 373.000
15.90430 357.000
15.92425 375.000
15.94419 376.000
15.96414 388.000
15.98409 400.000
16.00404 417.000
16.02398 350.000
16.04393 322.000
16.06388 326.000
16.08382 253.000
16.10377 220.000
16.12372 172.000
16.14366 195.000
16.16361 163.000
16.18356 148.000
16.20351 149.000
16.22345 151.000
16.24340 157.000
16.26335 156.000
16.28329 124.000
16.30324 163.000
16.32319 173.000
16.34313 142.000
16.36308 176.000
16.38303 160.000
16.40297 142.000
16.42292 148.000
16.44287 170.000
16.46282 158.000
16.48276 147.000
16.50271 147.000
16.52266 165.000
16.54260 164.000
16.56255 166.000
16.58250 163.000
16.60244 155.000
16.62239 151.000
16.64234 157.000
16.66229 130.000
16.68223 160.000
16.70218 139.000
16.72213 170.000
16.74207 170.000
16.76202 157.000
16.78197 164.000
16.80191 139.000
16.82186 150.000
16.84181 133.000
16.86175 137.000
16.88170 131.000
16.90165 144.000
16.92160 133.000
16.94154 155.000
16.96149 142.000
16.98144 145.000
17.00138 141.000
17.02133 152.000
17.04128 139.000
17.06122 145.000
17.08117 141.000
17.10112 138.000
17.12107 134.000
17.14101 146.000
17.16096 150.000
17.18091 135.000
17.20085 117.000
17.22080 130.000
17.24075 146.000
17.26069 138.000
17.28064 141.000
17.30059 128.000
17.32053 133.000
17.34048 131.000
17.36043 137.000
17.38038 137.000
17.40032 145.000
17.42027 145.000
17.44022 144.000
17.46016 159.000
17.48011 147.000
17.50006 142.000
17.52000 141.000
17.53995 157.000
17.55990 161.000
17.57985 138.000
17.59979 151.000
17.61974 145.000
17.63969 153.000
17.65963 124.000
17.67958 136.000
17.69953 151.000
17.71947 148.000
17.73942 185.000
17.75937 167.000
17.77932 168.000
17.79926 172.000
17.81921 161.000
17.83916 185.000
17.85910 142.000
17.87905 135.000
17.89900 182.000
17.91894 139.000
17.93889 173.000
17.95884 155.000
17.97878 171.000
17.99873 155.000
18.01868 173.000
18.03863 190.000
18.05857 189.000
18.07852 171.000
18.09847 206.000
18.11841 195.000
18.13836 193.000
18.15831 207.000
18.17825 194.000
18.19820 193.000
18.21815 172.000
18.23810 196.000
18.25804 175.000
18.27799 158.000
18.29794 143.000
18.31788 154.000
18.33783 138.000
18.35778 141.000
18.37772 142.000
18.39767 135.000
18.41762 149.000
18.43756 145.000
18.45751 150.000
18.47746 149.000
18.49741 171.000
18.51735 163.000
18.53730 129.000
18.55725 152.000
18.57719 132.000
18.59714 137.000
18.61709 157.000
18.63703 144.000
18.65698 157.000
18.67693 160.000
18.69688 140.000
18.71682 163.000
18.73677 159.000
18.75672 188.000
18.77666 149.000
18.79661 171.000
18.81656 144.000
18.83650 143.000
18.85645 160.000
18.87640 155.000
18.89634 152.000
18.91629 143.000
18.93624 150.000
18.95619 171.000
18.97613 162.000
18.99608 169.000
19.01603 147.000
19.03597 151.000
19.05592 175.000
19.07587 167.000
19.09581 171.000
19.11576 139.000
19.13571 153.000
19.15566 124.000
19.17560 152.000
19.19555 169.000
19.21550 134.000
19.23544 163.000
19.25539 160.000
19.27534 141.000
19.29528 174.000
19.31523 155.000
19.33518 133.000
19.35513 175.000
19.37507 142.000
19.39502 155.000
19.41497 165.000
19.43491 165.000
19.45486 143.000
19.47481 161.000
19.49475 151.000
19.51470 154.000
19.53465 142.000
19.55459 159.000
19.57454 162.000
19.59449 162.000
19.61444 147.000
19.63438 172.000
19.65433 180.000
19.67428 137.000
19.69422 146.000
19.71417 172.000
19.73412 177.000
19.75406 153.000
19.77401 145.000
19.79396 167.000
19.81391 143.000
19.83385 146.000
19.85380 146.000
19.87375 160.000
19.89369 148.000
19.91364 161.000
19.93359 172.000
19.95353 156.000
19.97348 175.000
19.99343 162.000
20.01337 176.000
20.03332 188.000
20.05327 158.000
20.07322 174.000
20.09316 160.000
20.11311 159.000
20.13306 161.000
20.15300 161.000
20.17295 167.000
20.19290 151.000
20.21284 159.000
20.23279 149.000
20.25274 140.000
20.27269 156.000
20.29263 201.000
20.31258 194.000
20.33253 167.000
20.35247 219.000
20.37242 175.000
20.39237 217.000
20.41231 203.000
20.43226 194.000
20.45221 220.000
20.47215 233.000
20.49210 250.000
20.51205 272.000
20.53200 231.000
20.55194 251.000
20.57189 267.000
20.59184 276.000
20.61178 293.000
20.63173 239.000
20.65168 287.000
20.67162 292.000
20.69157 289.000
20.71152 290.000
20.73147 314.000
20.75141 290.000
20.77136 283.000
20.79131 258.000
20.81125 280.000
20.83120 231.000
20.85115 269.000
20.87109 270.000
20.89104 254.000
20.91099 219.000
20.93094 219.000
20.95088 193.000
20.97083 183.000
20.99078 179.000
21.01072 203.000
21.03067 182.000
21.05062 193.000
21.07056 173.000
21.09051 159.000
21.11046 163.000
21.13040 158.000
21.15035 185.000
21.17030 171.000
21.19025 182.000
21.21019 162.000
21.23014 177.000
21.25009 138.000
21.27003 167.000
21.28998 179.000
21.30993 181.000
21.32987 177.000
21.34982 157.000
21.36977 186.000
21.38972 152.000
21.40966 151.000
21.42961 153.000
21.44956 169.000
21.46950 170.000
21.48945 170.000
21.50940 159.000
21.52934 177.000
21.54929 186.000
21.56924 161.000
21.58918 173.000
21.60913 162.000
21.62908 148.000
21.64903 174.000
21.66897 156.000
21.68892 161.000
21.70887 145.000
21.72881 163.000
21.74876 180.000
21.76871 178.000
21.78865 173.000
21.80860 187.000
21.82855 147.000
21.84850 162.000
21.86844 156.000
21.88839 147.000
21.90834 161.000
21.92828 158.000
21.94823 198.000
21.96818 191.000
21.98812 143.000
22.00807 175.000
22.02802 155.000
22.04796 182.000
22.06791 173.000
22.08786 163.000
22.10781 181.000
22.12775 164.000
22.14770 163.000
22.16765 161.000
22.18759 168.000
22.20754 200.000
22.22749 169.000
22.24743 197.000
22.26738 150.000
22.28733 157.000
22.30728 170.000
22.32722 179.000
22.34717 150.000
22.36712 171.000
22.38706 155.000
22.40701 166.000
22.42696 186.000
22.44690 169.000
22.46685 185.000
22.48680 170.000
22.50675 169.000
22.52669 168.000
22.54664 173.000
22.56659 153.000
22.58653 163.000
22.60648 195.000
22.62643 194.000
22.64637 161.000
22.66632 177.000
22.68627 160.000
22.70621 169.000
22.72616 197.000
22.74611 172.000
22.76606 158.000
22.78600 170.000
22.80595 167.000
22.82590 166.000
22.84584 164.000
22.86579 192.000
22.88574 162.000
22.90568 159.000
22.92563 160.000
22.94558 166.000
22.96553 176.000
22.98547 158.000
23.00542 168.000
23.02537 167.000
23.04531 172.000
23.06526 157.000
23.08521 166.000
23.10515 180.000
23.12510 176.000
23.14505 180.000
23.16499 192.000
23.18494 154.000
23.20489 167.000
23.22484 170.000
23.24478 153.000
23.26473 182.000
23.28468 157.000
23.30462 160.000
23.32457 188.000
23.34452 209.000
23.36446 176.000
23.38441 171.000
23.40436 164.000
23.42431 171.000
23.44425 172.000
23.46420 172.000
23.48415 173.000
23.50409 198.000
23.52404 167.000
23.54399 182.000
23.56393 164.000
23.58388 178.000
23.60383 183.000
23.62377 172.000
23.64372 186.000
23.66367 174.000
23.68362 184.000
23.70356 188.000
23.72351 159.000
23.74346 173.000
23.76340 177.000
23.78335 191.000
23.80330 168.000
23.82324 182.000
23.84319 184.000
23.86314 172.000
23.88309 179.000
23.90303 187.000
23.92298 170.000
23.94293 178.000
23.96287 178.000
23.98282 177.000
24.00277 167.000
24.02271 159.000
24.04266 174.000
24.06261 165.000
24.08256 166.000
24.10250 173.000
24.12245 176.000
24.14240 165.000
24.16234 199.000
24.18229 167.000
24.20224 183.000
24.22218 184.000
24.24213 181.000
24.26208 156.000
24.28202 157.000
24.30197 185.000
24.32192 192.000
24.34187 169.000
24.36181 180.000
24.38176 178.000
24.40171 171.000
24.42165 186.000
24.44160 159.000
24.46155 206.000
24.48149 164.000
24.50144 183.000
24.52139 200.000
24.54134 177.000
24.56128 194.000
24.58123 205.000
24.60118 175.000
24.62112 197.000
24.64107 174.000
24.66102 180.000
24.68096 213.000
24.70091 201.000
24.72086 204.000
24.74080 222.000
24.76075 201.000
24.78070 178.000
24.80065 194.000
24.82059 191.000
24.84054 205.000
24.86049 184.000
24.88043 174.000
24.90038 183.000
24.92033 170.000
24.94027 198.000
24.96022 195.000
24.98017 189.000
25.00012 188.000
25.02006 206.000
25.04001 173.000
25.05996 186.000
25.07990 194.000
25.09985 195.000
25.11980 180.000
25.13974 170.000
25.15969 176.000
25.17964 176.000
25.19958 189.000
25.21953 190.000
25.23948 221.000
25.25943 171.000
25.27937 183.000
25.29932 182.000
25.31927 200.000
25.33921 187.000
25.35916 164.000
25.37911 205.000
25.39905 182.000
25.41900 207.000
25.43895 196.000
25.45890 195.000
25.47884 172.000
25.49879 173.000
25.51874 146.000
25.53868 202.000
25.55863 187.000
25.57858 164.000
25.59852 189.000
25.61847 213.000
25.63842 189.000
25.65837 192.000
25.67831 203.000
25.69826 197.000
25.71821 199.000
25.73815 180.000
25.75810 195.000
25.77805 196.000
25.79799 196.000
25.81794 214.000
25.83789 169.000
25.85783 170.000
25.87778 172.000
25.89773 156.000
25.91768 198.000
25.93762 174.000
25.95757 200.000
25.97752 213.000
25.99746 227.000
26.01741 180.000
26.03736 190.000
26.05730 193.000
26.07725 197.000
26.09720 173.000
26.11715 209.000
26.13709 153.000
26.15704 177.000
26.17699 185.000
26.19693 198.000
26.21688 189.000
26.23683 171.000
26.25677 172.000
26.27672 184.000
26.29667 210.000
26.31661 184.000
26.33656 197.000
26.35651 207.000
26.37646 186.000
26.39640 189.000
26.41635 191.000
26.43630 184.000
26.45624 209.000
26.47619 206.000
26.49614 206.000
26.51608 179.000
26.53603 198.000
26.55598 195.000
26.57593 188.000
26.59587 189.000
26.61582 184.000
26.63577 193.000
26.65571 219.000
26.67566 187.000
26.69561 159.000
26.71555 176.000
26.73550 216.000
26.75545 156.000
26.77539 212.000
26.79534 194.000
26.81529 186.000
26.83524 185.000
26.85518 197.000
26.87513 181.000
26.89508 173.000
26.91502 178.000
26.93497 210.000
26.95492 216.000
26.97486 168.000
26.99481 186.000
27.01476 207.000
27.03471 204.000
27.05465 173.000
27.07460 180.000
27.09455 206.000
27.11449 192.000
27.13444 213.000
27.15439 205.000
27.17433 179.000
27.19428 167.000
27.21423 189.000
27.23417 189.000
27.25412 185.000
27.27407 197.000
27.29402 208.000
27.31396 196.000
27.33391 203.000
27.35386 217.000
27.37380 196.000
27.39375 194.000
27.41370 208.000
27.43364 209.000
27.45359 231.000
27.47354 184.000
27.49349 180.000
27.51343 179.000
27.53338 182.000
27.55333 167.000
27.57327 192.000
27.59322 179.000
27.61317 192.000
27.63311 197.000
27.65306 208.000
27.67301 226.000
27.69296 179.000
27.71290 207.000
27.73285 240.000
27.75280 202.000
27.77274 206.000
27.79269 199.000
27.81264 201.000
27.83258 175.000
27.85253 196.000
27.87248 227.000
27.89242 218.000
27.91237 196.000
27.93232 190.000
27.95227 183.000
27.97221 205.000
27.99216 199.000
28.01211 221.000
28.03205 215.000
28.05200 188.000
28.07195 185.000
28.09189 188.000
28.11184 209.000
28.13179 225.000
28.15174 191.000
28.17168 202.000
28.19163 203.000
28.21158 202.000
28.23152 196.000
28.25147 201.000
28.27142 223.000
28.29136 213.000
28.31131 228.000
28.33126 216.000
28.35120 190.000
28.37115 194.000
28.39110 211.000
28.41105 202.000
28.43099 213.000
28.45094 201.000
28.47089 220.000
28.49083 204.000
28.51078 182.000
28.53073 206.000
28.55067 202.000
28.57062 188.000
28.59057 223.000
28.61052 213.000
28.63046 199.000
28.65041 194.000
28.67036 192.000
28.69030 222.000
28.71025 214.000
28.73020 182.000
28.75014 199.000
28.77009 220.000
28.79004 209.000
28.80998 222.000
28.82993 211.000
28.84988 209.000
28.86983 203.000
28.88977 217.000
28.90972 235.000
28.92967 219.000
28.94961 251.000
28.96956 288.000
28.98951 258.000
29.00945 266.000
29.02940 267.000
29.04935 297.000
29.06930 283.000
29.08924 284.000
29.10919 289.000
29.12914 278.000
29.14908 293.000
29.16903 294.000
29.18898 291.000
29.20892 248.000
29.22887 221.000
29.24882 252.000
29.26877 230.000
29.28871 225.000
29.30866 235.000
29.32861 243.000
29.34855 235.000
29.36850 233.000
29.38845 195.000
29.40839 230.000
29.42834 218.000
29.44829 206.000
29.46823 216.000
29.48818 204.000
29.50813 196.000
29.52808 199.000
29.54802 229.000
29.56797 221.000
29.58792 229.000
29.60786 217.000
29.62781 202.000
29.64776 214.000
29.66770 212.000
29.68765 220.000
29.70760 221.000
29.72755 231.000
29.74749 221.000
29.76744 218.000
29.78739 235.000
29.80733 274.000
29.82728 256.000
29.84723 302.000
29.86717 309.000
29.88712 286.000
29.90707 327.000
29.92701 290.000
29.94696 370.000
29.96691 326.000
29.98686 314.000
30.00680 365.000
30.02675 374.000
30.04670 400.000
30.06664 353.000
30.08659 392.000
30.10654 405.000
30.12648 336.000
30.14643 313.000
30.16638 272.000
30.18633 246.000
30.20627 245.000
30.22622 230.000
30.24617 237.000
30.26611 236.000
30.28606 211.000
30.30601 251.000
30.32595 212.000
30.34590 212.000
30.36585 222.000
30.38579 204.000
30.40574 200.000
30.42569 225.000
30.44564 251.000
30.46558 212.000
30.48553 218.000
30.50548 190.000
30.52542 216.000
30.54537 207.000
30.56532 216.000
30.58526 212.000
30.60521 202.000
30.62516 178.000
30.64511 202.000
30.66505 172.000
30.68500 213.000
30.70495 223.000
30.72489 197.000
30.74484 200.000
30.76479 230.000
30.78473 226.000
30.80468 228.000
30.82463 178.000
30.84458 193.000
30.86452 194.000
30.88447 174.000
30.90442 234.000
30.92436 214.000
30.94431 218.000
30.96426 208.000
30.98420 219.000
31.00415 216.000
31.02410 216.000
31.04404 186.000
31.06399 231.000
31.08394 208.000
31.10389 203.000
31.12383 198.000
31.14378 191.000
31.16373 194.000
31.18367 198.000
31.20362 219.000
31.22357 206.000
31.24351 210.000
31.26346 207.000
31.28341 204.000
31.30336 236.000
31.32330 195.000
31.34325 203.000
31.36320 205.000
31.38314 214.000
31.40309 214.000
31.42304 218.000
31.44298 226.000
31.46293 233.000
31.48288 217.000
31.50282 241.000
31.52277 237.000
31.54272 272.000
31.56267 222.000
31.58261 247.000
31.60256 243.000
31.62251 269.000
31.64245 248.000
31.66240 247.000
31.68235 280.000
31.70229 284.000
31.72224 308.000
31.74219 319.000
31.76214 323.000
31.78208 309.000
31.80203 334.000
31.82198 323.000
31.84192 309.000
31.86187 279.000
31.88182 284.000
31.90176 226.000
31.92171 251.000
31.94166 216.000
31.96160 178.000
31.98155 202.000
32.00150 203.000
32.02145 191.000
32.04139 181.000
32.06134 197.000
32.08129 193.000
32.10123 203.000
32.12118 177.000
32.14113 205.000
32.16107 200.000
32.18102 199.000
32.20097 188.000
32.22092 216.000
32.24086 202.000
32.26081 226.000
32.28076 213.000
32.30070 213.000
32.32065 232.000
32.34060 206.000
32.36054 203.000
32.38049 229.000
32.40044 275.000
32.42039 236.000
32.44033 252.000
32.46028 246.000
32.48023 237.000
32.50017 248.000
32.52012 259.000
32.54007 235.000
32.56001 238.000
32.57996 248.000
32.59991 247.000
32.61985 242.000
32.63980 236.000
32.65975 229.000
32.67970 233.000
32.69964 217.000
32.71959 232.000
32.73954 191.000
32.75948 193.000
32.77943 215.000
32.79938 194.000
32.81932 198.000
32.83927 200.000
32.85922 199.000
32.87917 191.000
32.89911 173.000
32.91906 185.000
32.93901 189.000
32.95895 190.000
32.97890 211.000
32.99885 183.000
33.01879 199.000
33.03874 190.000
33.05869 179.000
33.07863 193.000
33.09858 180.000
33.11853 202.000
33.13848 159.000
33.15842 225.000
33.17837 196.000
33.19832 212.000
33.21826 205.000
33.23821 199.000
33.25816 198.000
33.27810 187.000
33.29805 198.000
33.31800 219.000
33.33795 183.000
33.35789 216.000
33.37784 185.000
33.39779 186.000
33.41773 184.000
33.43768 213.000
33.45763 197.000
33.47757 170.000
33.49752 226.000
33.51747 176.000
33.53741 195.000
33.55736 211.000
33.57731 209.000
33.59726 195.000
33.61720 224.000
33.63715 191.000
33.65710 176.000
33.67704 209.000
33.69699 190.000
33.71694 184.000
33.73688 229.000
33.75683 205.000
33.77678 224.000
33.79673 233.000
33.81667 215.000
33.83662 211.000
33.85657 206.000
33.87651 222.000
33.89646 252.000
33.91641 242.000
33.93635 235.000
33.95630 258.000
33.97625 275.000
33.99620 290.000
34.01614 252.000
34.03609 241.000
34.05604 277.000
34.07598 296.000
34.09593 287.000
34.11588 271.000
34.13582 318.000
34.15577 279.000
34.17572 316.000
34.19566 316.000
34.21561 269.000
34.23556 324.000
34.25551 286.000
34.27545 315.000
34.29540 325.000
34.31535 317.000
34.33529 323.000
34.35524 329.000
34.37519 346.000
34.39513 315.000
34.41508 339.000
34.43503 306.000
34.45498 322.000
34.47492 348.000
34.49487 296.000
34.51482 312.000
34.53476 284.000
34.55471 292.000
34.57466 321.000
34.59460 260.000
34.61455 264.000
34.63450 258.000
34.65444 263.000
34.67439 252.000
34.69434 257.000
34.71429 232.000
34.73423 248.000
34.75418 216.000
34.77413 216.000
34.79407 230.000
34.81402 210.000
34.83397 217.000
34.85391 210.000
34.87386 237.000
34.89381 233.000
34.91376 226.000
34.93370 201.000
34.95365 204.000
34.97360 232.000
34.99354 222.000
35.01349 238.000
35.03344 225.000
35.05338 291.000
35.07333 247.000
35.09328 259.000
35.11322 287.000
35.13317 341.000
35.15312 333.000
35.17307 377.000
35.19301 411.000
35.21296 438.000
35.23291 474.000
35.25285 460.000
35.27280 560.000
35.29275 662.000
35.31269 681.000
35.33264 714.000
35.35259 705.000
35.37254 774.000
35.39248 847.000
35.41243 955.000
35.43238 967.000
35.45232 980.000
35.47227 982.000
35.49222 924.000
35.51216 853.000
35.53211 810.000
35.55206 711.000
35.57201 655.000
35.59195 568.000
35.61190 470.000
35.63185 450.000
35.65179 368.000
35.67174 330.000
35.69169 311.000
35.71163 318.000
35.73158 272.000
35.75153 295.000
35.77147 253.000
35.79142 225.000
35.81137 256.000
35.83132 254.000
35.85126 238.000
35.87121 210.000
35.89116 242.000
35.91110 238.000
35.93105 228.000
35.95100 261.000
35.97094 181.000
35.99089 220.000
36.01084 228.000
36.03079 196.000
36.05073 229.000
36.07068 211.000
36.09063 222.000
36.11057 215.000
36.13052 213.000
36.15047 202.000
36.17041 218.000
36.19036 211.000
36.21031 199.000
36.23025 237.000
36.25020 219.000
36.27015 209.000
36.29010 221.000
36.31004 234.000
36.32999 206.000
36.34994 231.000
36.36988 246.000
36.38983 235.000
36.40978 233.000
36.42972 257.000
36.44967 270.000
36.46962 276.000
36.48957 263.000
36.50951 306.000
36.52946 322.000
36.54941 306.000
36.56935 337.000
36.58930 339.000
36.60925 400.000
36.62919 408.000
36.64914 432.000
36.66909 456.000
36.68903 523.000
36.70898 562.000
36.72893 605.000
36.74888 666.000
36.76882 696.000
36.78877 815.000
36.80872 893.000
36.82866 980.000
36.84861 1037.000
36.86856 1202.000
36.88850 1307.000
36.90845 1483.000
36.92840 1740.000
36.94835 1957.000
36.96829 2115.000
36.98824 2183.000
37.00819 2124.000
37.02813 2030.000
37.04808 1890.000
37.06803 1676.000
37.08797 1381.000
37.10792 1282.000
37.12787 1004.000
37.14781 805.000
37.16776 622.000
37.18771 523.000
37.20766 385.000
37.22760 316.000
37.24755 311.000
37.26750 305.000
37.28744 294.000
37.30739 222.000
37.32734 249.000
37.34728 240.000
37.36723 234.000
37.38718 229.000
37.40713 191.000
37.42707 187.000
37.44702 215.000
37.46697 217.000
37.48691 207.000
37.50686 198.000
37.52681 180.000
37.54675 183.000
37.56670 221.000
37.58665 184.000
37.60660 190.000
37.62654 212.000
37.64649 200.000
37.66644 178.000
37.68638 165.000
37.70633 192.000
37.72628 201.000
37.74622 169.000
37.76617 202.000
37.78612 208.000
37.80606 202.000
37.82601 175.000
37.84596 169.000
37.86591 190.000
37.88585 186.000
37.90580 191.000
37.92575 169.000
37.94569 192.000
37.96564 158.000
37.98559 174.000
38.00553 183.000
38.02548 187.000
38.04543 187.000
38.06538 167.000
38.08532 178.000
38.10527 137.000
38.12522 171.000
38.14516 187.000
38.16511 197.000
38.18506 181.000
38.20500 194.000
38.22495 191.000
38.24490 164.000
38.26484 191.000
38.28479 174.000
38.30474 186.000
38.32469 152.000
38.34463 190.000
38.36458 162.000
38.38453 179.000
38.40447 185.000
38.42442 175.000
38.44437 199.000
38.46431 171.000
38.48426 193.000
38.50421 176.000
38.52416 181.000
38.54410 173.000
38.56405 190.000
38.58400 170.000
38.60394 193.000
38.62389 182.000
38.64384 221.000
38.66378 208.000
38.68373 210.000
38.70368 195.000
38.72362 224.000
38.74357 213.000
38.76352 233.000
38.78347 202.000
38.80341 207.000
38.82336 254.000
38.84331 261.000
38.86325 243.000
38.88320 276.000
38.90315 271.000
38.92309 319.000
38.94304 325.000
38.96299 356.000
38.98294 381.000
39.00288 377.000
39.02283 402.000
39.04278 437.000
39.06272 470.000
39.08267 471.000
39.10262 465.000
39.12256 489.000
39.14251 450.000
39.16246 417.000
39.18241 451.000
39.20235 392.000
39.22230 395.000
39.24225 328.000
39.26219 292.000
39.28214 296.000
39.30209 278.000
39.32203 247.000
39.34198 203.000
39.36193 220.000
39.38187 202.000
39.40182 192.000
39.42177 196.000
39.44172 174.000
39.46166 171.000
39.48161 179.000
39.50156 179.000
39.52150 193.000
39.54145 187.000
39.56140 173.000
39.58134 213.000
39.60129 157.000
39.62124 169.000
39.64119 164.000
39.66113 169.000
39.68108 180.000
39.70103 184.000
39.72097 170.000
39.74092 173.000
39.76087 194.000
39.78081 164.000
39.80076 178.000
39.82071 184.000
39.84065 151.000
39.86060 174.000
39.88055 156.000
39.90050 167.000
39.92044 187.000
39.94039 189.000
39.96034 173.000
39.98028 166.000
40.00023 175.000
40.02018 178.000
40.04012 162.000
40.06007 177.000
40.08002 174.000
40.09997 165.000
40.11991 164.000
40.13986 180.000
40.15981 199.000
40.17975 178.000
40.19970 150.000
40.21965 176.000
40.23959 166.000
40.25954 191.000
40.27949 148.000
40.29943 163.000
40.31938 177.000
40.33933 163.000
40.35928 196.000
40.37922 197.000
40.39917 180.000
40.41912 183.000
40.43906 188.000
40.45901 172.000
40.47896 170.000
40.49890 171.000
40.51885 175.000
40.53880 167.000
40.55875 162.000
40.57869 179.000
40.59864 160.000
40.61859 167.000
40.63853 181.000
40.65848 155.000
40.67843 180.000
40.69837 150.000
40.71832 194.000
40.73827 172.000
40.75822 166.000
40.77816 176.000
40.79811 201.000
40.81806 164.000
40.83800 189.000
40.85795 168.000
40.87790 165.000
40.89784 171.000
40.91779 216.000
40.93774 196.000
40.95768 164.000
40.97763 210.000
40.99758 175.000
41.01753 206.000
41.03747 206.000
41.05742 190.000
41.07737 210.000
41.09731 190.000
41.11726 234.000
41.13721 210.000
41.15715 233.000
41.17710 274.000
41.19705 288.000
41.21700 262.000
41.23694 267.000
41.25689 330.000
41.27684 314.000
41.29678 365.000
41.31673 395.000
41.33668 439.000
41.35662 446.000
41.37657 439.000
41.39652 460.000
41.41646 530.000
41.43641 513.000
41.45636 570.000
41.47631 543.000
41.49625 504.000
41.51620 432.000
41.53615 451.000
41.55609 396.000
41.57604 360.000
41.59599 340.000
41.61593 313.000
41.63588 283.000
41.65583 270.000
41.67578 262.000
41.69572 230.000
41.71567 211.000
41.73562 218.000
41.75556 225.000
41.77551 191.000
41.79546 192.000
41.81540 189.000
41.83535 177.000
41.85530 190.000
41.87524 191.000
41.89519 197.000
41.91514 189.000
41.93509 167.000
41.95503 189.000
41.97498 222.000
41.99493 193.000
42.01487 185.000
42.03482 186.000
42.05477 178.000
42.07471 196.000
42.09466 174.000
42.11461 202.000
42.13456 198.000
42.15450 190.000
42.17445 198.000
42.19440 192.000
42.21434 206.000
42.23429 190.000
42.25424 169.000
42.27418 249.000
42.29413 208.000
42.31408 223.000
42.33403 217.000
42.35397 218.000
42.37392 230.000
42.39387 205.000
42.41381 232.000
42.43376 246.000
42.45371 227.000
42.47365 255.000
42.49360 223.000
42.51355 237.000
42.53349 263.000
42.55344 289.000
42.57339 252.000
42.59334 277.000
42.61328 285.000
42.63323 349.000
42.65318 353.000
42.67312 372.000
42.69307 400.000
42.71302 519.000
42.73296 592.000
42.75291 684.000
42.77286 763.000
42.79281 916.000
42.81275 1037.000
42.83270 1210.000
42.85265 1270.000
42.87259 1453.000
42.89254 1666.000
42.91249 1865.000
42.93243 2250.000
42.95238 2634.000
42.97233 2990.000
42.99227 3299.000
43.01222 3468.000
43.03217 3539.000
43.05212 3520.000
43.07206 3209.000
43.09201 2901.000
43.11196 2540.000
43.13190 2220.000
43.15185 2042.000
43.17180 1787.000
43.19174 1470.000
43.21169 1080.000
43.23164 931.000
43.25159 720.000
43.27153 570.000
43.29148 515.000
43.31143 460.000
43.33137 392.000
43.35132 401.000
43.37127 341.000
43.39121 331.000
43.41116 280.000
43.43111 262.000
43.45105 251.000
43.47100 256.000
43.49095 225.000
43.51090 216.000
43.53084 215.000
43.55079 226.000
43.57074 230.000
43.59068 236.000
43.61063 209.000
43.63058 189.000
43.65052 220.000
43.67047 209.000
43.69042 189.000
43.71037 180.000
43.73031 182.000
43.75026 171.000
43.77021 189.000
43.79015 194.000
43.81010 195.000
43.83005 187.000
43.84999 185.000
43.86994 200.000
43.88989 183.000
43.90984 179.000
43.92978 199.000
43.94973 161.000
43.96968 165.000
43.98962 174.000
44.00957 180.000
44.02952 177.000
44.04946 152.000
44.06941 189.000
44.08936 162.000
44.10930 168.000
44.12925 173.000
44.14920 177.000
44.16915 177.000
44.18909 170.000
44.20904 170.000
44.22899 204.000
44.24893 174.000
44.26888 149.000
44.28883 173.000
44.30877 178.000
44.32872 173.000
44.34867 171.000
44.36862 156.000
44.38856 177.000
44.40851 184.000
44.42846 176.000
44.44840 161.000
44.46835 154.000
44.48830 158.000
44.50824 163.000
44.52819 194.000
44.54814 176.000
44.56808 189.000
44.58803 171.000
44.60798 185.000
44.62793 176.000
44.64787 158.000
44.66782 208.000
44.68777 185.000
44.70771 219.000
44.72766 202.000
44.74761 180.000
44.76755 189.000
44.78750 176.000
44.80745 195.000
44.82740 172.000
44.84734 192.000
44.86729 172.000
44.88724 187.000
44.90718 181.000
44.92713 213.000
44.94708 191.000
44.96702 175.000
44.98697 198.000
45.00692 185.000
45.02686 174.000
45.04681 181.000
45.06676 160.000
45.08671 164.000
45.10665 178.000
45.12660 157.000
45.14655 158.000
45.16649 175.000
45.18644 166.000
45.20639 171.000
45.22633 161.000
45.24628 171.000
45.26623 167.000
45.28618 182.000
45.30612 166.000
45.32607 173.000
45.34602 183.000
45.36596 167.000
45.38591 169.000
45.40586 163.000
45.42580 170.000
45.44575 188.000
45.46570 164.000
45.48565 168.000
45.50559 170.000
45.52554 162.000
45.54549 154.000
45.56543 153.000
45.58538 166.000
45.60533 184.000
45.62527 165.000
45.64522 165.000
45.66517 158.000
45.68511 155.000
45.70506 147.000
45.72501 175.000
45.74496 172.000
45.76490 159.000
45.78485 159.000
45.80480 168.000
45.82474 163.000
45.84469 178.000
45.86464 159.000
45.88458 166.000
45.90453 179.000
45.92448 172.000
45.94443 152.000
45.96437 127.000
45.98432 160.000
46.00427 118.000
46.02421 164.000
46.04416 162.000
46.06411 148.000
46.08405 175.000
46.10400 151.000
46.12395 168.000
46.14389 157.000
46.16384 167.000
46.18379 157.000
46.20374 143.000
46.22368 187.000
46.24363 160.000
46.26358 161.000
46.28352 165.000
46.30347 159.000
46.32342 147.000
46.34336 150.000
46.36331 152.000
46.38326 153.000
46.40321 154.000
46.42315 153.000
46.44310 186.000
46.46305 147.000
46.48299 153.000
46.50294 148.000
46.52289 159.000
46.54283 167.000
46.56278 155.000
46.58273 146.000
46.60267 166.000
46.62262 156.000
46.64257 166.000
46.66252 152.000
46.68246 152.000
46.70241 146.000
46.72236 151.000
46.74230 146.000
46.76225 147.000
46.78220 164.000
46.80214 157.000
46.82209 137.000
46.84204 155.000
46.86199 188.000
46.88193 144.000
46.90188 154.000
46.92183 168.000
46.94177 157.000
46.96172 175.000
46.98167 183.000
47.00161 153.000
47.02156 151.000
47.04151 144.000
47.06146 133.000
47.08140 166.000
47.10135 162.000
47.12130 153.000
47.14124 166.000
47.16119 173.000
47.18114 149.000
47.20108 176.000
47.22103 168.000
47.24098 152.000
47.26092 173.000
47.28087 161.000
47.30082 145.000
47.32077 149.000
47.34071 172.000
47.36066 155.000
47.38061 174.000
47.40055 167.000
47.42050 154.000
47.44045 168.000
47.46039 152.000
47.48034 153.000
47.50029 163.000
47.52024 184.000
47.54018 149.000
47.56013 166.000
47.58008 170.000
47.60002 179.000
47.61997 150.000
47.63992 192.000
47.65986 192.000
47.67981 172.000
47.69976 186.000
47.71970 182.000
47.73965 178.000
47.75960 177.000
47.77955 167.000
47.79949 175.000
47.81944 172.000
47.83939 160.000
47.85933 171.000
47.87928 168.000
47.89923 180.000
47.91917 194.000
47.93912 164.000
47.95907 164.000
47.97902 180.000
47.99896 169.000
48.01891 181.000
48.03886 149.000
48.05880 166.000
48.07875 166.000
48.09870 175.000
48.11864 177.000
48.13859 179.000
48.15854 188.000
48.17848 188.000
48.19843 211.000
48.21838 186.000
48.23833 187.000
48.25827 209.000
48.27822 210.000
48.29817 252.000
48.31811 234.000
48.33806 247.000
48.35801 275.000
48.37795 300.000
48.39790 301.000
48.41785 328.000
48.43780 359.000
48.45774 327.000
48.47769 354.000
48.49764 393.000
48.51758 437.000
48.53753 423.000
48.55748 409.000
48.57742 434.000
48.59737 389.000
48.61732 365.000
48.63726 355.000
48.65721 376.000
48.67716 351.000
48.69711 309.000
48.71705 307.000
48.73700 272.000
48.75695 228.000
48.77689 219.000
48.79684 199.000
48.81679 184.000
48.83673 209.000
48.85668 179.000
48.87663 199.000
48.89658 166.000
48.91652 160.000
48.93647 175.000
48.95642 173.000
48.97636 172.000
48.99631 162.000
49.01626 169.000
49.03620 152.000
49.05615 153.000
49.07610 151.000
49.09605 149.000
49.11599 192.000
49.13594 180.000
49.15589 174.000
49.17583 166.000
49.19578 161.000
49.21573 175.000
49.23567 185.000
49.25562 173.000
49.27557 165.000
49.29551 180.000
49.31546 168.000
49.33541 163.000
49.35536 164.000
49.37530 172.000
49.39525 151.000
49.41520 185.000
49.43514 193.000
49.45509 180.000
49.47504 176.000
49.49498 163.000
49.51493 157.000
49.53488 164.000
49.55483 154.000
49.57477 167.000
49.59472 159.000
49.61467 164.000
49.63461 152.000
49.65456 159.000
49.67451 162.000
49.69445 187.000
49.71440 162.000
49.73435 159.000
49.75429 161.000
49.77424 164.000
49.79419 166.000
49.81414 163.000
49.83408 159.000
49.85403 129.000
49.87398 171.000
49.89392 158.000
49.91387 175.000
49.93382 190.000
49.95376 157.000
49.97371 163.000
49.99366 160.000
50.01361 156.000
50.03355 159.000
50.05350 151.000
50.07345 157.000
50.09339 147.000
50.11334 139.000
50.13329 144.000
50.15323 146.000
50.17318 171.000
50.19313 159.000
50.21307 137.000
50.23302 146.000
50.25297 131.000
50.27292 183.000
50.29286 153.000
50.31281 142.000
50.33276 150.000
50.35270 145.000
50.37265 145.000
50.39260 155.000
50.41254 146.000
50.43249 150.000
50.45244 140.000
50.47239 146.000
50.49233 170.000
50.51228 152.000
50.53223 172.000
50.55217 128.000
50.57212 157.000
50.59207 171.000
50.61201 172.000
50.63196 137.000
50.65191 167.000
50.67186 172.000
50.69180 163.000
50.71175 154.000
50.73170 168.000
50.75164 131.000
50.77159 147.000
50.79154 150.000
50.81148 146.000
50.83143 159.000
50.85138 161.000
50.87132 141.000
50.89127 154.000
50.91122 125.000
50.93117 163.000
50.95111 169.000
50.97106 158.000
50.99101 139.000
51.01095 173.000
51.03090 153.000
51.05085 169.000
51.07079 155.000
51.09074 138.000
51.11069 177.000
51.13064 137.000
51.15058 148.000
51.17053 158.000
51.19048 148.000
51.21042 159.000
51.23037 149.000
51.25032 147.000
51.27026 150.000
51.29021 176.000
51.31016 150.000
51.33010 160.000
51.35005 143.000
51.37000 150.000
51.38995 145.000
51.40989 162.000
51.42984 161.000
51.44979 153.000
51.46973 153.000
51.48968 151.000
51.50963 150.000
51.52957 159.000
51.54952 129.000
51.56947 149.000
51.58942 154.000
51.60936 158.000
51.62931 171.000
51.64926 164.000
51.66920 156.000
51.68915 142.000
51.70910 164.000
51.72904 184.000
51.74899 149.000
51.76894 175.000
51.78888 176.000
51.80883 165.000
51.82878 182.000
51.84873 158.000
51.86867 162.000
51.88862 180.000
51.90857 181.000
51.92851 162.000
51.94846 166.000
51.96841 170.000
51.98835 165.000
52.00830 161.000
52.02825 168.000
52.04820 175.000
52.06814 154.000
52.08809 147.000
52.10804 159.000
52.12798 156.000
52.14793 181.000
52.16788 164.000
52.18782 153.000
52.20777 173.000
52.22772 172.000
52.24767 159.000
52.26761 149.000
52.28756 197.000
52.30751 140.000
52.32745 176.000
52.34740 157.000
52.36735 157.000
52.38729 152.000
52.40724 145.000
52.42719 158.000
52.44713 151.000
52.46708 162.000
52.48703 166.000
52.50698 149.000
52.52692 165.000
52.54687 170.000
52.56682 190.000
52.58676 173.000
52.60671 190.000
52.62666 169.000
52.64660 178.000
52.66655 172.000
52.68650 194.000
52.70645 200.000
52.72639 201.000
52.74634 181.000
52.76629 198.000
52.78623 200.000
52.80618 222.000
52.82613 200.000
52.84607 199.000
52.86602 205.000
52.88597 201.000
52.90591 206.000
52.92586 170.000
52.94581 210.000
52.96576 186.000
52.98570 196.000
53.00565 173.000
53.02560 180.000
53.04554 198.000
53.06549 156.000
53.08544 159.000
53.10538 158.000
53.12533 152.000
53.14528 168.000
53.16523 181.000
53.18517 156.000
53.20512 180.000
53.22507 186.000
53.24501 154.000
53.26496 146.000
53.28491 160.000
53.30485 188.000
53.32480 149.000
53.34475 163.000
53.36469 167.000
53.38464 159.000
53.40459 204.000
53.42454 176.000
53.44448 194.000
53.46443 207.000
53.48438 182.000
53.50432 203.000
53.52427 185.000
53.54422 194.000
53.56416 208.000
53.58411 176.000
53.60406 190.000
53.62401 194.000
53.64395 182.000
53.66390 203.000
53.68385 190.000
53.70379 208.000
53.72374 201.000
53.74369 189.000
53.76363 171.000
53.78358 166.000
53.80353 162.000
53.82348 173.000
53.84342 171.000
53.86337 127.000
53.88332 152.000
53.90326 161.000
53.92321 173.000
53.94316 187.000
53.96310 153.000
53.98305 163.000
54.00300 152.000
54.02294 166.000
54.04289 166.000
54.06284 156.000
54.08279 163.000
54.10273 153.000
54.12268 170.000
54.14263 143.000
54.16257 153.000
54.18252 152.000
54.20247 148.000
54.22241 161.000
54.24236 155.000
54.26231 148.000
54.28226 153.000
54.30220 157.000
54.32215 155.000
54.34210 154.000
54.36204 175.000
54.38199 163.000
54.40194 161.000
54.42188 159.000
54.44183 156.000
54.46178 146.000
54.48172 178.000
54.50167 135.000
54.52162 163.000
54.54157 182.000
54.56151 147.000
54.58146 155.000
54.60141 162.000
54.62135 177.000
54.64130 162.000
54.66125 146.000
54.68119 163.000
54.70114 149.000
54.72109 154.000
54.74104 140.000
54.76098 143.000
54.78093 147.000
54.80088 131.000
54.82082 145.000
54.84077 150.000
54.86072 168.000
54.88066 146.000
54.90061 131.000
54.92056 140.000
54.94050 143.000
54.96045 151.000
54.98040 178.000
55.00035 133.000
55.02029 180.000
55.04024 159.000
55.06019 142.000
55.08013 141.000
55.10008 165.000
55.12003 162.000
55.13997 133.000
55.15992 144.000
55.17987 153.000
55.19982 147.000
55.21976 165.000
55.23971 159.000
55.25966 164.000
55.27960 158.000
55.29955 149.000
55.31950 155.000
55.33944 153.000
55.35939 152.000
55.37934 142.000
55.39929 142.000
55.41923 142.000
55.43918 167.000
55.45913 176.000
55.47907 182.000
55.49902 145.000
55.51897 149.000
55.53891 143.000
55.55886 156.000
55.57881 156.000
55.59875 163.000
55.61870 158.000
55.63865 155.000
55.65860 133.000
55.67854 181.000
55.69849 145.000
55.71844 159.000
55.73838 163.000
55.75833 154.000
55.77828 148.000
55.79822 162.000
55.81817 145.000
55.83812 146.000
55.85807 145.000
55.87801 144.000
55.89796 170.000
55.91791 156.000
55.93785 143.000
55.95780 152.000
55.97775 133.000
55.99769 148.000
56.01764 145.000
56.03759 153.000
56.05753 167.000
56.07748 137.000
56.09743 173.000
56.11738 184.000
56.13732 144.000
56.15727 159.000
56.17722 175.000
56.19716 143.000
56.21711 151.000
56.23706 174.000
56.25700 168.000
56.27695 140.000
56.29690 136.000
56.31685 162.000
56.33679 158.000
56.35674 154.000
56.37669 149.000
56.39663 144.000
56.41658 151.000
56.43653 143.000
56.45647 150.000
56.47642 171.000
56.49637 153.000
56.51631 144.000
56.53626 161.000
56.55621 167.000
56.57616 169.000
56.59610 168.000
56.61605 152.000
56.63600 161.000
56.65594 159.000
56.67589 185.000
56.69584 180.000
56.71578 172.000
56.73573 165.000
56.75568 153.000
56.77563 170.000
56.79557 176.000
56.81552 143.000
56.83547 168.000
56.85541 174.000
56.87536 181.000
56.89531 183.000
56.91525 204.000
56.93520 228.000
56.95515 222.000
56.97510 225.000
56.99504 281.000
57.01499 276.000
57.03494 256.000
57.05488 265.000
57.07483 272.000
57.09478 294.000
57.11472 326.000
57.13467 315.000
57.15462 322.000
57.17456 328.000
57.19451 301.000
57.21446 340.000
57.23441 307.000
57.25435 326.000
57.27430 296.000
57.29425 311.000
57.31419 298.000
57.33414 304.000
57.35409 266.000
57.37403 265.000
57.39398 264.000
57.41393 259.000
57.43388 245.000
57.45382 253.000
57.47377 237.000
57.49372 204.000
57.51366 260.000
57.53361 228.000
57.55356 227.000
57.57350 213.000
57.59345 205.000
57.61340 229.000
57.63334 199.000
57.65329 185.000
57.67324 213.000
57.69319 202.000
57.71313 172.000
57.73308 172.000
57.75303 201.000
57.77297 191.000
57.79292 196.000
57.81287 160.000
57.83281 156.000
57.85276 176.000
57.87271 137.000
57.89266 152.000
57.91260 177.000
57.93255 187.000
57.95250 157.000
57.97244 141.000
57.99239 154.000
58.01234 152.000
58.03228 154.000
58.05223 162.000
58.07218 137.000
58.09212 144.000
58.11207 138.000
58.13202 169.000
58.15197 171.000
58.17191 155.000
58.19186 141.000
58.21181 165.000
58.23175 156.000
58.25170 166.000
58.27165 141.000
58.29159 159.000
58.31154 165.000
58.33149 164.000
58.35144 125.000
58.37138 142.000
58.39133 139.000
58.41128 157.000
58.43122 163.000
58.45117 164.000
58.47112 150.000
58.49106 167.000
58.51101 155.000
58.53096 148.000
58.55090 148.000
58.57085 157.000
58.59080 176.000
58.61075 152.000
58.63069 145.000
58.65064 146.000
58.67059 150.000
58.69053 150.000
58.71048 150.000
58.73043 164.000
58.75037 160.000
58.77032 169.000
58.79027 159.000
58.81022 187.000
58.83016 146.000
58.85011 154.000
58.87006 136.000
58.89000 131.000
58.90995 171.000
58.92990 154.000
58.94984 161.000
58.96979 179.000
58.98974 170.000
59.00969 156.000
59.02963 126.000
59.04958 146.000
59.06953 153.000
59.08947 141.000
59.10942 155.000
59.12937 156.000
59.14931 164.000
59.16926 163.000
59.18921 148.000
59.20915 168.000
59.22910 138.000
59.24905 184.000
59.26900 156.000
59.28894 143.000
59.30889 146.000
59.32884 157.000
59.34878 156.000
59.36873 158.000
59.38868 136.000
59.40862 165.000
59.42857 168.000
59.44852 163.000
59.46847 143.000
59.48841 169.000
59.50836 117.000
59.52831 167.000
59.54825 163.000
59.56820 158.000
59.58815 174.000
59.60809 160.000
59.62804 138.000
59.64799 147.000
59.66793 180.000
59.68788 141.000
59.70783 191.000
59.72778 167.000
59.74772 172.000
59.76767 176.000
59.78762 147.000
59.80756 173.000
59.82751 156.000
59.84746 153.000
59.86740 137.000
59.88735 162.000
59.90730 151.000
59.92725 163.000
59.94719 150.000
59.96714 163.000
59.98709 167.000
60.00703 156.000
60.02698 151.000
60.04693 145.000
60.06687 152.000
60.08682 154.000
60.10677 167.000
60.12671 157.000
60.14666 139.000
60.16661 153.000
60.18656 146.000
60.20650 162.000
60.22645 161.000
60.24640 174.000
60.26634 153.000
60.28629 167.000
60.30624 134.000
60.32618 159.000
60.34613 142.000
60.36608 180.000
60.38603 143.000
60.40597 163.000
60.42592 156.000
60.44587 158.000
60.46581 158.000
60.48576 149.000
60.50571 149.000
60.52565 159.000
60.54560 157.000
60.56555 171.000
60.58550 144.000
60.60544 164.000
60.62539 158.000
60.64534 146.000
60.66528 136.000
60.68523 154.000
60.70518 148.000
60.72512 159.000
60.74507 147.000
60.76502 163.000
60.78496 159.000
60.80491 160.000
60.82486 155.000
60.84481 143.000
60.86475 148.000
60.88470 171.000
60.90465 155.000
60.92459 175.000
60.94454 175.000
60.96449 153.000
60.98443 138.000
61.00438 157.000
61.02433 160.000
61.04428 161.000
61.06422 159.000
61.08417 158.000
61.10412 138.000
61.12406 167.000
61.14401 165.000
61.16396 167.000
61.18390 175.000
61.20385 166.000
61.22380 183.000
61.24374 179.000
61.26369 152.000
61.28364 188.000
61.30359 161.000
61.32353 168.000
61.34348 186.000
61.36343 151.000
61.38337 193.000
61.40332 153.000
61.42327 166.000
61.44321 184.000
61.46316 195.000
61.48311 181.000
61.50306 185.000
61.52300 194.000
61.54295 210.000
61.56290 194.000
61.58284 191.000
61.60279 207.000
61.62274 224.000
61.64268 228.000
61.66263 223.000
61.68258 232.000
61.70252 269.000
61.72247 252.000
61.74242 251.000
61.76237 272.000
61.78231 278.000
61.80226 283.000
61.82221 328.000
61.84215 347.000
61.86210 316.000
61.88205 301.000
61.90199 291.000
61.92194 276.000
61.94189 283.000
61.96184 259.000
61.98178 310.000
62.00173 269.000
62.02168 242.000
62.04162 274.000
62.06157 255.000
62.08152 241.000
62.10146 235.000
62.12141 202.000
62.14136 211.000
62.16131 246.000
62.18125 263.000
62.20120 244.000
62.22115 259.000
62.24109 262.000
62.26104 289.000
62.28099 286.000
62.30093 330.000
62.32088 371.000
62.34083 403.000
62.36077 459.000
62.38072 545.000
62.40067 545.000
62.42062 648.000
62.44056 696.000
62.46051 792.000
62.48046 967.000
62.50040 1046.000
62.52035 1166.000
62.54030 1314.000
62.56024 1346.000
62.58019 1467.000
62.60014 1669.000
62.62009 1754.000
62.64003 1651.000
62.65998 1628.000
62.67993 1536.000
62.69987 1446.000
62.71982 1338.000
62.73977 1316.000
62.75971 1242.000
62.77966 1267.000
62.79961 1122.000
62.81955 1113.000
62.83950 1035.000
62.85945 945.000
62.87940 833.000
62.89934 620.000
62.91929 597.000
62.93924 518.000
62.95918 495.000
62.97913 414.000
62.99908 408.000
63.01902 386.000
63.03897 341.000
63.05892 303.000
63.07887 278.000
63.09881 243.000
63.11876 266.000
63.13871 238.000
63.15865 210.000
63.17860 225.000
63.19855 211.000
63.21849 218.000
63.23844 192.000
63.25839 203.000
63.27833 175.000
63.29828 199.000
63.31823 191.000
63.33818 192.000
63.35812 144.000
63.37807 182.000
63.39802 172.000
63.41796 158.000
63.43791 175.000
63.45786 139.000
63.47780 153.000
63.49775 166.000
63.51770 174.000
63.53765 190.000
63.55759 188.000
63.57754 169.000
63.59749 172.000
63.61743 153.000
63.63738 165.000
63.65733 186.000
63.67727 182.000
63.69722 182.000
63.71717 173.000
63.73712 168.000
63.75706 209.000
63.77701 202.000
63.79696 223.000
63.81690 221.000
63.83685 198.000
63.85680 182.000
63.87674 177.000
63.89669 205.000
63.91664 223.000
63.93658 221.000
63.95653 199.000
63.97648 232.000
63.99643 235.000
64.01637 219.000
64.03632 260.000
64.05627 222.000
64.07621 241.000
64.09616 261.000
64.11611 259.000
64.13605 237.000
64.15600 238.000
64.17595 214.000
64.19590 233.000
64.21584 234.000
64.23579 234.000
64.25574 198.000
64.27568 231.000
64.29563 196.000
64.31558 172.000
64.33552 201.000
64.35547 196.000
64.37542 199.000
64.39536 174.000
64.41531 187.000
64.43526 185.000
64.45521 173.000
64.47515 177.000
64.49510 163.000
64.51505 180.000
64.53499 185.000
64.55494 192.000
64.57489 168.000
64.59483 173.000
64.61478 161.000
64.63473 183.000
64.65468 162.000
64.67462 167.000
64.69457 160.000
64.71452 148.000
64.73446 168.000
64.75441 147.000
64.77436 146.000
64.79430 160.000
64.81425 168.000
64.83420 167.000
64.85414 171.000
64.87409 154.000
64.89404 155.000
64.91399 164.000
64.93393 169.000
64.95388 161.000
64.97383 169.000
64.99377 147.000
65.01372 166.000
65.03367 188.000
65.05361 168.000
65.07356 155.000
65.09351 196.000
65.11346 185.000
65.13340 175.000
65.15335 173.000
65.17330 182.000
65.19324 187.000
65.21319 177.000
65.23314 192.000
65.25308 179.000
65.27303 212.000
65.29298 217.000
65.31293 194.000
65.33287 193.000
65.35282 205.000
65.37277 187.000
65.39271 197.000
65.41266 226.000
65.43261 188.000
65.45255 193.000
65.47250 198.000
65.49245 186.000
65.51239 179.000
65.53234 203.000
65.55229 194.000
65.57224 197.000
65.59218 182.000
65.61213 178.000
65.63208 168.000
65.65202 193.000
65.67197 186.000
65.69192 172.000
65.71186 157.000
65.73181 177.000
65.75176 182.000
65.77171 164.000
65.79165 176.000
65.81160 159.000
65.83155 191.000
65.85149 155.000
65.87144 165.000
65.89139 178.000
65.91133 214.000
65.93128 169.000
65.95123 177.000
65.97117 176.000
65.99112 161.000
66.01107 168.000
66.03102 136.000
66.05096 161.000
66.07091 166.000
66.09086 147.000
66.11080 203.000
66.13075 161.000
66.15070 155.000
66.17064 150.000
66.19059 166.000
66.21054 177.000
66.23049 177.000
66.25043 191.000
66.27038 198.000
66.29033 173.000
66.31027 209.000
66.33022 220.000
66.35017 176.000
66.37011 197.000
66.39006 223.000
66.41001 203.000
66.42995 240.000
66.44990 180.000
66.46985 183.000
66.48980 201.000
66.50974 176.000
66.52969 180.000
66.54964 220.000
66.56958 207.000
66.58953 221.000
66.60948 185.000
66.62942 185.000
66.64937 176.000
66.66932 199.000
66.68927 209.000
66.70921 192.000
66.72916 200.000
66.74911 190.000
66.76905 195.000
66.78900 186.000
66.80895 192.000
66.82889 183.000
66.84884 199.000
66.86879 180.000
66.88874 181.000
66.90868 167.000
66.92863 182.000
66.94858 185.000
66.96852 160.000
66.98847 165.000
67.00842 153.000
67.02836 168.000
67.04831 156.000
67.06826 160.000
67.08820 148.000
67.10815 173.000
67.12810 167.000
67.14805 162.000
67.16799 154.000
67.18794 136.000
67.20789 155.000
67.22783 170.000
67.24778 152.000
67.26773 173.000
67.28767 150.000
67.30762 145.000
67.32757 185.000
67.34752 143.000
67.36746 166.000
67.38741 154.000
67.40736 141.000
67.42730 142.000
67.44725 150.000
67.46720 146.000
67.48714 146.000
67.50709 178.000
67.52704 160.000
67.54698 136.000
67.56693 158.000
67.58688 166.000
67.60683 167.000
67.62677 150.000
67.64672 131.000
67.66667 162.000
67.68661 161.000
67.70656 162.000
67.72651 172.000
67.74645 162.000
67.76640 171.000
67.78635 156.000
67.80630 180.000
67.82624 176.000
67.84619 174.000
67.86614 176.000
67.88608 154.000
67.90603 152.000
67.92598 146.000
67.94592 163.000
67.96587 155.000
67.98582 134.000
68.00576 162.000
68.02571 158.000
68.04566 180.000
68.06561 150.000
68.08555 144.000
68.10550 150.000
68.12545 140.000
68.14539 148.000
68.16534 149.000
68.18529 131.000
68.20523 161.000
68.22518 149.000
68.24513 133.000
68.26508 152.000
68.28502 154.000
68.30497 153.000
68.32492 165.000
68.34486 128.000
68.36481 162.000
68.38476 160.000
68.40470 170.000
68.42465 141.000
68.44460 169.000
68.46455 144.000
68.48449 160.000
68.50444 158.000
68.52439 161.000
68.54433 148.000
68.56428 154.000
68.58423 151.000
68.60417 162.000
68.62412 144.000
68.64407 164.000
68.66401 145.000
68.68396 143.000
68.70391 141.000
68.72386 159.000
68.74380 145.000
68.76375 134.000
68.78370 154.000
68.80364 142.000
68.82359 169.000
68.84354 161.000
68.86348 148.000
68.88343 131.000
68.90338 123.000
68.92333 157.000
68.94327 128.000
68.96322 153.000
68.98317 116.000
69.00311 137.000
69.02306 162.000
69.04301 165.000
69.06295 142.000
69.08290 158.000
69.10285 146.000
69.12279 150.000
69.14274 151.000
69.16269 139.000
69.18264 141.000
69.20258 130.000
69.22253 134.000
69.24248 159.000
69.26242 144.000
69.28237 171.000
69.30232 147.000
69.32226 152.000
69.34221 142.000
69.36216 137.000
69.38211 132.000
69.40205 145.000
69.42200 151.000
69.44195 134.000
69.46189 143.000
69.48184 127.000
69.50179 135.000
69.52173 145.000
69.54168 149.000
69.56163 147.000
69.58157 147.000
69.60152 155.000
69.62147 155.000
69.64142 122.000
69.66136 130.000
69.68131 141.000
69.70126 149.000
69.72120 158.000
69.74115 164.000
69.76110 167.000
69.78104 146.000
69.80099 145.000
69.82094 140.000
69.84089 146.000
69.86083 129.000
69.88078 138.000
69.90073 150.000
69.92067 138.000
69.94062 143.000
69.96057 150.000
69.98051 142.000
70.00046 135.000
70.02041 141.000
70.04035 151.000
70.06030 163.000
70.08025 151.000
70.10020 134.000
70.12014 148.000
70.14009 155.000
70.16004 138.000
70.17998 124.000
70.19993 147.000
70.21988 149.000
70.23982 147.000
70.25977 156.000
70.27972 130.000
70.29967 175.000
70.31961 127.000
70.33956 169.000
70.35951 156.000
70.37945 145.000
70.39940 152.000
70.41935 136.000
70.43929 138.000
70.45924 135.000
70.47919 130.000
70.49914 152.000
70.51908 139.000
70.53903 142.000
70.55898 148.000
70.57892 144.000
70.59887 141.000
70.61882 171.000
70.63876 121.000
70.65871 140.000
70.67866 148.000
70.69860 130.000
70.71855 171.000
70.73850 164.000
70.75845 159.000
70.77839 130.000
70.79834 141.000
70.81829 152.000
70.83823 124.000
70.85818 136.000
70.87813 141.000
70.89807 149.000
70.91802 144.000
70.93797 137.000
70.95792 144.000
70.97786 139.000
70.99781 151.000
71.01776 137.000
71.03770 148.000
71.05765 171.000
71.07760 142.000
71.09754 135.000
71.11749 152.000
71.13744 140.000
71.15738 142.000
71.17733 180.000
71.19728 165.000
71.21723 165.000
71.23717 147.000
71.25712 137.000
71.27707 158.000
71.29701 135.000
71.31696 144.000
71.33691 163.000
71.35685 163.000
71.37680 159.000
71.39675 148.000
71.41670 159.000
71.43664 152.000
71.45659 167.000
71.47654 144.000
71.49648 134.000
71.51643 169.000
71.53638 153.000
71.55632 142.000
71.57627 149.000
71.59622 147.000
71.61616 157.000
71.63611 128.000
71.65606 126.000
71.67601 146.000
71.69595 145.000
71.71590 144.000
71.73585 143.000
71.75579 149.000
71.77574 161.000
71.79569 153.000
71.81563 146.000
71.83558 160.000
71.85553 149.000
71.87548 136.000
71.89542 126.000
71.91537 119.000
71.93532 145.000
71.95526 160.000
71.97521 129.000
71.99516 142.000
72.01510 145.000
72.03505 157.000
72.05500 148.000
72.07495 155.000
72.09489 181.000
72.11484 141.000
72.13479 145.000
72.15473 139.000
72.17468 166.000
72.19463 132.000
72.21457 141.000
72.23452 164.000
72.25447 150.000
72.27441 156.000
72.29436 137.000
72.31431 148.000
72.33426 150.000
72.35420 152.000
72.37415 154.000
72.39410 161.000
72.41404 169.000
72.43399 160.000
72.45394 134.000
72.47388 159.000
72.49383 154.000
72.51378 163.000
72.53373 177.000
72.55367 154.000
72.57362 165.000
72.59357 176.000
72.61351 176.000
72.63346 139.000
72.65341 157.000
72.67335 180.000
72.69330 175.000
72.71325 163.000
72.73319 170.000
72.75314 157.000
72.77309 155.000
72.79304 144.000
72.81298 162.000
72.83293 178.000
72.85288 165.000
72.87282 190.000
72.89277 178.000
72.91272 147.000
72.93266 159.000
72.95261 171.000
72.97256 167.000
72.99251 164.000
73.01245 162.000
73.03240 172.000
73.05235 157.000
73.07229 190.000
73.09224 164.000
73.11219 202.000
73.13213 157.000
73.15208 146.000
73.17203 169.000
73.19197 154.000
73.21192 175.000
73.23187 171.000
73.25182 185.000
73.27176 173.000
73.29171 172.000
73.31166 175.000
73.33160 186.000
73.35155 170.000
73.37150 174.000
73.39144 186.000
73.41139 188.000
73.43134 207.000
73.45129 189.000
73.47123 167.000
73.49118 196.000
73.51113 183.000
73.53107 177.000
73.55102 181.000
73.57097 186.000
73.59091 191.000
73.61086 180.000
73.63081 185.000
73.65076 169.000
73.67070 194.000
73.69065 172.000
73.71060 144.000
73.73054 173.000
73.75049 148.000
73.77044 185.000
73.79038 149.000
73.81033 164.000
73.83028 179.000
73.85022 147.000
73.87017 151.000
73.89012 156.000
73.91007 148.000
73.93001 169.000
73.94996 147.000
73.96991 145.000
73.98985 147.000
74.00980 168.000
74.02975 178.000
74.04969 163.000
74.06964 131.000
74.08959 174.000
74.10954 172.000
74.12948 143.000
74.14943 147.000
74.16938 149.000
74.18932 183.000
74.20927 163.000
74.22922 189.000
74.24916 178.000
74.26911 180.000
74.28906 180.000
74.30900 189.000
74.32895 181.000
74.34890 159.000
74.36885 215.000
74.38879 209.000
74.40874 175.000
74.42869 187.000
74.44863 186.000
74.46858 209.000
74.48853 177.000
74.50847 173.000
74.52842 186.000
74.54837 177.000
74.56832 171.000
74.58826 190.000
74.60821 179.000
74.62816 184.000
74.64810 205.000
74.66805 174.000
74.68800 171.000
74.70794 189.000
74.72789 198.000
74.74784 201.000
74.76778 197.000
74.78773 174.000
74.80768 192.000
74.82763 188.000
74.84757 191.000
74.86752 210.000
74.88747 239.000
74.90741 214.000
74.92736 272.000
74.94731 312.000
74.96725 321.000
74.98720 379.000
75.00715 410.000
75.02710 468.000
75.04704 508.000
75.06699 531.000
75.08694 566.000
75.10688 562.000
75.12683 612.000
75.14678 589.000
75.16672 586.000
75.18667 539.000
75.20662 610.000
75.22657 521.000
75.24651 518.000
75.26646 532.000
75.28641 443.000
75.30635 422.000
75.32630 434.000
75.34625 466.000
75.36619 404.000
75.38614 398.000
75.40609 428.000
75.42603 376.000
75.44598 370.000
75.46593 287.000
75.48588 304.000
75.50582 269.000
75.52577 249.000
75.54572 206.000
75.56566 200.000
75.58561 200.000
75.60556 190.000
75.62550 183.000
75.64545 171.000
75.66540 170.000
75.68535 171.000
75.70529 162.000
75.72524 179.000
75.74519 172.000
75.76513 175.000
75.78508 146.000
75.80503 166.000
75.82497 134.000
75.84492 164.000
75.86487 161.000
75.88481 164.000
75.90476 156.000
75.92471 168.000
75.94466 153.000
75.96460 147.000
75.98455 141.000
76.00450 150.000
76.02444 156.000
76.04439 145.000
76.06434 151.000
76.08428 123.000
76.10423 162.000
76.12418 170.000
76.14413 131.000
76.16407 130.000
76.18402 158.000
76.20397 157.000
76.22391 166.000
76.24386 149.000
76.26381 158.000
76.28375 142.000
76.30370 138.000
76.32365 135.000
76.34359 170.000
76.36354 133.000
76.38349 124.000
76.40344 171.000
76.42338 141.000
76.44333 143.000
76.46328 149.000
76.48322 152.000
76.50317 152.000
76.52312 164.000
76.54306 148.000
76.56301 171.000
76.58296 131.000
76.60291 138.000
76.62285 134.000
76.64280 141.000
76.66275 145.000
76.68269 140.000
76.70264 136.000
76.72259 129.000
76.74253 145.000
76.76248 139.000
76.78243 164.000
76.80238 180.000
76.82232 148.000
76.84227 137.000
76.86222 137.000
76.88216 159.000
76.90211 165.000
76.92206 157.000
76.94200 163.000
76.96195 161.000
76.98190 135.000
77.00184 152.000
77.02179 132.000
77.04174 133.000
77.06169 151.000
77.08163 144.000
77.10158 153.000
77.12153 139.000
77.14147 117.000
77.16142 144.000
77.18137 138.000
77.20131 146.000
77.22126 144.000
77.24121 148.000
77.26116 122.000
77.28110 149.000
77.30105 149.000
77.32100 152.000
77.34094 118.000
77.36089 157.000
77.38084 137.000
77.40078 143.000
77.42073 142.000
77.44068 139.000
77.46062 169.000
77.48057 175.000
77.50052 162.000
77.52047 153.000
77.54041 143.000
77.56036 137.000
77.58031 119.000
77.60025 167.000
77.62020 147.000
77.64015 174.000
77.66009 175.000
77.68004 141.000
77.69999 186.000
77.71994 181.000
77.73988 166.000
77.75983 150.000
77.77978 168.000
77.79972 177.000
77.81967 165.000
77.83962 154.000
77.85956 166.000
77.87951 163.000
77.89946 203.000
77.91940 171.000
77.93935 189.000
77.95930 191.000
77.97925 175.000
77.99919 169.000
78.01914 191.000
78.03909 185.000
78.05903 206.000
78.07898 187.000
78.09893 183.000
78.11887 208.000
78.13882 178.000
78.15877 201.000
78.17872 194.000
78.19866 199.000
78.21861 198.000
78.23856 182.000
78.25850 203.000
78.27845 192.000
78.29840 199.000
78.31834 184.000
78.33829 183.000
78.35824 202.000
78.37819 180.000
78.39813 195.000
78.41808 165.000
78.43803 177.000
78.45797 185.000
78.47792 178.000
78.49787 179.000
78.51781 167.000
78.53776 177.000
78.55771 158.000
78.57765 162.000
78.59760 173.000
78.61755 170.000
78.63750 169.000
78.65744 167.000
78.67739 163.000
78.69734 188.000
78.71728 170.000
78.73723 186.000
78.75718 162.000
78.77712 180.000
78.79707 188.000
78.81702 200.000
78.83697 200.000
78.85691 210.000
78.87686 214.000
78.89681 222.000
78.91675 218.000
78.93670 251.000
78.95665 315.000
78.97659 273.000
78.99654 303.000
79.01649 310.000
79.03643 356.000
79.05638 400.000
79.07633 425.000
79.09628 433.000
79.11622 423.000
79.13617 463.000
79.15612 440.000
79.17606 469.000
79.19601 435.000
79.21596 416.000
79.23590 432.000
79.25585 453.000
79.27580 389.000
79.29575 397.000
79.31569 347.000
79.33564 367.000
79.35559 381.000
79.37553 352.000
79.39548 322.000
79.41543 322.000
79.43537 317.000
79.45532 295.000
79.47527 253.000
79.49521 265.000
79.51516 217.000
79.53511 212.000
79.55506 210.000
79.57500 195.000
79.59495 174.000
79.61490 172.000
79.63484 169.000
79.65479 141.000
79.67474 175.000
79.69468 164.000
79.71463 143.000
79.73458 153.000
79.75453 169.000
79.77447 148.000
79.79442 159.000
79.81437 149.000
79.83431 120.000
79.85426 139.000
79.87421 148.000
79.89415 154.000
79.91410 132.000
79.93405 133.000
79.95399 143.000
79.97394 158.000
79.99389 144.000
80.01384 138.000
80.03378 140.000
80.05373 143.000
80.07368 121.000
80.09362 138.000
80.11357 128.000
80.13352 149.000
80.15346 159.000
80.17341 135.000
80.19336 144.000
80.21331 165.000
80.23325 160.000
80.25320 153.000
80.27315 135.000
80.29309 140.000
80.31304 154.000
80.33299 140.000
80.35293 162.000
80.37288 145.000
80.39283 169.000
80.41278 140.000
80.43272 146.000
80.45267 125.000
80.47262 146.000
80.49256 143.000
80.51251 142.000
80.53246 145.000
80.55240 141.000
80.57235 149.000
80.59230 152.000
80.61224 170.000
80.63219 162.000
80.65214 133.000
80.67209 138.000
80.69203 145.000
80.71198 167.000
80.73193 138.000
80.75187 143.000
80.77182 138.000
80.79177 127.000
80.81171 131.000
80.83166 137.000
80.85161 165.000
80.87156 145.000
80.89150 143.000
80.91145 144.000
80.93140 156.000
80.95134 132.000
80.97129 154.000
80.99124 119.000
81.01118 148.000
81.03113 132.000
81.05108 143.000
81.07102 148.000
81.09097 135.000
81.11092 130.000
81.13087 166.000
81.15081 131.000
81.17076 125.000
81.19071 139.000
81.21065 151.000
81.23060 134.000
81.25055 150.000
81.27049 126.000
81.29044 142.000
81.31039 121.000
81.33034 115.000
81.35028 147.000
81.37023 129.000
81.39018 136.000
81.41012 141.000
81.43007 171.000
81.45002 155.000
81.46996 158.000
81.48991 124.000
81.50986 136.000
81.52980 155.000
81.54975 130.000
81.56970 163.000
81.58965 110.000
81.60959 154.000
81.62954 141.000
81.64949 139.000
81.66943 140.000
81.68938 150.000
81.70933 139.000
81.72927 127.000
81.74922 144.000
81.76917 147.000
81.78912 129.000
81.80906 148.000
81.82901 133.000
81.84896 136.000
81.86890 159.000
81.88885 139.000
81.90880 158.000
81.92874 133.000
81.94869 145.000
81.96864 121.000
81.98859 128.000
82.00853 133.000
82.02848 165.000
82.04843 144.000
82.06837 121.000
82.08832 152.000
82.10827 162.000
82.12821 159.000
82.14816 152.000
82.16811 146.000
82.18805 153.000
82.20800 139.000
82.22795 119.000
82.24790 156.000
82.26784 120.000
82.28779 131.000
82.30774 161.000
82.32768 128.000
82.34763 172.000
82.36758 143.000
82.38752 132.000
82.40747 150.000
82.42742 139.000
82.44737 146.000
82.46731 133.000
82.48726 143.000
82.50721 147.000
82.52715 146.000
82.54710 146.000
82.56705 145.000
82.58699 157.000
82.60694 151.000
82.62689 146.000
82.64683 140.000
82.66678 149.000
82.68673 168.000
82.70668 127.000
82.72662 139.000
82.74657 130.000
82.76652 145.000
82.78646 134.000
82.80641 149.000
82.82636 132.000
82.84630 146.000
82.86625 139.000
82.88620 137.000
82.90615 148.000
82.92609 113.000
82.94604 151.000
82.96599 144.000
82.98593 144.000
83.00588 148.000
83.02583 154.000
83.04577 128.000
83.06572 160.000
83.08567 139.000
83.10561 150.000
83.12556 152.000
83.14551 164.000
83.16546 137.000
83.18540 135.000
83.20535 118.000
83.22530 127.000
83.24524 144.000
83.26519 136.000
83.28514 138.000
83.30508 133.000
83.32503 140.000
83.34498 144.000
83.36493 126.000
83.38487 144.000
83.40482 148.000
83.42477 146.000
83.44471 129.000
83.46466 132.000
83.48461 148.000
83.50455 135.000
83.52450 148.000
83.54445 141.000
83.56440 135.000
83.58434 148.000
83.60429 149.000
83.62424 144.000
83.64418 146.000
83.66413 149.000
83.68408 139.000
83.70402 156.000
83.72397 147.000
83.74392 124.000
83.76386 161.000
83.78381 134.000
83.80376 142.000
83.82371 138.000
83.84365 137.000
83.86360 142.000
83.88355 133.000
83.90349 163.000
83.92344 154.000
83.94339 156.000
83.96333 152.000
83.98328 158.000
84.00323 150.000
84.02318 150.000
84.04312 134.000
84.06307 146.000
84.08302 143.000
84.10296 147.000
84.12291 186.000
84.14286 147.000
84.16280 156.000
84.18275 174.000
84.20270 163.000
84.22264 152.000
84.24259 158.000
84.26254 140.000
84.28249 170.000
84.30243 155.000
84.32238 205.000
84.34233 155.000
84.36227 172.000
84.38222 149.000
84.40217 171.000
84.42211 188.000
84.44206 172.000
84.46201 173.000
84.48196 151.000
84.50190 171.000
84.52185 161.000
84.54180 155.000
84.56174 166.000
84.58169 152.000
84.60164 164.000
84.62158 192.000
84.64153 137.000
84.66148 150.000
84.68142 174.000
84.70137 167.000
84.72132 153.000
84.74127 162.000
84.76121 160.000
84.78116 151.000
84.80111 159.000
84.82105 140.000
84.84100 136.000
84.86095 154.000
84.88089 130.000
84.90084 148.000
84.92079 140.000
84.94074 167.000
84.96068 150.000
84.98063 147.000
85.00058 139.000
85.02052 135.000
85.04047 126.000
85.06042 150.000
85.08036 145.000
85.10031 136.000
85.12026 153.000
85.14021 160.000
85.16015 152.000
85.18010 127.000
85.20005 147.000
85.21999 160.000
85.23994 152.000
85.25989 148.000
85.27983 113.000
85.29978 132.000
85.31973 140.000
85.33967 127.000
85.35962 119.000
85.37957 142.000
85.39952 147.000
85.41946 120.000
85.43941 153.000
85.45936 124.000
85.47930 140.000
85.49925 145.000
85.51920 157.000
85.53914 138.000
85.55909 133.000
85.57904 133.000
85.59899 133.000
85.61893 136.000
85.63888 139.000
85.65883 111.000
85.67877 124.000
85.69872 137.000
85.71867 170.000
85.73861 160.000
85.75856 152.000
85.77851 154.000
85.79845 140.000
85.81840 144.000
85.83835 146.000
85.85830 146.000
85.87824 129.000
85.89819 131.000
85.91814 146.000
85.93808 146.000
85.95803 142.000
85.97798 146.000
85.99792 147.000
86.01787 126.000
86.03782 138.000
86.05777 134.000
86.07771 135.000
86.09766 135.000
86.11761 140.000
86.13755 160.000
86.15750 116.000
86.17745 141.000
86.19739 125.000
86.21734 161.000
86.23729 164.000
86.25723 140.000
86.27718 137.000
86.29713 168.000
86.31708 146.000
86.33702 147.000
86.35697 130.000
86.37692 141.000
86.39686 144.000
86.41681 124.000
86.43676 144.000
86.45670 133.000
86.47665 140.000
86.49660 136.000
86.51655 151.000
86.53649 140.000
86.55644 151.000
86.57639 168.000
86.59633 133.000
86.61628 139.000
86.63623 162.000
86.65617 132.000
86.67612 149.000
86.69607 140.000
86.71602 133.000
86.73596 176.000
86.75591 148.000
86.77586 159.000
86.79580 143.000
86.81575 134.000
86.83570 165.000
86.85564 150.000
86.87559 153.000
86.89554 142.000
86.91548 151.000
86.93543 161.000
86.95538 134.000
86.97533 158.000
86.99527 169.000
87.01522 150.000
87.03517 161.000
87.05511 161.000
87.07506 155.000
87.09501 144.000
87.11495 174.000
87.13490 166.000
87.15485 166.000
87.17480 180.000
87.19474 160.000
87.21469 157.000
87.23464 195.000
87.25458 132.000
87.27453 145.000
87.29448 181.000
87.31442 155.000
87.33437 164.000
87.35432 157.000
87.37426 160.000
87.39421 156.000
87.41416 145.000
87.43411 168.000
87.45405 146.000
87.47400 157.000
87.49395 179.000
87.51389 149.000
87.53384 159.000
87.55379 135.000
87.57373 152.000
87.59368 157.000
87.61363 162.000
87.63358 135.000
87.65352 149.000
87.67347 159.000
87.69342 168.000
87.71336 149.000
87.73331 153.000
87.75326 167.000
87.77320 161.000
87.79315 136.000
87.81310 128.000
87.83304 156.000
87.85299 165.000
87.87294 127.000
87.89289 159.000
87.91283 140.000
87.93278 147.000
87.95273 139.000
87.97267 152.000
87.99262 121.000
88.01257 163.000
88.03251 140.000
88.05246 136.000
88.07241 149.000
88.09236 149.000
88.11230 133.000
88.13225 138.000
88.15220 139.000
88.17214 129.000
88.19209 129.000
88.21204 150.000
88.23198 143.000
88.25193 135.000
88.27188 141.000
88.29183 150.000
88.31177 138.000
88.33172 155.000
88.35167 154.000
88.37161 137.000
88.39156 123.000
88.41151 147.000
88.43145 149.000
88.45140 158.000
88.47135 128.000
88.49129 149.000
88.51124 145.000
88.53119 155.000
88.55114 134.000
88.57108 147.000
88.59103 137.000
88.61098 134.000
88.63092 153.000
88.65087 127.000
88.67082 160.000
88.69076 144.000
88.71071 162.000
88.73066 143.000
88.75061 133.000
88.77055 140.000
88.79050 134.000
88.81045 136.000
88.83039 151.000
88.85034 157.000
88.87029 147.000
88.89023 125.000
88.91018 156.000
88.93013 153.000
88.95007 139.000
88.97002 160.000
88.98997 136.000
89.00992 153.000
89.02986 156.000
89.04981 150.000
89.06976 115.000
89.08970 139.000
89.10965 150.000
89.12960 144.000
89.14954 149.000
89.16949 145.000
89.18944 139.000
89.20939 131.000
89.22933 134.000
89.24928 134.000
89.26923 141.000
89.28917 151.000
89.30912 154.000
89.32907 146.000
89.34901 163.000
89.36896 157.000
89.38891 129.000
89.40885 145.000
89.42880 158.000
89.44875 141.000
89.46870 161.000
89.48864 144.000
89.50859 139.000
89.52854 138.000
89.54848 149.000
89.56843 132.000
89.58838 144.000
89.60832 147.000
89.62827 132.000
89.64822 142.000
89.66817 123.000
89.68811 177.000
89.70806 133.000
89.72801 161.000
89.74795 141.000
89.76790 136.000
89.78785 149.000
89.80779 161.000
89.82774 147.000
89.84769 159.000
89.86764 153.000
89.88758 171.000
89.90753 148.000
89.92748 154.000
89.94742 142.000
89.96737 141.000
89.98732 172.000
90.00726 178.000
