10.00000 209.000
10.01995 224.000
10.03989 180.000
10.05984 194.000
10.07979 207.000
10.09973 213.000
10.11968 183.000
10.13963 205.000
10.15958 178.000
10.17952 200.000
10.19947 210.000
10.21942 196.000
10.23936 220.000
10.25931 199.000
10.27926 210.000
10.29920 169.000
10.31915 185.000
10.33910 185.000
10.35905 186.000
10.37899 202.000
10.39894 182.000
10.41889 186.000
10.43883 182.000
10.45878 193.000
10.47873 168.000
10.49867 205.000
10.51862 189.000
10.53857 172.000
10.55851 189.000
10.57846 201.000
10.59841 203.000
10.61836 226.000
10.63830 194.000
10.65825 219.000
10.67820 219.000
10.69814 205.000
10.71809 183.000
10.73804 225.000
10.75798 224.000
10.77793 219.000
10.79788 185.000
10.81783 197.000
10.83777 178.000
10.85772 221.000
10.87767 202.000
10.89761 190.000
10.91756 212.000
10.93751 216.000
10.95745 203.000
10.97740 223.000
10.99735 191.000
11.01730 195.000
11.03724 214.000
11.05719 211.000
11.07714 213.000
11.09708 212.000
11.11703 192.000
11.13698 209.000
11.15692 206.000
11.17687 198.000
11.19682 185.000
11.21676 182.000
11.23671 201.000
11.25666 190.000
11.27661 203.000
11.29655 195.000
11.31650 195.000
11.33645 196.000
11.35639 177.000
11.37634 207.000
11.39629 198.000
11.41623 217.000
11.43618 198.000
11.45613 212.000
11.47608 191.000
11.49602 204.000
11.51597 197.000
11.53592 178.000
11.55586 204.000
11.57581 201.000
11.59576 200.000
11.61570 178.000
11.63565 204.000
11.65560 202.000
11.67554 194.000
11.69549 202.000
11.71544 195.000
11.73539 204.000
11.75533 220.000
11.77528 197.000
11.79523 199.000
11.81517 206.000
11.83512 197.000
11.85507 205.000
11.87501 216.000
11.89496 218.000
11.91491 209.000
11.93486 205.000
11.95480 195.000
11.97475 203.000
11.99470 202.000
12.01464 202.000
12.03459 220.000
12.05454 219.000
12.07448 198.000
12.09443 196.000
12.11438 206.000
12.13432 220.000
12.15427 206.000
12.17422 219.000
12.19417 223.000
12.21411 208.000
12.23406 221.000
12.25401 212.000
12.27395 202.000
12.29390 215.000
12.31385 210.000
12.33379 228.000
12.35374 204.000
12.37369 234.000
12.39364 217.000
12.41358 186.000
12.43353 188.000
12.45348 237.000
12.47342 212.000
12.49337 226.000
12.51332 206.000
12.53326 226.000
12.55321 224.000
12.57316 200.000
12.59311 206.000
12.61305 207.000
12.63300 218.000
12.65295 188.000
12.67289 198.000
12.69284 194.000
12.71279 210.000
12.73273 229.000
12.75268 197.000
12.77263 196.000
12.79257 205.000
12.81252 219.000
12.83247 219.000
12.85242 208.000
12.87236 239.000
12.89231 217.000
12.91226 210.000
12.93220 211.000
12.95215 208.000
12.97210 204.000
12.99204 206.000
13.01199 219.000
13.03194 204.000
13.05189 190.000
13.07183 222.000
13.09178 199.000
13.11173 209.000
13.13167 236.000
13.15162 214.000
13.17157 234.000
13.19151 208.000
13.21146 211.000
13.23141 192.000
13.25135 249.000
13.27130 175.000
13.29125 224.000
13.31120 210.000
13.33114 193.000
13.35109 189.000
13.37104 213.000
13.39098 175.000
13.41093 192.000
13.43088 191.000
13.45082 210.000
13.47077 222.000
13.49072 206.000
13.51067 192.000
13.53061 193.000
13.55056 213.000
13.57051 194.000
13.59045 217.000
13.61040 202.000
13.63035 207.000
13.65029 211.000
13.67024 232.000
13.69019 196.000
13.71013 231.000
13.73008 191.000
13.75003 193.000
13.76998 208.000
13.78992 204.000
13.80987 207.000
13.82982 226.000
13.84976 172.000
13.86971 238.000
13.88966 205.000
13.90960 219.000
13.92955 199.000
13.94950 218.000
13.96945 194.000
13.98939 214.000
14.00934 224.000
14.02929 217.000
14.04923 226.000
14.06918 204.000
14.08913 217.000
14.10907 229.000
14.12902 207.000
14.14897 221.000
14.16892 218.000
14.18886 208.000
14.20881 224.000
14.22876 227.000
14.24870 201.000
14.26865 216.000
14.28860 227.000
14.30854 202.000
14.32849 211.000
14.34844 199.000
14.36838 201.000
14.38833 219.000
14.40828 210.000
14.42823 216.000
14.44817 210.000
14.46812 216.000
14.48807 208.000
14.50801 229.000
14.52796 202.000
14.54791 219.000
14.56785 198.000
14.58780 209.000
14.60775 197.000
14.62770 246.000
14.64764 201.000
14.66759 225.000
14.68754 223.000
14.70748 209.000
14.72743 206.000
14.74738 213.000
14.76732 206.000
14.78727 220.000
14.80722 226.000
14.82716 227.000
14.84711 194.000
14.86706 215.000
14.88701 201.000
14.90695 228.000
14.92690 196.000
14.94685 242.000
14.96679 220.000
14.98674 214.000
15.00669 224.000
15.02663 212.000
15.04658 208.000
15.06653 191.000
15.08648 225.000
15.10642 209.000
15.12637 189.000
15.14632 244.000
15.16626 202.000
15.18621 245.000
15.20616 222.000
15.22610 200.000
15.24605 218.000
15.26600 207.000
15.28594 221.000
15.30589 213.000
15.32584 195.000
15.34579 209.000
15.36573 221.000
15.38568 192.000
15.40563 193.000
15.42557 220.000
15.44552 204.000
15.46547 213.000
15.48541 217.000
15.50536 220.000
15.52531 223.000
15.54526 191.000
15.56520 225.000
15.58515 239.000
15.60510 205.000
15.62504 182.000
15.64499 226.000
15.66494 213.000
15.68488 235.000
15.70483 258.000
15.72478 198.000
15.74472 192.000
15.76467 236.000
15.78462 220.000
15.80457 233.000
15.82451 230.000
15.84446 217.000
15.86441 235.000
15.88435 212.000
15.90430 247.000
15.92425 245.000
15.94419 222.000
15.96414 210.000
15.98409 208.000
16.00404 206.000
16.02398 234.000
16.04393 242.000
16.06388 230.000
16.08382 212.000
16.10377 205.000
16.12372 234.000
16.14366 208.000
16.16361 208.000
16.18356 223.000
16.20351 215.000
16.22345 225.000
16.24340 185.000
16.26335 211.000
16.28329 204.000
16.30324 231.000
16.32319 238.000
16.34313 230.000
16.36308 220.000
16.38303 209.000
16.40297 242.000
16.42292 230.000
16.44287 209.000
16.46282 260.000
16.48276 219.000
16.50271 227.000
16.52266 235.000
16.54260 212.000
16.56255 233.000
16.58250 214.000
16.60244 212.000
16.62239 239.000
16.64234 220.000
16.66229 194.000
16.68223 242.000
16.70218 227.000
16.72213 227.000
16.74207 249.000
16.76202 237.000
16.78197 207.000
16.80191 241.000
16.82186 237.000
16.84181 221.000
16.86175 218.000
16.88170 256.000
16.90165 235.000
16.92160 245.000
16.94154 236.000
16.96149 226.000
16.98144 252.000
17.00138 236.000
17.02133 234.000
17.04128 229.000
17.06122 257.000
17.08117 218.000
17.10112 210.000
17.12107 222.000
17.14101 204.000
17.16096 237.000
17.18091 239.000
17.20085 243.000
17.22080 218.000
17.24075 235.000
17.26069 206.000
17.28064 227.000
17.30059 253.000
17.32053 228.000
17.34048 238.000
17.36043 254.000
17.38038 218.000
17.40032 225.000
17.42027 254.000
17.44022 228.000
17.46016 220.000
17.48011 214.000
17.50006 213.000
17.52000 215.000
17.53995 221.000
17.55990 214.000
17.57985 216.000
17.59979 240.000
17.61974 239.000
17.63969 218.000
17.65963 218.000
17.67958 243.000
17.69953 205.000
17.71947 251.000
17.73942 224.000
17.75937 229.000
17.77932 226.000
17.79926 224.000
17.81921 218.000
17.83916 241.000
17.85910 217.000
17.87905 246.000
17.89900 232.000
17.91894 243.000
17.93889 246.000
17.95884 237.000
17.97878 242.000
17.99873 238.000
18.01868 229.000
18.03863 235.000
18.05857 237.000
18.07852 239.000
18.09847 246.000
18.11841 243.000
18.13836 266.000
18.15831 307.000
18.17825 294.000
18.19820 347.000
18.21815 425.000
18.23810 467.000
18.25804 500.000
18.27799 476.000
18.29794 413.000
18.31788 381.000
18.33783 279.000
18.35778 270.000
18.37772 256.000
18.39767 227.000
18.41762 237.000
18.43756 235.000
18.45751 247.000
18.47746 206.000
18.49741 249.000
18.51735 239.000
18.53730 234.000
18.55725 228.000
18.57719 204.000
18.59714 222.000
18.61709 224.000
18.63703 241.000
18.65698 206.000
18.67693 243.000
18.69688 238.000
18.71682 216.000
18.73677 201.000
18.75672 234.000
18.77666 247.000
18.79661 214.000
18.81656 239.000
18.83650 218.000
18.85645 213.000
18.87640 232.000
18.89634 208.000
18.91629 225.000
18.93624 213.000
18.95619 243.000
18.97613 220.000
18.99608 235.000
19.01603 224.000
19.03597 242.000
19.05592 235.000
19.07587 230.000
19.09581 255.000
19.11576 232.000
19.13571 246.000
19.15566 218.000
19.17560 232.000
19.19555 231.000
19.21550 259.000
19.23544 259.000
19.25539 227.000
19.27534 233.000
19.29528 234.000
19.31523 234.000
19.33518 208.000
19.35513 247.000
19.37507 242.000
19.39502 223.000
19.41497 252.000
19.43491 234.000
19.45486 248.000
19.47481 246.000
19.49475 220.000
19.51470 231.000
19.53465 223.000
19.55459 239.000
19.57454 225.000
19.59449 233.000
19.61444 260.000
19.63438 236.000
19.65433 249.000
19.67428 241.000
19.69422 263.000
19.71417 251.000
19.73412 254.000
19.75406 257.000
19.77401 245.000
19.79396 261.000
19.81391 267.000
19.83385 247.000
19.85380 250.000
19.87375 272.000
19.89369 301.000
19.91364 299.000
19.93359 342.000
19.95353 381.000
19.97348 340.000
19.99343 339.000
20.01337 368.000
20.03332 278.000
20.05327 270.000
20.07322 251.000
20.09316 256.000
20.11311 259.000
20.13306 249.000
20.15300 247.000
20.17295 259.000
20.19290 261.000
20.21284 272.000
20.23279 252.000
20.25274 253.000
20.27269 249.000
20.29263 296.000
20.31258 273.000
20.33253 291.000
20.35247 324.000
20.37242 299.000
20.39237 326.000
20.41231 388.000
20.43226 432.000
20.45221 460.000
20.47215 505.000
20.49210 538.000
20.51205 547.000
20.53200 594.000
20.55194 690.000
20.57189 715.000
20.59184 720.000
20.61178 741.000
20.63173 664.000
20.65168 619.000
20.67162 628.000
20.69157 549.000
20.71152 573.000
20.73147 588.000
20.75141 590.000
20.77136 650.000
20.79131 614.000
20.81125 650.000
20.83120 662.000
20.85115 620.000
20.87109 597.000
20.89104 471.000
20.91099 422.000
20.93094 385.000
20.95088 335.000
20.97083 300.000
20.99078 294.000
21.01072 277.000
21.03067 294.000
21.05062 270.000
21.07056 306.000
21.09051 271.000
21.11046 235.000
21.13040 267.000
21.15035 238.000
21.17030 244.000
21.19025 238.000
21.21019 248.000
21.23014 253.000
21.25009 244.000
21.27003 252.000
21.28998 226.000
21.30993 240.000
21.32987 245.000
21.34982 224.000
21.36977 250.000
21.38972 233.000
21.40966 236.000
21.42961 219.000
21.44956 249.000
21.46950 243.000
21.48945 241.000
21.50940 245.000
21.52934 230.000
21.54929 251.000
21.56924 240.000
21.58918 231.000
21.60913 235.000
21.62908 243.000
21.64903 245.000
21.66897 236.000
21.68892 256.000
21.70887 253.000
21.72881 273.000
21.74876 234.000
21.76871 225.000
21.78865 228.000
21.80860 254.000
21.82855 238.000
21.84850 228.000
21.86844 254.000
21.88839 205.000
21.90834 253.000
21.92828 259.000
21.94823 239.000
21.96818 241.000
21.98812 247.000
22.00807 240.000
22.02802 288.000
22.04796 237.000
22.06791 255.000
22.08786 239.000
22.10781 234.000
22.12775 259.000
22.14770 265.000
22.16765 225.000
22.18759 262.000
22.20754 240.000
22.22749 269.000
22.24743 235.000
22.26738 267.000
22.28733 242.000
22.30728 228.000
22.32722 256.000
22.34717 266.000
22.36712 219.000
22.38706 219.000
22.40701 274.000
22.42696 240.000
22.44690 260.000
22.46685 255.000
22.48680 226.000
22.50675 246.000
22.52669 271.000
22.54664 242.000
22.56659 267.000
22.58653 257.000
22.60648 254.000
22.62643 244.000
22.64637 238.000
22.66632 266.000
22.68627 249.000
22.70621 295.000
22.72616 241.000
22.74611 257.000
22.76606 254.000
22.78600 276.000
22.80595 253.000
22.82590 250.000
22.84584 236.000
22.86579 254.000
22.88574 245.000
22.90568 250.000
22.92563 269.000
22.94558 241.000
22.96553 240.000
22.98547 263.000
23.00542 254.000
23.02537 256.000
23.04531 237.000
23.06526 230.000
23.08521 238.000
23.10515 245.000
23.12510 238.000
23.14505 249.000
23.16499 240.000
23.18494 236.000
23.20489 261.000
23.22484 224.000
23.24478 249.000
23.26473 233.000
23.28468 251.000
23.30462 250.000
23.32457 236.000
23.34452 248.000
23.36446 261.000
23.38441 266.000
23.40436 257.000
23.42431 236.000
23.44425 252.000
23.46420 247.000
23.48415 235.000
23.50409 271.000
23.52404 262.000
23.54399 243.000
23.56393 290.000
23.58388 270.000
23.60383 256.000
23.62377 271.000
23.64372 250.000
23.66367 269.000
23.68362 250.000
23.70356 290.000
23.72351 258.000
23.74346 264.000
23.76340 247.000
23.78335 254.000
23.80330 255.000
23.82324 276.000
23.84319 244.000
23.86314 270.000
23.88309 238.000
23.90303 264.000
23.92298 273.000
23.94293 276.000
23.96287 258.000
23.98282 283.000
24.00277 279.000
24.02271 262.000
24.04266 288.000
24.06261 268.000
24.08256 270.000
24.10250 287.000
24.12245 262.000
24.14240 249.000
24.16234 240.000
24.18229 244.000
24.20224 286.000
24.22218 260.000
24.24213 257.000
24.26208 264.000
24.28202 273.000
24.30197 294.000
24.32192 256.000
24.34187 288.000
24.36181 282.000
24.38176 268.000
24.40171 270.000
24.42165 264.000
24.44160 279.000
24.46155 238.000
24.48149 266.000
24.50144 276.000
24.52139 267.000
24.54134 276.000
24.56128 253.000
24.58123 251.000
24.60118 305.000
24.62112 299.000
24.64107 297.000
24.66102 288.000
24.68096 287.000
24.70091 267.000
24.72086 284.000
24.74080 274.000
24.76075 272.000
24.78070 261.000
24.80065 254.000
24.82059 269.000
24.84054 275.000
24.86049 235.000
24.88043 259.000
24.90038 248.000
24.92033 262.000
24.94027 286.000
24.96022 308.000
24.98017 280.000
25.00012 283.000
25.02006 284.000
25.04001 251.000
25.05996 265.000
25.07990 290.000
25.09985 268.000
25.11980 259.000
25.13974 259.000
25.15969 288.000
25.17964 271.000
25.19958 273.000
25.21953 268.000
25.23948 262.000
25.25943 271.000
25.27937 261.000
25.29932 292.000
25.31927 272.000
25.33921 251.000
25.35916 248.000
25.37911 308.000
25.39905 293.000
25.41900 283.000
25.43895 296.000
25.45890 264.000
25.47884 287.000
25.49879 274.000
25.51874 268.000
25.53868 295.000
25.55863 259.000
25.57858 278.000
25.59852 289.000
25.61847 295.000
25.63842 261.000
25.65837 291.000
25.67831 302.000
25.69826 294.000
25.71821 280.000
25.73815 304.000
25.75810 283.000
25.77805 299.000
25.79799 262.000
25.81794 301.000
25.83789 300.000
25.85783 302.000
25.87778 302.000
25.89773 303.000
25.91768 285.000
25.93762 320.000
25.95757 286.000
25.97752 317.000
25.99746 277.000
26.01741 301.000
26.03736 307.000
26.05730 318.000
26.07725 303.000
26.09720 300.000
26.11715 274.000
26.13709 264.000
26.15704 278.000
26.17699 294.000
26.19693 277.000
26.21688 331.000
26.23683 278.000
26.25677 288.000
26.27672 273.000
26.29667 317.000
26.31661 280.000
26.33656 296.000
26.35651 288.000
26.37646 275.000
26.39640 310.000
26.41635 303.000
26.43630 274.000
26.45624 305.000
26.47619 284.000
26.49614 290.000
26.51608 298.000
26.53603 268.000
26.55598 290.000
26.57593 306.000
26.59587 296.000
26.61582 323.000
26.63577 283.000
26.65571 282.000
26.67566 314.000
26.69561 294.000
26.71555 301.000
26.73550 328.000
26.75545 290.000
26.77539 285.000
26.79534 302.000
26.81529 294.000
26.83524 286.000
26.85518 313.000
26.87513 311.000
26.89508 283.000
26.91502 309.000
26.93497 318.000
26.95492 307.000
26.97486 302.000
26.99481 282.000
27.01476 258.000
27.03471 318.000
27.05465 297.000
27.07460 314.000
27.09455 288.000
27.11449 304.000
27.13444 322.000
27.15439 295.000
27.17433 312.000
27.19428 303.000
27.21423 311.000
27.23417 320.000
27.25412 258.000
27.27407 310.000
27.29402 278.000
27.31396 315.000
27.33391 313.000
27.35386 301.000
27.37380 282.000
27.39375 255.000
27.41370 310.000
27.43364 300.000
27.45359 273.000
27.47354 304.000
27.49349 297.000
27.51343 295.000
27.53338 303.000
27.55333 293.000
27.57327 309.000
27.59322 299.000
27.61317 333.000
27.63311 311.000
27.65306 303.000
27.67301 274.000
27.69296 277.000
27.71290 306.000
27.73285 275.000
27.75280 304.000
27.77274 338.000
27.79269 297.000
27.81264 315.000
27.83258 296.000
27.85253 310.000
27.87248 283.000
27.89242 309.000
27.91237 315.000
27.93232 304.000
27.95227 321.000
27.97221 311.000
27.99216 309.000
28.01211 319.000
28.03205 328.000
28.05200 298.000
28.07195 302.000
28.09189 278.000
28.11184 322.000
28.13179 324.000
28.15174 297.000
28.17168 330.000
28.19163 346.000
28.21158 286.000
28.23152 307.000
28.25147 293.000
28.27142 309.000
28.29136 311.000
28.31131 339.000
28.33126 326.000
28.35120 320.000
28.37115 320.000
28.39110 302.000
28.41105 325.000
28.43099 279.000
28.45094 316.000
28.47089 318.000
28.49083 319.000
28.51078 301.000
28.53073 303.000
28.55067 292.000
28.57062 342.000
28.59057 309.000
28.61052 328.000
28.63046 319.000
28.65041 321.000
28.67036 318.000
28.69030 324.000
28.71025 314.000
28.73020 324.000
28.75014 318.000
28.77009 350.000
28.79004 295.000
28.80998 303.000
28.82993 344.000
28.84988 325.000
28.86983 308.000
28.88977 326.000
28.90972 340.000
28.92967 323.000
28.94961 353.000
28.96956 322.000
28.98951 323.000
29.00945 319.000
29.02940 317.000
29.04935 343.000
29.06930 329.000
29.08924 301.000
29.10919 340.000
29.12914 331.000
29.14908 310.000
29.16903 303.000
29.18898 318.000
29.20892 358.000
29.22887 338.000
29.24882 335.000
29.26877 331.000
29.28871 333.000
29.30866 325.000
29.32861 340.000
29.34855 361.000
29.36850 369.000
29.38845 373.000
29.40839 357.000
29.42834 406.000
29.44829 378.000
29.46823 432.000
29.48818 425.000
29.50813 426.000
29.52808 430.000
29.54802 423.000
29.56797 414.000
29.58792 376.000
29.60786 341.000
29.62781 354.000
29.64776 357.000
29.66770 337.000
29.68765 371.000
29.70760 353.000
29.72755 368.000
29.74749 350.000
29.76744 354.000
29.78739 376.000
29.80733 412.000
29.82728 392.000
29.84723 403.000
29.86717 443.000
29.88712 474.000
29.90707 486.000
29.92701 523.000
29.94696 562.000
29.96691 609.000
29.98686 696.000
30.00680 685.000
30.02675 725.000
30.04670 726.000
30.06664 698.000
30.08659 662.000
30.10654 637.000
30.12648 583.000
30.14643 547.000
30.16638 500.000
30.18633 441.000
30.20627 395.000
30.22622 353.000
30.24617 339.000
30.26611 340.000
30.28606 372.000
30.30601 359.000
30.32595 342.000
30.34590 343.000
30.36585 381.000
30.38579 336.000
30.40574 346.000
30.42569 295.000
30.44564 342.000
30.46558 334.000
30.48553 309.000
30.50548 339.000
30.52542 326.000
30.54537 336.000
30.56532 357.000
30.58526 349.000
30.60521 331.000
30.62516 295.000
30.64511 311.000
30.66505 329.000
30.68500 312.000
30.70495 351.000
30.72489 323.000
30.74484 323.000
30.76479 308.000
30.78473 339.000
30.80468 326.000
30.82463 318.000
30.84458 326.000
30.86452 311.000
30.88447 311.000
30.90442 338.000
30.92436 326.000
30.94431 352.000
30.96426 320.000
30.98420 341.000
31.00415 327.000
31.02410 322.000
31.04404 312.000
31.06399 343.000
31.08394 316.000
31.10389 309.000
31.12383 325.000
31.14378 330.000
31.16373 329.000
31.18367 324.000
31.20362 315.000
31.22357 315.000
31.24351 352.000
31.26346 335.000
31.28341 334.000
31.30336 318.000
31.32330 345.000
31.34325 329.000
31.36320 326.000
31.38314 331.000
31.40309 327.000
31.42304 335.000
31.44298 393.000
31.46293 352.000
31.48288 354.000
31.50282 379.000
31.52277 372.000
31.54272 380.000
31.56267 393.000
31.58261 356.000
31.60256 385.000
31.62251 409.000
31.64245 407.000
31.66240 391.000
31.68235 343.000
31.70229 316.000
31.72224 351.000
31.74219 324.000
31.76214 348.000
31.78208 344.000
31.80203 296.000
31.82198 331.000
31.84192 328.000
31.86187 334.000
31.88182 368.000
31.90176 288.000
31.92171 336.000
31.94166 331.000
31.96160 327.000
31.98155 353.000
32.00150 317.000
32.02145 320.000
32.04139 352.000
32.06134 321.000
32.08129 322.000
32.10123 322.000
32.12118 343.000
32.14113 325.000
32.16107 297.000
32.18102 297.000
32.20097 319.000
32.22092 323.000
32.24086 322.000
32.26081 302.000
32.28076 360.000
32.30070 342.000
32.32065 331.000
32.34060 339.000
32.36054 356.000
32.38049 323.000
32.40044 368.000
32.42039 386.000
32.44033 407.000
32.46028 440.000
32.48023 411.000
32.50017 433.000
32.52012 394.000
32.54007 422.000
32.56001 412.000
32.57996 410.000
32.59991 399.000
32.61985 391.000
32.63980 339.000
32.65975 339.000
32.67970 372.000
32.69964 326.000
32.71959 307.000
32.73954 340.000
32.75948 326.000
32.77943 328.000
32.79938 339.000
32.81932 344.000
32.83927 333.000
32.85922 302.000
32.87917 323.000
32.89911 336.000
32.91906 352.000
32.93901 341.000
32.95895 309.000
32.97890 328.000
32.99885 318.000
33.01879 320.000
33.03874 337.000
33.05869 349.000
33.07863 324.000
33.09858 384.000
33.11853 393.000
33.13848 372.000
33.15842 408.000
33.17837 416.000
33.19832 438.000
33.21826 439.000
33.23821 483.000
33.25816 446.000
33.27810 447.000
33.29805 450.000
33.31800 422.000
33.33795 412.000
33.35789 329.000
33.37784 387.000
33.39779 371.000
33.41773 386.000
33.43768 364.000
33.45763 363.000
33.47757 360.000
33.49752 353.000
33.51747 378.000
33.53741 392.000
33.55736 351.000
33.57731 357.000
33.59726 418.000
33.61720 401.000
33.63715 442.000
33.65710 395.000
33.67704 462.000
33.69699 491.000
33.71694 464.000
33.73688 496.000
33.75683 562.000
33.77678 577.000
33.79673 510.000
33.81667 596.000
33.83662 625.000
33.85657 672.000
33.87651 682.000
33.89646 744.000
33.91641 767.000
33.93635 787.000
33.95630 789.000
33.97625 745.000
33.99620 687.000
34.01614 701.000
34.03609 669.000
34.05604 638.000
34.07598 585.000
34.09593 619.000
34.11588 575.000
34.13582 578.000
34.15577 536.000
34.17572 621.000
34.19566 601.000
34.21561 645.000
34.23556 594.000
34.25551 597.000
34.27545 638.000
34.29540 653.000
34.31535 651.000
34.33529 602.000
34.35524 641.000
34.37519 605.000
34.39513 623.000
34.41508 576.000
34.43503 558.000
34.45498 511.000
34.47492 519.000
34.49487 453.000
34.51482 434.000
34.53476 428.000
34.55471 398.000
34.57466 403.000
34.59460 377.000
34.61455 395.000
34.63450 367.000
34.65444 401.000
34.67439 384.000
34.69434 363.000
34.71429 377.000
34.73423 358.000
34.75418 385.000
34.77413 381.000
34.79407 336.000
34.81402 367.000
34.83397 391.000
34.85391 388.000
34.87386 429.000
34.89381 418.000
34.91376 419.000
34.93370 419.000
34.95365 422.000
34.97360 487.000
34.99354 432.000
35.01349 471.000
35.03344 491.000
35.05338 472.000
35.07333 466.000
35.09328 484.000
35.11322 562.000
35.13317 594.000
35.15312 602.000
35.17307 654.000
35.19301 739.000
35.21296 806.000
35.23291 918.000
35.25285 1030.000
35.27280 1164.000
35.29275 1266.000
35.31269 1441.000
35.33264 1522.000
35.35259 1744.000
35.37254 1915.000
35.39248 2080.000
35.41243 2154.000
35.43238 2308.000
35.45232 2297.000
35.47227 2251.000
35.49222 2404.000
35.51216 2436.000
35.53211 2243.000
35.55206 2014.000
35.57201 1747.000
35.59195 1613.000
35.61190 1364.000
35.63185 1246.000
35.65179 986.000
35.67174 868.000
35.69169 758.000
35.71163 638.000
35.73158 584.000
35.75153 500.000
35.77147 520.000
35.79142 500.000
35.81137 476.000
35.83132 501.000
35.85126 431.000
35.87121 414.000
35.89116 415.000
35.91110 399.000
35.93105 393.000
35.95100 374.000
35.97094 347.000
35.99089 365.000
36.01084 349.000
36.03079 375.000
36.05073 352.000
36.07068 342.000
36.09063 338.000
36.11057 372.000
36.13052 357.000
36.15047 300.000
36.17041 319.000
36.19036 341.000
36.21031 318.000
36.23025 346.000
36.25020 320.000
36.27015 315.000
36.29010 322.000
36.31004 312.000
36.32999 314.000
36.34994 354.000
36.36988 323.000
36.38983 308.000
36.40978 324.000
36.42972 322.000
36.44967 303.000
36.46962 285.000
36.48957 302.000
36.50951 327.000
36.52946 297.000
36.54941 337.000
36.56935 294.000
36.58930 287.000
36.60925 307.000
36.62919 295.000
36.64914 303.000
36.66909 295.000
36.68903 312.000
36.70898 302.000
36.72893 324.000
36.74888 297.000
36.76882 309.000
36.78877 298.000
36.80872 310.000
36.82866 293.000
36.84861 330.000
36.86856 310.000
36.88850 345.000
36.90845 322.000
36.92840 371.000
36.94835 369.000
36.96829 421.000
36.98824 436.000
37.00819 435.000
37.02813 439.000
37.04808 374.000
37.06803 401.000
37.08797 389.000
37.10792 375.000
37.12787 403.000
37.14781 340.000
37.16776 374.000
37.18771 323.000
37.20766 355.000
37.22760 316.000
37.24755 308.000
37.26750 340.000
37.28744 327.000
37.30739 315.000
37.32734 273.000
37.34728 321.000
37.36723 329.000
37.38718 299.000
37.40713 296.000
37.42707 276.000
37.44702 295.000
37.46697 333.000
37.48691 295.000
37.50686 266.000
37.52681 292.000
37.54675 313.000
37.56670 313.000
37.58665 284.000
37.60660 320.000
37.62654 308.000
37.64649 309.000
37.66644 298.000
37.68638 322.000
37.70633 305.000
37.72628 315.000
37.74622 325.000
37.76617 291.000
37.78612 311.000
37.80606 325.000
37.82601 348.000
37.84596 321.000
37.86591 310.000
37.88585 298.000
37.90580 314.000
37.92575 345.000
37.94569 291.000
37.96564 326.000
37.98559 318.000
38.00553 340.000
38.02548 349.000
38.04543 311.000
38.06538 351.000
38.08532 363.000
38.10527 329.000
38.12522 329.000
38.14516 312.000
38.16511 332.000
38.18506 315.000
38.20500 334.000
38.22495 354.000
38.24490 336.000
38.26484 398.000
38.28479 340.000
38.30474 404.000
38.32469 384.000
38.34463 370.000
38.36458 364.000
38.38453 382.000
38.40447 427.000
38.42442 431.000
38.44437 467.000
38.46431 478.000
38.48426 536.000
38.50421 576.000
38.52416 596.000
38.54410 663.000
38.56405 706.000
38.58400 781.000
38.60394 874.000
38.62389 1037.000
38.64384 1125.000
38.66378 1291.000
38.68373 1455.000
38.70368 1497.000
38.72362 1605.000
38.74357 1523.000
38.76352 1351.000
38.78347 1366.000
38.80341 1234.000
38.82336 1097.000
38.84331 1065.000
38.86325 927.000
38.88320 934.000
38.90315 846.000
38.92309 736.000
38.94304 664.000
38.96299 637.000
38.98294 549.000
39.00288 518.000
39.02283 498.000
39.04278 429.000
39.06272 441.000
39.08267 400.000
39.10262 410.000
39.12256 352.000
39.14251 325.000
39.16246 324.000
39.18241 360.000
39.20235 330.000
39.22230 304.000
39.24225 299.000
39.26219 347.000
39.28214 293.000
39.30209 298.000
39.32203 282.000
39.34198 303.000
39.36193 316.000
39.38187 295.000
39.40182 312.000
39.42177 329.000
39.44172 335.000
39.46166 276.000
39.48161 313.000
39.50156 301.000
39.52150 320.000
39.54145 331.000
39.56140 329.000
39.58134 281.000
39.60129 304.000
39.62124 258.000
39.64119 311.000
39.66113 313.000
39.68108 314.000
39.70103 278.000
39.72097 325.000
39.74092 286.000
39.76087 315.000
39.78081 289.000
39.80076 308.000
39.82071 339.000
39.84065 281.000
39.86060 293.000
39.88055 285.000
39.90050 311.000
39.92044 297.000
39.94039 314.000
39.96034 284.000
39.98028 318.000
40.00023 267.000
40.02018 282.000
40.04012 323.000
40.06007 307.000
40.08002 288.000
40.09997 318.000
40.11991 258.000
40.13986 300.000
40.15981 279.000
40.17975 300.000
40.19970 277.000
40.21965 334.000
40.23959 316.000
40.25954 298.000
40.27949 310.000
40.29943 302.000
40.31938 342.000
40.33933 289.000
40.35928 316.000
40.37922 289.000
40.39917 306.000
40.41912 299.000
40.43906 267.000
40.45901 307.000
40.47896 321.000
40.49890 325.000
40.51885 271.000
40.53880 279.000
40.55875 323.000
40.57869 296.000
40.59864 310.000
40.61859 305.000
40.63853 293.000
40.65848 310.000
40.67843 304.000
40.69837 272.000
40.71832 260.000
40.73827 262.000
40.75822 298.000
40.77816 279.000
40.79811 278.000
40.81806 304.000
40.83800 271.000
40.85795 281.000
40.87790 274.000
40.89784 263.000
40.91779 302.000
40.93774 279.000
40.95768 276.000
40.97763 289.000
40.99758 288.000
41.01753 316.000
41.03747 284.000
41.05742 275.000
41.07737 290.000
41.09731 268.000
41.11726 290.000
41.13721 318.000
41.15715 279.000
41.17710 285.000
41.19705 279.000
41.21700 298.000
41.23694 293.000
41.25689 287.000
41.27684 271.000
41.29678 325.000
41.31673 284.000
41.33668 293.000
41.35662 283.000
41.37657 307.000
41.39652 286.000
41.41646 325.000
41.43641 279.000
41.45636 289.000
41.47631 261.000
41.49625 307.000
41.51620 283.000
41.53615 286.000
41.55609 300.000
41.57604 302.000
41.59599 265.000
41.61593 277.000
41.63588 261.000
41.65583 294.000
41.67578 324.000
41.69572 299.000
41.71567 332.000
41.73562 282.000
41.75556 323.000
41.77551 317.000
41.79546 328.000
41.81540 302.000
41.83535 310.000
41.85530 281.000
41.87524 311.000
41.89519 321.000
41.91514 286.000
41.93509 278.000
41.95503 307.000
41.97498 288.000
41.99493 304.000
42.01487 276.000
42.03482 308.000
42.05477 307.000
42.07471 294.000
42.09466 310.000
42.11461 299.000
42.13456 331.000
42.15450 306.000
42.17445 339.000
42.19440 305.000
42.21434 299.000
42.23429 299.000
42.25424 284.000
42.27418 315.000
42.29413 315.000
42.31408 294.000
42.33403 310.000
42.35397 328.000
42.37392 281.000
42.39387 312.000
42.41381 303.000
42.43376 316.000
42.45371 301.000
42.47365 323.000
42.49360 353.000
42.51355 282.000
42.53349 316.000
42.55344 300.000
42.57339 302.000
42.59334 315.000
42.61328 298.000
42.63323 325.000
42.65318 311.000
42.67312 375.000
42.69307 346.000
42.71302 346.000
42.73296 354.000
42.75291 352.000
42.77286 362.000
42.79281 377.000
42.81275 384.000
42.83270 399.000
42.85265 395.000
42.87259 434.000
42.89254 406.000
42.91249 403.000
42.93243 465.000
42.95238 471.000
42.97233 494.000
42.99227 470.000
43.01222 475.000
43.03217 507.000
43.05212 432.000
43.07206 459.000
43.09201 468.000
43.11196 486.000
43.13190 453.000
43.15185 431.000
43.17180 437.000
43.19174 396.000
43.21169 395.000
43.23164 383.000
43.25159 388.000
43.27153 373.000
43.29148 340.000
43.31143 340.000
43.33137 371.000
43.35132 326.000
43.37127 317.000
43.39121 335.000
43.41116 317.000
43.43111 309.000
43.45105 292.000
43.47100 305.000
43.49095 308.000
43.51090 300.000
43.53084 309.000
43.55079 306.000
43.57074 254.000
43.59068 310.000
43.61063 282.000
43.63058 308.000
43.65052 288.000
43.67047 300.000
43.69042 286.000
43.71037 261.000
43.73031 275.000
43.75026 259.000
43.77021 284.000
43.79015 280.000
43.81010 302.000
43.83005 254.000
43.84999 274.000
43.86994 294.000
43.88989 268.000
43.90984 285.000
43.92978 295.000
43.94973 272.000
43.96968 290.000
43.98962 289.000
44.00957 270.000
44.02952 288.000
44.04946 266.000
44.06941 286.000
44.08936 299.000
44.10930 285.000
44.12925 255.000
44.14920 307.000
44.16915 283.000
44.18909 285.000
44.20904 271.000
44.22899 263.000
44.24893 275.000
44.26888 287.000
44.28883 274.000
44.30877 265.000
44.32872 305.000
44.34867 254.000
44.36862 271.000
44.38856 255.000
44.40851 292.000
44.42846 282.000
44.44840 309.000
44.46835 284.000
44.48830 311.000
44.50824 303.000
44.52819 269.000
44.54814 301.000
44.56808 297.000
44.58803 279.000
44.60798 297.000
44.62793 262.000
44.64787 275.000
44.66782 269.000
44.68777 268.000
44.70771 292.000
44.72766 256.000
44.74761 266.000
44.76755 323.000
44.78750 256.000
44.80745 274.000
44.82740 284.000
44.84734 301.000
44.86729 268.000
44.88724 284.000
44.90718 243.000
44.92713 307.000
44.94708 304.000
44.96702 303.000
44.98697 280.000
45.00692 300.000
45.02686 291.000
45.04681 266.000
45.06676 283.000
45.08671 275.000
45.10665 271.000
45.12660 314.000
45.14655 284.000
45.16649 294.000
45.18644 308.000
45.20639 280.000
45.22633 278.000
45.24628 274.000
45.26623 295.000
45.28618 277.000
45.30612 287.000
45.32607 262.000
45.34602 264.000
45.36596 280.000
45.38591 273.000
45.40586 291.000
45.42580 286.000
45.44575 268.000
45.46570 288.000
45.48565 277.000
45.50559 293.000
45.52554 267.000
45.54549 267.000
45.56543 251.000
45.58538 267.000
45.60533 278.000
45.62527 270.000
45.64522 282.000
45.66517 284.000
45.68511 266.000
45.70506 301.000
45.72501 293.000
45.74496 285.000
45.76490 258.000
45.78485 282.000
45.80480 257.000
45.82474 289.000
45.84469 277.000
45.86464 271.000
45.88458 268.000
45.90453 255.000
45.92448 274.000
45.94443 237.000
45.96437 279.000
45.98432 270.000
46.00427 278.000
46.02421 300.000
46.04416 260.000
46.06411 256.000
46.08405 284.000
46.10400 276.000
46.12395 265.000
46.14389 301.000
46.16384 257.000
46.18379 261.000
46.20374 294.000
46.22368 267.000
46.24363 312.000
46.26358 347.000
46.28352 269.000
46.30347 295.000
46.32342 271.000
46.34336 284.000
46.36331 328.000
46.38326 308.000
46.40321 275.000
46.42315 323.000
46.44310 255.000
46.46305 297.000
46.48299 280.000
46.50294 290.000
46.52289 288.000
46.54283 309.000
46.56278 283.000
46.58273 276.000
46.60267 274.000
46.62262 301.000
46.64257 278.000
46.66252 319.000
46.68246 289.000
46.70241 282.000
46.72236 273.000
46.74230 283.000
46.76225 300.000
46.78220 278.000
46.80214 282.000
46.82209 276.000
46.84204 271.000
46.86199 281.000
46.88193 266.000
46.90188 271.000
46.92183 268.000
46.94177 283.000
46.96172 249.000
46.98167 262.000
47.00161 303.000
47.02156 302.000
47.04151 286.000
47.06146 278.000
47.08140 287.000
47.10135 272.000
47.12130 297.000
47.14124 283.000
47.16119 272.000
47.18114 287.000
47.20108 245.000
47.22103 259.000
47.24098 304.000
47.26092 285.000
47.28087 282.000
47.30082 266.000
47.32077 278.000
47.34071 284.000
47.36066 305.000
47.38061 273.000
47.40055 257.000
47.42050 269.000
47.44045 266.000
47.46039 261.000
47.48034 294.000
47.50029 285.000
47.52024 287.000
47.54018 300.000
47.56013 270.000
47.58008 242.000
47.60002 283.000
47.61997 270.000
47.63992 246.000
47.65986 274.000
47.67981 261.000
47.69976 260.000
47.71970 241.000
47.73965 267.000
47.75960 262.000
47.77955 264.000
47.79949 255.000
47.81944 240.000
47.83939 280.000
47.85933 289.000
47.87928 248.000
47.89923 262.000
47.91917 260.000
47.93912 277.000
47.95907 287.000
47.97902 254.000
47.99896 255.000
48.01891 274.000
48.03886 233.000
48.05880 310.000
48.07875 305.000
48.09870 262.000
48.11864 252.000
48.13859 286.000
48.15854 274.000
48.17848 292.000
48.19843 297.000
48.21838 290.000
48.23833 262.000
48.25827 301.000
48.27822 268.000
48.29817 297.000
48.31811 266.000
48.33806 318.000
48.35801 317.000
48.37795 327.000
48.39790 326.000
48.41785 339.000
48.43780 292.000
48.45774 355.000
48.47769 366.000
48.49764 328.000
48.51758 333.000
48.53753 328.000
48.55748 414.000
48.57742 421.000
48.59737 408.000
48.61732 439.000
48.63726 507.000
48.65721 566.000
48.67716 593.000
48.69711 645.000
48.71705 610.000
48.73700 648.000
48.75695 597.000
48.77689 571.000
48.79684 520.000
48.81679 539.000
48.83673 501.000
48.85668 481.000
48.87663 468.000
48.89658 402.000
48.91652 398.000
48.93647 372.000
48.95642 329.000
48.97636 364.000
48.99631 320.000
49.01626 314.000
49.03620 287.000
49.05615 296.000
49.07610 336.000
49.09605 297.000
49.11599 299.000
49.13594 310.000
49.15589 275.000
49.17583 295.000
49.19578 294.000
49.21573 304.000
49.23567 276.000
49.25562 298.000
49.27557 285.000
49.29551 309.000
49.31546 293.000
49.33541 272.000
49.35536 280.000
49.37530 274.000
49.39525 288.000
49.41520 308.000
49.43514 280.000
49.45509 273.000
49.47504 250.000
49.49498 295.000
49.51493 268.000
49.53488 276.000
49.55483 253.000
49.57477 267.000
49.59472 269.000
49.61467 278.000
49.63461 240.000
49.65456 295.000
49.67451 245.000
49.69445 253.000
49.71440 269.000
49.73435 258.000
49.75429 285.000
49.77424 281.000
49.79419 231.000
49.81414 255.000
49.83408 286.000
49.85403 276.000
49.87398 257.000
49.89392 267.000
49.91387 272.000
49.93382 265.000
49.95376 286.000
49.97371 260.000
49.99366 285.000
50.01361 280.000
50.03355 304.000
50.05350 321.000
50.07345 279.000
50.09339 277.000
50.11334 272.000
50.13329 300.000
50.15323 253.000
50.17318 234.000
50.19313 262.000
50.21307 254.000
50.23302 266.000
50.25297 256.000
50.27292 271.000
50.29286 252.000
50.31281 282.000
50.33276 250.000
50.35270 287.000
50.37265 267.000
50.39260 265.000
50.41254 275.000
50.43249 228.000
50.45244 266.000
50.47239 267.000
50.49233 277.000
50.51228 269.000
50.53223 258.000
50.55217 253.000
50.57212 275.000
50.59207 271.000
50.61201 281.000
50.63196 285.000
50.65191 245.000
50.67186 321.000
50.69180 267.000
50.71175 249.000
50.73170 246.000
50.75164 241.000
50.77159 270.000
50.79154 306.000
50.81148 254.000
50.83143 272.000
50.85138 301.000
50.87132 268.000
50.89127 294.000
50.91122 278.000
50.93117 282.000
50.95111 300.000
50.97106 310.000
50.99101 284.000
51.01095 285.000
51.03090 292.000
51.05085 272.000
51.07079 285.000
51.09074 268.000
51.11069 322.000
51.13064 280.000
51.15058 267.000
51.17053 251.000
51.19048 268.000
51.21042 255.000
51.23037 274.000
51.25032 290.000
51.27026 246.000
51.29021 283.000
51.31016 266.000
51.33010 272.000
51.35005 247.000
51.37000 278.000
51.38995 283.000
51.40989 264.000
51.42984 268.000
51.44979 307.000
51.46973 285.000
51.48968 242.000
51.50963 286.000
51.52957 294.000
51.54952 268.000
51.56947 264.000
51.58942 266.000
51.60936 303.000
51.62931 254.000
51.64926 245.000
51.66920 234.000
51.68915 254.000
51.70910 246.000
51.72904 233.000
51.74899 260.000
51.76894 310.000
51.78888 257.000
51.80883 264.000
51.82878 262.000
51.84873 265.000
51.86867 274.000
51.88862 261.000
51.90857 288.000
51.92851 264.000
51.94846 230.000
51.96841 248.000
51.98835 262.000
52.00830 254.000
52.02825 273.000
52.04820 252.000
52.06814 252.000
52.08809 249.000
52.10804 271.000
52.12798 284.000
52.14793 274.000
52.16788 269.000
52.18782 237.000
52.20777 256.000
52.22772 280.000
52.24767 315.000
52.26761 257.000
52.28756 245.000
52.30751 271.000
52.32745 274.000
52.34740 262.000
52.36735 276.000
52.38729 290.000
52.40724 260.000
52.42719 253.000
52.44713 272.000
52.46708 285.000
52.48703 266.000
52.50698 253.000
52.52692 263.000
52.54687 273.000
52.56682 269.000
52.58676 256.000
52.60671 257.000
52.62666 209.000
52.64660 279.000
52.66655 240.000
52.68650 255.000
52.70645 261.000
52.72639 246.000
52.74634 306.000
52.76629 302.000
52.78623 259.000
52.80618 279.000
52.82613 281.000
52.84607 310.000
52.86602 294.000
52.88597 259.000
52.90591 280.000
52.92586 299.000
52.94581 273.000
52.96576 278.000
52.98570 250.000
53.00565 277.000
53.02560 292.000
53.04554 281.000
53.06549 297.000
53.08544 290.000
53.10538 299.000
53.12533 326.000
53.14528 273.000
53.16523 318.000
53.18517 323.000
53.20512 334.000
53.22507 309.000
53.24501 348.000
53.26496 377.000
53.28491 382.000
53.30485 367.000
53.32480 380.000
53.34475 414.000
53.36469 442.000
53.38464 385.000
53.40459 401.000
53.42454 425.000
53.44448 440.000
53.46443 428.000
53.48438 440.000
53.50432 386.000
53.52427 372.000
53.54422 403.000
53.56416 369.000
53.58411 402.000
53.60406 340.000
53.62401 334.000
53.64395 372.000
53.66390 367.000
53.68385 342.000
53.70379 286.000
53.72374 319.000
53.74369 287.000
53.76363 322.000
53.78358 312.000
53.80353 302.000
53.82348 287.000
53.84342 312.000
53.86337 261.000
53.88332 277.000
53.90326 291.000
53.92321 268.000
53.94316 283.000
53.96310 278.000
53.98305 257.000
54.00300 278.000
54.02294 276.000
54.04289 283.000
54.06284 280.000
54.08279 281.000
54.10273 273.000
54.12268 274.000
54.14263 287.000
54.16257 293.000
54.18252 302.000
54.20247 242.000
54.22241 310.000
54.24236 255.000
54.26231 295.000
54.28226 273.000
54.30220 261.000
54.32215 274.000
54.34210 230.000
54.36204 282.000
54.38199 262.000
54.40194 268.000
54.42188 257.000
54.44183 240.000
54.46178 255.000
54.48172 258.000
54.50167 274.000
54.52162 252.000
54.54157 279.000
54.56151 296.000
54.58146 238.000
54.60141 270.000
54.62135 265.000
54.64130 274.000
54.66125 249.000
54.68119 250.000
54.70114 263.000
54.72109 278.000
54.74104 271.000
54.76098 292.000
54.78093 272.000
54.80088 255.000
54.82082 281.000
54.84077 301.000
54.86072 296.000
54.88066 299.000
54.90061 279.000
54.92056 302.000
54.94050 276.000
54.96045 244.000
54.98040 301.000
55.00035 327.000
55.02029 285.000
55.04024 295.000
55.06019 279.000
55.08013 289.000
55.10008 279.000
55.12003 285.000
55.13997 270.000
55.15992 303.000
55.17987 273.000
55.19982 260.000
55.21976 253.000
55.23971 279.000
55.25966 259.000
55.27960 282.000
55.29955 234.000
55.31950 254.000
55.33944 262.000
55.35939 277.000
55.37934 271.000
55.39929 295.000
55.41923 258.000
55.43918 268.000
55.45913 270.000
55.47907 270.000
55.49902 266.000
55.51897 274.000
55.53891 253.000
55.55886 230.000
55.57881 235.000
55.59875 257.000
55.61870 284.000
55.63865 281.000
55.65860 252.000
55.67854 261.000
55.69849 266.000
55.71844 264.000
55.73838 275.000
55.75833 293.000
55.77828 272.000
55.79822 279.000
55.81817 293.000
55.83812 268.000
55.85807 258.000
55.87801 253.000
55.89796 262.000
55.91791 242.000
55.93785 258.000
55.95780 242.000
55.97775 246.000
55.99769 264.000
56.01764 289.000
56.03759 284.000
56.05753 264.000
56.07748 267.000
56.09743 284.000
56.11738 275.000
56.13732 289.000
56.15727 237.000
56.17722 265.000
56.19716 291.000
56.21711 282.000
56.23706 287.000
56.25700 291.000
56.27695 271.000
56.29690 297.000
56.31685 290.000
56.33679 223.000
56.35674 318.000
56.37669 298.000
56.39663 293.000
56.41658 265.000
56.43653 282.000
56.45647 321.000
56.47642 293.000
56.49637 299.000
56.51631 326.000
56.53626 303.000
56.55621 327.000
56.57616 313.000
56.59610 321.000
56.61605 332.000
56.63600 323.000
56.65594 376.000
56.67589 338.000
56.69584 394.000
56.71578 423.000
56.73573 419.000
56.75568 430.000
56.77563 418.000
56.79557 461.000
56.81552 461.000
56.83547 480.000
56.85541 497.000
56.87536 463.000
56.89531 454.000
56.91525 488.000
56.93520 482.000
56.95515 448.000
56.97510 511.000
56.99504 494.000
57.01499 500.000
57.03494 436.000
57.05488 419.000
57.07483 430.000
57.09478 423.000
57.11472 402.000
57.13467 386.000
57.15462 358.000
57.17456 368.000
57.19451 336.000
57.21446 355.000
57.23441 336.000
57.25435 282.000
57.27430 335.000
57.29425 292.000
57.31419 282.000
57.33414 269.000
57.35409 291.000
57.37403 301.000
57.39398 277.000
57.41393 286.000
57.43388 274.000
57.45382 266.000
57.47377 313.000
57.49372 267.000
57.51366 291.000
57.53361 282.000
57.55356 268.000
57.57350 269.000
57.59345 302.000
57.61340 270.000
57.63334 275.000
57.65329 281.000
57.67324 332.000
57.69319 276.000
57.71313 260.000
57.73308 278.000
57.75303 238.000
57.77297 303.000
57.79292 272.000
57.81287 297.000
57.83281 299.000
57.85276 257.000
57.87271 291.000
57.89266 286.000
57.91260 255.000
57.93255 292.000
57.95250 313.000
57.97244 311.000
57.99239 301.000
58.01234 324.000
58.03228 259.000
58.05223 237.000
58.07218 308.000
58.09212 311.000
58.11207 319.000
58.13202 311.000
58.15197 369.000
58.17191 353.000
58.19186 362.000
58.21181 392.000
58.23175 438.000
58.25170 428.000
58.27165 411.000
58.29159 422.000
58.31154 412.000
58.33149 437.000
58.35144 370.000
58.37138 376.000
58.39133 346.000
58.41128 360.000
58.43122 367.000
58.45117 338.000
58.47112 299.000
58.49106 322.000
58.51101 330.000
58.53096 300.000
58.55090 316.000
58.57085 291.000
58.59080 259.000
58.61075 280.000
58.63069 288.000
58.65064 291.000
58.67059 281.000
58.69053 268.000
58.71048 244.000
58.73043 255.000
58.75037 286.000
58.77032 279.000
58.79027 268.000
58.81022 296.000
58.83016 275.000
58.85011 260.000
58.87006 271.000
58.89000 272.000
58.90995 253.000
58.92990 300.000
58.94984 281.000
58.96979 253.000
58.98974 247.000
59.00969 240.000
59.02963 257.000
59.04958 286.000
59.06953 263.000
59.08947 251.000
59.10942 246.000
59.12937 241.000
59.14931 244.000
59.16926 251.000
59.18921 271.000
59.20915 261.000
59.22910 246.000
59.24905 262.000
59.26900 257.000
59.28894 265.000
59.30889 259.000
59.32884 272.000
59.34878 268.000
59.36873 247.000
59.38868 261.000
59.40862 252.000
59.42857 280.000
59.44852 260.000
59.46847 261.000
59.48841 281.000
59.50836 250.000
59.52831 267.000
59.54825 270.000
59.56820 284.000
59.58815 268.000
59.60809 269.000
59.62804 304.000
59.64799 293.000
59.66793 256.000
59.68788 297.000
59.70783 287.000
59.72778 273.000
59.74772 306.000
59.76767 316.000
59.78762 283.000
59.80756 325.000
59.82751 290.000
59.84746 308.000
59.86740 298.000
59.88735 313.000
59.90730 290.000
59.92725 267.000
59.94719 263.000
59.96714 279.000
59.98709 284.000
60.00703 275.000
60.02698 289.000
60.04693 294.000
60.06687 309.000
60.08682 271.000
60.10677 279.000
60.12671 288.000
60.14666 262.000
60.16661 290.000
60.18656 275.000
60.20650 287.000
60.22645 248.000
60.24640 293.000
60.26634 248.000
60.28629 283.000
60.30624 288.000
60.32618 305.000
60.34613 268.000
60.36608 315.000
60.38603 315.000
60.40597 295.000
60.42592 302.000
60.44587 287.000
60.46581 278.000
60.48576 323.000
60.50571 293.000
60.52565 314.000
60.54560 309.000
60.56555 329.000
60.58550 300.000
60.60544 279.000
60.62539 295.000
60.64534 307.000
60.66528 304.000
60.68523 287.000
60.70518 351.000
60.72512 318.000
60.74507 339.000
60.76502 320.000
60.78496 339.000
60.80491 296.000
60.82486 284.000
60.84481 333.000
60.86475 330.000
60.88470 313.000
60.90465 289.000
60.92459 314.000
60.94454 316.000
60.96449 281.000
60.98443 325.000
61.00438 327.000
61.02433 314.000
61.04428 336.000
61.06422 357.000
61.08417 344.000
61.10412 326.000
61.12406 341.000
61.14401 370.000
61.16396 341.000
61.18390 348.000
61.20385 370.000
61.22380 350.000
61.24374 350.000
61.26369 364.000
61.28364 393.000
61.30359 391.000
61.32353 375.000
61.34348 364.000
61.36343 357.000
61.38337 386.000
61.40332 398.000
61.42327 424.000
61.44321 402.000
61.46316 506.000
61.48311 517.000
61.50306 525.000
61.52300 514.000
61.54295 571.000
61.56290 513.000
61.58284 486.000
61.60279 497.000
61.62274 512.000
61.64268 458.000
61.66263 458.000
61.68258 434.000
61.70252 452.000
61.72247 394.000
61.74242 390.000
61.76237 407.000
61.78231 372.000
61.80226 361.000
61.82221 361.000
61.84215 322.000
61.86210 334.000
61.88205 314.000
61.90199 320.000
61.92194 348.000
61.94189 323.000
61.96184 290.000
61.98178 311.000
62.00173 330.000
62.02168 332.000
62.04162 336.000
62.06157 323.000
62.08152 359.000
62.10146 344.000
62.12141 338.000
62.14136 335.000
62.16131 392.000
62.18125 375.000
62.20120 400.000
62.22115 394.000
62.24109 409.000
62.26104 458.000
62.28099 439.000
62.30093 451.000
62.32088 480.000
62.34083 508.000
62.36077 549.000
62.38072 560.000
62.40067 557.000
62.42062 594.000
62.44056 587.000
62.46051 563.000
62.48046 562.000
62.50040 601.000
62.52035 603.000
62.54030 556.000
62.56024 573.000
62.58019 538.000
62.60014 548.000
62.62009 530.000
62.64003 493.000
62.65998 438.000
62.67993 495.000
62.69987 425.000
62.71982 408.000
62.73977 341.000
62.75971 381.000
62.77966 382.000
62.79961 323.000
62.81955 333.000
62.83950 320.000
62.85945 316.000
62.87940 288.000
62.89934 303.000
62.91929 312.000
62.93924 300.000
62.95918 311.000
62.97913 281.000
62.99908 258.000
63.01902 276.000
63.03897 267.000
63.05892 290.000
63.07887 294.000
63.09881 257.000
63.11876 291.000
63.13871 287.000
63.15865 245.000
63.17860 263.000
63.19855 256.000
63.21849 243.000
63.23844 262.000
63.25839 265.000
63.27833 279.000
63.29828 261.000
63.31823 279.000
63.33818 278.000
63.35812 261.000
63.37807 237.000
63.39802 238.000
63.41796 277.000
63.43791 242.000
63.45786 266.000
63.47780 271.000
63.49775 266.000
63.51770 272.000
63.53765 287.000
63.55759 256.000
63.57754 261.000
63.59749 273.000
63.61743 290.000
63.63738 253.000
63.65733 249.000
63.67727 244.000
63.69722 269.000
63.71717 302.000
63.73712 269.000
63.75706 289.000
63.77701 264.000
63.79696 250.000
63.81690 264.000
63.83685 255.000
63.85680 278.000
63.87674 266.000
63.89669 296.000
63.91664 283.000
63.93658 258.000
63.95653 278.000
63.97648 256.000
63.99643 267.000
64.01637 244.000
64.03632 274.000
64.05627 247.000
64.07621 296.000
64.09616 244.000
64.11611 294.000
64.13605 271.000
64.15600 305.000
64.17595 270.000
64.19590 246.000
64.21584 272.000
64.23579 243.000
64.25574 298.000
64.27568 254.000
64.29563 251.000
64.31558 257.000
64.33552 238.000
64.35547 237.000
64.37542 244.000
64.39536 251.000
64.41531 241.000
64.43526 235.000
64.45521 255.000
64.47515 278.000
64.49510 251.000
64.51505 277.000
64.53499 270.000
64.55494 269.000
64.57489 254.000
64.59483 247.000
64.61478 267.000
64.63473 268.000
64.65468 300.000
64.67462 282.000
64.69457 268.000
64.71452 276.000
64.73446 282.000
64.75441 262.000
64.77436 295.000
64.79430 253.000
64.81425 260.000
64.83420 281.000
64.85414 271.000
64.87409 247.000
64.89404 277.000
64.91399 282.000
64.93393 291.000
64.95388 268.000
64.97383 269.000
64.99377 262.000
65.01372 252.000
65.03367 244.000
65.05361 221.000
65.07356 249.000
65.09351 277.000
65.11346 284.000
65.13340 267.000
65.15335 288.000
65.17330 262.000
65.19324 274.000
65.21319 248.000
65.23314 270.000
65.25308 293.000
65.27303 305.000
65.29298 251.000
65.31293 291.000
65.33287 286.000
65.35282 282.000
65.37277 260.000
65.39271 275.000
65.41266 303.000
65.43261 306.000
65.45255 290.000
65.47250 290.000
65.49245 282.000
65.51239 305.000
65.53234 310.000
65.55229 324.000
65.57224 340.000
65.59218 324.000
65.61213 336.000
65.63208 335.000
65.65202 377.000
65.67197 383.000
65.69192 402.000
65.71186 384.000
65.73181 412.000
65.75176 400.000
65.77171 383.000
65.79165 441.000
65.81160 378.000
65.83155 403.000
65.85149 416.000
65.87144 408.000
65.89139 436.000
65.91133 390.000
65.93128 385.000
65.95123 363.000
65.97117 371.000
65.99112 389.000
66.01107 351.000
66.03102 360.000
66.05096 370.000
66.07091 367.000
66.09086 401.000
66.11080 395.000
66.13075 394.000
66.15070 435.000
66.17064 420.000
66.19059 472.000
66.21054 409.000
66.23049 441.000
66.25043 393.000
66.27038 404.000
66.29033 351.000
66.31027 411.000
66.33022 376.000
66.35017 359.000
66.37011 377.000
66.39006 389.000
66.41001 361.000
66.42995 347.000
66.44990 333.000
66.46985 333.000
66.48980 310.000
66.50974 304.000
66.52969 291.000
66.54964 282.000
66.56958 272.000
66.58953 253.000
66.60948 288.000
66.62942 275.000
66.64937 294.000
66.66932 307.000
66.68927 277.000
66.70921 278.000
66.72916 286.000
66.74911 269.000
66.76905 279.000
66.78900 264.000
66.80895 249.000
66.82889 263.000
66.84884 269.000
66.86879 263.000
66.88874 293.000
66.90868 258.000
66.92863 271.000
66.94858 259.000
66.96852 250.000
66.98847 249.000
67.00842 264.000
67.02836 238.000
67.04831 249.000
67.06826 280.000
67.08820 284.000
67.10815 243.000
67.12810 265.000
67.14805 267.000
67.16799 282.000
67.18794 279.000
67.20789 270.000
67.22783 255.000
67.24778 272.000
67.26773 221.000
67.28767 276.000
67.30762 271.000
67.32757 257.000
67.34752 279.000
67.36746 262.000
67.38741 278.000
67.40736 246.000
67.42730 256.000
67.44725 263.000
67.46720 236.000
67.48714 261.000
67.50709 281.000
67.52704 280.000
67.54698 261.000
67.56693 305.000
67.58688 306.000
67.60683 283.000
67.62677 280.000
67.64672 283.000
67.66667 299.000
67.68661 290.000
67.70656 264.000
67.72651 350.000
67.74645 302.000
67.76640 340.000
67.78635 319.000
67.80630 378.000
67.82624 344.000
67.84619 385.000
67.86614 340.000
67.88608 354.000
67.90603 345.000
67.92598 388.000
67.94592 405.000
67.96587 364.000
67.98582 349.000
68.00576 394.000
68.02571 370.000
68.04566 419.000
68.06561 419.000
68.08555 428.000
68.10550 398.000
68.12545 413.000
68.14539 422.000
68.16534 378.000
68.18529 350.000
68.20523 377.000
68.22518 368.000
68.24513 356.000
68.26508 331.000
68.28502 331.000
68.30497 323.000
68.32492 319.000
68.34486 311.000
68.36481 306.000
68.38476 321.000
68.40470 291.000
68.42465 276.000
68.44460 298.000
68.46455 281.000
68.48449 318.000
68.50444 261.000
68.52439 285.000
68.54433 266.000
68.56428 251.000
68.58423 272.000
68.60417 267.000
68.62412 253.000
68.64407 274.000
68.66401 265.000
68.68396 241.000
68.70391 267.000
68.72386 252.000
68.74380 277.000
68.76375 287.000
68.78370 258.000
68.80364 275.000
68.82359 264.000
68.84354 236.000
68.86348 262.000
68.88343 235.000
68.90338 289.000
68.92333 239.000
68.94327 238.000
68.96322 268.000
68.98317 237.000
69.00311 250.000
69.02306 280.000
69.04301 291.000
69.06295 252.000
69.08290 219.000
69.10285 255.000
69.12279 254.000
69.14274 248.000
69.16269 273.000
69.18264 249.000
69.20258 212.000
69.22253 234.000
69.24248 212.000
69.26242 248.000
69.28237 278.000
69.30232 250.000
69.32226 231.000
69.34221 261.000
69.36216 250.000
69.38211 259.000
69.40205 248.000
69.42200 227.000
69.44195 275.000
69.46189 267.000
69.48184 236.000
69.50179 263.000
69.52173 268.000
69.54168 249.000
69.56163 265.000
69.58157 223.000
69.60152 281.000
69.62147 281.000
69.64142 273.000
69.66136 264.000
69.68131 262.000
69.70126 266.000
69.72120 251.000
69.74115 261.000
69.76110 260.000
69.78104 264.000
69.80099 275.000
69.82094 246.000
69.84089 252.000
69.86083 247.000
69.88078 245.000
69.90073 250.000
69.92067 272.000
69.94062 240.000
69.96057 240.000
69.98051 223.000
70.00046 279.000
70.02041 267.000
70.04035 246.000
70.06030 215.000
70.08025 223.000
70.10020 240.000
70.12014 247.000
70.14009 231.000
70.16004 268.000
70.17998 250.000
70.19993 247.000
70.21988 238.000
70.23982 245.000
70.25977 281.000
70.27972 252.000
70.29967 225.000
70.31961 248.000
70.33956 250.000
70.35951 256.000
70.37945 250.000
70.39940 271.000
70.41935 252.000
70.43929 254.000
70.45924 290.000
70.47919 238.000
70.49914 248.000
70.51908 233.000
70.53903 262.000
70.55898 279.000
70.57892 260.000
70.59887 272.000
70.61882 242.000
70.63876 259.000
70.65871 254.000
70.67866 299.000
70.69860 270.000
70.71855 287.000
70.73850 287.000
70.75845 261.000
70.77839 265.000
70.79834 282.000
70.81829 259.000
70.83823 274.000
70.85818 262.000
70.87813 252.000
70.89807 247.000
70.91802 262.000
70.93797 289.000
70.95792 276.000
70.97786 270.000
70.99781 298.000
71.01776 264.000
71.03770 266.000
71.05765 260.000
71.07760 257.000
71.09754 248.000
71.11749 291.000
71.13744 286.000
71.15738 285.000
71.17733 255.000
71.19728 279.000
71.21723 253.000
71.23717 293.000
71.25712 256.000
71.27707 263.000
71.29701 270.000
71.31696 259.000
71.33691 237.000
71.35685 280.000
71.37680 266.000
71.39675 271.000
71.41670 259.000
71.43664 249.000
71.45659 257.000
71.47654 244.000
71.49648 245.000
71.51643 265.000
71.53638 271.000
71.55632 276.000
71.57627 251.000
71.59622 245.000
71.61616 258.000
71.63611 255.000
71.65606 273.000
71.67601 274.000
71.69595 312.000
71.71590 285.000
71.73585 285.000
71.75579 285.000
71.77574 253.000
71.79569 271.000
71.81563 285.000
71.83558 246.000
71.85553 255.000
71.87548 253.000
71.89542 250.000
71.91537 270.000
71.93532 287.000
71.95526 254.000
71.97521 267.000
71.99516 293.000
72.01510 256.000
72.03505 271.000
72.05500 282.000
72.07495 277.000
72.09489 285.000
72.11484 273.000
72.13479 257.000
72.15473 281.000
72.17468 275.000
72.19463 253.000
72.21457 270.000
72.23452 293.000
72.25447 272.000
72.27441 320.000
72.29436 302.000
72.31431 345.000
72.33426 323.000
72.35420 330.000
72.37415 337.000
72.39410 340.000
72.41404 306.000
72.43399 266.000
72.45394 339.000
72.47388 326.000
72.49383 298.000
72.51378 292.000
72.53373 332.000
72.55367 294.000
72.57362 291.000
72.59357 300.000
72.61351 305.000
72.63346 252.000
72.65341 289.000
72.67335 242.000
72.69330 279.000
72.71325 272.000
72.73319 273.000
72.75314 271.000
72.77309 218.000
72.79304 306.000
72.81298 280.000
72.83293 261.000
72.85288 248.000
72.87282 237.000
72.89277 249.000
72.91272 270.000
72.93266 238.000
72.95261 253.000
72.97256 260.000
72.99251 246.000
73.01245 256.000
73.03240 260.000
73.05235 236.000
73.07229 248.000
73.09224 260.000
73.11219 270.000
73.13213 265.000
73.15208 252.000
73.17203 235.000
73.19197 246.000
73.21192 250.000
73.23187 231.000
73.25182 243.000
73.27176 255.000
73.29171 253.000
73.31166 262.000
73.33160 239.000
73.35155 257.000
73.37150 310.000
73.39144 255.000
73.41139 294.000
73.43134 261.000
73.45129 291.000
73.47123 289.000
73.49118 272.000
73.51113 265.000
73.53107 265.000
73.55102 253.000
73.57097 266.000
73.59091 295.000
73.61086 240.000
73.63081 280.000
73.65076 256.000
73.67070 284.000
73.69065 265.000
73.71060 290.000
73.73054 266.000
73.75049 266.000
73.77044 296.000
73.79038 285.000
73.81033 337.000
73.83028 312.000
73.85022 332.000
73.87017 285.000
73.89012 333.000
73.91007 282.000
73.93001 354.000
73.94996 317.000
73.96991 333.000
73.98985 298.000
74.00980 296.000
74.02975 282.000
74.04969 330.000
74.06964 288.000
74.08959 298.000
74.10954 307.000
74.12948 312.000
74.14943 282.000
74.16938 263.000
74.18932 280.000
74.20927 287.000
74.22922 269.000
74.24916 292.000
74.26911 284.000
74.28906 294.000
74.30900 283.000
74.32895 266.000
74.34890 276.000
74.36885 242.000
74.38879 249.000
74.40874 245.000
74.42869 267.000
74.44863 247.000
74.46858 279.000
74.48853 230.000
74.50847 254.000
74.52842 275.000
74.54837 269.000
74.56832 250.000
74.58826 265.000
74.60821 272.000
74.62816 297.000
74.64810 257.000
74.66805 323.000
74.68800 286.000
74.70794 287.000
74.72789 290.000
74.74784 261.000
74.76778 282.000
74.78773 300.000
74.80768 321.000
74.82763 311.000
74.84757 294.000
74.86752 328.000
74.88747 300.000
74.90741 318.000
74.92736 320.000
74.94731 345.000
74.96725 342.000
74.98720 327.000
75.00715 331.000
75.02710 371.000
75.04704 332.000
75.06699 374.000
75.08694 327.000
75.10688 377.000
75.12683 351.000
75.14678 356.000
75.16672 356.000
75.18667 345.000
75.20662 351.000
75.22657 370.000
75.24651 355.000
75.26646 311.000
75.28641 333.000
75.30635 321.000
75.32630 322.000
75.34625 326.000
75.36619 308.000
75.38614 304.000
75.40609 290.000
75.42603 301.000
75.44598 303.000
75.46593 259.000
75.48588 287.000
75.50582 296.000
75.52577 265.000
75.54572 253.000
75.56566 236.000
75.58561 263.000
75.60556 297.000
75.62550 267.000
75.64545 243.000
75.66540 260.000
75.68535 233.000
75.70529 254.000
75.72524 290.000
75.74519 246.000
75.76513 264.000
75.78508 236.000
75.80503 237.000
75.82497 231.000
75.84492 243.000
75.86487 229.000
75.88481 255.000
75.90476 255.000
75.92471 267.000
75.94466 228.000
75.96460 260.000
75.98455 241.000
76.00450 238.000
76.02444 254.000
76.04439 249.000
76.06434 250.000
76.08428 246.000
76.10423 260.000
76.12418 247.000
76.14413 259.000
76.16407 236.000
76.18402 247.000
76.20397 258.000
76.22391 267.000
76.24386 241.000
76.26381 253.000
76.28375 224.000
76.30370 262.000
76.32365 255.000
76.34359 241.000
76.36354 264.000
76.38349 237.000
76.40344 256.000
76.42338 273.000
76.44333 256.000
76.46328 257.000
76.48322 232.000
76.50317 239.000
76.52312 261.000
76.54306 250.000
76.56301 236.000
76.58296 268.000
76.60291 238.000
76.62285 255.000
76.64280 244.000
76.66275 259.000
76.68269 231.000
76.70264 257.000
76.72259 247.000
76.74253 257.000
76.76248 266.000
76.78243 243.000
76.80238 241.000
76.82232 269.000
76.84227 259.000
76.86222 232.000
76.88216 259.000
76.90211 222.000
76.92206 246.000
76.94200 237.000
76.96195 225.000
76.98190 257.000
77.00184 214.000
77.02179 250.000
77.04174 217.000
77.06169 269.000
77.08163 249.000
77.10158 260.000
77.12153 281.000
77.14147 221.000
77.16142 240.000
77.18137 271.000
77.20131 232.000
77.22126 249.000
77.24121 222.000
77.26116 281.000
77.28110 259.000
77.30105 238.000
77.32100 228.000
77.34094 286.000
77.36089 251.000
77.38084 245.000
77.40078 250.000
77.42073 265.000
77.44068 266.000
77.46062 246.000
77.48057 256.000
77.50052 253.000
77.52047 221.000
77.54041 260.000
77.56036 243.000
77.58031 260.000
77.60025 243.000
77.62020 268.000
77.64015 259.000
77.66009 253.000
77.68004 252.000
77.69999 242.000
77.71994 269.000
77.73988 238.000
77.75983 266.000
77.77978 233.000
77.79972 226.000
77.81967 230.000
77.83962 237.000
77.85956 276.000
77.87951 266.000
77.89946 249.000
77.91940 270.000
77.93935 232.000
77.95930 263.000
77.97925 252.000
77.99919 238.000
78.01914 227.000
78.03909 270.000
78.05903 258.000
78.07898 228.000
78.09893 247.000
78.11887 244.000
78.13882 245.000
78.15877 235.000
78.17872 259.000
78.19866 244.000
78.21861 250.000
78.23856 253.000
78.25850 221.000
78.27845 244.000
78.29840 237.000
78.31834 238.000
78.33829 240.000
78.35824 227.000
78.37819 228.000
78.39813 218.000
78.41808 274.000
78.43803 235.000
78.45797 234.000
78.47792 264.000
78.49787 236.000
78.51781 264.000
78.53776 242.000
78.55771 262.000
78.57765 244.000
78.59760 274.000
78.61755 252.000
78.63750 236.000
78.65744 273.000
78.67739 279.000
78.69734 241.000
78.71728 258.000
78.73723 257.000
78.75718 276.000
78.77712 247.000
78.79707 249.000
78.81702 276.000
78.83697 248.000
78.85691 277.000
78.87686 283.000
78.89681 281.000
78.91675 267.000
78.93670 256.000
78.95665 310.000
78.97659 240.000
78.99654 245.000
79.01649 276.000
79.03643 264.000
79.05638 295.000
79.07633 242.000
79.09628 283.000
79.11622 261.000
79.13617 245.000
79.15612 265.000
79.17606 270.000
79.19601 257.000
79.21596 250.000
79.23590 268.000
79.25585 231.000
79.27580 250.000
79.29575 258.000
79.31569 239.000
79.33564 249.000
79.35559 236.000
79.37553 266.000
79.39548 228.000
79.41543 266.000
79.43537 243.000
79.45532 262.000
79.47527 249.000
79.49521 266.000
79.51516 234.000
79.53511 219.000
79.55506 244.000
79.57500 261.000
79.59495 258.000
79.61490 250.000
79.63484 230.000
79.65479 244.000
79.67474 253.000
79.69468 235.000
79.71463 274.000
79.73458 239.000
79.75453 254.000
79.77447 227.000
79.79442 258.000
79.81437 232.000
79.83431 261.000
79.85426 238.000
79.87421 212.000
79.89415 235.000
79.91410 259.000
79.93405 261.000
79.95399 265.000
79.97394 261.000
79.99389 258.000
80.01384 251.000
80.03378 233.000
80.05373 229.000
80.07368 267.000
80.09362 238.000
80.11357 276.000
80.13352 281.000
80.15346 299.000
80.17341 258.000
80.19336 278.000
80.21331 231.000
80.23325 266.000
80.25320 286.000
80.27315 237.000
80.29309 288.000
80.31304 260.000
80.33299 256.000
80.35293 280.000
80.37288 250.000
80.39283 238.000
80.41278 248.000
80.43272 245.000
80.45267 240.000
80.47262 246.000
80.49256 275.000
80.51251 260.000
80.53246 261.000
80.55240 243.000
80.57235 240.000
80.59230 250.000
80.61224 230.000
80.63219 255.000
80.65214 259.000
80.67209 266.000
80.69203 219.000
80.71198 258.000
80.73193 258.000
80.75187 227.000
80.77182 252.000
80.79177 252.000
80.81171 214.000
80.83166 246.000
80.85161 254.000
80.87156 278.000
80.89150 221.000
80.91145 260.000
80.93140 235.000
80.95134 262.000
80.97129 227.000
80.99124 261.000
81.01118 223.000
81.03113 246.000
81.05108 253.000
81.07102 242.000
81.09097 268.000
81.11092 240.000
81.13087 240.000
81.15081 260.000
81.17076 230.000
81.19071 242.000
81.21065 254.000
81.23060 277.000
81.25055 237.000
81.27049 266.000
81.29044 246.000
81.31039 250.000
81.33034 256.000
81.35028 279.000
81.37023 258.000
81.39018 233.000
81.41012 234.000
81.43007 251.000
81.45002 248.000
81.46996 231.000
81.48991 259.000
81.50986 259.000
81.52980 246.000
81.54975 265.000
81.56970 274.000
81.58965 258.000
81.60959 257.000
81.62954 273.000
81.64949 235.000
81.66943 274.000
81.68938 268.000
81.70933 265.000
81.72927 237.000
81.74922 226.000
81.76917 232.000
81.78912 254.000
81.80906 260.000
81.82901 287.000
81.84896 259.000
81.86890 253.000
81.88885 225.000
81.90880 281.000
81.92874 233.000
81.94869 282.000
81.96864 242.000
81.98859 256.000
82.00853 272.000
82.02848 268.000
82.04843 276.000
82.06837 248.000
82.08832 239.000
82.10827 228.000
82.12821 253.000
82.14816 270.000
82.16811 275.000
82.18805 267.000
82.20800 260.000
82.22795 303.000
82.24790 276.000
82.26784 293.000
82.28779 317.000
82.30774 311.000
82.32768 307.000
82.34763 302.000
82.36758 293.000
82.38752 279.000
82.40747 309.000
82.42742 319.000
82.44737 283.000
82.46731 280.000
82.48726 268.000
82.50721 271.000
82.52715 279.000
82.54710 289.000
82.56705 274.000
82.58699 278.000
82.60694 286.000
82.62689 277.000
82.64683 267.000
82.66678 292.000
82.68673 290.000
82.70668 234.000
82.72662 253.000
82.74657 270.000
82.76652 262.000
82.78646 287.000
82.80641 298.000
82.82636 271.000
82.84630 253.000
82.86625 280.000
82.88620 297.000
82.90615 295.000
82.92609 260.000
82.94604 289.000
82.96599 250.000
82.98593 249.000
83.00588 285.000
83.02583 302.000
83.04577 245.000
83.06572 273.000
83.08567 316.000
83.10561 294.000
83.12556 305.000
83.14551 292.000
83.16546 273.000
83.18540 285.000
83.20535 293.000
83.22530 299.000
83.24524 281.000
83.26519 275.000
83.28514 301.000
83.30508 261.000
83.32503 269.000
83.34498 284.000
83.36493 284.000
83.38487 303.000
83.40482 258.000
83.42477 311.000
83.44471 269.000
83.46466 302.000
83.48461 292.000
83.50455 278.000
83.52450 297.000
83.54445 292.000
83.56440 276.000
83.58434 282.000
83.60429 275.000
83.62424 278.000
83.64418 321.000
83.66413 267.000
83.68408 270.000
83.70402 272.000
83.72397 258.000
83.74392 294.000
83.76386 273.000
83.78381 274.000
83.80376 284.000
83.82371 248.000
83.84365 253.000
83.86360 256.000
83.88355 259.000
83.90349 249.000
83.92344 241.000
83.94339 246.000
83.96333 246.000
83.98328 264.000
84.00323 259.000
84.02318 229.000
84.04312 269.000
84.06307 248.000
84.08302 235.000
84.10296 240.000
84.12291 263.000
84.14286 247.000
84.16280 269.000
84.18275 244.000
84.20270 240.000
84.22264 231.000
84.24259 273.000
84.26254 247.000
84.28249 263.000
84.30243 235.000
84.32238 256.000
84.34233 258.000
84.36227 230.000
84.38222 240.000
84.40217 254.000
84.42211 241.000
84.44206 245.000
84.46201 235.000
84.48196 219.000
84.50190 262.000
84.52185 249.000
84.54180 240.000
84.56174 243.000
84.58169 261.000
84.60164 236.000
84.62158 233.000
84.64153 234.000
84.66148 254.000
84.68142 259.000
84.70137 264.000
84.72132 259.000
84.74127 248.000
84.76121 246.000
84.78116 265.000
84.80111 250.000
84.82105 280.000
84.84100 233.000
84.86095 239.000
84.88089 230.000
84.90084 239.000
84.92079 266.000
84.94074 255.000
84.96068 240.000
84.98063 239.000
85.00058 233.000
85.02052 273.000
85.04047 253.000
85.06042 235.000
85.08036 282.000
85.10031 247.000
85.12026 269.000
85.14021 279.000
85.16015 255.000
85.18010 244.000
85.20005 234.000
85.21999 266.000
85.23994 252.000
85.25989 279.000
85.27983 259.000
85.29978 235.000
85.31973 243.000
85.33967 242.000
85.35962 240.000
85.37957 254.000
85.39952 243.000
85.41946 239.000
85.43941 252.000
85.45936 262.000
85.47930 240.000
85.49925 251.000
85.51920 227.000
85.53914 232.000
85.55909 222.000
85.57904 232.000
85.59899 258.000
85.61893 255.000
85.63888 248.000
85.65883 249.000
85.67877 225.000
85.69872 235.000
85.71867 234.000
85.73861 245.000
85.75856 260.000
85.77851 244.000
85.79845 268.000
85.81840 248.000
85.83835 237.000
85.85830 262.000
85.87824 253.000
85.89819 254.000
85.91814 233.000
85.93808 243.000
85.95803 230.000
85.97798 250.000
85.99792 245.000
86.01787 263.000
86.03782 260.000
86.05777 222.000
86.07771 262.000
86.09766 264.000
86.11761 265.000
86.13755 285.000
86.15750 244.000
86.17745 233.000
86.19739 240.000
86.21734 230.000
86.23729 250.000
86.25723 269.000
86.27718 250.000
86.29713 257.000
86.31708 253.000
86.33702 235.000
86.35697 266.000
86.37692 270.000
86.39686 234.000
86.41681 254.000
86.43676 282.000
86.45670 315.000
86.47665 252.000
86.49660 277.000
86.51655 257.000
86.53649 288.000
86.55644 285.000
86.57639 275.000
86.59633 240.000
86.61628 256.000
86.63623 282.000
86.65617 310.000
86.67612 271.000
86.69607 292.000
86.71602 273.000
86.73596 267.000
86.75591 289.000
86.77586 266.000
86.79580 279.000
86.81575 254.000
86.83570 294.000
86.85564 281.000
86.87559 275.000
86.89554 256.000
86.91548 267.000
86.93543 242.000
86.95538 263.000
86.97533 262.000
86.99527 261.000
87.01522 288.000
87.03517 265.000
87.05511 223.000
87.07506 263.000
87.09501 251.000
87.11495 276.000
87.13490 261.000
87.15485 253.000
87.17480 239.000
87.19474 253.000
87.21469 277.000
87.23464 280.000
87.25458 255.000
87.27453 274.000
87.29448 253.000
87.31442 261.000
87.33437 225.000
87.35432 267.000
87.37426 265.000
87.39421 226.000
87.41416 240.000
87.43411 250.000
87.45405 223.000
87.47400 282.000
87.49395 229.000
87.51389 222.000
87.53384 246.000
87.55379 239.000
87.57373 254.000
87.59368 267.000
87.61363 249.000
87.63358 250.000
87.65352 243.000
87.67347 258.000
87.69342 243.000
87.71336 245.000
87.73331 244.000
87.75326 246.000
87.77320 229.000
87.79315 249.000
87.81310 239.000
87.83304 263.000
87.85299 261.000
87.87294 223.000
87.89289 225.000
87.91283 253.000
87.93278 297.000
87.95273 242.000
87.97267 262.000
87.99262 270.000
88.01257 263.000
88.03251 237.000
88.05246 265.000
88.07241 272.000
88.09236 238.000
88.11230 265.000
88.13225 249.000
88.15220 246.000
88.17214 232.000
88.19209 277.000
88.21204 247.000
88.23198 225.000
88.25193 292.000
88.27188 239.000
88.29183 248.000
88.31177 265.000
88.33172 249.000
88.35167 288.000
88.37161 236.000
88.39156 273.000
88.41151 250.000
88.43145 272.000
88.45140 231.000
88.47135 228.000
88.49129 273.000
88.51124 210.000
88.53119 262.000
88.55114 257.000
88.57108 252.000
88.59103 267.000
88.61098 229.000
88.63092 247.000
88.65087 267.000
88.67082 262.000
88.69076 251.000
88.71071 256.000
88.73066 270.000
88.75061 256.000
88.77055 246.000
88.79050 228.000
88.81045 285.000
88.83039 256.000
88.85034 263.000
88.87029 258.000
88.89023 223.000
88.91018 230.000
88.93013 249.000
88.95007 238.000
88.97002 253.000
88.98997 291.000
89.00992 272.000
89.02986 286.000
89.04981 248.000
89.06976 243.000
89.08970 232.000
89.10965 255.000
89.12960 273.000
89.14954 284.000
89.16949 291.000
89.18944 272.000
89.20939 260.000
89.22933 281.000
89.24928 244.000
89.26923 310.000
89.28917 282.000
89.30912 290.000
89.32907 309.000
89.34901 314.000
89.36896 274.000
89.38891 314.000
89.40885 291.000
89.42880 322.000
89.44875 314.000
89.46870 340.000
89.48864 340.000
89.50859 349.000
89.52854 353.000
89.54848 331.000
89.56843 302.000
89.58838 340.000
89.60832 333.000
89.62827 349.000
89.64822 313.000
89.66817 354.000
89.68811 335.000
89.70806 318.000
89.72801 366.000
89.74795 345.000
89.76790 379.000
89.78785 342.000
89.80779 314.000
89.82774 322.000
89.84769 342.000
89.86764 316.000
89.88758 318.000
89.90753 294.000
89.92748 257.000
89.94742 331.000
89.96737 332.000
89.98732 289.000
90.00726 311.000
