10.00000 239.000
10.01995 205.000
10.03989 221.000
10.05984 210.000
10.07979 209.000
10.09973 223.000
10.11968 234.000
10.13963 254.000
10.15958 209.000
10.17952 247.000
10.19947 223.000
10.21942 199.000
10.23936 252.000
10.25931 249.000
10.27926 257.000
10.29920 192.000
10.31915 208.000
10.33910 236.000
10.35905 228.000
10.37899 216.000
10.39894 242.000
10.41889 223.000
10.43883 211.000
10.45878 220.000
10.47873 222.000
10.49867 229.000
10.51862 241.000
10.53857 229.000
10.55851 232.000
10.57846 233.000
10.59841 213.000
10.61836 217.000
10.63830 246.000
10.65825 234.000
10.67820 203.000
10.69814 238.000
10.71809 243.000
10.73804 240.000
10.75798 218.000
10.77793 251.000
10.79788 231.000
10.81783 223.000
10.83777 238.000
10.85772 259.000
10.87767 221.000
10.89761 206.000
10.91756 217.000
10.93751 227.000
10.95745 245.000
10.97740 235.000
10.99735 252.000
11.01730 236.000
11.03724 254.000
11.05719 246.000
11.07714 259.000
11.09708 222.000
11.11703 217.000
11.13698 234.000
11.15692 259.000
11.17687 240.000
11.19682 254.000
11.21676 244.000
11.23671 228.000
11.25666 258.000
11.27661 226.000
11.29655 266.000
11.31650 240.000
11.33645 239.000
11.35639 251.000
11.37634 237.000
11.39629 242.000
11.41623 254.000
11.43618 258.000
11.45613 223.000
11.47608 245.000
11.49602 236.000
11.51597 244.000
11.53592 212.000
11.55586 243.000
11.57581 248.000
11.59576 251.000
11.61570 244.000
11.63565 241.000
11.65560 221.000
11.67554 242.000
11.69549 231.000
11.71544 268.000
11.73539 219.000
11.75533 209.000
11.77528 239.000
11.79523 263.000
11.81517 266.000
11.83512 244.000
11.85507 259.000
11.87501 249.000
11.89496 284.000
11.91491 242.000
11.93486 232.000
11.95480 266.000
11.97475 269.000
11.99470 236.000
12.01464 269.000
12.03459 274.000
12.05454 268.000
12.07448 225.000
12.09443 276.000
12.11438 245.000
12.13432 231.000
12.15427 248.000
12.17422 271.000
12.19417 231.000
12.21411 265.000
12.23406 239.000
12.25401 276.000
12.27395 253.000
12.29390 247.000
12.31385 236.000
12.33379 284.000
12.35374 249.000
12.37369 263.000
12.39364 260.000
12.41358 262.000
12.43353 251.000
12.45348 231.000
12.47342 262.000
12.49337 246.000
12.51332 252.000
12.53326 271.000
12.55321 274.000
12.57316 270.000
12.59311 255.000
12.61305 280.000
12.63300 248.000
12.65295 263.000
12.67289 243.000
12.69284 276.000
12.71279 268.000
12.73273 227.000
12.75268 254.000
12.77263 258.000
12.79257 267.000
12.81252 299.000
12.83247 262.000
12.85242 268.000
12.87236 257.000
12.89231 246.000
12.91226 276.000
12.93220 239.000
12.95215 278.000
12.97210 281.000
12.99204 263.000
13.01199 293.000
13.03194 250.000
13.05189 251.000
13.07183 273.000
13.09178 257.000
13.11173 256.000
13.13167 267.000
13.15162 229.000
13.17157 272.000
13.19151 274.000
13.21146 267.000
13.23141 275.000
13.25135 282.000
13.27130 283.000
13.29125 270.000
13.31120 283.000
13.33114 270.000
13.35109 275.000
13.37104 236.000
13.39098 271.000
13.41093 274.000
13.43088 251.000
13.45082 265.000
13.47077 257.000
13.49072 270.000
13.51067 293.000
13.53061 247.000
13.55056 276.000
13.57051 253.000
13.59045 263.000
13.61040 264.000
13.63035 260.000
13.65029 270.000
13.67024 275.000
13.69019 274.000
13.71013 270.000
13.73008 234.000
13.75003 276.000
13.76998 243.000
13.78992 283.000
13.80987 280.000
13.82982 267.000
13.84976 284.000
13.86971 308.000
13.88966 243.000
13.90960 270.000
13.92955 287.000
13.94950 253.000
13.96945 281.000
13.98939 266.000
14.00934 248.000
14.02929 269.000
14.04923 276.000
14.06918 261.000
14.08913 301.000
14.10907 277.000
14.12902 268.000
14.14897 256.000
14.16892 297.000
14.18886 277.000
14.20881 307.000
14.22876 264.000
14.24870 283.000
14.26865 316.000
14.28860 265.000
14.30854 284.000
14.32849 269.000
14.34844 272.000
14.36838 288.000
14.38833 280.000
14.40828 314.000
14.42823 271.000
14.44817 257.000
14.46812 292.000
14.48807 270.000
14.50801 271.000
14.52796 282.000
14.54791 270.000
14.56785 314.000
14.58780 296.000
14.60775 264.000
14.62770 276.000
14.64764 287.000
14.66759 297.000
14.68754 280.000
14.70748 256.000
14.72743 303.000
14.74738 316.000
14.76732 282.000
14.78727 281.000
14.80722 280.000
14.82716 285.000
14.84711 278.000
14.86706 284.000
14.88701 273.000
14.90695 259.000
14.92690 316.000
14.94685 283.000
14.96679 307.000
14.98674 292.000
15.00669 284.000
15.02663 286.000
15.04658 297.000
15.06653 314.000
15.08648 289.000
15.10642 294.000
15.12637 286.000
15.14632 273.000
15.16626 304.000
15.18621 275.000
15.20616 290.000
15.22610 294.000
15.24605 326.000
15.26600 295.000
15.28594 325.000
15.30589 290.000
15.32584 292.000
15.34579 293.000
15.36573 303.000
15.38568 294.000
15.40563 299.000
15.42557 298.000
15.44552 278.000
15.46547 298.000
15.48541 340.000
15.50536 327.000
15.52531 302.000
15.54526 298.000
15.56520 308.000
15.58515 343.000
15.60510 339.000
15.62504 345.000
15.64499 392.000
15.66494 369.000
15.68488 382.000
15.70483 387.000
15.72478 388.000
15.74472 364.000
15.76467 392.000
15.78462 375.000
15.80457 354.000
15.82451 329.000
15.84446 352.000
15.86441 336.000
15.88435 296.000
15.90430 305.000
15.92425 275.000
15.94419 323.000
15.96414 338.000
15.98409 304.000
16.00404 281.000
16.02398 300.000
16.04393 314.000
16.06388 304.000
16.08382 308.000
16.10377 316.000
16.12372 300.000
16.14366 328.000
16.16361 306.000
16.18356 298.000
16.20351 297.000
16.22345 307.000
16.24340 306.000
16.26335 310.000
16.28329 300.000
16.30324 328.000
16.32319 309.000
16.34313 310.000
16.36308 310.000
16.38303 335.000
16.40297 316.000
16.42292 319.000
16.44287 313.000
16.46282 287.000
16.48276 326.000
16.50271 294.000
16.52266 294.000
16.54260 282.000
16.56255 299.000
16.58250 300.000
16.60244 319.000
16.62239 298.000
16.64234 296.000
16.66229 305.000
16.68223 316.000
16.70218 326.000
16.72213 317.000
16.74207 332.000
16.76202 309.000
16.78197 308.000
16.80191 315.000
16.82186 330.000
16.84181 287.000
16.86175 321.000
16.88170 328.000
16.90165 309.000
16.92160 287.000
16.94154 280.000
16.96149 311.000
16.98144 345.000
17.00138 313.000
17.02133 296.000
17.04128 340.000
17.06122 317.000
17.08117 299.000
17.10112 291.000
17.12107 317.000
17.14101 347.000
17.16096 328.000
17.18091 312.000
17.20085 307.000
17.22080 323.000
17.24075 317.000
17.26069 314.000
17.28064 337.000
17.30059 309.000
17.32053 336.000
17.34048 316.000
17.36043 299.000
17.38038 331.000
17.40032 295.000
17.42027 332.000
17.44022 320.000
17.46016 321.000
17.48011 325.000
17.50006 300.000
17.52000 333.000
17.53995 326.000
17.55990 350.000
17.57985 316.000
17.59979 328.000
17.61974 300.000
17.63969 338.000
17.65963 316.000
17.67958 315.000
17.69953 333.000
17.71947 295.000
17.73942 294.000
17.75937 338.000
17.77932 336.000
17.79926 306.000
17.81921 379.000
17.83916 340.000
17.85910 334.000
17.87905 312.000
17.89900 343.000
17.91894 319.000
17.93889 301.000
17.95884 302.000
17.97878 350.000
17.99873 320.000
18.01868 325.000
18.03863 328.000
18.05857 360.000
18.07852 331.000
18.09847 343.000
18.11841 320.000
18.13836 327.000
18.15831 331.000
18.17825 371.000
18.19820 386.000
18.21815 419.000
18.23810 468.000
18.25804 508.000
18.27799 562.000
18.29794 627.000
18.31788 608.000
18.33783 560.000
18.35778 480.000
18.37772 435.000
18.39767 434.000
18.41762 380.000
18.43756 347.000
18.45751 366.000
18.47746 315.000
18.49741 318.000
18.51735 347.000
18.53730 329.000
18.55725 318.000
18.57719 357.000
18.59714 324.000
18.61709 316.000
18.63703 319.000
18.65698 305.000
18.67693 332.000
18.69688 321.000
18.71682 304.000
18.73677 343.000
18.75672 318.000
18.77666 346.000
18.79661 325.000
18.81656 347.000
18.83650 326.000
18.85645 329.000
18.87640 342.000
18.89634 323.000
18.91629 331.000
18.93624 359.000
18.95619 333.000
18.97613 357.000
18.99608 341.000
19.01603 327.000
19.03597 339.000
19.05592 368.000
19.07587 342.000
19.09581 334.000
19.11576 344.000
19.13571 345.000
19.15566 284.000
19.17560 320.000
19.19555 311.000
19.21550 335.000
19.23544 348.000
19.25539 334.000
19.27534 303.000
19.29528 346.000
19.31523 307.000
19.33518 342.000
19.35513 350.000
19.37507 327.000
19.39502 319.000
19.41497 344.000
19.43491 308.000
19.45486 307.000
19.47481 362.000
19.49475 337.000
19.51470 327.000
19.53465 351.000
19.55459 339.000
19.57454 313.000
19.59449 338.000
19.61444 344.000
19.63438 351.000
19.65433 309.000
19.67428 324.000
19.69422 335.000
19.71417 351.000
19.73412 347.000
19.75406 360.000
19.77401 322.000
19.79396 347.000
19.81391 361.000
19.83385 343.000
19.85380 356.000
19.87375 337.000
19.89369 343.000
19.91364 355.000
19.93359 349.000
19.95353 304.000
19.97348 309.000
19.99343 342.000
20.01337 337.000
20.03332 334.000
20.05327 357.000
20.07322 337.000
20.09316 345.000
20.11311 343.000
20.13306 354.000
20.15300 371.000
20.17295 378.000
20.19290 361.000
20.21284 370.000
20.23279 347.000
20.25274 346.000
20.27269 360.000
20.29263 360.000
20.31258 382.000
20.33253 387.000
20.35247 327.000
20.37242 387.000
20.39237 340.000
20.41231 347.000
20.43226 351.000
20.45221 332.000
20.47215 336.000
20.49210 361.000
20.51205 365.000
20.53200 329.000
20.55194 343.000
20.57189 360.000
20.59184 337.000
20.61178 362.000
20.63173 341.000
20.65168 381.000
20.67162 384.000
20.69157 363.000
20.71152 342.000
20.73147 374.000
20.75141 354.000
20.77136 373.000
20.79131 362.000
20.81125 400.000
20.83120 326.000
20.85115 373.000
20.87109 377.000
20.89104 383.000
20.91099 385.000
20.93094 387.000
20.95088 393.000
20.97083 480.000
20.99078 442.000
21.01072 487.000
21.03067 449.000
21.05062 450.000
21.07056 367.000
21.09051 372.000
21.11046 400.000
21.13040 385.000
21.15035 356.000
21.17030 346.000
21.19025 321.000
21.21019 374.000
21.23014 369.000
21.25009 335.000
21.27003 339.000
21.28998 342.000
21.30993 381.000
21.32987 386.000
21.34982 356.000
21.36977 353.000
21.38972 330.000
21.40966 364.000
21.42961 376.000
21.44956 351.000
21.46950 314.000
21.48945 337.000
21.50940 353.000
21.52934 357.000
21.54929 370.000
21.56924 324.000
21.58918 369.000
21.60913 383.000
21.62908 318.000
21.64903 360.000
21.66897 354.000
21.68892 363.000
21.70887 372.000
21.72881 350.000
21.74876 349.000
21.76871 354.000
21.78865 371.000
21.80860 404.000
21.82855 343.000
21.84850 383.000
21.86844 368.000
21.88839 335.000
21.90834 383.000
21.92828 365.000
21.94823 361.000
21.96818 368.000
21.98812 349.000
22.00807 387.000
22.02802 375.000
22.04796 358.000
22.06791 395.000
22.08786 385.000
22.10781 368.000
22.12775 349.000
22.14770 365.000
22.16765 372.000
22.18759 407.000
22.20754 366.000
22.22749 351.000
22.24743 346.000
22.26738 367.000
22.28733 353.000
22.30728 383.000
22.32722 384.000
22.34717 341.000
22.36712 336.000
22.38706 385.000
22.40701 379.000
22.42696 358.000
22.44690 348.000
22.46685 353.000
22.48680 364.000
22.50675 380.000
22.52669 329.000
22.54664 357.000
22.56659 365.000
22.58653 358.000
22.60648 367.000
22.62643 394.000
22.64637 375.000
22.66632 405.000
22.68627 356.000
22.70621 386.000
22.72616 360.000
22.74611 320.000
22.76606 346.000
22.78600 378.000
22.80595 349.000
22.82590 379.000
22.84584 366.000
22.86579 362.000
22.88574 356.000
22.90568 397.000
22.92563 426.000
22.94558 406.000
22.96553 405.000
22.98547 423.000
23.00542 388.000
23.02537 355.000
23.04531 410.000
23.06526 373.000
23.08521 390.000
23.10515 375.000
23.12510 409.000
23.14505 399.000
23.16499 370.000
23.18494 353.000
23.20489 359.000
23.22484 374.000
23.24478 384.000
23.26473 346.000
23.28468 418.000
23.30462 403.000
23.32457 359.000
23.34452 357.000
23.36446 384.000
23.38441 385.000
23.40436 377.000
23.42431 422.000
23.44425 364.000
23.46420 374.000
23.48415 378.000
23.50409 388.000
23.52404 370.000
23.54399 407.000
23.56393 371.000
23.58388 403.000
23.60383 398.000
23.62377 354.000
23.64372 381.000
23.66367 370.000
23.68362 339.000
23.70356 399.000
23.72351 385.000
23.74346 383.000
23.76340 389.000
23.78335 373.000
23.80330 375.000
23.82324 389.000
23.84319 389.000
23.86314 421.000
23.88309 375.000
23.90303 380.000
23.92298 368.000
23.94293 387.000
23.96287 381.000
23.98282 385.000
24.00277 396.000
24.02271 369.000
24.04266 414.000
24.06261 407.000
24.08256 403.000
24.10250 348.000
24.12245 374.000
24.14240 353.000
24.16234 386.000
24.18229 424.000
24.20224 408.000
24.22218 370.000
24.24213 415.000
24.26208 393.000
24.28202 383.000
24.30197 425.000
24.32192 400.000
24.34187 405.000
24.36181 372.000
24.38176 406.000
24.40171 424.000
24.42165 386.000
24.44160 409.000
24.46155 412.000
24.48149 383.000
24.50144 391.000
24.52139 383.000
24.54134 398.000
24.56128 388.000
24.58123 413.000
24.60118 411.000
24.62112 372.000
24.64107 407.000
24.66102 380.000
24.68096 350.000
24.70091 392.000
24.72086 409.000
24.74080 395.000
24.76075 404.000
24.78070 427.000
24.80065 355.000
24.82059 376.000
24.84054 389.000
24.86049 371.000
24.88043 356.000
24.90038 399.000
24.92033 394.000
24.94027 399.000
24.96022 425.000
24.98017 411.000
25.00012 374.000
25.02006 438.000
25.04001 420.000
25.05996 402.000
25.07990 405.000
25.09985 420.000
25.11980 414.000
25.13974 408.000
25.15969 401.000
25.17964 447.000
25.19958 399.000
25.21953 408.000
25.23948 434.000
25.25943 380.000
25.27937 397.000
25.29932 432.000
25.31927 401.000
25.33921 384.000
25.35916 429.000
25.37911 446.000
25.39905 381.000
25.41900 409.000
25.43895 385.000
25.45890 418.000
25.47884 415.000
25.49879 414.000
25.51874 453.000
25.53868 406.000
25.55863 438.000
25.57858 454.000
25.59852 446.000
25.61847 422.000
25.63842 420.000
25.65837 427.000
25.67831 424.000
25.69826 415.000
25.71821 466.000
25.73815 429.000
25.75810 436.000
25.77805 417.000
25.79799 418.000
25.81794 410.000
25.83789 425.000
25.85783 379.000
25.87778 430.000
25.89773 431.000
25.91768 410.000
25.93762 451.000
25.95757 403.000
25.97752 392.000
25.99746 435.000
26.01741 432.000
26.03736 402.000
26.05730 464.000
26.07725 434.000
26.09720 416.000
26.11715 456.000
26.13709 428.000
26.15704 421.000
26.17699 429.000
26.19693 429.000
26.21688 394.000
26.23683 414.000
26.25677 437.000
26.27672 414.000
26.29667 436.000
26.31661 457.000
26.33656 394.000
26.35651 420.000
26.37646 427.000
26.39640 440.000
26.41635 421.000
26.43630 454.000
26.45624 411.000
26.47619 430.000
26.49614 433.000
26.51608 437.000
26.53603 437.000
26.55598 419.000
26.57593 431.000
26.59587 483.000
26.61582 449.000
26.63577 428.000
26.65571 454.000
26.67566 495.000
26.69561 453.000
26.71555 439.000
26.73550 454.000
26.75545 448.000
26.77539 421.000
26.79534 442.000
26.81529 435.000
26.83524 444.000
26.85518 453.000
26.87513 462.000
26.89508 447.000
26.91502 404.000
26.93497 452.000
26.95492 414.000
26.97486 438.000
26.99481 477.000
27.01476 449.000
27.03471 455.000
27.05465 439.000
27.07460 497.000
27.09455 466.000
27.11449 454.000
27.13444 414.000
27.15439 463.000
27.17433 441.000
27.19428 448.000
27.21423 481.000
27.23417 419.000
27.25412 451.000
27.27407 449.000
27.29402 477.000
27.31396 461.000
27.33391 489.000
27.35386 486.000
27.37380 477.000
27.39375 480.000
27.41370 441.000
27.43364 453.000
27.45359 424.000
27.47354 440.000
27.49349 460.000
27.51343 443.000
27.53338 456.000
27.55333 444.000
27.57327 504.000
27.59322 480.000
27.61317 476.000
27.63311 436.000
27.65306 467.000
27.67301 462.000
27.69296 443.000
27.71290 490.000
27.73285 445.000
27.75280 483.000
27.77274 512.000
27.79269 456.000
27.81264 485.000
27.83258 468.000
27.85253 450.000
27.87248 496.000
27.89242 436.000
27.91237 485.000
27.93232 526.000
27.95227 527.000
27.97221 483.000
27.99216 479.000
28.01211 445.000
28.03205 465.000
28.05200 525.000
28.07195 492.000
28.09189 473.000
28.11184 493.000
28.13179 512.000
28.15174 468.000
28.17168 484.000
28.19163 453.000
28.21158 452.000
28.23152 434.000
28.25147 468.000
28.27142 438.000
28.29136 469.000
28.31131 507.000
28.33126 483.000
28.35120 479.000
28.37115 503.000
28.39110 468.000
28.41105 472.000
28.43099 477.000
28.45094 464.000
28.47089 452.000
28.49083 477.000
28.51078 512.000
28.53073 463.000
28.55067 514.000
28.57062 477.000
28.59057 470.000
28.61052 482.000
28.63046 472.000
28.65041 477.000
28.67036 506.000
28.69030 490.000
28.71025 478.000
28.73020 430.000
28.75014 489.000
28.77009 453.000
28.79004 496.000
28.80998 476.000
28.82993 464.000
28.84988 462.000
28.86983 471.000
28.88977 471.000
28.90972 461.000
28.92967 499.000
28.94961 464.000
28.96956 505.000
28.98951 501.000
29.00945 491.000
29.02940 479.000
29.04935 505.000
29.06930 508.000
29.08924 485.000
29.10919 496.000
29.12914 499.000
29.14908 487.000
29.16903 495.000
29.18898 470.000
29.20892 511.000
29.22887 499.000
29.24882 480.000
29.26877 528.000
29.28871 519.000
29.30866 488.000
29.32861 502.000
29.34855 553.000
29.36850 493.000
29.38845 484.000
29.40839 519.000
29.42834 497.000
29.44829 507.000
29.46823 524.000
29.48818 512.000
29.50813 524.000
29.52808 508.000
29.54802 518.000
29.56797 501.000
29.58792 517.000
29.60786 496.000
29.62781 490.000
29.64776 516.000
29.66770 508.000
29.68765 499.000
29.70760 490.000
29.72755 518.000
29.74749 475.000
29.76744 500.000
29.78739 494.000
29.80733 493.000
29.82728 492.000
29.84723 522.000
29.86717 517.000
29.88712 542.000
29.90707 553.000
29.92701 516.000
29.94696 504.000
29.96691 554.000
29.98686 584.000
30.00680 577.000
30.02675 626.000
30.04670 632.000
30.06664 666.000
30.08659 677.000
30.10654 811.000
30.12648 862.000
30.14643 906.000
30.16638 1029.000
30.18633 1044.000
30.20627 951.000
30.22622 866.000
30.24617 869.000
30.26611 879.000
30.28606 750.000
30.30601 731.000
30.32595 631.000
30.34590 640.000
30.36585 627.000
30.38579 570.000
30.40574 548.000
30.42569 580.000
30.44564 584.000
30.46558 556.000
30.48553 561.000
30.50548 518.000
30.52542 471.000
30.54537 514.000
30.56532 516.000
30.58526 542.000
30.60521 504.000
30.62516 527.000
30.64511 498.000
30.66505 510.000
30.68500 469.000
30.70495 530.000
30.72489 515.000
30.74484 515.000
30.76479 502.000
30.78473 505.000
30.80468 539.000
30.82463 535.000
30.84458 544.000
30.86452 530.000
30.88447 512.000
30.90442 489.000
30.92436 520.000
30.94431 478.000
30.96426 535.000
30.98420 529.000
31.00415 487.000
31.02410 504.000
31.04404 487.000
31.06399 478.000
31.08394 497.000
31.10389 461.000
31.12383 508.000
31.14378 484.000
31.16373 505.000
31.18367 515.000
31.20362 552.000
31.22357 523.000
31.24351 526.000
31.26346 512.000
31.28341 477.000
31.30336 481.000
31.32330 496.000
31.34325 530.000
31.36320 466.000
31.38314 524.000
31.40309 518.000
31.42304 485.000
31.44298 510.000
31.46293 486.000
31.48288 464.000
31.50282 537.000
31.52277 477.000
31.54272 520.000
31.56267 504.000
31.58261 512.000
31.60256 496.000
31.62251 483.000
31.64245 469.000
31.66240 479.000
31.68235 518.000
31.70229 490.000
31.72224 508.000
31.74219 517.000
31.76214 486.000
31.78208 524.000
31.80203 499.000
31.82198 563.000
31.84192 511.000
31.86187 530.000
31.88182 541.000
31.90176 551.000
31.92171 474.000
31.94166 512.000
31.96160 541.000
31.98155 517.000
32.00150 494.000
32.02145 502.000
32.04139 512.000
32.06134 514.000
32.08129 484.000
32.10123 531.000
32.12118 499.000
32.14113 491.000
32.16107 516.000
32.18102 497.000
32.20097 527.000
32.22092 532.000
32.24086 551.000
32.26081 534.000
32.28076 539.000
32.30070 545.000
32.32065 567.000
32.34060 560.000
32.36054 615.000
32.38049 633.000
32.40044 568.000
32.42039 574.000
32.44033 555.000
32.46028 578.000
32.48023 581.000
32.50017 593.000
32.52012 544.000
32.54007 542.000
32.56001 566.000
32.57996 501.000
32.59991 507.000
32.61985 512.000
32.63980 477.000
32.65975 497.000
32.67970 491.000
32.69964 485.000
32.71959 531.000
32.73954 553.000
32.75948 515.000
32.77943 486.000
32.79938 509.000
32.81932 545.000
32.83927 499.000
32.85922 522.000
32.87917 484.000
32.89911 455.000
32.91906 513.000
32.93901 523.000
32.95895 491.000
32.97890 476.000
32.99885 496.000
33.01879 515.000
33.03874 491.000
33.05869 531.000
33.07863 526.000
33.09858 492.000
33.11853 488.000
33.13848 481.000
33.15842 501.000
33.17837 490.000
33.19832 481.000
33.21826 505.000
33.23821 483.000
33.25816 487.000
33.27810 466.000
33.29805 526.000
33.31800 489.000
33.33795 486.000
33.35789 505.000
33.37784 470.000
33.39779 500.000
33.41773 477.000
33.43768 472.000
33.45763 532.000
33.47757 489.000
33.49752 490.000
33.51747 502.000
33.53741 494.000
33.55736 521.000
33.57731 492.000
33.59726 506.000
33.61720 484.000
33.63715 511.000
33.65710 451.000
33.67704 475.000
33.69699 480.000
33.71694 480.000
33.73688 490.000
33.75683 489.000
33.77678 464.000
33.79673 469.000
33.81667 492.000
33.83662 453.000
33.85657 472.000
33.87651 485.000
33.89646 473.000
33.91641 462.000
33.93635 480.000
33.95630 455.000
33.97625 518.000
33.99620 472.000
34.01614 551.000
34.03609 496.000
34.05604 488.000
34.07598 480.000
34.09593 482.000
34.11588 509.000
34.13582 482.000
34.15577 494.000
34.17572 452.000
34.19566 509.000
34.21561 467.000
34.23556 474.000
34.25551 515.000
34.27545 452.000
34.29540 495.000
34.31535 524.000
34.33529 473.000
34.35524 517.000
34.37519 507.000
34.39513 485.000
34.41508 521.000
34.43503 457.000
34.45498 503.000
34.47492 552.000
34.49487 521.000
34.51482 533.000
34.53476 498.000
34.55471 547.000
34.57466 604.000
34.59460 582.000
34.61455 602.000
34.63450 596.000
34.65444 637.000
34.67439 573.000
34.69434 549.000
34.71429 624.000
34.73423 612.000
34.75418 564.000
34.77413 574.000
34.79407 541.000
34.81402 505.000
34.83397 539.000
34.85391 517.000
34.87386 548.000
34.89381 533.000
34.91376 580.000
34.93370 523.000
34.95365 567.000
34.97360 552.000
34.99354 563.000
35.01349 572.000
35.03344 593.000
35.05338 577.000
35.07333 595.000
35.09328 635.000
35.11322 650.000
35.13317 628.000
35.15312 664.000
35.17307 708.000
35.19301 740.000
35.21296 803.000
35.23291 928.000
35.25285 955.000
35.27280 1076.000
35.29275 1225.000
35.31269 1345.000
35.33264 1411.000
35.35259 1598.000
35.37254 1689.000
35.39248 1844.000
35.41243 1962.000
35.43238 2039.000
35.45232 2082.000
35.47227 2148.000
35.49222 2250.000
35.51216 2552.000
35.53211 2693.000
35.55206 2690.000
35.57201 2458.000
35.59195 2302.000
35.61190 2185.000
35.63185 2141.000
35.65179 1884.000
35.67174 1689.000
35.69169 1493.000
35.71163 1355.000
35.73158 1110.000
35.75153 969.000
35.77147 877.000
35.79142 829.000
35.81137 735.000
35.83132 755.000
35.85126 677.000
35.87121 651.000
35.89116 576.000
35.91110 599.000
35.93105 570.000
35.95100 527.000
35.97094 553.000
35.99089 514.000
36.01084 521.000
36.03079 542.000
36.05073 508.000
36.07068 520.000
36.09063 493.000
36.11057 528.000
36.13052 490.000
36.15047 550.000
36.17041 548.000
36.19036 545.000
36.21031 522.000
36.23025 489.000
36.25020 556.000
36.27015 504.000
36.29010 508.000
36.31004 511.000
36.32999 533.000
36.34994 538.000
36.36988 513.000
36.38983 566.000
36.40978 495.000
36.42972 523.000
36.44967 485.000
36.46962 505.000
36.48957 539.000
36.50951 540.000
36.52946 473.000
36.54941 488.000
36.56935 507.000
36.58930 508.000
36.60925 528.000
36.62919 515.000
36.64914 506.000
36.66909 572.000
36.68903 542.000
36.70898 531.000
36.72893 598.000
36.74888 585.000
36.76882 575.000
36.78877 568.000
36.80872 603.000
36.82866 642.000
36.84861 722.000
36.86856 747.000
36.88850 780.000
36.90845 954.000
36.92840 1062.000
36.94835 1295.000
36.96829 1561.000
36.98824 1756.000
37.00819 2093.000
37.02813 2093.000
37.04808 2073.000
37.06803 2086.000
37.08797 1943.000
37.10792 1759.000
37.12787 1598.000
37.14781 1450.000
37.16776 1258.000
37.18771 1146.000
37.20766 959.000
37.22760 808.000
37.24755 796.000
37.26750 700.000
37.28744 719.000
37.30739 627.000
37.32734 609.000
37.34728 604.000
37.36723 555.000
37.38718 527.000
37.40713 515.000
37.42707 544.000
37.44702 556.000
37.46697 540.000
37.48691 507.000
37.50686 515.000
37.52681 502.000
37.54675 514.000
37.56670 545.000
37.58665 468.000
37.60660 494.000
37.62654 463.000
37.64649 498.000
37.66644 476.000
37.68638 453.000
37.70633 502.000
37.72628 468.000
37.74622 484.000
37.76617 477.000
37.78612 485.000
37.80606 483.000
37.82601 473.000
37.84596 530.000
37.86591 474.000
37.88585 496.000
37.90580 520.000
37.92575 465.000
37.94569 490.000
37.96564 492.000
37.98559 491.000
38.00553 527.000
38.02548 497.000
38.04543 532.000
38.06538 524.000
38.08532 518.000
38.10527 491.000
38.12522 533.000
38.14516 534.000
38.16511 504.000
38.18506 546.000
38.20500 566.000
38.22495 587.000
38.24490 590.000
38.26484 595.000
38.28479 632.000
38.30474 627.000
38.32469 649.000
38.34463 710.000
38.36458 737.000
38.38453 815.000
38.40447 855.000
38.42442 954.000
38.44437 968.000
38.46431 1084.000
38.48426 1243.000
38.50421 1299.000
38.52416 1503.000
38.54410 1559.000
38.56405 1538.000
38.58400 1566.000
38.60394 1516.000
38.62389 1442.000
38.64384 1409.000
38.66378 1307.000
38.68373 1249.000
38.70368 1227.000
38.72362 1081.000
38.74357 1066.000
38.76352 960.000
38.78347 943.000
38.80341 911.000
38.82336 914.000
38.84331 900.000
38.86325 873.000
38.88320 844.000
38.90315 810.000
38.92309 755.000
38.94304 789.000
38.96299 724.000
38.98294 715.000
39.00288 647.000
39.02283 624.000
39.04278 584.000
39.06272 587.000
39.08267 582.000
39.10262 558.000
39.12256 523.000
39.14251 513.000
39.16246 493.000
39.18241 470.000
39.20235 517.000
39.22230 475.000
39.24225 460.000
39.26219 470.000
39.28214 472.000
39.30209 481.000
39.32203 458.000
39.34198 412.000
39.36193 478.000
39.38187 476.000
39.40182 415.000
39.42177 424.000
39.44172 484.000
39.46166 460.000
39.48161 454.000
39.50156 440.000
39.52150 469.000
39.54145 437.000
39.56140 442.000
39.58134 444.000
39.60129 458.000
39.62124 449.000
39.64119 463.000
39.66113 434.000
39.68108 475.000
39.70103 437.000
39.72097 452.000
39.74092 401.000
39.76087 452.000
39.78081 445.000
39.80076 430.000
39.82071 434.000
39.84065 461.000
39.86060 419.000
39.88055 446.000
39.90050 460.000
39.92044 395.000
39.94039 446.000
39.96034 428.000
39.98028 455.000
40.00023 453.000
40.02018 419.000
40.04012 449.000
40.06007 454.000
40.08002 392.000
40.09997 435.000
40.11991 474.000
40.13986 411.000
40.15981 466.000
40.17975 418.000
40.19970 428.000
40.21965 477.000
40.23959 426.000
40.25954 459.000
40.27949 505.000
40.29943 431.000
40.31938 479.000
40.33933 445.000
40.35928 470.000
40.37922 454.000
40.39917 468.000
40.41912 485.000
40.43906 484.000
40.45901 457.000
40.47896 463.000
40.49890 435.000
40.51885 417.000
40.53880 455.000
40.55875 432.000
40.57869 423.000
40.59864 443.000
40.61859 432.000
40.63853 437.000
40.65848 451.000
40.67843 430.000
40.69837 438.000
40.71832 406.000
40.73827 434.000
40.75822 439.000
40.77816 403.000
40.79811 440.000
40.81806 467.000
40.83800 455.000
40.85795 454.000
40.87790 422.000
40.89784 458.000
40.91779 445.000
40.93774 427.000
40.95768 457.000
40.97763 453.000
40.99758 440.000
41.01753 446.000
41.03747 466.000
41.05742 437.000
41.07737 433.000
41.09731 434.000
41.11726 440.000
41.13721 447.000
41.15715 453.000
41.17710 445.000
41.19705 453.000
41.21700 481.000
41.23694 437.000
41.25689 437.000
41.27684 425.000
41.29678 423.000
41.31673 436.000
41.33668 424.000
41.35662 426.000
41.37657 477.000
41.39652 436.000
41.41646 455.000
41.43641 446.000
41.45636 441.000
41.47631 470.000
41.49625 459.000
41.51620 458.000
41.53615 425.000
41.55609 446.000
41.57604 481.000
41.59599 455.000
41.61593 449.000
41.63588 453.000
41.65583 428.000
41.67578 450.000
41.69572 437.000
41.71567 438.000
41.73562 436.000
41.75556 484.000
41.77551 439.000
41.79546 443.000
41.81540 475.000
41.83535 446.000
41.85530 468.000
41.87524 469.000
41.89519 438.000
41.91514 411.000
41.93509 441.000
41.95503 422.000
41.97498 476.000
41.99493 425.000
42.01487 451.000
42.03482 448.000
42.05477 458.000
42.07471 429.000
42.09466 449.000
42.11461 447.000
42.13456 454.000
42.15450 479.000
42.17445 422.000
42.19440 453.000
42.21434 447.000
42.23429 455.000
42.25424 465.000
42.27418 475.000
42.29413 476.000
42.31408 451.000
42.33403 481.000
42.35397 489.000
42.37392 503.000
42.39387 504.000
42.41381 475.000
42.43376 476.000
42.45371 504.000
42.47365 531.000
42.49360 474.000
42.51355 550.000
42.53349 546.000
42.55344 560.000
42.57339 532.000
42.59334 510.000
42.61328 568.000
42.63323 621.000
42.65318 609.000
42.67312 598.000
42.69307 626.000
42.71302 675.000
42.73296 696.000
42.75291 744.000
42.77286 757.000
42.79281 804.000
42.81275 877.000
42.83270 937.000
42.85265 1022.000
42.87259 1087.000
42.89254 1216.000
42.91249 1416.000
42.93243 1523.000
42.95238 1568.000
42.97233 1732.000
42.99227 1922.000
43.01222 2012.000
43.03217 2078.000
43.05212 2125.000
43.07206 2256.000
43.09201 2109.000
43.11196 2166.000
43.13190 2073.000
43.15185 2036.000
43.17180 1867.000
43.19174 1906.000
43.21169 1720.000
43.23164 1668.000
43.25159 1509.000
43.27153 1386.000
43.29148 1119.000
43.31143 1114.000
43.33137 1082.000
43.35132 1023.000
43.37127 851.000
43.39121 780.000
43.41116 737.000
43.43111 706.000
43.45105 678.000
43.47100 575.000
43.49095 634.000
43.51090 605.000
43.53084 559.000
43.55079 601.000
43.57074 557.000
43.59068 517.000
43.61063 507.000
43.63058 503.000
43.65052 517.000
43.67047 492.000
43.69042 467.000
43.71037 431.000
43.73031 464.000
43.75026 491.000
43.77021 454.000
43.79015 435.000
43.81010 431.000
43.83005 433.000
43.84999 453.000
43.86994 432.000
43.88989 438.000
43.90984 439.000
43.92978 416.000
43.94973 432.000
43.96968 401.000
43.98962 432.000
44.00957 421.000
44.02952 423.000
44.04946 440.000
44.06941 414.000
44.08936 424.000
44.10930 414.000
44.12925 435.000
44.14920 431.000
44.16915 447.000
44.18909 437.000
44.20904 426.000
44.22899 408.000
44.24893 468.000
44.26888 424.000
44.28883 453.000
44.30877 452.000
44.32872 418.000
44.34867 427.000
44.36862 468.000
44.38856 465.000
44.40851 451.000
44.42846 443.000
44.44840 433.000
44.46835 441.000
44.48830 436.000
44.50824 430.000
44.52819 449.000
44.54814 429.000
44.56808 456.000
44.58803 414.000
44.60798 426.000
44.62793 437.000
44.64787 481.000
44.66782 427.000
44.68777 437.000
44.70771 366.000
44.72766 411.000
44.74761 425.000
44.76755 435.000
44.78750 441.000
44.80745 439.000
44.82740 389.000
44.84734 427.000
44.86729 435.000
44.88724 465.000
44.90718 429.000
44.92713 375.000
44.94708 425.000
44.96702 427.000
44.98697 468.000
45.00692 438.000
45.02686 443.000
45.04681 440.000
45.06676 478.000
45.08671 456.000
45.10665 426.000
45.12660 448.000
45.14655 451.000
45.16649 415.000
45.18644 418.000
45.20639 440.000
45.22633 457.000
45.24628 407.000
45.26623 442.000
45.28618 476.000
45.30612 403.000
45.32607 430.000
45.34602 430.000
45.36596 448.000
45.38591 426.000
45.40586 404.000
45.42580 424.000
45.44575 442.000
45.46570 420.000
45.48565 448.000
45.50559 390.000
45.52554 419.000
45.54549 417.000
45.56543 407.000
45.58538 409.000
45.60533 433.000
45.62527 411.000
45.64522 409.000
45.66517 399.000
45.68511 434.000
45.70506 424.000
45.72501 423.000
45.74496 408.000
45.76490 370.000
45.78485 396.000
45.80480 415.000
45.82474 408.000
45.84469 402.000
45.86464 413.000
45.88458 429.000
45.90453 416.000
45.92448 409.000
45.94443 436.000
45.96437 396.000
45.98432 409.000
46.00427 431.000
46.02421 415.000
46.04416 405.000
46.06411 410.000
46.08405 435.000
46.10400 437.000
46.12395 359.000
46.14389 473.000
46.16384 425.000
46.18379 403.000
46.20374 392.000
46.22368 415.000
46.24363 416.000
46.26358 405.000
46.28352 457.000
46.30347 402.000
46.32342 399.000
46.34336 393.000
46.36331 403.000
46.38326 372.000
46.40321 435.000
46.42315 417.000
46.44310 397.000
46.46305 468.000
46.48299 435.000
46.50294 400.000
46.52289 377.000
46.54283 398.000
46.56278 407.000
46.58273 419.000
46.60267 384.000
46.62262 354.000
46.64257 398.000
46.66252 383.000
46.68246 435.000
46.70241 431.000
46.72236 411.000
46.74230 372.000
46.76225 380.000
46.78220 382.000
46.80214 403.000
46.82209 421.000
46.84204 425.000
46.86199 384.000
46.88193 387.000
46.90188 385.000
46.92183 374.000
46.94177 468.000
46.96172 419.000
46.98167 442.000
47.00161 387.000
47.02156 402.000
47.04151 419.000
47.06146 426.000
47.08140 413.000
47.10135 377.000
47.12130 356.000
47.14124 392.000
47.16119 397.000
47.18114 399.000
47.20108 422.000
47.22103 369.000
47.24098 387.000
47.26092 351.000
47.28087 363.000
47.30082 418.000
47.32077 405.000
47.34071 413.000
47.36066 393.000
47.38061 373.000
47.40055 377.000
47.42050 406.000
47.44045 384.000
47.46039 401.000
47.48034 358.000
47.50029 393.000
47.52024 366.000
47.54018 363.000
47.56013 396.000
47.58008 376.000
47.60002 409.000
47.61997 391.000
47.63992 413.000
47.65986 399.000
47.67981 398.000
47.69976 399.000
47.71970 366.000
47.73965 395.000
47.75960 388.000
47.77955 403.000
47.79949 409.000
47.81944 422.000
47.83939 368.000
47.85933 397.000
47.87928 439.000
47.89923 424.000
47.91917 395.000
47.93912 407.000
47.95907 422.000
47.97902 405.000
47.99896 420.000
48.01891 382.000
48.03886 406.000
48.05880 391.000
48.07875 438.000
48.09870 401.000
48.11864 385.000
48.13859 402.000
48.15854 420.000
48.17848 432.000
48.19843 371.000
48.21838 426.000
48.23833 410.000
48.25827 408.000
48.27822 435.000
48.29817 425.000
48.31811 468.000
48.33806 434.000
48.35801 441.000
48.37795 435.000
48.39790 437.000
48.41785 479.000
48.43780 436.000
48.45774 462.000
48.47769 499.000
48.49764 467.000
48.51758 473.000
48.53753 495.000
48.55748 513.000
48.57742 579.000
48.59737 552.000
48.61732 551.000
48.63726 564.000
48.65721 597.000
48.67716 616.000
48.69711 624.000
48.71705 585.000
48.73700 655.000
48.75695 680.000
48.77689 641.000
48.79684 662.000
48.81679 612.000
48.83673 562.000
48.85668 575.000
48.87663 587.000
48.89658 592.000
48.91652 525.000
48.93647 534.000
48.95642 502.000
48.97636 494.000
48.99631 464.000
49.01626 479.000
49.03620 429.000
49.05615 433.000
49.07610 431.000
49.09605 396.000
49.11599 438.000
49.13594 413.000
49.15589 411.000
49.17583 397.000
49.19578 436.000
49.21573 415.000
49.23567 446.000
49.25562 418.000
49.27557 376.000
49.29551 388.000
49.31546 416.000
49.33541 390.000
49.35536 432.000
49.37530 389.000
49.39525 414.000
49.41520 412.000
49.43514 389.000
49.45509 408.000
49.47504 385.000
49.49498 398.000
49.51493 379.000
49.53488 373.000
49.55483 402.000
49.57477 438.000
49.59472 377.000
49.61467 378.000
49.63461 424.000
49.65456 399.000
49.67451 387.000
49.69445 406.000
49.71440 380.000
49.73435 395.000
49.75429 376.000
49.77424 423.000
49.79419 409.000
49.81414 407.000
49.83408 415.000
49.85403 406.000
49.87398 383.000
49.89392 398.000
49.91387 387.000
49.93382 411.000
49.95376 428.000
49.97371 390.000
49.99366 436.000
50.01361 414.000
50.03355 395.000
50.05350 389.000
50.07345 408.000
50.09339 379.000
50.11334 379.000
50.13329 391.000
50.15323 430.000
50.17318 372.000
50.19313 395.000
50.21307 381.000
50.23302 408.000
50.25297 392.000
50.27292 391.000
50.29286 359.000
50.31281 385.000
50.33276 383.000
50.35270 374.000
50.37265 365.000
50.39260 373.000
50.41254 404.000
50.43249 420.000
50.45244 393.000
50.47239 341.000
50.49233 348.000
50.51228 374.000
50.53223 389.000
50.55217 375.000
50.57212 375.000
50.59207 412.000
50.61201 384.000
50.63196 381.000
50.65191 416.000
50.67186 384.000
50.69180 407.000
50.71175 394.000
50.73170 377.000
50.75164 363.000
50.77159 418.000
50.79154 385.000
50.81148 394.000
50.83143 387.000
50.85138 407.000
50.87132 391.000
50.89127 431.000
50.91122 371.000
50.93117 376.000
50.95111 378.000
50.97106 363.000
50.99101 396.000
51.01095 355.000
51.03090 409.000
51.05085 384.000
51.07079 371.000
51.09074 400.000
51.11069 398.000
51.13064 397.000
51.15058 357.000
51.17053 382.000
51.19048 374.000
51.21042 408.000
51.23037 392.000
51.25032 411.000
51.27026 417.000
51.29021 378.000
51.31016 400.000
51.33010 396.000
51.35005 398.000
51.37000 381.000
51.38995 386.000
51.40989 390.000
51.42984 393.000
51.44979 375.000
51.46973 390.000
51.48968 393.000
51.50963 367.000
51.52957 424.000
51.54952 404.000
51.56947 393.000
51.58942 400.000
51.60936 401.000
51.62931 419.000
51.64926 388.000
51.66920 379.000
51.68915 401.000
51.70910 401.000
51.72904 386.000
51.74899 365.000
51.76894 403.000
51.78888 389.000
51.80883 401.000
51.82878 363.000
51.84873 388.000
51.86867 386.000
51.88862 403.000
51.90857 417.000
51.92851 402.000
51.94846 408.000
51.96841 400.000
51.98835 361.000
52.00830 410.000
52.02825 381.000
52.04820 380.000
52.06814 379.000
52.08809 382.000
52.10804 388.000
52.12798 386.000
52.14793 408.000
52.16788 379.000
52.18782 398.000
52.20777 403.000
52.22772 381.000
52.24767 411.000
52.26761 426.000
52.28756 429.000
52.30751 394.000
52.32745 430.000
52.34740 368.000
52.36735 387.000
52.38729 403.000
52.40724 391.000
52.42719 362.000
52.44713 382.000
52.46708 384.000
52.48703 391.000
52.50698 377.000
52.52692 390.000
52.54687 387.000
52.56682 378.000
52.58676 367.000
52.60671 391.000
52.62666 385.000
52.64660 406.000
52.66655 409.000
52.68650 435.000
52.70645 425.000
52.72639 373.000
52.74634 436.000
52.76629 399.000
52.78623 426.000
52.80618 419.000
52.82613 381.000
52.84607 399.000
52.86602 404.000
52.88597 409.000
52.90591 379.000
52.92586 411.000
52.94581 418.000
52.96576 428.000
52.98570 407.000
53.00565 454.000
53.02560 408.000
53.04554 444.000
53.06549 453.000
53.08544 433.000
53.10538 445.000
53.12533 418.000
53.14528 462.000
53.16523 437.000
53.18517 471.000
53.20512 481.000
53.22507 470.000
53.24501 455.000
53.26496 466.000
53.28491 459.000
53.30485 465.000
53.32480 469.000
53.34475 463.000
53.36469 493.000
53.38464 433.000
53.40459 431.000
53.42454 468.000
53.44448 464.000
53.46443 464.000
53.48438 421.000
53.50432 418.000
53.52427 480.000
53.54422 454.000
53.56416 427.000
53.58411 467.000
53.60406 445.000
53.62401 480.000
53.64395 496.000
53.66390 543.000
53.68385 515.000
53.70379 485.000
53.72374 486.000
53.74369 497.000
53.76363 485.000
53.78358 466.000
53.80353 501.000
53.82348 489.000
53.84342 498.000
53.86337 454.000
53.88332 450.000
53.90326 437.000
53.92321 422.000
53.94316 450.000
53.96310 435.000
53.98305 430.000
54.00300 467.000
54.02294 368.000
54.04289 388.000
54.06284 455.000
54.08279 397.000
54.10273 385.000
54.12268 442.000
54.14263 394.000
54.16257 386.000
54.18252 360.000
54.20247 375.000
54.22241 393.000
54.24236 389.000
54.26231 381.000
54.28226 405.000
54.30220 359.000
54.32215 401.000
54.34210 397.000
54.36204 370.000
54.38199 398.000
54.40194 385.000
54.42188 360.000
54.44183 429.000
54.46178 390.000
54.48172 399.000
54.50167 386.000
54.52162 391.000
54.54157 382.000
54.56151 399.000
54.58146 367.000
54.60141 387.000
54.62135 398.000
54.64130 402.000
54.66125 405.000
54.68119 375.000
54.70114 389.000
54.72109 399.000
54.74104 365.000
54.76098 388.000
54.78093 353.000
54.80088 401.000
54.82082 366.000
54.84077 405.000
54.86072 359.000
54.88066 409.000
54.90061 385.000
54.92056 407.000
54.94050 390.000
54.96045 379.000
54.98040 366.000
55.00035 388.000
55.02029 375.000
55.04024 384.000
55.06019 400.000
55.08013 363.000
55.10008 396.000
55.12003 372.000
55.13997 375.000
55.15992 393.000
55.17987 383.000
55.19982 372.000
55.21976 420.000
55.23971 410.000
55.25966 382.000
55.27960 394.000
55.29955 382.000
55.31950 367.000
55.33944 407.000
55.35939 385.000
55.37934 397.000
55.39929 371.000
55.41923 396.000
55.43918 355.000
55.45913 363.000
55.47907 364.000
55.49902 375.000
55.51897 338.000
55.53891 341.000
55.55886 393.000
55.57881 412.000
55.59875 386.000
55.61870 378.000
55.63865 396.000
55.65860 408.000
55.67854 384.000
55.69849 413.000
55.71844 374.000
55.73838 373.000
55.75833 366.000
55.77828 402.000
55.79822 409.000
55.81817 433.000
55.83812 384.000
55.85807 397.000
55.87801 372.000
55.89796 376.000
55.91791 431.000
55.93785 412.000
55.95780 418.000
55.97775 436.000
55.99769 397.000
56.01764 364.000
56.03759 398.000
56.05753 386.000
56.07748 404.000
56.09743 382.000
56.11738 384.000
56.13732 386.000
56.15727 372.000
56.17722 380.000
56.19716 373.000
56.21711 379.000
56.23706 355.000
56.25700 393.000
56.27695 355.000
56.29690 357.000
56.31685 378.000
56.33679 433.000
56.35674 412.000
56.37669 381.000
56.39663 388.000
56.41658 400.000
56.43653 390.000
56.45647 398.000
56.47642 406.000
56.49637 418.000
56.51631 403.000
56.53626 401.000
56.55621 382.000
56.57616 387.000
56.59610 414.000
56.61605 400.000
56.63600 423.000
56.65594 399.000
56.67589 389.000
56.69584 393.000
56.71578 408.000
56.73573 425.000
56.75568 456.000
56.77563 419.000
56.79557 461.000
56.81552 418.000
56.83547 354.000
56.85541 414.000
56.87536 434.000
56.89531 461.000
56.91525 458.000
56.93520 452.000
56.95515 433.000
56.97510 448.000
56.99504 456.000
57.01499 466.000
57.03494 452.000
57.05488 506.000
57.07483 515.000
57.09478 492.000
57.11472 526.000
57.13467 525.000
57.15462 572.000
57.17456 631.000
57.19451 750.000
57.21446 781.000
57.23441 773.000
57.25435 762.000
57.27430 758.000
57.29425 694.000
57.31419 665.000
57.33414 692.000
57.35409 715.000
57.37403 728.000
57.39398 724.000
57.41393 680.000
57.43388 620.000
57.45382 624.000
57.47377 527.000
57.49372 500.000
57.51366 483.000
57.53361 517.000
57.55356 493.000
57.57350 461.000
57.59345 480.000
57.61340 446.000
57.63334 481.000
57.65329 408.000
57.67324 474.000
57.69319 440.000
57.71313 456.000
57.73308 414.000
57.75303 423.000
57.77297 451.000
57.79292 449.000
57.81287 405.000
57.83281 435.000
57.85276 417.000
57.87271 429.000
57.89266 422.000
57.91260 437.000
57.93255 452.000
57.95250 431.000
57.97244 459.000
57.99239 445.000
58.01234 483.000
58.03228 464.000
58.05223 485.000
58.07218 521.000
58.09212 483.000
58.11207 486.000
58.13202 482.000
58.15197 510.000
58.17191 495.000
58.19186 485.000
58.21181 468.000
58.23175 454.000
58.25170 513.000
58.27165 478.000
58.29159 473.000
58.31154 459.000
58.33149 454.000
58.35144 491.000
58.37138 453.000
58.39133 425.000
58.41128 415.000
58.43122 415.000
58.45117 398.000
58.47112 423.000
58.49106 404.000
58.51101 409.000
58.53096 392.000
58.55090 420.000
58.57085 411.000
58.59080 373.000
58.61075 379.000
58.63069 364.000
58.65064 409.000
58.67059 399.000
58.69053 387.000
58.71048 411.000
58.73043 375.000
58.75037 378.000
58.77032 412.000
58.79027 404.000
58.81022 355.000
58.83016 403.000
58.85011 357.000
58.87006 412.000
58.89000 417.000
58.90995 382.000
58.92990 432.000
58.94984 441.000
58.96979 400.000
58.98974 360.000
59.00969 379.000
59.02963 412.000
59.04958 377.000
59.06953 404.000
59.08947 358.000
59.10942 406.000
59.12937 374.000
59.14931 407.000
59.16926 368.000
59.18921 366.000
59.20915 383.000
59.22910 399.000
59.24905 394.000
59.26900 432.000
59.28894 379.000
59.30889 381.000
59.32884 405.000
59.34878 371.000
59.36873 418.000
59.38868 384.000
59.40862 385.000
59.42857 429.000
59.44852 406.000
59.46847 389.000
59.48841 413.000
59.50836 404.000
59.52831 350.000
59.54825 374.000
59.56820 383.000
59.58815 371.000
59.60809 391.000
59.62804 354.000
59.64799 368.000
59.66793 392.000
59.68788 409.000
59.70783 406.000
59.72778 398.000
59.74772 416.000
59.76767 418.000
59.78762 371.000
59.80756 417.000
59.82751 417.000
59.84746 353.000
59.86740 414.000
59.88735 366.000
59.90730 400.000
59.92725 396.000
59.94719 362.000
59.96714 403.000
59.98709 382.000
60.00703 364.000
60.02698 394.000
60.04693 382.000
60.06687 398.000
60.08682 384.000
60.10677 417.000
60.12671 416.000
60.14666 418.000
60.16661 382.000
60.18656 389.000
60.20650 359.000
60.22645 346.000
60.24640 387.000
60.26634 374.000
60.28629 391.000
60.30624 372.000
60.32618 373.000
60.34613 360.000
60.36608 369.000
60.38603 387.000
60.40597 388.000
60.42592 387.000
60.44587 414.000
60.46581 404.000
60.48576 375.000
60.50571 382.000
60.52565 422.000
60.54560 398.000
60.56555 373.000
60.58550 395.000
60.60544 368.000
60.62539 393.000
60.64534 391.000
60.66528 397.000
60.68523 401.000
60.70518 408.000
60.72512 361.000
60.74507 403.000
60.76502 399.000
60.78496 391.000
60.80491 420.000
60.82486 372.000
60.84481 382.000
60.86475 397.000
60.88470 389.000
60.90465 422.000
60.92459 410.000
60.94454 394.000
60.96449 367.000
60.98443 408.000
61.00438 383.000
61.02433 389.000
61.04428 398.000
61.06422 425.000
61.08417 395.000
61.10412 410.000
61.12406 392.000
61.14401 395.000
61.16396 411.000
61.18390 413.000
61.20385 432.000
61.22380 437.000
61.24374 439.000
61.26369 432.000
61.28364 451.000
61.30359 482.000
61.32353 473.000
61.34348 469.000
61.36343 503.000
61.38337 498.000
61.40332 596.000
61.42327 556.000
61.44321 598.000
61.46316 559.000
61.48311 543.000
61.50306 566.000
61.52300 523.000
61.54295 502.000
61.56290 564.000
61.58284 515.000
61.60279 569.000
61.62274 556.000
61.64268 537.000
61.66263 514.000
61.68258 508.000
61.70252 480.000
61.72247 514.000
61.74242 503.000
61.76237 475.000
61.78231 470.000
61.80226 474.000
61.82221 425.000
61.84215 476.000
61.86210 408.000
61.88205 451.000
61.90199 416.000
61.92194 472.000
61.94189 446.000
61.96184 435.000
61.98178 441.000
62.00173 472.000
62.02168 476.000
62.04162 444.000
62.06157 465.000
62.08152 484.000
62.10146 496.000
62.12141 495.000
62.14136 484.000
62.16131 467.000
62.18125 520.000
62.20120 531.000
62.22115 566.000
62.24109 557.000
62.26104 569.000
62.28099 575.000
62.30093 617.000
62.32088 666.000
62.34083 658.000
62.36077 683.000
62.38072 732.000
62.40067 752.000
62.42062 882.000
62.44056 911.000
62.46051 925.000
62.48046 1004.000
62.50040 1072.000
62.52035 1165.000
62.54030 1230.000
62.56024 1257.000
62.58019 1240.000
62.60014 1223.000
62.62009 1315.000
62.64003 1248.000
62.65998 1270.000
62.67993 1200.000
62.69987 1277.000
62.71982 1143.000
62.73977 1218.000
62.75971 1113.000
62.77966 1093.000
62.79961 1124.000
62.81955 1141.000
62.83950 1077.000
62.85945 1052.000
62.87940 1031.000
62.89934 970.000
62.91929 912.000
62.93924 897.000
62.95918 868.000
62.97913 752.000
62.99908 776.000
63.01902 789.000
63.03897 751.000
63.05892 701.000
63.07887 716.000
63.09881 690.000
63.11876 601.000
63.13871 623.000
63.15865 572.000
63.17860 561.000
63.19855 512.000
63.21849 524.000
63.23844 514.000
63.25839 491.000
63.27833 466.000
63.29828 507.000
63.31823 465.000
63.33818 447.000
63.35812 445.000
63.37807 456.000
63.39802 406.000
63.41796 439.000
63.43791 434.000
63.45786 466.000
63.47780 416.000
63.49775 434.000
63.51770 404.000
63.53765 425.000
63.55759 410.000
63.57754 409.000
63.59749 389.000
63.61743 404.000
63.63738 357.000
63.65733 352.000
63.67727 371.000
63.69722 366.000
63.71717 396.000
63.73712 401.000
63.75706 414.000
63.77701 393.000
63.79696 402.000
63.81690 414.000
63.83685 383.000
63.85680 411.000
63.87674 412.000
63.89669 406.000
63.91664 430.000
63.93658 379.000
63.95653 413.000
63.97648 417.000
63.99643 393.000
64.01637 371.000
64.03632 379.000
64.05627 371.000
64.07621 380.000
64.09616 350.000
64.11611 377.000
64.13605 363.000
64.15600 374.000
64.17595 427.000
64.19590 360.000
64.21584 432.000
64.23579 369.000
64.25574 377.000
64.27568 382.000
64.29563 404.000
64.31558 414.000
64.33552 389.000
64.35547 441.000
64.37542 422.000
64.39536 400.000
64.41531 352.000
64.43526 368.000
64.45521 410.000
64.47515 394.000
64.49510 408.000
64.51505 411.000
64.53499 388.000
64.55494 378.000
64.57489 388.000
64.59483 372.000
64.61478 385.000
64.63473 400.000
64.65468 386.000
64.67462 389.000
64.69457 349.000
64.71452 414.000
64.73446 407.000
64.75441 389.000
64.77436 378.000
64.79430 378.000
64.81425 396.000
64.83420 385.000
64.85414 411.000
64.87409 383.000
64.89404 413.000
64.91399 374.000
64.93393 402.000
64.95388 397.000
64.97383 381.000
64.99377 394.000
65.01372 387.000
65.03367 379.000
65.05361 395.000
65.07356 403.000
65.09351 429.000
65.11346 402.000
65.13340 398.000
65.15335 383.000
65.17330 391.000
65.19324 392.000
65.21319 377.000
65.23314 392.000
65.25308 415.000
65.27303 431.000
65.29298 410.000
65.31293 416.000
65.33287 401.000
65.35282 420.000
65.37277 438.000
65.39271 407.000
65.41266 417.000
65.43261 449.000
65.45255 436.000
65.47250 476.000
65.49245 418.000
65.51239 502.000
65.53234 475.000
65.55229 458.000
65.57224 494.000
65.59218 485.000
65.61213 467.000
65.63208 419.000
65.65202 442.000
65.67197 415.000
65.69192 457.000
65.71186 501.000
65.73181 490.000
65.75176 434.000
65.77171 472.000
65.79165 475.000
65.81160 459.000
65.83155 467.000
65.85149 498.000
65.87144 450.000
65.89139 399.000
65.91133 491.000
65.93128 433.000
65.95123 453.000
65.97117 475.000
65.99112 446.000
66.01107 471.000
66.03102 444.000
66.05096 504.000
66.07091 496.000
66.09086 468.000
66.11080 500.000
66.13075 478.000
66.15070 502.000
66.17064 477.000
66.19059 545.000
66.21054 548.000
66.23049 542.000
66.25043 567.000
66.27038 550.000
66.29033 541.000
66.31027 563.000
66.33022 518.000
66.35017 507.000
66.37011 460.000
66.39006 475.000
66.41001 455.000
66.42995 491.000
66.44990 493.000
66.46985 449.000
66.48980 469.000
66.50974 434.000
66.52969 469.000
66.54964 421.000
66.56958 461.000
66.58953 421.000
66.60948 424.000
66.62942 433.000
66.64937 384.000
66.66932 380.000
66.68927 412.000
66.70921 414.000
66.72916 410.000
66.74911 419.000
66.76905 427.000
66.78900 348.000
66.80895 390.000
66.82889 391.000
66.84884 426.000
66.86879 401.000
66.88874 392.000
66.90868 394.000
66.92863 392.000
66.94858 393.000
66.96852 415.000
66.98847 406.000
67.00842 411.000
67.02836 368.000
67.04831 407.000
67.06826 407.000
67.08820 398.000
67.10815 369.000
67.12810 384.000
67.14805 392.000
67.16799 400.000
67.18794 393.000
67.20789 369.000
67.22783 385.000
67.24778 412.000
67.26773 431.000
67.28767 436.000
67.30762 410.000
67.32757 412.000
67.34752 389.000
67.36746 392.000
67.38741 420.000
67.40736 427.000
67.42730 432.000
67.44725 410.000
67.46720 413.000
67.48714 446.000
67.50709 429.000
67.52704 459.000
67.54698 435.000
67.56693 419.000
67.58688 456.000
67.60683 488.000
67.62677 446.000
67.64672 422.000
67.66667 466.000
67.68661 462.000
67.70656 492.000
67.72651 507.000
67.74645 457.000
67.76640 508.000
67.78635 510.000
67.80630 520.000
67.82624 543.000
67.84619 506.000
67.86614 526.000
67.88608 491.000
67.90603 499.000
67.92598 507.000
67.94592 492.000
67.96587 503.000
67.98582 473.000
68.00576 478.000
68.02571 502.000
68.04566 473.000
68.06561 446.000
68.08555 472.000
68.10550 493.000
68.12545 505.000
68.14539 416.000
68.16534 448.000
68.18529 474.000
68.20523 435.000
68.22518 373.000
68.24513 440.000
68.26508 434.000
68.28502 406.000
68.30497 411.000
68.32492 430.000
68.34486 426.000
68.36481 376.000
68.38476 423.000
68.40470 398.000
68.42465 384.000
68.44460 380.000
68.46455 410.000
68.48449 377.000
68.50444 401.000
68.52439 388.000
68.54433 402.000
68.56428 422.000
68.58423 425.000
68.60417 398.000
68.62412 393.000
68.64407 409.000
68.66401 404.000
68.68396 404.000
68.70391 391.000
68.72386 401.000
68.74380 379.000
68.76375 383.000
68.78370 394.000
68.80364 372.000
68.82359 384.000
68.84354 403.000
68.86348 418.000
68.88343 419.000
68.90338 401.000
68.92333 368.000
68.94327 391.000
68.96322 368.000
68.98317 376.000
69.00311 409.000
69.02306 363.000
69.04301 359.000
69.06295 347.000
69.08290 381.000
69.10285 380.000
69.12279 394.000
69.14274 439.000
69.16269 351.000
69.18264 355.000
69.20258 423.000
69.22253 385.000
69.24248 369.000
69.26242 341.000
69.28237 360.000
69.30232 388.000
69.32226 364.000
69.34221 380.000
69.36216 339.000
69.38211 385.000
69.40205 393.000
69.42200 357.000
69.44195 392.000
69.46189 373.000
69.48184 380.000
69.50179 384.000
69.52173 394.000
69.54168 347.000
69.56163 400.000
69.58157 382.000
69.60152 346.000
69.62147 361.000
69.64142 388.000
69.66136 373.000
69.68131 359.000
69.70126 407.000
69.72120 370.000
69.74115 353.000
69.76110 402.000
69.78104 388.000
69.80099 365.000
69.82094 381.000
69.84089 384.000
69.86083 385.000
69.88078 371.000
69.90073 386.000
69.92067 352.000
69.94062 383.000
69.96057 383.000
69.98051 344.000
70.00046 382.000
70.02041 339.000
70.04035 391.000
70.06030 392.000
70.08025 362.000
70.10020 350.000
70.12014 369.000
70.14009 374.000
70.16004 373.000
70.17998 378.000
70.19993 364.000
70.21988 347.000
70.23982 403.000
70.25977 383.000
70.27972 366.000
70.29967 402.000
70.31961 377.000
70.33956 371.000
70.35951 380.000
70.37945 360.000
70.39940 386.000
70.41935 381.000
70.43929 352.000
70.45924 344.000
70.47919 362.000
70.49914 405.000
70.51908 370.000
70.53903 354.000
70.55898 390.000
70.57892 357.000
70.59887 371.000
70.61882 382.000
70.63876 381.000
70.65871 350.000
70.67866 368.000
70.69860 381.000
70.71855 341.000
70.73850 374.000
70.75845 380.000
70.77839 386.000
70.79834 356.000
70.81829 375.000
70.83823 367.000
70.85818 389.000
70.87813 420.000
70.89807 363.000
70.91802 360.000
70.93797 393.000
70.95792 342.000
70.97786 373.000
70.99781 355.000
71.01776 355.000
71.03770 382.000
71.05765 372.000
71.07760 388.000
71.09754 380.000
71.11749 363.000
71.13744 377.000
71.15738 408.000
71.17733 357.000
71.19728 375.000
71.21723 399.000
71.23717 381.000
71.25712 401.000
71.27707 390.000
71.29701 379.000
71.31696 370.000
71.33691 422.000
71.35685 422.000
71.37680 391.000
71.39675 451.000
71.41670 398.000
71.43664 404.000
71.45659 362.000
71.47654 364.000
71.49648 401.000
71.51643 366.000
71.53638 386.000
71.55632 389.000
71.57627 403.000
71.59622 354.000
71.61616 378.000
71.63611 377.000
71.65606 408.000
71.67601 401.000
71.69595 396.000
71.71590 375.000
71.73585 378.000
71.75579 393.000
71.77574 355.000
71.79569 378.000
71.81563 385.000
71.83558 371.000
71.85553 425.000
71.87548 395.000
71.89542 336.000
71.91537 408.000
71.93532 378.000
71.95526 423.000
71.97521 374.000
71.99516 396.000
72.01510 387.000
72.03505 417.000
72.05500 425.000
72.07495 407.000
72.09489 391.000
72.11484 390.000
72.13479 393.000
72.15473 410.000
72.17468 416.000
72.19463 427.000
72.21457 407.000
72.23452 405.000
72.25447 457.000
72.27441 464.000
72.29436 398.000
72.31431 414.000
72.33426 383.000
72.35420 426.000
72.37415 459.000
72.39410 412.000
72.41404 422.000
72.43399 438.000
72.45394 401.000
72.47388 376.000
72.49383 376.000
72.51378 369.000
72.53373 387.000
72.55367 404.000
72.57362 402.000
72.59357 393.000
72.61351 361.000
72.63346 358.000
72.65341 368.000
72.67335 367.000
72.69330 387.000
72.71325 399.000
72.73319 394.000
72.75314 383.000
72.77309 375.000
72.79304 377.000
72.81298 370.000
72.83293 345.000
72.85288 380.000
72.87282 384.000
72.89277 344.000
72.91272 381.000
72.93266 344.000
72.95261 320.000
72.97256 365.000
72.99251 324.000
73.01245 374.000
73.03240 423.000
73.05235 404.000
73.07229 396.000
73.09224 380.000
73.11219 372.000
73.13213 358.000
73.15208 379.000
73.17203 411.000
73.19197 384.000
73.21192 349.000
73.23187 377.000
73.25182 353.000
73.27176 300.000
73.29171 367.000
73.31166 401.000
73.33160 350.000
73.35155 367.000
73.37150 377.000
73.39144 416.000
73.41139 374.000
73.43134 390.000
73.45129 372.000
73.47123 386.000
73.49118 366.000
73.51113 356.000
73.53107 329.000
73.55102 349.000
73.57097 386.000
73.59091 403.000
73.61086 380.000
73.63081 365.000
73.65076 405.000
73.67070 392.000
73.69065 350.000
73.71060 368.000
73.73054 384.000
73.75049 375.000
73.77044 362.000
73.79038 356.000
73.81033 372.000
73.83028 378.000
73.85022 383.000
73.87017 396.000
73.89012 349.000
73.91007 374.000
73.93001 376.000
73.94996 385.000
73.96991 409.000
73.98985 401.000
74.00980 409.000
74.02975 380.000
74.04969 360.000
74.06964 366.000
74.08959 377.000
74.10954 355.000
74.12948 364.000
74.14943 379.000
74.16938 384.000
74.18932 379.000
74.20927 385.000
74.22922 390.000
74.24916 420.000
74.26911 403.000
74.28906 370.000
74.30900 419.000
74.32895 452.000
74.34890 406.000
74.36885 452.000
74.38879 480.000
74.40874 444.000
74.42869 464.000
74.44863 481.000
74.46858 416.000
74.48853 466.000
74.50847 457.000
74.52842 467.000
74.54837 486.000
74.56832 462.000
74.58826 458.000
74.60821 492.000
74.62816 482.000
74.64810 492.000
74.66805 482.000
74.68800 523.000
74.70794 501.000
74.72789 498.000
74.74784 495.000
74.76778 524.000
74.78773 490.000
74.80768 505.000
74.82763 520.000
74.84757 539.000
74.86752 546.000
74.88747 564.000
74.90741 597.000
74.92736 587.000
74.94731 629.000
74.96725 597.000
74.98720 681.000
75.00715 639.000
75.02710 643.000
75.04704 666.000
75.06699 660.000
75.08694 662.000
75.10688 629.000
75.12683 677.000
75.14678 669.000
75.16672 704.000
75.18667 642.000
75.20662 634.000
75.22657 628.000
75.24651 621.000
75.26646 603.000
75.28641 613.000
75.30635 616.000
75.32630 550.000
75.34625 605.000
75.36619 542.000
75.38614 577.000
75.40609 540.000
75.42603 542.000
75.44598 512.000
75.46593 485.000
75.48588 466.000
75.50582 518.000
75.52577 479.000
75.54572 456.000
75.56566 453.000
75.58561 443.000
75.60556 451.000
75.62550 417.000
75.64545 400.000
75.66540 392.000
75.68535 419.000
75.70529 433.000
75.72524 412.000
75.74519 392.000
75.76513 419.000
75.78508 436.000
75.80503 395.000
75.82497 409.000
75.84492 375.000
75.86487 395.000
75.88481 398.000
75.90476 427.000
75.92471 378.000
75.94466 377.000
75.96460 377.000
75.98455 360.000
76.00450 394.000
76.02444 392.000
76.04439 369.000
76.06434 430.000
76.08428 381.000
76.10423 369.000
76.12418 363.000
76.14413 375.000
76.16407 360.000
76.18402 364.000
76.20397 411.000
76.22391 383.000
76.24386 358.000
76.26381 367.000
76.28375 386.000
76.30370 372.000
76.32365 391.000
76.34359 367.000
76.36354 415.000
76.38349 388.000
76.40344 327.000
76.42338 375.000
76.44333 339.000
76.46328 354.000
76.48322 367.000
76.50317 390.000
76.52312 384.000
76.54306 346.000
76.56301 339.000
76.58296 368.000
76.60291 377.000
76.62285 380.000
76.64280 344.000
76.66275 351.000
76.68269 374.000
76.70264 362.000
76.72259 331.000
76.74253 358.000
76.76248 406.000
76.78243 354.000
76.80238 351.000
76.82232 350.000
76.84227 366.000
76.86222 338.000
76.88216 368.000
76.90211 394.000
76.92206 342.000
76.94200 371.000
76.96195 374.000
76.98190 382.000
77.00184 368.000
77.02179 348.000
77.04174 354.000
77.06169 357.000
77.08163 357.000
77.10158 363.000
77.12153 372.000
77.14147 363.000
77.16142 337.000
77.18137 367.000
77.20131 345.000
77.22126 338.000
77.24121 354.000
77.26116 357.000
77.28110 326.000
77.30105 352.000
77.32100 351.000
77.34094 408.000
77.36089 406.000
77.38084 360.000
77.40078 384.000
77.42073 353.000
77.44068 351.000
77.46062 369.000
77.48057 332.000
77.50052 349.000
77.52047 344.000
77.54041 370.000
77.56036 352.000
77.58031 403.000
77.60025 327.000
77.62020 342.000
77.64015 332.000
77.66009 362.000
77.68004 363.000
77.69999 394.000
77.71994 387.000
77.73988 349.000
77.75983 360.000
77.77978 353.000
77.79972 367.000
77.81967 336.000
77.83962 399.000
77.85956 358.000
77.87951 358.000
77.89946 343.000
77.91940 347.000
77.93935 357.000
77.95930 388.000
77.97925 415.000
77.99919 348.000
78.01914 349.000
78.03909 396.000
78.05903 398.000
78.07898 386.000
78.09893 359.000
78.11887 416.000
78.13882 373.000
78.15877 345.000
78.17872 381.000
78.19866 384.000
78.21861 349.000
78.23856 343.000
78.25850 353.000
78.27845 355.000
78.29840 345.000
78.31834 379.000
78.33829 366.000
78.35824 360.000
78.37819 402.000
78.39813 355.000
78.41808 392.000
78.43803 393.000
78.45797 397.000
78.47792 360.000
78.49787 331.000
78.51781 395.000
78.53776 376.000
78.55771 368.000
78.57765 360.000
78.59760 405.000
78.61755 373.000
78.63750 420.000
78.65744 383.000
78.67739 392.000
78.69734 366.000
78.71728 394.000
78.73723 414.000
78.75718 388.000
78.77712 423.000
78.79707 411.000
78.81702 452.000
78.83697 470.000
78.85691 487.000
78.87686 455.000
78.89681 474.000
78.91675 459.000
78.93670 508.000
78.95665 552.000
78.97659 572.000
78.99654 519.000
79.01649 526.000
79.03643 584.000
79.05638 563.000
79.07633 514.000
79.09628 557.000
79.11622 539.000
79.13617 522.000
79.15612 518.000
79.17606 547.000
79.19601 531.000
79.21596 510.000
79.23590 524.000
79.25585 492.000
79.27580 513.000
79.29575 529.000
79.31569 481.000
79.33564 499.000
79.35559 477.000
79.37553 473.000
79.39548 444.000
79.41543 447.000
79.43537 462.000
79.45532 403.000
79.47527 448.000
79.49521 400.000
79.51516 422.000
79.53511 393.000
79.55506 386.000
79.57500 405.000
79.59495 430.000
79.61490 386.000
79.63484 419.000
79.65479 368.000
79.67474 408.000
79.69468 352.000
79.71463 364.000
79.73458 396.000
79.75453 401.000
79.77447 386.000
79.79442 398.000
79.81437 379.000
79.83431 366.000
79.85426 354.000
79.87421 362.000
79.89415 375.000
79.91410 350.000
79.93405 350.000
79.95399 357.000
79.97394 368.000
79.99389 341.000
80.01384 383.000
80.03378 389.000
80.05373 393.000
80.07368 339.000
80.09362 319.000
80.11357 391.000
80.13352 378.000
80.15346 378.000
80.17341 352.000
80.19336 383.000
80.21331 373.000
80.23325 374.000
80.25320 391.000
80.27315 362.000
80.29309 398.000
80.31304 372.000
80.33299 365.000
80.35293 346.000
80.37288 365.000
80.39283 411.000
80.41278 370.000
80.43272 377.000
80.45267 361.000
80.47262 385.000
80.49256 381.000
80.51251 385.000
80.53246 364.000
80.55240 364.000
80.57235 343.000
80.59230 357.000
80.61224 399.000
80.63219 365.000
80.65214 373.000
80.67209 341.000
80.69203 359.000
80.71198 404.000
80.73193 353.000
80.75187 352.000
80.77182 372.000
80.79177 377.000
80.81171 335.000
80.83166 371.000
80.85161 370.000
80.87156 335.000
80.89150 345.000
80.91145 351.000
80.93140 329.000
80.95134 338.000
80.97129 346.000
80.99124 369.000
81.01118 316.000
81.03113 340.000
81.05108 335.000
81.07102 377.000
81.09097 375.000
81.11092 370.000
81.13087 354.000
81.15081 360.000
81.17076 338.000
81.19071 388.000
81.21065 347.000
81.23060 344.000
81.25055 369.000
81.27049 358.000
81.29044 396.000
81.31039 360.000
81.33034 380.000
81.35028 368.000
81.37023 346.000
81.39018 335.000
81.41012 363.000
81.43007 364.000
81.45002 382.000
81.46996 384.000
81.48991 371.000
81.50986 339.000
81.52980 349.000
81.54975 401.000
81.56970 360.000
81.58965 347.000
81.60959 348.000
81.62954 343.000
81.64949 378.000
81.66943 373.000
81.68938 365.000
81.70933 357.000
81.72927 383.000
81.74922 376.000
81.76917 331.000
81.78912 319.000
81.80906 345.000
81.82901 354.000
81.84896 354.000
81.86890 371.000
81.88885 359.000
81.90880 358.000
81.92874 368.000
81.94869 388.000
81.96864 373.000
81.98859 373.000
82.00853 382.000
82.02848 364.000
82.04843 409.000
82.06837 371.000
82.08832 369.000
82.10827 377.000
82.12821 372.000
82.14816 353.000
82.16811 374.000
82.18805 399.000
82.20800 382.000
82.22795 387.000
82.24790 399.000
82.26784 400.000
82.28779 390.000
82.30774 394.000
82.32768 352.000
82.34763 387.000
82.36758 371.000
82.38752 416.000
82.40747 416.000
82.42742 388.000
82.44737 373.000
82.46731 403.000
82.48726 439.000
82.50721 369.000
82.52715 401.000
82.54710 404.000
82.56705 431.000
82.58699 387.000
82.60694 408.000
82.62689 418.000
82.64683 425.000
82.66678 415.000
82.68673 423.000
82.70668 386.000
82.72662 406.000
82.74657 414.000
82.76652 402.000
82.78646 422.000
82.80641 381.000
82.82636 377.000
82.84630 381.000
82.86625 394.000
82.88620 381.000
82.90615 400.000
82.92609 398.000
82.94604 375.000
82.96599 391.000
82.98593 403.000
83.00588 378.000
83.02583 353.000
83.04577 400.000
83.06572 394.000
83.08567 423.000
83.10561 431.000
83.12556 378.000
83.14551 389.000
83.16546 386.000
83.18540 339.000
83.20535 382.000
83.22530 344.000
83.24524 361.000
83.26519 422.000
83.28514 357.000
83.30508 402.000
83.32503 413.000
83.34498 349.000
83.36493 411.000
83.38487 348.000
83.40482 388.000
83.42477 366.000
83.44471 368.000
83.46466 378.000
83.48461 395.000
83.50455 342.000
83.52450 406.000
83.54445 400.000
83.56440 342.000
83.58434 411.000
83.60429 392.000
83.62424 402.000
83.64418 393.000
83.66413 386.000
83.68408 377.000
83.70402 374.000
83.72397 380.000
83.74392 342.000
83.76386 390.000
83.78381 324.000
83.80376 360.000
83.82371 331.000
83.84365 384.000
83.86360 383.000
83.88355 354.000
83.90349 358.000
83.92344 354.000
83.94339 375.000
83.96333 373.000
83.98328 405.000
84.00323 396.000
84.02318 384.000
84.04312 363.000
84.06307 364.000
84.08302 373.000
84.10296 374.000
84.12291 379.000
84.14286 407.000
84.16280 381.000
84.18275 380.000
84.20270 367.000
84.22264 405.000
84.24259 358.000
84.26254 360.000
84.28249 347.000
84.30243 405.000
84.32238 353.000
84.34233 347.000
84.36227 352.000
84.38222 369.000
84.40217 355.000
84.42211 378.000
84.44206 367.000
84.46201 347.000
84.48196 380.000
84.50190 336.000
84.52185 324.000
84.54180 355.000
84.56174 347.000
84.58169 360.000
84.60164 397.000
84.62158 378.000
84.64153 367.000
84.66148 387.000
84.68142 361.000
84.70137 358.000
84.72132 339.000
84.74127 386.000
84.76121 359.000
84.78116 369.000
84.80111 327.000
84.82105 376.000
84.84100 380.000
84.86095 361.000
84.88089 374.000
84.90084 344.000
84.92079 340.000
84.94074 357.000
84.96068 329.000
84.98063 387.000
85.00058 358.000
85.02052 369.000
85.04047 367.000
85.06042 313.000
85.08036 362.000
85.10031 349.000
85.12026 380.000
85.14021 366.000
85.16015 343.000
85.18010 334.000
85.20005 379.000
85.21999 370.000
85.23994 379.000
85.25989 350.000
85.27983 367.000
85.29978 335.000
85.31973 327.000
85.33967 375.000
85.35962 376.000
85.37957 338.000
85.39952 383.000
85.41946 388.000
85.43941 383.000
85.45936 363.000
85.47930 388.000
85.49925 376.000
85.51920 340.000
85.53914 358.000
85.55909 352.000
85.57904 322.000
85.59899 356.000
85.61893 335.000
85.63888 342.000
85.65883 371.000
85.67877 359.000
85.69872 364.000
85.71867 366.000
85.73861 390.000
85.75856 323.000
85.77851 359.000
85.79845 331.000
85.81840 367.000
85.83835 349.000
85.85830 365.000
85.87824 402.000
85.89819 338.000
85.91814 328.000
85.93808 343.000
85.95803 365.000
85.97798 314.000
85.99792 347.000
86.01787 353.000
86.03782 342.000
86.05777 337.000
86.07771 350.000
86.09766 361.000
86.11761 330.000
86.13755 343.000
86.15750 357.000
86.17745 346.000
86.19739 372.000
86.21734 341.000
86.23729 354.000
86.25723 336.000
86.27718 394.000
86.29713 369.000
86.31708 376.000
86.33702 362.000
86.35697 399.000
86.37692 357.000
86.39686 360.000
86.41681 367.000
86.43676 356.000
86.45670 344.000
86.47665 353.000
86.49660 344.000
86.51655 400.000
86.53649 381.000
86.55644 338.000
86.57639 375.000
86.59633 395.000
86.61628 370.000
86.63623 356.000
86.65617 419.000
86.67612 324.000
86.69607 418.000
86.71602 372.000
86.73596 355.000
86.75591 363.000
86.77586 382.000
86.79580 346.000
86.81575 346.000
86.83570 371.000
86.85564 362.000
86.87559 329.000
86.89554 336.000
86.91548 342.000
86.93543 388.000
86.95538 364.000
86.97533 355.000
86.99527 404.000
87.01522 367.000
87.03517 381.000
87.05511 369.000
87.07506 393.000
87.09501 377.000
87.11495 364.000
87.13490 397.000
87.15485 373.000
87.17480 342.000
87.19474 353.000
87.21469 350.000
87.23464 352.000
87.25458 393.000
87.27453 396.000
87.29448 422.000
87.31442 393.000
87.33437 393.000
87.35432 382.000
87.37426 427.000
87.39421 394.000
87.41416 381.000
87.43411 390.000
87.45405 344.000
87.47400 373.000
87.49395 394.000
87.51389 357.000
87.53384 363.000
87.55379 362.000
87.57373 369.000
87.59368 378.000
87.61363 374.000
87.63358 387.000
87.65352 360.000
87.67347 364.000
87.69342 342.000
87.71336 338.000
87.73331 382.000
87.75326 365.000
87.77320 379.000
87.79315 338.000
87.81310 356.000
87.83304 365.000
87.85299 376.000
87.87294 377.000
87.89289 395.000
87.91283 380.000
87.93278 378.000
87.95273 367.000
87.97267 391.000
87.99262 365.000
88.01257 379.000
88.03251 339.000
88.05246 366.000
88.07241 361.000
88.09236 383.000
88.11230 343.000
88.13225 392.000
88.15220 378.000
88.17214 344.000
88.19209 357.000
88.21204 370.000
88.23198 353.000
88.25193 356.000
88.27188 385.000
88.29183 400.000
88.31177 368.000
88.33172 375.000
88.35167 370.000
88.37161 363.000
88.39156 342.000
88.41151 348.000
88.43145 370.000
88.45140 387.000
88.47135 367.000
88.49129 359.000
88.51124 347.000
88.53119 329.000
88.55114 372.000
88.57108 358.000
88.59103 371.000
88.61098 364.000
88.63092 357.000
88.65087 339.000
88.67082 366.000
88.69076 361.000
88.71071 343.000
88.73066 353.000
88.75061 363.000
88.77055 393.000
88.79050 364.000
88.81045 383.000
88.83039 397.000
88.85034 383.000
88.87029 362.000
88.89023 361.000
88.91018 362.000
88.93013 363.000
88.95007 366.000
88.97002 366.000
88.98997 375.000
89.00992 342.000
89.02986 382.000
89.04981 349.000
89.06976 359.000
89.08970 341.000
89.10965 362.000
89.12960 353.000
89.14954 405.000
89.16949 368.000
89.18944 370.000
89.20939 346.000
89.22933 423.000
89.24928 367.000
89.26923 352.000
89.28917 364.000
89.30912 335.000
89.32907 363.000
89.34901 351.000
89.36896 384.000
89.38891 389.000
89.40885 403.000
89.42880 355.000
89.44875 393.000
89.46870 413.000
89.48864 406.000
89.50859 402.000
89.52854 376.000
89.54848 359.000
89.56843 393.000
89.58838 335.000
89.60832 393.000
89.62827 392.000
89.64822 389.000
89.66817 389.000
89.68811 386.000
89.70806 388.000
89.72801 342.000
89.74795 410.000
89.76790 405.000
89.78785 392.000
89.80779 399.000
89.82774 380.000
89.84769 367.000
89.86764 397.000
89.88758 395.000
89.90753 405.000
89.92748 382.000
89.94742 404.000
89.96737 384.000
89.98732 372.000
90.00726 426.000
