10.00000 105.000
10.01995 144.000
10.03989 132.000
10.05984 132.000
10.07979 124.000
10.09973 136.000
10.11968 130.000
10.13963 110.000
10.15958 136.000
10.17952 141.000
10.19947 138.000
10.21942 134.000
10.23936 153.000
10.25931 134.000
10.27926 147.000
10.29920 124.000
10.31915 137.000
10.33910 130.000
10.35905 128.000
10.37899 147.000
10.39894 141.000
10.41889 131.000
10.43883 132.000
10.45878 122.000
10.47873 147.000
10.49867 144.000
10.51862 124.000
10.53857 122.000
10.55851 120.000
10.57846 139.000
10.59841 124.000
10.61836 133.000
10.63830 113.000
10.65825 141.000
10.67820 133.000
10.69814 136.000
10.71809 130.000
10.73804 141.000
10.75798 145.000
10.77793 140.000
10.79788 146.000
10.81783 150.000
10.83777 134.000
10.85772 134.000
10.87767 123.000
10.89761 148.000
10.91756 118.000
10.93751 120.000
10.95745 134.000
10.97740 145.000
10.99735 117.000
11.01730 128.000
11.03724 138.000
11.05719 122.000
11.07714 113.000
11.09708 132.000
11.11703 137.000
11.13698 135.000
11.15692 150.000
11.17687 126.000
11.19682 133.000
11.21676 129.000
11.23671 141.000
11.25666 127.000
11.27661 154.000
11.29655 132.000
11.31650 142.000
11.33645 114.000
11.35639 153.000
11.37634 133.000
11.39629 141.000
11.41623 143.000
11.43618 135.000
11.45613 125.000
11.47608 125.000
11.49602 116.000
11.51597 121.000
11.53592 101.000
11.55586 122.000
11.57581 121.000
11.59576 127.000
11.61570 111.000
11.63565 123.000
11.65560 114.000
11.67554 131.000
11.69549 126.000
11.71544 110.000
11.73539 140.000
11.75533 147.000
11.77528 142.000
11.79523 121.000
11.81517 161.000
11.83512 131.000
11.85507 150.000
11.87501 135.000
11.89496 137.000
11.91491 143.000
11.93486 129.000
11.95480 132.000
11.97475 159.000
11.99470 130.000
12.01464 155.000
12.03459 139.000
12.05454 132.000
12.07448 108.000
12.09443 135.000
12.11438 129.000
12.13432 163.000
12.15427 129.000
12.17422 136.000
12.19417 143.000
12.21411 142.000
12.23406 148.000
12.25401 137.000
12.27395 155.000
12.29390 139.000
12.31385 121.000
12.33379 126.000
12.35374 136.000
12.37369 146.000
12.39364 123.000
12.41358 128.000
12.43353 146.000
12.45348 137.000
12.47342 155.000
12.49337 134.000
12.51332 122.000
12.53326 153.000
12.55321 129.000
12.57316 130.000
12.59311 128.000
12.61305 142.000
12.63300 137.000
12.65295 133.000
12.67289 147.000
12.69284 143.000
12.71279 141.000
12.73273 137.000
12.75268 151.000
12.77263 112.000
12.79257 139.000
12.81252 142.000
12.83247 120.000
12.85242 153.000
12.87236 154.000
12.89231 154.000
12.91226 159.000
12.93220 143.000
12.95215 148.000
12.97210 137.000
12.99204 139.000
13.01199 142.000
13.03194 134.000
13.05189 134.000
13.07183 129.000
13.09178 129.000
13.11173 143.000
13.13167 132.000
13.15162 151.000
13.17157 140.000
13.19151 149.000
13.21146 145.000
13.23141 147.000
13.25135 131.000
13.27130 168.000
13.29125 147.000
13.31120 138.000
13.33114 163.000
13.35109 140.000
13.37104 123.000
13.39098 170.000
13.41093 138.000
13.43088 142.000
13.45082 148.000
13.47077 158.000
13.49072 153.000
13.51067 143.000
13.53061 150.000
13.55056 160.000
13.57051 153.000
13.59045 123.000
13.61040 124.000
13.63035 139.000
13.65029 169.000
13.67024 158.000
13.69019 143.000
13.71013 171.000
13.73008 155.000
13.75003 152.000
13.76998 147.000
13.78992 148.000
13.80987 153.000
13.82982 151.000
13.84976 150.000
13.86971 146.000
13.88966 128.000
13.90960 171.000
13.92955 155.000
13.94950 171.000
13.96945 147.000
13.98939 161.000
14.00934 171.000
14.02929 170.000
14.04923 170.000
14.06918 154.000
14.08913 160.000
14.10907 158.000
14.12902 178.000
14.14897 183.000
14.16892 162.000
14.18886 169.000
14.20881 153.000
14.22876 168.000
14.24870 171.000
14.26865 155.000
14.28860 164.000
14.30854 169.000
14.32849 169.000
14.34844 180.000
14.36838 178.000
14.38833 165.000
14.40828 163.000
14.42823 160.000
14.44817 159.000
14.46812 152.000
14.48807 157.000
14.50801 159.000
14.52796 169.000
14.54791 168.000
14.56785 157.000
14.58780 162.000
14.60775 133.000
14.62770 167.000
14.64764 187.000
14.66759 162.000
14.68754 174.000
14.70748 162.000
14.72743 183.000
14.74738 147.000
14.76732 166.000
14.78727 167.000
14.80722 190.000
14.82716 182.000
14.84711 150.000
14.86706 180.000
14.88701 148.000
14.90695 172.000
14.92690 152.000
14.94685 183.000
14.96679 208.000
14.98674 183.000
15.00669 179.000
15.02663 188.000
15.04658 163.000
15.06653 205.000
15.08648 201.000
15.10642 195.000
15.12637 182.000
15.14632 182.000
15.16626 193.000
15.18621 185.000
15.20616 218.000
15.22610 205.000
15.24605 192.000
15.26600 202.000
15.28594 231.000
15.30589 231.000
15.32584 242.000
15.34579 248.000
15.36573 224.000
15.38568 250.000
15.40563 296.000
15.42557 303.000
15.44552 291.000
15.46547 302.000
15.48541 334.000
15.50536 373.000
15.52531 459.000
15.54526 460.000
15.56520 627.000
15.58515 833.000
15.60510 1041.000
15.62504 1562.000
15.64499 2289.000
15.66494 3628.000
15.68488 5205.000
15.70483 6580.000
15.72478 6595.000
15.74472 5123.000
15.76467 3525.000
15.78462 2120.000
15.80457 1198.000
15.82451 696.000
15.84446 503.000
15.86441 364.000
15.88435 343.000
15.90430 277.000
15.92425 250.000
15.94419 263.000
15.96414 215.000
15.98409 197.000
16.00404 233.000
16.02398 185.000
16.04393 188.000
16.06388 166.000
16.08382 180.000
16.10377 178.000
16.12372 195.000
16.14366 177.000
16.16361 198.000
16.18356 186.000
16.20351 191.000
16.22345 155.000
16.24340 156.000
16.26335 175.000
16.28329 176.000
16.30324 184.000
16.32319 197.000
16.34313 174.000
16.36308 153.000
16.38303 156.000
16.40297 164.000
16.42292 153.000
16.44287 159.000
16.46282 173.000
16.48276 171.000
16.50271 154.000
16.52266 160.000
16.54260 157.000
16.56255 143.000
16.58250 152.000
16.60244 135.000
16.62239 147.000
16.64234 140.000
16.66229 163.000
16.68223 138.000
16.70218 157.000
16.72213 125.000
16.74207 157.000
16.76202 162.000
16.78197 158.000
16.80191 160.000
16.82186 141.000
16.84181 142.000
16.86175 155.000
16.88170 130.000
16.90165 121.000
16.92160 127.000
16.94154 156.000
16.96149 137.000
16.98144 134.000
17.00138 136.000
17.02133 134.000
17.04128 147.000
17.06122 145.000
17.08117 158.000
17.10112 133.000
17.12107 141.000
17.14101 132.000
17.16096 131.000
17.18091 138.000
17.20085 120.000
17.22080 165.000
17.24075 153.000
17.26069 129.000
17.28064 140.000
17.30059 151.000
17.32053 137.000
17.34048 154.000
17.36043 144.000
17.38038 142.000
17.40032 151.000
17.42027 123.000
17.44022 149.000
17.46016 138.000
17.48011 154.000
17.50006 140.000
17.52000 156.000
17.53995 142.000
17.55990 126.000
17.57985 133.000
17.59979 149.000
17.61974 154.000
17.63969 124.000
17.65963 148.000
17.67958 141.000
17.69953 159.000
17.71947 154.000
17.73942 163.000
17.75937 128.000
17.77932 142.000
17.79926 166.000
17.81921 156.000
17.83916 144.000
17.85910 128.000
17.87905 147.000
17.89900 158.000
17.91894 139.000
17.93889 147.000
17.95884 135.000
17.97878 129.000
17.99873 138.000
18.01868 153.000
18.03863 148.000
18.05857 148.000
18.07852 126.000
18.09847 120.000
18.11841 154.000
18.13836 155.000
18.15831 158.000
18.17825 164.000
18.19820 160.000
18.21815 167.000
18.23810 166.000
18.25804 189.000
18.27799 199.000
18.29794 235.000
18.31788 241.000
18.33783 420.000
18.35778 480.000
18.37772 574.000
18.39767 633.000
18.41762 609.000
18.43756 562.000
18.45751 476.000
18.47746 451.000
18.49741 390.000
18.51735 327.000
18.53730 287.000
18.55725 244.000
18.57719 190.000
18.59714 179.000
18.61709 180.000
18.63703 167.000
18.65698 161.000
18.67693 146.000
18.69688 151.000
18.71682 152.000
18.73677 148.000
18.75672 148.000
18.77666 145.000
18.79661 157.000
18.81656 130.000
18.83650 157.000
18.85645 137.000
18.87640 133.000
18.89634 152.000
18.91629 161.000
18.93624 153.000
18.95619 139.000
18.97613 130.000
18.99608 165.000
19.01603 150.000
19.03597 149.000
19.05592 133.000
19.07587 153.000
19.09581 138.000
19.11576 181.000
19.13571 154.000
19.15566 140.000
19.17560 133.000
19.19555 132.000
19.21550 145.000
19.23544 141.000
19.25539 158.000
19.27534 127.000
19.29528 164.000
19.31523 134.000
19.33518 150.000
19.35513 149.000
19.37507 152.000
19.39502 152.000
19.41497 130.000
19.43491 158.000
19.45486 152.000
19.47481 151.000
19.49475 139.000
19.51470 162.000
19.53465 174.000
19.55459 154.000
19.57454 141.000
19.59449 147.000
19.61444 164.000
19.63438 141.000
19.65433 142.000
19.67428 155.000
19.69422 147.000
19.71417 148.000
19.73412 153.000
19.75406 149.000
19.77401 159.000
19.79396 140.000
19.81391 128.000
19.83385 141.000
19.85380 139.000
19.87375 149.000
19.89369 151.000
19.91364 153.000
19.93359 149.000
19.95353 120.000
19.97348 153.000
19.99343 163.000
20.01337 141.000
20.03332 136.000
20.05327 132.000
20.07322 145.000
20.09316 134.000
20.11311 156.000
20.13306 164.000
20.15300 153.000
20.17295 168.000
20.19290 135.000
20.21284 136.000
20.23279 161.000
20.25274 152.000
20.27269 136.000
20.29263 149.000
20.31258 148.000
20.33253 151.000
20.35247 156.000
20.37242 148.000
20.39237 137.000
20.41231 157.000
20.43226 132.000
20.45221 130.000
20.47215 143.000
20.49210 165.000
20.51205 160.000
20.53200 159.000
20.55194 142.000
20.57189 156.000
20.59184 156.000
20.61178 150.000
20.63173 155.000
20.65168 144.000
20.67162 141.000
20.69157 151.000
20.71152 142.000
20.73147 141.000
20.75141 155.000
20.77136 165.000
20.79131 163.000
20.81125 139.000
20.83120 143.000
20.85115 159.000
20.87109 153.000
20.89104 147.000
20.91099 139.000
20.93094 122.000
20.95088 140.000
20.97083 150.000
20.99078 153.000
21.01072 150.000
21.03067 150.000
21.05062 145.000
21.07056 141.000
21.09051 165.000
21.11046 164.000
21.13040 172.000
21.15035 179.000
21.17030 195.000
21.19025 143.000
21.21019 173.000
21.23014 153.000
21.25009 132.000
21.27003 152.000
21.28998 140.000
21.30993 130.000
21.32987 173.000
21.34982 156.000
21.36977 147.000
21.38972 142.000
21.40966 155.000
21.42961 152.000
21.44956 154.000
21.46950 145.000
21.48945 174.000
21.50940 151.000
21.52934 138.000
21.54929 158.000
21.56924 143.000
21.58918 134.000
21.60913 156.000
21.62908 152.000
21.64903 157.000
21.66897 146.000
21.68892 159.000
21.70887 153.000
21.72881 164.000
21.74876 149.000
21.76871 143.000
21.78865 176.000
21.80860 154.000
21.82855 149.000
21.84850 163.000
21.86844 175.000
21.88839 151.000
21.90834 184.000
21.92828 149.000
21.94823 139.000
21.96818 144.000
21.98812 161.000
22.00807 150.000
22.02802 175.000
22.04796 174.000
22.06791 166.000
22.08786 137.000
22.10781 140.000
22.12775 143.000
22.14770 136.000
22.16765 150.000
22.18759 160.000
22.20754 146.000
22.22749 152.000
22.24743 159.000
22.26738 158.000
22.28733 163.000
22.30728 158.000
22.32722 160.000
22.34717 187.000
22.36712 134.000
22.38706 158.000
22.40701 137.000
22.42696 147.000
22.44690 163.000
22.46685 120.000
22.48680 140.000
22.50675 171.000
22.52669 175.000
22.54664 146.000
22.56659 140.000
22.58653 137.000
22.60648 149.000
22.62643 134.000
22.64637 163.000
22.66632 172.000
22.68627 155.000
22.70621 167.000
22.72616 160.000
22.74611 155.000
22.76606 140.000
22.78600 144.000
22.80595 159.000
22.82590 150.000
22.84584 162.000
22.86579 176.000
22.88574 150.000
22.90568 157.000
22.92563 135.000
22.94558 166.000
22.96553 167.000
22.98547 141.000
23.00542 151.000
23.02537 150.000
23.04531 150.000
23.06526 160.000
23.08521 173.000
23.10515 160.000
23.12510 158.000
23.14505 168.000
23.16499 161.000
23.18494 146.000
23.20489 162.000
23.22484 164.000
23.24478 141.000
23.26473 134.000
23.28468 159.000
23.30462 157.000
23.32457 167.000
23.34452 149.000
23.36446 167.000
23.38441 163.000
23.40436 161.000
23.42431 156.000
23.44425 154.000
23.46420 142.000
23.48415 157.000
23.50409 164.000
23.52404 161.000
23.54399 153.000
23.56393 180.000
23.58388 154.000
23.60383 162.000
23.62377 179.000
23.64372 182.000
23.66367 178.000
23.68362 153.000
23.70356 155.000
23.72351 146.000
23.74346 136.000
23.76340 148.000
23.78335 159.000
23.80330 153.000
23.82324 145.000
23.84319 158.000
23.86314 156.000
23.88309 133.000
23.90303 174.000
23.92298 169.000
23.94293 156.000
23.96287 168.000
23.98282 171.000
24.00277 148.000
24.02271 169.000
24.04266 143.000
24.06261 176.000
24.08256 161.000
24.10250 172.000
24.12245 162.000
24.14240 153.000
24.16234 140.000
24.18229 153.000
24.20224 162.000
24.22218 194.000
24.24213 180.000
24.26208 138.000
24.28202 165.000
24.30197 170.000
24.32192 164.000
24.34187 164.000
24.36181 152.000
24.38176 179.000
24.40171 187.000
24.42165 181.000
24.44160 151.000
24.46155 161.000
24.48149 148.000
24.50144 168.000
24.52139 171.000
24.54134 181.000
24.56128 179.000
24.58123 174.000
24.60118 160.000
24.62112 158.000
24.64107 185.000
24.66102 146.000
24.68096 180.000
24.70091 165.000
24.72086 152.000
24.74080 175.000
24.76075 154.000
24.78070 183.000
24.80065 159.000
24.82059 170.000
24.84054 141.000
24.86049 190.000
24.88043 171.000
24.90038 143.000
24.92033 175.000
24.94027 164.000
24.96022 176.000
24.98017 158.000
25.00012 173.000
25.02006 164.000
25.04001 150.000
25.05996 159.000
25.07990 198.000
25.09985 189.000
25.11980 118.000
25.13974 167.000
25.15969 184.000
25.17964 174.000
25.19958 172.000
25.21953 161.000
25.23948 218.000
25.25943 168.000
25.27937 181.000
25.29932 166.000
25.31927 194.000
25.33921 151.000
25.35916 161.000
25.37911 153.000
25.39905 161.000
25.41900 169.000
25.43895 171.000
25.45890 198.000
25.47884 166.000
25.49879 155.000
25.51874 152.000
25.53868 194.000
25.55863 172.000
25.57858 178.000
25.59852 176.000
25.61847 181.000
25.63842 172.000
25.65837 165.000
25.67831 154.000
25.69826 150.000
25.71821 185.000
25.73815 186.000
25.75810 194.000
25.77805 210.000
25.79799 185.000
25.81794 184.000
25.83789 167.000
25.85783 179.000
25.87778 176.000
25.89773 190.000
25.91768 171.000
25.93762 177.000
25.95757 170.000
25.97752 155.000
25.99746 175.000
26.01741 189.000
26.03736 174.000
26.05730 171.000
26.07725 166.000
26.09720 184.000
26.11715 167.000
26.13709 203.000
26.15704 195.000
26.17699 181.000
26.19693 172.000
26.21688 168.000
26.23683 178.000
26.25677 184.000
26.27672 205.000
26.29667 159.000
26.31661 184.000
26.33656 178.000
26.35651 191.000
26.37646 197.000
26.39640 162.000
26.41635 174.000
26.43630 183.000
26.45624 199.000
26.47619 167.000
26.49614 196.000
26.51608 178.000
26.53603 170.000
26.55598 172.000
26.57593 163.000
26.59587 181.000
26.61582 188.000
26.63577 185.000
26.65571 202.000
26.67566 178.000
26.69561 184.000
26.71555 177.000
26.73550 205.000
26.75545 197.000
26.77539 192.000
26.79534 191.000
26.81529 190.000
26.83524 210.000
26.85518 183.000
26.87513 186.000
26.89508 187.000
26.91502 182.000
26.93497 193.000
26.95492 178.000
26.97486 168.000
26.99481 155.000
27.01476 193.000
27.03471 186.000
27.05465 187.000
27.07460 183.000
27.09455 201.000
27.11449 232.000
27.13444 198.000
27.15439 166.000
27.17433 219.000
27.19428 206.000
27.21423 198.000
27.23417 200.000
27.25412 183.000
27.27407 190.000
27.29402 233.000
27.31396 198.000
27.33391 186.000
27.35386 187.000
27.37380 198.000
27.39375 181.000
27.41370 199.000
27.43364 206.000
27.45359 201.000
27.47354 194.000
27.49349 204.000
27.51343 182.000
27.53338 196.000
27.55333 184.000
27.57327 195.000
27.59322 171.000
27.61317 190.000
27.63311 206.000
27.65306 197.000
27.67301 196.000
27.69296 158.000
27.71290 179.000
27.73285 183.000
27.75280 201.000
27.77274 207.000
27.79269 171.000
27.81264 202.000
27.83258 195.000
27.85253 181.000
27.87248 218.000
27.89242 178.000
27.91237 208.000
27.93232 172.000
27.95227 190.000
27.97221 191.000
27.99216 180.000
28.01211 187.000
28.03205 171.000
28.05200 182.000
28.07195 192.000
28.09189 171.000
28.11184 189.000
28.13179 213.000
28.15174 199.000
28.17168 219.000
28.19163 188.000
28.21158 206.000
28.23152 192.000
28.25147 198.000
28.27142 197.000
28.29136 215.000
28.31131 191.000
28.33126 188.000
28.35120 200.000
28.37115 204.000
28.39110 195.000
28.41105 215.000
28.43099 197.000
28.45094 225.000
28.47089 226.000
28.49083 204.000
28.51078 175.000
28.53073 202.000
28.55067 209.000
28.57062 209.000
28.59057 207.000
28.61052 198.000
28.63046 206.000
28.65041 208.000
28.67036 199.000
28.69030 178.000
28.71025 176.000
28.73020 175.000
28.75014 208.000
28.77009 192.000
28.79004 199.000
28.80998 199.000
28.82993 195.000
28.84988 191.000
28.86983 178.000
28.88977 218.000
28.90972 214.000
28.92967 204.000
28.94961 212.000
28.96956 192.000
28.98951 225.000
29.00945 214.000
29.02940 214.000
29.04935 211.000
29.06930 214.000
29.08924 211.000
29.10919 198.000
29.12914 214.000
29.14908 221.000
29.16903 201.000
29.18898 192.000
29.20892 204.000
29.22887 211.000
29.24882 199.000
29.26877 190.000
29.28871 227.000
29.30866 179.000
29.32861 231.000
29.34855 215.000
29.36850 224.000
29.38845 204.000
29.40839 212.000
29.42834 195.000
29.44829 207.000
29.46823 216.000
29.48818 207.000
29.50813 224.000
29.52808 212.000
29.54802 208.000
29.56797 214.000
29.58792 209.000
29.60786 215.000
29.62781 243.000
29.64776 199.000
29.66770 223.000
29.68765 205.000
29.70760 217.000
29.72755 233.000
29.74749 195.000
29.76744 224.000
29.78739 193.000
29.80733 214.000
29.82728 224.000
29.84723 222.000
29.86717 207.000
29.88712 209.000
29.90707 230.000
29.92701 223.000
29.94696 249.000
29.96691 232.000
29.98686 238.000
30.00680 215.000
30.02675 268.000
30.04670 243.000
30.06664 258.000
30.08659 287.000
30.10654 278.000
30.12648 281.000
30.14643 328.000
30.16638 412.000
30.18633 518.000
30.20627 582.000
30.22622 626.000
30.24617 716.000
30.26611 738.000
30.28606 699.000
30.30601 771.000
30.32595 666.000
30.34590 648.000
30.36585 606.000
30.38579 561.000
30.40574 541.000
30.42569 499.000
30.44564 471.000
30.46558 437.000
30.48553 399.000
30.50548 376.000
30.52542 327.000
30.54537 296.000
30.56532 290.000
30.58526 261.000
30.60521 254.000
30.62516 281.000
30.64511 225.000
30.66505 235.000
30.68500 231.000
30.70495 246.000
30.72489 241.000
30.74484 245.000
30.76479 203.000
30.78473 217.000
30.80468 238.000
30.82463 221.000
30.84458 228.000
30.86452 229.000
30.88447 231.000
30.90442 233.000
30.92436 229.000
30.94431 228.000
30.96426 217.000
30.98420 213.000
31.00415 217.000
31.02410 210.000
31.04404 217.000
31.06399 201.000
31.08394 189.000
31.10389 233.000
31.12383 226.000
31.14378 216.000
31.16373 229.000
31.18367 216.000
31.20362 229.000
31.22357 234.000
31.24351 219.000
31.26346 201.000
31.28341 210.000
31.30336 205.000
31.32330 197.000
31.34325 217.000
31.36320 217.000
31.38314 258.000
31.40309 218.000
31.42304 228.000
31.44298 224.000
31.46293 213.000
31.48288 202.000
31.50282 228.000
31.52277 246.000
31.54272 261.000
31.56267 262.000
31.58261 248.000
31.60256 295.000
31.62251 275.000
31.64245 344.000
31.66240 364.000
31.68235 482.000
31.70229 521.000
31.72224 589.000
31.74219 598.000
31.76214 585.000
31.78208 541.000
31.80203 549.000
31.82198 490.000
31.84192 416.000
31.86187 369.000
31.88182 317.000
31.90176 312.000
31.92171 265.000
31.94166 249.000
31.96160 235.000
31.98155 246.000
32.00150 216.000
32.02145 217.000
32.04139 240.000
32.06134 206.000
32.08129 199.000
32.10123 197.000
32.12118 199.000
32.14113 242.000
32.16107 213.000
32.18102 238.000
32.20097 195.000
32.22092 212.000
32.24086 220.000
32.26081 216.000
32.28076 202.000
32.30070 205.000
32.32065 199.000
32.34060 217.000
32.36054 205.000
32.38049 232.000
32.40044 226.000
32.42039 224.000
32.44033 222.000
32.46028 224.000
32.48023 213.000
32.50017 210.000
32.52012 215.000
32.54007 223.000
32.56001 207.000
32.57996 205.000
32.59991 214.000
32.61985 205.000
32.63980 214.000
32.65975 207.000
32.67970 221.000
32.69964 223.000
32.71959 189.000
32.73954 236.000
32.75948 231.000
32.77943 194.000
32.79938 218.000
32.81932 172.000
32.83927 209.000
32.85922 196.000
32.87917 235.000
32.89911 200.000
32.91906 186.000
32.93901 230.000
32.95895 206.000
32.97890 201.000
32.99885 199.000
33.01879 231.000
33.03874 204.000
33.05869 214.000
33.07863 183.000
33.09858 219.000
33.11853 207.000
33.13848 190.000
33.15842 211.000
33.17837 207.000
33.19832 202.000
33.21826 197.000
33.23821 216.000
33.25816 181.000
33.27810 207.000
33.29805 220.000
33.31800 200.000
33.33795 201.000
33.35789 176.000
33.37784 193.000
33.39779 222.000
33.41773 215.000
33.43768 203.000
33.45763 169.000
33.47757 210.000
33.49752 246.000
33.51747 211.000
33.53741 191.000
33.55736 199.000
33.57731 186.000
33.59726 193.000
33.61720 226.000
33.63715 190.000
33.65710 212.000
33.67704 211.000
33.69699 177.000
33.71694 199.000
33.73688 206.000
33.75683 212.000
33.77678 211.000
33.79673 214.000
33.81667 185.000
33.83662 195.000
33.85657 194.000
33.87651 197.000
33.89646 195.000
33.91641 228.000
33.93635 200.000
33.95630 202.000
33.97625 211.000
33.99620 216.000
34.01614 213.000
34.03609 202.000
34.05604 219.000
34.07598 200.000
34.09593 184.000
34.11588 206.000
34.13582 185.000
34.15577 192.000
34.17572 205.000
34.19566 190.000
34.21561 231.000
34.23556 182.000
34.25551 216.000
34.27545 184.000
34.29540 199.000
34.31535 204.000
34.33529 194.000
34.35524 208.000
34.37519 200.000
34.39513 196.000
34.41508 202.000
34.43503 209.000
34.45498 191.000
34.47492 196.000
34.49487 189.000
34.51482 229.000
34.53476 198.000
34.55471 236.000
34.57466 195.000
34.59460 211.000
34.61455 210.000
34.63450 206.000
34.65444 198.000
34.67439 232.000
34.69434 241.000
34.71429 215.000
34.73423 209.000
34.75418 202.000
34.77413 249.000
34.79407 204.000
34.81402 207.000
34.83397 249.000
34.85391 237.000
34.87386 217.000
34.89381 199.000
34.91376 210.000
34.93370 231.000
34.95365 232.000
34.97360 209.000
34.99354 218.000
35.01349 218.000
35.03344 219.000
35.05338 227.000
35.07333 207.000
35.09328 224.000
35.11322 210.000
35.13317 213.000
35.15312 201.000
35.17307 252.000
35.19301 249.000
35.21296 234.000
35.23291 247.000
35.25285 251.000
35.27280 244.000
35.29275 237.000
35.31269 269.000
35.33264 261.000
35.35259 231.000
35.37254 309.000
35.39248 313.000
35.41243 333.000
35.43238 298.000
35.45232 389.000
35.47227 417.000
35.49222 509.000
35.51216 635.000
35.53211 805.000
35.55206 1024.000
35.57201 1284.000
35.59195 1449.000
35.61190 1483.000
35.63185 1584.000
35.65179 1595.000
35.67174 1747.000
35.69169 1748.000
35.71163 1658.000
35.73158 1577.000
35.75153 1506.000
35.77147 1408.000
35.79142 1320.000
35.81137 1278.000
35.83132 1166.000
35.85126 1094.000
35.87121 1040.000
35.89116 996.000
35.91110 896.000
35.93105 891.000
35.95100 964.000
35.97094 999.000
35.99089 947.000
36.01084 716.000
36.03079 664.000
36.05073 643.000
36.07068 570.000
36.09063 520.000
36.11057 433.000
36.13052 361.000
36.15047 335.000
36.17041 300.000
36.19036 265.000
36.21031 283.000
36.23025 252.000
36.25020 253.000
36.27015 258.000
36.29010 240.000
36.31004 225.000
36.32999 256.000
36.34994 237.000
36.36988 251.000
36.38983 243.000
36.40978 258.000
36.42972 277.000
36.44967 266.000
36.46962 237.000
36.48957 234.000
36.50951 253.000
36.52946 229.000
36.54941 258.000
36.56935 215.000
36.58930 224.000
36.60925 217.000
36.62919 238.000
36.64914 186.000
36.66909 241.000
36.68903 220.000
36.70898 222.000
36.72893 206.000
36.74888 223.000
36.76882 200.000
36.78877 232.000
36.80872 197.000
36.82866 240.000
36.84861 221.000
36.86856 238.000
36.88850 239.000
36.90845 248.000
36.92840 229.000
36.94835 215.000
36.96829 250.000
36.98824 238.000
37.00819 192.000
37.02813 232.000
37.04808 204.000
37.06803 203.000
37.08797 222.000
37.10792 218.000
37.12787 237.000
37.14781 243.000
37.16776 236.000
37.18771 261.000
37.20766 284.000
37.22760 309.000
37.24755 306.000
37.26750 309.000
37.28744 319.000
37.30739 312.000
37.32734 358.000
37.34728 331.000
37.36723 346.000
37.38718 328.000
37.40713 317.000
37.42707 317.000
37.44702 352.000
37.46697 297.000
37.48691 301.000
37.50686 304.000
37.52681 290.000
37.54675 313.000
37.56670 284.000
37.58665 311.000
37.60660 297.000
37.62654 335.000
37.64649 282.000
37.66644 283.000
37.68638 313.000
37.70633 253.000
37.72628 269.000
37.74622 264.000
37.76617 267.000
37.78612 233.000
37.80606 235.000
37.82601 211.000
37.84596 233.000
37.86591 202.000
37.88585 213.000
37.90580 186.000
37.92575 193.000
37.94569 185.000
37.96564 211.000
37.98559 209.000
38.00553 190.000
38.02548 218.000
38.04543 191.000
38.06538 170.000
38.08532 184.000
38.10527 177.000
38.12522 210.000
38.14516 198.000
38.16511 211.000
38.18506 193.000
38.20500 154.000
38.22495 190.000
38.24490 175.000
38.26484 196.000
38.28479 217.000
38.30474 212.000
38.32469 205.000
38.34463 193.000
38.36458 190.000
38.38453 217.000
38.40447 187.000
38.42442 199.000
38.44437 225.000
38.46431 212.000
38.48426 221.000
38.50421 204.000
38.52416 214.000
38.54410 229.000
38.56405 194.000
38.58400 213.000
38.60394 223.000
38.62389 195.000
38.64384 238.000
38.66378 208.000
38.68373 226.000
38.70368 220.000
38.72362 237.000
38.74357 241.000
38.76352 234.000
38.78347 231.000
38.80341 227.000
38.82336 223.000
38.84331 241.000
38.86325 216.000
38.88320 220.000
38.90315 233.000
38.92309 241.000
38.94304 222.000
38.96299 200.000
38.98294 227.000
39.00288 213.000
39.02283 225.000
39.04278 221.000
39.06272 222.000
39.08267 202.000
39.10262 197.000
39.12256 242.000
39.14251 192.000
39.16246 235.000
39.18241 239.000
39.20235 248.000
39.22230 250.000
39.24225 237.000
39.26219 240.000
39.28214 227.000
39.30209 293.000
39.32203 275.000
39.34198 311.000
39.36193 341.000
39.38187 384.000
39.40182 420.000
39.42177 532.000
39.44172 720.000
39.46166 948.000
39.48161 1014.000
39.50156 988.000
39.52150 780.000
39.54145 688.000
39.56140 737.000
39.58134 712.000
39.60129 671.000
39.62124 519.000
39.64119 389.000
39.66113 357.000
39.68108 293.000
39.70103 265.000
39.72097 218.000
39.74092 206.000
39.76087 219.000
39.78081 250.000
39.80076 180.000
39.82071 192.000
39.84065 205.000
39.86060 209.000
39.88055 217.000
39.90050 184.000
39.92044 194.000
39.94039 173.000
39.96034 206.000
39.98028 201.000
40.00023 207.000
40.02018 198.000
40.04012 183.000
40.06007 195.000
40.08002 185.000
40.09997 210.000
40.11991 176.000
40.13986 192.000
40.15981 164.000
40.17975 186.000
40.19970 196.000
40.21965 184.000
40.23959 159.000
40.25954 187.000
40.27949 164.000
40.29943 179.000
40.31938 147.000
40.33933 166.000
40.35928 178.000
40.37922 187.000
40.39917 181.000
40.41912 190.000
40.43906 176.000
40.45901 176.000
40.47896 175.000
40.49890 161.000
40.51885 185.000
40.53880 200.000
40.55875 165.000
40.57869 188.000
40.59864 170.000
40.61859 163.000
40.63853 178.000
40.65848 180.000
40.67843 186.000
40.69837 149.000
40.71832 188.000
40.73827 194.000
40.75822 181.000
40.77816 189.000
40.79811 172.000
40.81806 180.000
40.83800 195.000
40.85795 179.000
40.87790 189.000
40.89784 184.000
40.91779 201.000
40.93774 171.000
40.95768 203.000
40.97763 195.000
40.99758 170.000
41.01753 159.000
41.03747 158.000
41.05742 167.000
41.07737 179.000
41.09731 141.000
41.11726 194.000
41.13721 170.000
41.15715 181.000
41.17710 173.000
41.19705 178.000
41.21700 159.000
41.23694 176.000
41.25689 184.000
41.27684 194.000
41.29678 169.000
41.31673 180.000
41.33668 182.000
41.35662 155.000
41.37657 165.000
41.39652 168.000
41.41646 196.000
41.43641 177.000
41.45636 195.000
41.47631 169.000
41.49625 192.000
41.51620 191.000
41.53615 192.000
41.55609 180.000
41.57604 170.000
41.59599 175.000
41.61593 202.000
41.63588 186.000
41.65583 184.000
41.67578 176.000
41.69572 181.000
41.71567 193.000
41.73562 181.000
41.75556 170.000
41.77551 168.000
41.79546 170.000
41.81540 169.000
41.83535 209.000
41.85530 173.000
41.87524 186.000
41.89519 183.000
41.91514 204.000
41.93509 191.000
41.95503 201.000
41.97498 194.000
41.99493 198.000
42.01487 206.000
42.03482 203.000
42.05477 207.000
42.07471 177.000
42.09466 190.000
42.11461 193.000
42.13456 189.000
42.15450 150.000
42.17445 192.000
42.19440 150.000
42.21434 187.000
42.23429 162.000
42.25424 205.000
42.27418 170.000
42.29413 195.000
42.31408 188.000
42.33403 169.000
42.35397 177.000
42.37392 171.000
42.39387 173.000
42.41381 168.000
42.43376 182.000
42.45371 189.000
42.47365 197.000
42.49360 190.000
42.51355 188.000
42.53349 181.000
42.55344 184.000
42.57339 169.000
42.59334 200.000
42.61328 176.000
42.63323 183.000
42.65318 198.000
42.67312 170.000
42.69307 186.000
42.71302 178.000
42.73296 163.000
42.75291 176.000
42.77286 188.000
42.79281 178.000
42.81275 169.000
42.83270 179.000
42.85265 200.000
42.87259 188.000
42.89254 220.000
42.91249 179.000
42.93243 207.000
42.95238 219.000
42.97233 200.000
42.99227 205.000
43.01222 203.000
43.03217 205.000
43.05212 214.000
43.07206 205.000
43.09201 221.000
43.11196 255.000
43.13190 252.000
43.15185 269.000
43.17180 309.000
43.19174 351.000
43.21169 367.000
43.23164 389.000
43.25159 395.000
43.27153 390.000
43.29148 420.000
43.31143 463.000
43.33137 462.000
43.35132 485.000
43.37127 518.000
43.39121 534.000
43.41116 483.000
43.43111 496.000
43.45105 519.000
43.47100 561.000
43.49095 584.000
43.51090 661.000
43.53084 648.000
43.55079 624.000
43.57074 583.000
43.59068 476.000
43.61063 506.000
43.63058 507.000
43.65052 482.000
43.67047 423.000
43.69042 357.000
43.71037 275.000
43.73031 306.000
43.75026 265.000
43.77021 233.000
43.79015 247.000
43.81010 233.000
43.83005 223.000
43.84999 210.000
43.86994 228.000
43.88989 204.000
43.90984 203.000
43.92978 204.000
43.94973 203.000
43.96968 186.000
43.98962 199.000
44.00957 178.000
44.02952 176.000
44.04946 189.000
44.06941 165.000
44.08936 198.000
44.10930 190.000
44.12925 202.000
44.14920 161.000
44.16915 166.000
44.18909 175.000
44.20904 186.000
44.22899 173.000
44.24893 187.000
44.26888 189.000
44.28883 199.000
44.30877 172.000
44.32872 209.000
44.34867 183.000
44.36862 165.000
44.38856 184.000
44.40851 171.000
44.42846 175.000
44.44840 180.000
44.46835 163.000
44.48830 166.000
44.50824 216.000
44.52819 171.000
44.54814 194.000
44.56808 209.000
44.58803 184.000
44.60798 194.000
44.62793 191.000
44.64787 191.000
44.66782 173.000
44.68777 198.000
44.70771 195.000
44.72766 171.000
44.74761 179.000
44.76755 194.000
44.78750 208.000
44.80745 202.000
44.82740 216.000
44.84734 215.000
44.86729 224.000
44.88724 200.000
44.90718 209.000
44.92713 211.000
44.94708 234.000
44.96702 224.000
44.98697 222.000
45.00692 225.000
45.02686 215.000
45.04681 227.000
45.06676 249.000
45.08671 207.000
45.10665 247.000
45.12660 213.000
45.14655 219.000
45.16649 234.000
45.18644 226.000
45.20639 231.000
45.22633 241.000
45.24628 240.000
45.26623 254.000
45.28618 242.000
45.30612 215.000
45.32607 240.000
45.34602 226.000
45.36596 219.000
45.38591 230.000
45.40586 226.000
45.42580 235.000
45.44575 222.000
45.46570 188.000
45.48565 188.000
45.50559 199.000
45.52554 201.000
45.54549 197.000
45.56543 202.000
45.58538 187.000
45.60533 206.000
45.62527 193.000
45.64522 186.000
45.66517 162.000
45.68511 157.000
45.70506 182.000
45.72501 165.000
45.74496 175.000
45.76490 164.000
45.78485 167.000
45.80480 179.000
45.82474 152.000
45.84469 164.000
45.86464 176.000
45.88458 196.000
45.90453 177.000
45.92448 182.000
45.94443 155.000
45.96437 174.000
45.98432 192.000
46.00427 160.000
46.02421 169.000
46.04416 156.000
46.06411 154.000
46.08405 174.000
46.10400 165.000
46.12395 161.000
46.14389 178.000
46.16384 186.000
46.18379 164.000
46.20374 156.000
46.22368 162.000
46.24363 163.000
46.26358 172.000
46.28352 184.000
46.30347 163.000
46.32342 169.000
46.34336 154.000
46.36331 190.000
46.38326 170.000
46.40321 175.000
46.42315 167.000
46.44310 173.000
46.46305 180.000
46.48299 160.000
46.50294 161.000
46.52289 173.000
46.54283 150.000
46.56278 161.000
46.58273 179.000
46.60267 144.000
46.62262 161.000
46.64257 154.000
46.66252 149.000
46.68246 198.000
46.70241 160.000
46.72236 155.000
46.74230 167.000
46.76225 173.000
46.78220 146.000
46.80214 159.000
46.82209 164.000
46.84204 173.000
46.86199 142.000
46.88193 156.000
46.90188 165.000
46.92183 188.000
46.94177 149.000
46.96172 170.000
46.98167 153.000
47.00161 155.000
47.02156 169.000
47.04151 159.000
47.06146 165.000
47.08140 170.000
47.10135 169.000
47.12130 169.000
47.14124 147.000
47.16119 190.000
47.18114 156.000
47.20108 166.000
47.22103 177.000
47.24098 196.000
47.26092 153.000
47.28087 165.000
47.30082 157.000
47.32077 179.000
47.34071 147.000
47.36066 154.000
47.38061 159.000
47.40055 153.000
47.42050 164.000
47.44045 165.000
47.46039 153.000
47.48034 178.000
47.50029 171.000
47.52024 163.000
47.54018 167.000
47.56013 182.000
47.58008 158.000
47.60002 153.000
47.61997 154.000
47.63992 158.000
47.65986 162.000
47.67981 177.000
47.69976 167.000
47.71970 150.000
47.73965 175.000
47.75960 173.000
47.77955 168.000
47.79949 154.000
47.81944 185.000
47.83939 172.000
47.85933 178.000
47.87928 174.000
47.89923 160.000
47.91917 175.000
47.93912 192.000
47.95907 166.000
47.97902 173.000
47.99896 178.000
48.01891 177.000
48.03886 172.000
48.05880 169.000
48.07875 185.000
48.09870 176.000
48.11864 175.000
48.13859 183.000
48.15854 198.000
48.17848 171.000
48.19843 189.000
48.21838 187.000
48.23833 170.000
48.25827 192.000
48.27822 195.000
48.29817 185.000
48.31811 187.000
48.33806 178.000
48.35801 193.000
48.37795 186.000
48.39790 195.000
48.41785 182.000
48.43780 198.000
48.45774 222.000
48.47769 193.000
48.49764 242.000
48.51758 246.000
48.53753 261.000
48.55748 268.000
48.57742 301.000
48.59737 331.000
48.61732 353.000
48.63726 378.000
48.65721 505.000
48.67716 607.000
48.69711 726.000
48.71705 805.000
48.73700 829.000
48.75695 793.000
48.77689 713.000
48.79684 658.000
48.81679 589.000
48.83673 643.000
48.85668 595.000
48.87663 568.000
48.89658 472.000
48.91652 380.000
48.93647 318.000
48.95642 286.000
48.97636 231.000
48.99631 245.000
49.01626 238.000
49.03620 223.000
49.05615 185.000
49.07610 224.000
49.09605 191.000
49.11599 193.000
49.13594 172.000
49.15589 194.000
49.17583 178.000
49.19578 190.000
49.21573 175.000
49.23567 182.000
49.25562 187.000
49.27557 178.000
49.29551 178.000
49.31546 180.000
49.33541 178.000
49.35536 142.000
49.37530 147.000
49.39525 183.000
49.41520 157.000
49.43514 176.000
49.45509 162.000
49.47504 164.000
49.49498 179.000
49.51493 154.000
49.53488 171.000
49.55483 162.000
49.57477 170.000
49.59472 138.000
49.61467 151.000
49.63461 178.000
49.65456 192.000
49.67451 150.000
49.69445 143.000
49.71440 163.000
49.73435 181.000
49.75429 162.000
49.77424 169.000
49.79419 143.000
49.81414 136.000
49.83408 166.000
49.85403 163.000
49.87398 160.000
49.89392 151.000
49.91387 160.000
49.93382 156.000
49.95376 136.000
49.97371 158.000
49.99366 145.000
50.01361 168.000
50.03355 184.000
50.05350 153.000
50.07345 146.000
50.09339 168.000
50.11334 139.000
50.13329 171.000
50.15323 152.000
50.17318 152.000
50.19313 147.000
50.21307 153.000
50.23302 145.000
50.25297 156.000
50.27292 162.000
50.29286 165.000
50.31281 139.000
50.33276 134.000
50.35270 138.000
50.37265 158.000
50.39260 140.000
50.41254 148.000
50.43249 153.000
50.45244 149.000
50.47239 153.000
50.49233 164.000
50.51228 162.000
50.53223 147.000
50.55217 168.000
50.57212 137.000
50.59207 147.000
50.61201 150.000
50.63196 163.000
50.65191 159.000
50.67186 153.000
50.69180 132.000
50.71175 145.000
50.73170 136.000
50.75164 155.000
50.77159 133.000
50.79154 150.000
50.81148 163.000
50.83143 153.000
50.85138 143.000
50.87132 146.000
50.89127 141.000
50.91122 136.000
50.93117 167.000
50.95111 157.000
50.97106 135.000
50.99101 151.000
51.01095 157.000
51.03090 135.000
51.05085 202.000
51.07079 157.000
51.09074 157.000
51.11069 166.000
51.13064 168.000
51.15058 148.000
51.17053 142.000
51.19048 163.000
51.21042 150.000
51.23037 157.000
51.25032 139.000
51.27026 155.000
51.29021 141.000
51.31016 152.000
51.33010 156.000
51.35005 150.000
51.37000 153.000
51.38995 164.000
51.40989 133.000
51.42984 181.000
51.44979 146.000
51.46973 152.000
51.48968 143.000
51.50963 169.000
51.52957 148.000
51.54952 163.000
51.56947 149.000
51.58942 155.000
51.60936 145.000
51.62931 152.000
51.64926 146.000
51.66920 137.000
51.68915 148.000
51.70910 165.000
51.72904 180.000
51.74899 155.000
51.76894 169.000
51.78888 158.000
51.80883 142.000
51.82878 151.000
51.84873 146.000
51.86867 150.000
51.88862 148.000
51.90857 151.000
51.92851 165.000
51.94846 138.000
51.96841 171.000
51.98835 180.000
52.00830 171.000
52.02825 159.000
52.04820 139.000
52.06814 149.000
52.08809 149.000
52.10804 167.000
52.12798 144.000
52.14793 158.000
52.16788 142.000
52.18782 150.000
52.20777 168.000
52.22772 165.000
52.24767 164.000
52.26761 175.000
52.28756 151.000
52.30751 160.000
52.32745 150.000
52.34740 150.000
52.36735 164.000
52.38729 150.000
52.40724 186.000
52.42719 159.000
52.44713 154.000
52.46708 165.000
52.48703 177.000
52.50698 148.000
52.52692 146.000
52.54687 181.000
52.56682 159.000
52.58676 178.000
52.60671 146.000
52.62666 140.000
52.64660 195.000
52.66655 164.000
52.68650 178.000
52.70645 162.000
52.72639 182.000
52.74634 156.000
52.76629 161.000
52.78623 190.000
52.80618 174.000
52.82613 163.000
52.84607 157.000
52.86602 173.000
52.88597 175.000
52.90591 159.000
52.92586 168.000
52.94581 169.000
52.96576 140.000
52.98570 148.000
53.00565 148.000
53.02560 163.000
53.04554 178.000
53.06549 184.000
53.08544 150.000
53.10538 146.000
53.12533 161.000
53.14528 140.000
53.16523 177.000
53.18517 150.000
53.20512 144.000
53.22507 130.000
53.24501 169.000
53.26496 168.000
53.28491 159.000
53.30485 161.000
53.32480 144.000
53.34475 160.000
53.36469 163.000
53.38464 144.000
53.40459 156.000
53.42454 156.000
53.44448 177.000
53.46443 176.000
53.48438 166.000
53.50432 150.000
53.52427 203.000
53.54422 187.000
53.56416 169.000
53.58411 186.000
53.60406 178.000
53.62401 216.000
53.64395 217.000
53.66390 203.000
53.68385 220.000
53.70379 219.000
53.72374 193.000
53.74369 221.000
53.76363 249.000
53.78358 242.000
53.80353 224.000
53.82348 226.000
53.84342 244.000
53.86337 218.000
53.88332 234.000
53.90326 213.000
53.92321 216.000
53.94316 208.000
53.96310 242.000
53.98305 182.000
54.00300 209.000
54.02294 221.000
54.04289 201.000
54.06284 199.000
54.08279 174.000
54.10273 203.000
54.12268 219.000
54.14263 191.000
54.16257 194.000
54.18252 179.000
54.20247 212.000
54.22241 180.000
54.24236 157.000
54.26231 196.000
54.28226 172.000
54.30220 163.000
54.32215 143.000
54.34210 167.000
54.36204 172.000
54.38199 174.000
54.40194 169.000
54.42188 153.000
54.44183 182.000
54.46178 150.000
54.48172 176.000
54.50167 149.000
54.52162 155.000
54.54157 136.000
54.56151 177.000
54.58146 160.000
54.60141 167.000
54.62135 162.000
54.64130 161.000
54.66125 154.000
54.68119 151.000
54.70114 143.000
54.72109 162.000
54.74104 174.000
54.76098 142.000
54.78093 140.000
54.80088 157.000
54.82082 162.000
54.84077 152.000
54.86072 156.000
54.88066 153.000
54.90061 150.000
54.92056 144.000
54.94050 161.000
54.96045 150.000
54.98040 140.000
55.00035 171.000
55.02029 158.000
55.04024 158.000
55.06019 147.000
55.08013 154.000
55.10008 158.000
55.12003 153.000
55.13997 177.000
55.15992 136.000
55.17987 145.000
55.19982 150.000
55.21976 155.000
55.23971 143.000
55.25966 144.000
55.27960 154.000
55.29955 147.000
55.31950 169.000
55.33944 122.000
55.35939 139.000
55.37934 161.000
55.39929 141.000
55.41923 148.000
55.43918 150.000
55.45913 137.000
55.47907 157.000
55.49902 148.000
55.51897 141.000
55.53891 139.000
55.55886 164.000
55.57881 158.000
55.59875 152.000
55.61870 160.000
55.63865 174.000
55.65860 169.000
55.67854 152.000
55.69849 170.000
55.71844 145.000
55.73838 142.000
55.75833 140.000
55.77828 155.000
55.79822 155.000
55.81817 165.000
55.83812 152.000
55.85807 152.000
55.87801 148.000
55.89796 156.000
55.91791 153.000
55.93785 200.000
55.95780 158.000
55.97775 139.000
55.99769 152.000
56.01764 143.000
56.03759 155.000
56.05753 138.000
56.07748 162.000
56.09743 161.000
56.11738 128.000
56.13732 165.000
56.15727 154.000
56.17722 155.000
56.19716 154.000
56.21711 150.000
56.23706 160.000
56.25700 151.000
56.27695 161.000
56.29690 147.000
56.31685 142.000
56.33679 157.000
56.35674 162.000
56.37669 170.000
56.39663 145.000
56.41658 150.000
56.43653 162.000
56.45647 145.000
56.47642 187.000
56.49637 169.000
56.51631 157.000
56.53626 149.000
56.55621 154.000
56.57616 133.000
56.59610 161.000
56.61605 153.000
56.63600 170.000
56.65594 164.000
56.67589 158.000
56.69584 144.000
56.71578 168.000
56.73573 185.000
56.75568 170.000
56.77563 169.000
56.79557 171.000
56.81552 165.000
56.83547 181.000
56.85541 184.000
56.87536 201.000
56.89531 176.000
56.91525 170.000
56.93520 184.000
56.95515 180.000
56.97510 188.000
56.99504 187.000
57.01499 188.000
57.03494 201.000
57.05488 193.000
57.07483 223.000
57.09478 273.000
57.11472 272.000
57.13467 309.000
57.15462 338.000
57.17456 356.000
57.19451 408.000
57.21446 444.000
57.23441 441.000
57.25435 498.000
57.27430 517.000
57.29425 476.000
57.31419 513.000
57.33414 530.000
57.35409 505.000
57.37403 491.000
57.39398 507.000
57.41393 476.000
57.43388 474.000
57.45382 488.000
57.47377 456.000
57.49372 461.000
57.51366 438.000
57.53361 427.000
57.55356 395.000
57.57350 435.000
57.59345 359.000
57.61340 351.000
57.63334 409.000
57.65329 355.000
57.67324 373.000
57.69319 340.000
57.71313 285.000
57.73308 287.000
57.75303 259.000
57.77297 295.000
57.79292 256.000
57.81287 273.000
57.83281 217.000
57.85276 255.000
57.87271 252.000
57.89266 221.000
57.91260 190.000
57.93255 195.000
57.95250 203.000
57.97244 179.000
57.99239 182.000
58.01234 173.000
58.03228 170.000
58.05223 167.000
58.07218 165.000
58.09212 199.000
58.11207 164.000
58.13202 188.000
58.15197 157.000
58.17191 206.000
58.19186 175.000
58.21181 153.000
58.23175 162.000
58.25170 164.000
58.27165 134.000
58.29159 156.000
58.31154 173.000
58.33149 183.000
58.35144 156.000
58.37138 152.000
58.39133 152.000
58.41128 144.000
58.43122 176.000
58.45117 178.000
58.47112 141.000
58.49106 149.000
58.51101 150.000
58.53096 158.000
58.55090 139.000
58.57085 138.000
58.59080 161.000
58.61075 148.000
58.63069 159.000
58.65064 138.000
58.67059 136.000
58.69053 141.000
58.71048 165.000
58.73043 153.000
58.75037 165.000
58.77032 148.000
58.79027 143.000
58.81022 165.000
58.83016 163.000
58.85011 134.000
58.87006 128.000
58.89000 165.000
58.90995 139.000
58.92990 162.000
58.94984 139.000
58.96979 154.000
58.98974 157.000
59.00969 171.000
59.02963 148.000
59.04958 175.000
59.06953 154.000
59.08947 175.000
59.10942 141.000
59.12937 138.000
59.14931 152.000
59.16926 163.000
59.18921 142.000
59.20915 148.000
59.22910 124.000
59.24905 149.000
59.26900 155.000
59.28894 140.000
59.30889 159.000
59.32884 159.000
59.34878 173.000
59.36873 140.000
59.38868 160.000
59.40862 168.000
59.42857 154.000
59.44852 139.000
59.46847 156.000
59.48841 162.000
59.50836 140.000
59.52831 154.000
59.54825 149.000
59.56820 134.000
59.58815 133.000
59.60809 150.000
59.62804 138.000
59.64799 161.000
59.66793 129.000
59.68788 147.000
59.70783 161.000
59.72778 153.000
59.74772 151.000
59.76767 152.000
59.78762 153.000
59.80756 172.000
59.82751 130.000
59.84746 120.000
59.86740 176.000
59.88735 153.000
59.90730 147.000
59.92725 153.000
59.94719 153.000
59.96714 164.000
59.98709 132.000
60.00703 141.000
60.02698 161.000
60.04693 153.000
60.06687 176.000
60.08682 146.000
60.10677 157.000
60.12671 137.000
60.14666 171.000
60.16661 166.000
60.18656 165.000
60.20650 166.000
60.22645 164.000
60.24640 172.000
60.26634 153.000
60.28629 154.000
60.30624 156.000
60.32618 139.000
60.34613 167.000
60.36608 153.000
60.38603 139.000
60.40597 148.000
60.42592 139.000
60.44587 131.000
60.46581 164.000
60.48576 149.000
60.50571 120.000
60.52565 162.000
60.54560 132.000
60.56555 171.000
60.58550 148.000
60.60544 150.000
60.62539 147.000
60.64534 164.000
60.66528 170.000
60.68523 144.000
60.70518 167.000
60.72512 159.000
60.74507 142.000
60.76502 170.000
60.78496 148.000
60.80491 140.000
60.82486 140.000
60.84481 158.000
60.86475 149.000
60.88470 147.000
60.90465 143.000
60.92459 154.000
60.94454 147.000
60.96449 194.000
60.98443 145.000
61.00438 173.000
61.02433 165.000
61.04428 151.000
61.06422 159.000
61.08417 164.000
61.10412 144.000
61.12406 159.000
61.14401 156.000
61.16396 176.000
61.18390 141.000
61.20385 158.000
61.22380 140.000
61.24374 150.000
61.26369 144.000
61.28364 154.000
61.30359 185.000
61.32353 151.000
61.34348 137.000
61.36343 155.000
61.38337 154.000
61.40332 174.000
61.42327 160.000
61.44321 189.000
61.46316 179.000
61.48311 184.000
61.50306 161.000
61.52300 198.000
61.54295 173.000
61.56290 185.000
61.58284 186.000
61.60279 208.000
61.62274 219.000
61.64268 232.000
61.66263 237.000
61.68258 257.000
61.70252 273.000
61.72247 297.000
61.74242 302.000
61.76237 373.000
61.78231 375.000
61.80226 379.000
61.82221 389.000
61.84215 328.000
61.86210 341.000
61.88205 321.000
61.90199 337.000
61.92194 328.000
61.94189 293.000
61.96184 306.000
61.98178 305.000
62.00173 271.000
62.02168 251.000
62.04162 230.000
62.06157 242.000
62.08152 224.000
62.10146 236.000
62.12141 213.000
62.14136 172.000
62.16131 164.000
62.18125 173.000
62.20120 185.000
62.22115 162.000
62.24109 179.000
62.26104 179.000
62.28099 174.000
62.30093 185.000
62.32088 166.000
62.34083 171.000
62.36077 176.000
62.38072 171.000
62.40067 164.000
62.42062 176.000
62.44056 173.000
62.46051 170.000
62.48046 176.000
62.50040 180.000
62.52035 182.000
62.54030 164.000
62.56024 206.000
62.58019 188.000
62.60014 189.000
62.62009 196.000
62.64003 202.000
62.65998 198.000
62.67993 206.000
62.69987 209.000
62.71982 236.000
62.73977 294.000
62.75971 292.000
62.77966 316.000
62.79961 356.000
62.81955 364.000
62.83950 378.000
62.85945 400.000
62.87940 425.000
62.89934 418.000
62.91929 468.000
62.93924 479.000
62.95918 489.000
62.97913 475.000
62.99908 445.000
63.01902 456.000
63.03897 445.000
63.05892 430.000
63.07887 445.000
63.09881 428.000
63.11876 410.000
63.13871 453.000
63.15865 439.000
63.17860 385.000
63.19855 409.000
63.21849 346.000
63.23844 369.000
63.25839 403.000
63.27833 335.000
63.29828 310.000
63.31823 323.000
63.33818 307.000
63.35812 313.000
63.37807 323.000
63.39802 278.000
63.41796 269.000
63.43791 274.000
63.45786 255.000
63.47780 249.000
63.49775 241.000
63.51770 232.000
63.53765 239.000
63.55759 202.000
63.57754 204.000
63.59749 216.000
63.61743 198.000
63.63738 172.000
63.65733 206.000
63.67727 184.000
63.69722 172.000
63.71717 203.000
63.73712 162.000
63.75706 188.000
63.77701 186.000
63.79696 173.000
63.81690 174.000
63.83685 168.000
63.85680 173.000
63.87674 159.000
63.89669 173.000
63.91664 148.000
63.93658 166.000
63.95653 162.000
63.97648 159.000
63.99643 194.000
64.01637 170.000
64.03632 178.000
64.05627 161.000
64.07621 173.000
64.09616 165.000
64.11611 168.000
64.13605 148.000
64.15600 166.000
64.17595 156.000
64.19590 150.000
64.21584 185.000
64.23579 164.000
64.25574 164.000
64.27568 154.000
64.29563 168.000
64.31558 175.000
64.33552 181.000
64.35547 165.000
64.37542 168.000
64.39536 182.000
64.41531 176.000
64.43526 183.000
64.45521 168.000
64.47515 192.000
64.49510 197.000
64.51505 214.000
64.53499 191.000
64.55494 206.000
64.57489 226.000
64.59483 254.000
64.61478 321.000
64.63473 345.000
64.65468 343.000
64.67462 410.000
64.69457 409.000
64.71452 377.000
64.73446 354.000
64.75441 353.000
64.77436 299.000
64.79430 300.000
64.81425 276.000
64.83420 282.000
64.85414 302.000
64.87409 243.000
64.89404 276.000
64.91399 248.000
64.93393 251.000
64.95388 247.000
64.97383 212.000
64.99377 194.000
65.01372 192.000
65.03367 212.000
65.05361 176.000
65.07356 168.000
65.09351 170.000
65.11346 184.000
65.13340 168.000
65.15335 174.000
65.17330 161.000
65.19324 168.000
65.21319 137.000
65.23314 162.000
65.25308 154.000
65.27303 179.000
65.29298 173.000
65.31293 142.000
65.33287 175.000
65.35282 159.000
65.37277 162.000
65.39271 142.000
65.41266 175.000
65.43261 170.000
65.45255 140.000
65.47250 145.000
65.49245 153.000
65.51239 166.000
65.53234 157.000
65.55229 171.000
65.57224 165.000
65.59218 164.000
65.61213 152.000
65.63208 164.000
65.65202 143.000
65.67197 151.000
65.69192 161.000
65.71186 165.000
65.73181 154.000
65.75176 155.000
65.77171 145.000
65.79165 150.000
65.81160 132.000
65.83155 141.000
65.85149 164.000
65.87144 150.000
65.89139 147.000
65.91133 158.000
65.93128 170.000
65.95123 173.000
65.97117 170.000
65.99112 184.000
66.01107 157.000
66.03102 190.000
66.05096 168.000
66.07091 173.000
66.09086 187.000
66.11080 197.000
66.13075 169.000
66.15070 178.000
66.17064 167.000
66.19059 203.000
66.21054 210.000
66.23049 182.000
66.25043 200.000
66.27038 192.000
66.29033 227.000
66.31027 216.000
66.33022 223.000
66.35017 212.000
66.37011 201.000
66.39006 184.000
66.41001 208.000
66.42995 222.000
66.44990 233.000
66.46985 204.000
66.48980 219.000
66.50974 237.000
66.52969 187.000
66.54964 201.000
66.56958 197.000
66.58953 201.000
66.60948 173.000
66.62942 183.000
66.64937 188.000
66.66932 184.000
66.68927 211.000
66.70921 179.000
66.72916 185.000
66.74911 194.000
66.76905 194.000
66.78900 199.000
66.80895 218.000
66.82889 180.000
66.84884 223.000
66.86879 174.000
66.88874 207.000
66.90868 208.000
66.92863 229.000
66.94858 258.000
66.96852 245.000
66.98847 255.000
67.00842 299.000
67.02836 313.000
67.04831 303.000
67.06826 276.000
67.08820 283.000
67.10815 279.000
67.12810 253.000
67.14805 233.000
67.16799 240.000
67.18794 256.000
67.20789 245.000
67.22783 261.000
67.24778 253.000
67.26773 231.000
67.28767 207.000
67.30762 198.000
67.32757 221.000
67.34752 177.000
67.36746 170.000
67.38741 190.000
67.40736 165.000
67.42730 194.000
67.44725 178.000
67.46720 177.000
67.48714 149.000
67.50709 163.000
67.52704 157.000
67.54698 161.000
67.56693 149.000
67.58688 182.000
67.60683 143.000
67.62677 155.000
67.64672 146.000
67.66667 177.000
67.68661 157.000
67.70656 142.000
67.72651 176.000
67.74645 158.000
67.76640 171.000
67.78635 131.000
67.80630 160.000
67.82624 167.000
67.84619 148.000
67.86614 161.000
67.88608 134.000
67.90603 154.000
67.92598 153.000
67.94592 154.000
67.96587 171.000
67.98582 142.000
68.00576 154.000
68.02571 165.000
68.04566 176.000
68.06561 152.000
68.08555 142.000
68.10550 139.000
68.12545 144.000
68.14539 169.000
68.16534 139.000
68.18529 139.000
68.20523 164.000
68.22518 134.000
68.24513 138.000
68.26508 151.000
68.28502 158.000
68.30497 149.000
68.32492 141.000
68.34486 131.000
68.36481 123.000
68.38476 141.000
68.40470 180.000
68.42465 151.000
68.44460 140.000
68.46455 135.000
68.48449 157.000
68.50444 147.000
68.52439 149.000
68.54433 135.000
68.56428 149.000
68.58423 134.000
68.60417 135.000
68.62412 153.000
68.64407 142.000
68.66401 155.000
68.68396 139.000
68.70391 142.000
68.72386 110.000
68.74380 136.000
68.76375 151.000
68.78370 135.000
68.80364 142.000
68.82359 156.000
68.84354 130.000
68.86348 154.000
68.88343 131.000
68.90338 156.000
68.92333 138.000
68.94327 116.000
68.96322 147.000
68.98317 137.000
69.00311 140.000
69.02306 169.000
69.04301 139.000
69.06295 153.000
69.08290 149.000
69.10285 122.000
69.12279 138.000
69.14274 147.000
69.16269 132.000
69.18264 160.000
69.20258 147.000
69.22253 141.000
69.24248 145.000
69.26242 135.000
69.28237 142.000
69.30232 151.000
69.32226 142.000
69.34221 146.000
69.36216 128.000
69.38211 123.000
69.40205 142.000
69.42200 152.000
69.44195 130.000
69.46189 139.000
69.48184 151.000
69.50179 146.000
69.52173 145.000
69.54168 113.000
69.56163 125.000
69.58157 157.000
69.60152 129.000
69.62147 153.000
69.64142 158.000
69.66136 144.000
69.68131 145.000
69.70126 140.000
69.72120 130.000
69.74115 127.000
69.76110 151.000
69.78104 133.000
69.80099 148.000
69.82094 123.000
69.84089 155.000
69.86083 149.000
69.88078 144.000
69.90073 116.000
69.92067 160.000
69.94062 148.000
69.96057 144.000
69.98051 114.000
70.00046 142.000
70.02041 143.000
70.04035 166.000
70.06030 142.000
70.08025 142.000
70.10020 144.000
70.12014 140.000
70.14009 137.000
70.16004 129.000
70.17998 118.000
70.19993 156.000
70.21988 138.000
70.23982 150.000
70.25977 138.000
70.27972 129.000
70.29967 148.000
70.31961 155.000
70.33956 150.000
70.35951 139.000
70.37945 133.000
70.39940 122.000
70.41935 147.000
70.43929 141.000
70.45924 158.000
70.47919 133.000
70.49914 165.000
70.51908 136.000
70.53903 152.000
70.55898 126.000
70.57892 147.000
70.59887 142.000
70.61882 133.000
70.63876 146.000
70.65871 157.000
70.67866 146.000
70.69860 133.000
70.71855 140.000
70.73850 147.000
70.75845 136.000
70.77839 136.000
70.79834 151.000
70.81829 148.000
70.83823 151.000
70.85818 147.000
70.87813 136.000
70.89807 111.000
70.91802 154.000
70.93797 140.000
70.95792 146.000
70.97786 148.000
70.99781 140.000
71.01776 166.000
71.03770 158.000
71.05765 156.000
71.07760 114.000
71.09754 148.000
71.11749 155.000
71.13744 132.000
71.15738 164.000
71.17733 162.000
71.19728 163.000
71.21723 187.000
71.23717 158.000
71.25712 172.000
71.27707 151.000
71.29701 166.000
71.31696 161.000
71.33691 137.000
71.35685 174.000
71.37680 147.000
71.39675 177.000
71.41670 161.000
71.43664 170.000
71.45659 173.000
71.47654 177.000
71.49648 152.000
71.51643 145.000
71.53638 194.000
71.55632 168.000
71.57627 168.000
71.59622 168.000
71.61616 161.000
71.63611 181.000
71.65606 163.000
71.67601 171.000
71.69595 153.000
71.71590 149.000
71.73585 152.000
71.75579 150.000
71.77574 149.000
71.79569 169.000
71.81563 161.000
71.83558 170.000
71.85553 138.000
71.87548 161.000
71.89542 193.000
71.91537 143.000
71.93532 173.000
71.95526 138.000
71.97521 162.000
71.99516 131.000
72.01510 125.000
72.03505 164.000
72.05500 150.000
72.07495 144.000
72.09489 134.000
72.11484 159.000
72.13479 144.000
72.15473 136.000
72.17468 157.000
72.19463 161.000
72.21457 146.000
72.23452 139.000
72.25447 140.000
72.27441 162.000
72.29436 143.000
72.31431 134.000
72.33426 129.000
72.35420 126.000
72.37415 170.000
72.39410 166.000
72.41404 155.000
72.43399 153.000
72.45394 154.000
72.47388 162.000
72.49383 143.000
72.51378 145.000
72.53373 136.000
72.55367 159.000
72.57362 137.000
72.59357 157.000
72.61351 154.000
72.63346 140.000
72.65341 129.000
72.67335 128.000
72.69330 128.000
72.71325 151.000
72.73319 142.000
72.75314 142.000
72.77309 155.000
72.79304 154.000
72.81298 128.000
72.83293 130.000
72.85288 149.000
72.87282 157.000
72.89277 115.000
72.91272 140.000
72.93266 149.000
72.95261 143.000
72.97256 144.000
72.99251 150.000
73.01245 120.000
73.03240 142.000
73.05235 151.000
73.07229 137.000
73.09224 159.000
73.11219 131.000
73.13213 126.000
73.15208 121.000
73.17203 151.000
73.19197 136.000
73.21192 170.000
73.23187 132.000
73.25182 137.000
73.27176 146.000
73.29171 150.000
73.31166 151.000
73.33160 130.000
73.35155 145.000
73.37150 166.000
73.39144 137.000
73.41139 168.000
73.43134 150.000
73.45129 137.000
73.47123 161.000
73.49118 159.000
73.51113 162.000
73.53107 156.000
73.55102 152.000
73.57097 150.000
73.59091 148.000
73.61086 148.000
73.63081 135.000
73.65076 160.000
73.67070 161.000
73.69065 167.000
73.71060 174.000
73.73054 163.000
73.75049 159.000
73.77044 172.000
73.79038 194.000
73.81033 193.000
73.83028 193.000
73.85022 198.000
73.87017 205.000
73.89012 200.000
73.91007 185.000
73.93001 195.000
73.94996 186.000
73.96991 167.000
73.98985 183.000
74.00980 182.000
74.02975 170.000
74.04969 155.000
74.06964 184.000
74.08959 171.000
74.10954 152.000
74.12948 197.000
74.14943 166.000
74.16938 156.000
74.18932 178.000
74.20927 157.000
74.22922 174.000
74.24916 153.000
74.26911 172.000
74.28906 161.000
74.30900 188.000
74.32895 193.000
74.34890 163.000
74.36885 186.000
74.38879 188.000
74.40874 184.000
74.42869 181.000
74.44863 196.000
74.46858 195.000
74.48853 189.000
74.50847 209.000
74.52842 219.000
74.54837 198.000
74.56832 221.000
74.58826 198.000
74.60821 180.000
74.62816 201.000
74.64810 224.000
74.66805 190.000
74.68800 199.000
74.70794 217.000
74.72789 169.000
74.74784 174.000
74.76778 163.000
74.78773 221.000
74.80768 168.000
74.82763 188.000
74.84757 172.000
74.86752 189.000
74.88747 177.000
74.90741 198.000
74.92736 175.000
74.94731 164.000
74.96725 171.000
74.98720 185.000
75.00715 167.000
75.02710 133.000
75.04704 164.000
75.06699 146.000
75.08694 180.000
75.10688 175.000
75.12683 159.000
75.14678 165.000
75.16672 173.000
75.18667 156.000
75.20662 180.000
75.22657 169.000
75.24651 155.000
75.26646 171.000
75.28641 168.000
75.30635 175.000
75.32630 170.000
75.34625 187.000
75.36619 176.000
75.38614 159.000
75.40609 183.000
75.42603 189.000
75.44598 183.000
75.46593 165.000
75.48588 213.000
75.50582 188.000
75.52577 168.000
75.54572 187.000
75.56566 173.000
75.58561 162.000
75.60556 171.000
75.62550 170.000
75.64545 184.000
75.66540 163.000
75.68535 164.000
75.70529 177.000
75.72524 173.000
75.74519 158.000
75.76513 174.000
75.78508 180.000
75.80503 178.000
75.82497 166.000
75.84492 168.000
75.86487 179.000
75.88481 158.000
75.90476 135.000
75.92471 152.000
75.94466 177.000
75.96460 159.000
75.98455 164.000
76.00450 169.000
76.02444 183.000
76.04439 157.000
76.06434 160.000
76.08428 151.000
76.10423 162.000
76.12418 163.000
76.14413 137.000
76.16407 171.000
76.18402 154.000
76.20397 164.000
76.22391 162.000
76.24386 180.000
76.26381 152.000
76.28375 159.000
76.30370 162.000
76.32365 175.000
76.34359 160.000
76.36354 182.000
76.38349 165.000
76.40344 159.000
76.42338 153.000
76.44333 164.000
76.46328 154.000
76.48322 163.000
76.50317 175.000
76.52312 162.000
76.54306 163.000
76.56301 149.000
76.58296 168.000
76.60291 173.000
76.62285 155.000
76.64280 153.000
76.66275 161.000
76.68269 155.000
76.70264 151.000
76.72259 141.000
76.74253 129.000
76.76248 147.000
76.78243 139.000
76.80238 155.000
76.82232 141.000
76.84227 130.000
76.86222 137.000
76.88216 147.000
76.90211 146.000
76.92206 147.000
76.94200 123.000
76.96195 125.000
76.98190 161.000
77.00184 141.000
77.02179 163.000
77.04174 139.000
77.06169 147.000
77.08163 157.000
77.10158 150.000
77.12153 138.000
77.14147 132.000
77.16142 156.000
77.18137 149.000
77.20131 141.000
77.22126 158.000
77.24121 151.000
77.26116 142.000
77.28110 127.000
77.30105 143.000
77.32100 151.000
77.34094 121.000
77.36089 135.000
77.38084 159.000
77.40078 175.000
77.42073 150.000
77.44068 146.000
77.46062 155.000
77.48057 135.000
77.50052 158.000
77.52047 144.000
77.54041 167.000
77.56036 164.000
77.58031 162.000
77.60025 199.000
77.62020 166.000
77.64015 164.000
77.66009 157.000
77.68004 157.000
77.69999 179.000
77.71994 184.000
77.73988 201.000
77.75983 191.000
77.77978 195.000
77.79972 198.000
77.81967 178.000
77.83962 181.000
77.85956 224.000
77.87951 205.000
77.89946 197.000
77.91940 187.000
77.93935 178.000
77.95930 185.000
77.97925 197.000
77.99919 182.000
78.01914 172.000
78.03909 166.000
78.05903 168.000
78.07898 163.000
78.09893 144.000
78.11887 171.000
78.13882 168.000
78.15877 179.000
78.17872 142.000
78.19866 158.000
78.21861 153.000
78.23856 174.000
78.25850 153.000
78.27845 161.000
78.29840 164.000
78.31834 154.000
78.33829 156.000
78.35824 161.000
78.37819 178.000
78.39813 169.000
78.41808 179.000
78.43803 165.000
78.45797 196.000
78.47792 187.000
78.49787 199.000
78.51781 182.000
78.53776 201.000
78.55771 175.000
78.57765 179.000
78.59760 166.000
78.61755 146.000
78.63750 178.000
78.65744 174.000
78.67739 164.000
78.69734 196.000
78.71728 187.000
78.73723 156.000
78.75718 172.000
78.77712 167.000
78.79707 156.000
78.81702 151.000
78.83697 143.000
78.85691 155.000
78.87686 132.000
78.89681 157.000
78.91675 129.000
78.93670 138.000
78.95665 147.000
78.97659 121.000
78.99654 134.000
79.01649 124.000
79.03643 139.000
79.05638 148.000
79.07633 149.000
79.09628 149.000
79.11622 119.000
79.13617 167.000
79.15612 125.000
79.17606 148.000
79.19601 116.000
79.21596 136.000
79.23590 128.000
79.25585 132.000
79.27580 151.000
79.29575 150.000
79.31569 168.000
79.33564 156.000
79.35559 150.000
79.37553 160.000
79.39548 141.000
79.41543 164.000
79.43537 149.000
79.45532 147.000
79.47527 144.000
79.49521 133.000
79.51516 140.000
79.53511 159.000
79.55506 156.000
79.57500 161.000
79.59495 144.000
79.61490 178.000
79.63484 153.000
79.65479 158.000
79.67474 152.000
79.69468 157.000
79.71463 144.000
79.73458 149.000
79.75453 143.000
79.77447 143.000
79.79442 139.000
79.81437 139.000
79.83431 148.000
79.85426 135.000
79.87421 136.000
79.89415 148.000
79.91410 155.000
79.93405 138.000
79.95399 145.000
79.97394 160.000
79.99389 145.000
80.01384 154.000
80.03378 145.000
80.05373 171.000
80.07368 165.000
80.09362 148.000
80.11357 152.000
80.13352 165.000
80.15346 124.000
80.17341 152.000
80.19336 136.000
80.21331 143.000
80.23325 142.000
80.25320 135.000
80.27315 169.000
80.29309 129.000
80.31304 136.000
80.33299 140.000
80.35293 135.000
80.37288 161.000
80.39283 141.000
80.41278 133.000
80.43272 165.000
80.45267 130.000
80.47262 135.000
80.49256 126.000
80.51251 137.000
80.53246 119.000
80.55240 130.000
80.57235 147.000
80.59230 138.000
80.61224 145.000
80.63219 129.000
80.65214 148.000
80.67209 153.000
80.69203 154.000
80.71198 144.000
80.73193 127.000
80.75187 125.000
80.77182 143.000
80.79177 138.000
80.81171 103.000
80.83166 137.000
80.85161 134.000
80.87156 156.000
80.89150 138.000
80.91145 135.000
80.93140 138.000
80.95134 127.000
80.97129 117.000
80.99124 133.000
81.01118 139.000
81.03113 134.000
81.05108 143.000
81.07102 119.000
81.09097 158.000
81.11092 140.000
81.13087 122.000
81.15081 149.000
81.17076 140.000
81.19071 160.000
81.21065 155.000
81.23060 141.000
81.25055 133.000
81.27049 148.000
81.29044 139.000
81.31039 145.000
81.33034 150.000
81.35028 139.000
81.37023 103.000
81.39018 140.000
81.41012 127.000
81.43007 168.000
81.45002 137.000
81.46996 150.000
81.48991 143.000
81.50986 147.000
81.52980 130.000
81.54975 149.000
81.56970 142.000
81.58965 135.000
81.60959 114.000
81.62954 121.000
81.64949 134.000
81.66943 128.000
81.68938 165.000
81.70933 137.000
81.72927 147.000
81.74922 143.000
81.76917 130.000
81.78912 162.000
81.80906 145.000
81.82901 139.000
81.84896 138.000
81.86890 119.000
81.88885 141.000
81.90880 150.000
81.92874 132.000
81.94869 125.000
81.96864 149.000
81.98859 159.000
82.00853 153.000
82.02848 147.000
82.04843 147.000
82.06837 141.000
82.08832 130.000
82.10827 136.000
82.12821 155.000
82.14816 147.000
82.16811 140.000
82.18805 126.000
82.20800 146.000
82.22795 139.000
82.24790 133.000
82.26784 146.000
82.28779 149.000
82.30774 143.000
82.32768 157.000
82.34763 130.000
82.36758 150.000
82.38752 130.000
82.40747 154.000
82.42742 146.000
82.44737 147.000
82.46731 138.000
82.48726 158.000
82.50721 126.000
82.52715 131.000
82.54710 129.000
82.56705 120.000
82.58699 135.000
82.60694 164.000
82.62689 153.000
82.64683 152.000
82.66678 152.000
82.68673 138.000
82.70668 164.000
82.72662 171.000
82.74657 148.000
82.76652 157.000
82.78646 138.000
82.80641 147.000
82.82636 151.000
82.84630 144.000
82.86625 134.000
82.88620 131.000
82.90615 139.000
82.92609 139.000
82.94604 143.000
82.96599 135.000
82.98593 136.000
83.00588 138.000
83.02583 140.000
83.04577 141.000
83.06572 126.000
83.08567 168.000
83.10561 164.000
83.12556 145.000
83.14551 144.000
83.16546 129.000
83.18540 144.000
83.20535 132.000
83.22530 175.000
83.24524 122.000
83.26519 131.000
83.28514 134.000
83.30508 147.000
83.32503 137.000
83.34498 119.000
83.36493 136.000
83.38487 148.000
83.40482 155.000
83.42477 132.000
83.44471 131.000
83.46466 152.000
83.48461 147.000
83.50455 135.000
83.52450 135.000
83.54445 158.000
83.56440 124.000
83.58434 140.000
83.60429 135.000
83.62424 152.000
83.64418 140.000
83.66413 139.000
83.68408 150.000
83.70402 143.000
83.72397 161.000
83.74392 129.000
83.76386 137.000
83.78381 165.000
83.80376 131.000
83.82371 144.000
83.84365 148.000
83.86360 133.000
83.88355 145.000
83.90349 148.000
83.92344 141.000
83.94339 149.000
83.96333 130.000
83.98328 140.000
84.00323 133.000
84.02318 123.000
84.04312 146.000
84.06307 133.000
84.08302 155.000
84.10296 138.000
84.12291 148.000
84.14286 122.000
84.16280 147.000
84.18275 146.000
84.20270 138.000
84.22264 137.000
84.24259 124.000
84.26254 135.000
84.28249 135.000
84.30243 124.000
84.32238 140.000
84.34233 154.000
84.36227 169.000
84.38222 161.000
84.40217 153.000
84.42211 122.000
84.44206 147.000
84.46201 122.000
84.48196 149.000
84.50190 137.000
84.52185 159.000
84.54180 146.000
84.56174 166.000
84.58169 142.000
84.60164 126.000
84.62158 133.000
84.64153 139.000
84.66148 152.000
84.68142 133.000
84.70137 148.000
84.72132 150.000
84.74127 166.000
84.76121 149.000
84.78116 168.000
84.80111 179.000
84.82105 174.000
84.84100 161.000
84.86095 171.000
84.88089 148.000
84.90084 147.000
84.92079 177.000
84.94074 171.000
84.96068 179.000
84.98063 210.000
85.00058 194.000
85.02052 216.000
85.04047 176.000
85.06042 187.000
85.08036 189.000
85.10031 174.000
85.12026 170.000
85.14021 187.000
85.16015 176.000
85.18010 166.000
85.20005 178.000
85.21999 151.000
85.23994 144.000
85.25989 154.000
85.27983 207.000
85.29978 169.000
85.31973 170.000
85.33967 156.000
85.35962 182.000
85.37957 167.000
85.39952 160.000
85.41946 143.000
85.43941 162.000
85.45936 152.000
85.47930 145.000
85.49925 160.000
85.51920 133.000
85.53914 139.000
85.55909 105.000
85.57904 116.000
85.59899 136.000
85.61893 132.000
85.63888 128.000
85.65883 150.000
85.67877 154.000
85.69872 150.000
85.71867 150.000
85.73861 122.000
85.75856 146.000
85.77851 131.000
85.79845 123.000
85.81840 129.000
85.83835 119.000
85.85830 142.000
85.87824 135.000
85.89819 149.000
85.91814 146.000
85.93808 116.000
85.95803 119.000
85.97798 149.000
85.99792 124.000
86.01787 143.000
86.03782 139.000
86.05777 159.000
86.07771 128.000
86.09766 150.000
86.11761 151.000
86.13755 134.000
86.15750 139.000
86.17745 138.000
86.19739 158.000
86.21734 144.000
86.23729 126.000
86.25723 148.000
86.27718 136.000
86.29713 153.000
86.31708 148.000
86.33702 158.000
86.35697 173.000
86.37692 143.000
86.39686 158.000
86.41681 133.000
86.43676 135.000
86.45670 122.000
86.47665 148.000
86.49660 145.000
86.51655 132.000
86.53649 135.000
86.55644 136.000
86.57639 141.000
86.59633 142.000
86.61628 139.000
86.63623 139.000
86.65617 157.000
86.67612 131.000
86.69607 156.000
86.71602 152.000
86.73596 143.000
86.75591 118.000
86.77586 138.000
86.79580 120.000
86.81575 122.000
86.83570 146.000
86.85564 145.000
86.87559 140.000
86.89554 158.000
86.91548 157.000
86.93543 138.000
86.95538 132.000
86.97533 137.000
86.99527 141.000
87.01522 161.000
87.03517 171.000
87.05511 138.000
87.07506 155.000
87.09501 148.000
87.11495 140.000
87.13490 166.000
87.15485 147.000
87.17480 158.000
87.19474 161.000
87.21469 144.000
87.23464 136.000
87.25458 151.000
87.27453 153.000
87.29448 156.000
87.31442 174.000
87.33437 159.000
87.35432 140.000
87.37426 158.000
87.39421 179.000
87.41416 134.000
87.43411 173.000
87.45405 138.000
87.47400 130.000
87.49395 172.000
87.51389 166.000
87.53384 146.000
87.55379 146.000
87.57373 163.000
87.59368 154.000
87.61363 169.000
87.63358 187.000
87.65352 150.000
87.67347 165.000
87.69342 144.000
87.71336 145.000
87.73331 161.000
87.75326 148.000
87.77320 138.000
87.79315 117.000
87.81310 125.000
87.83304 148.000
87.85299 160.000
87.87294 132.000
87.89289 167.000
87.91283 135.000
87.93278 130.000
87.95273 154.000
87.97267 145.000
87.99262 140.000
88.01257 149.000
88.03251 135.000
88.05246 114.000
88.07241 137.000
88.09236 154.000
88.11230 149.000
88.13225 129.000
88.15220 126.000
88.17214 150.000
88.19209 142.000
88.21204 115.000
88.23198 137.000
88.25193 136.000
88.27188 147.000
88.29183 127.000
88.31177 165.000
88.33172 155.000
88.35167 137.000
88.37161 127.000
88.39156 128.000
88.41151 139.000
88.43145 121.000
88.45140 141.000
88.47135 137.000
88.49129 116.000
88.51124 140.000
88.53119 144.000
88.55114 138.000
88.57108 146.000
88.59103 128.000
88.61098 133.000
88.63092 123.000
88.65087 138.000
88.67082 125.000
88.69076 113.000
88.71071 146.000
88.73066 144.000
88.75061 134.000
88.77055 131.000
88.79050 139.000
88.81045 134.000
88.83039 123.000
88.85034 142.000
88.87029 126.000
88.89023 155.000
88.91018 118.000
88.93013 140.000
88.95007 128.000
88.97002 140.000
88.98997 134.000
89.00992 139.000
89.02986 129.000
89.04981 139.000
89.06976 124.000
89.08970 142.000
89.10965 144.000
89.12960 128.000
89.14954 138.000
89.16949 131.000
89.18944 157.000
89.20939 125.000
89.22933 130.000
89.24928 127.000
89.26923 112.000
89.28917 130.000
89.30912 141.000
89.32907 134.000
89.34901 128.000
89.36896 134.000
89.38891 120.000
89.40885 143.000
89.42880 138.000
89.44875 155.000
89.46870 121.000
89.48864 135.000
89.50859 166.000
89.52854 138.000
89.54848 159.000
89.56843 144.000
89.58838 131.000
89.60832 115.000
89.62827 150.000
89.64822 134.000
89.66817 153.000
89.68811 147.000
89.70806 148.000
89.72801 147.000
89.74795 155.000
89.76790 143.000
89.78785 135.000
89.80779 131.000
89.82774 129.000
89.84769 144.000
89.86764 147.000
89.88758 140.000
89.90753 168.000
89.92748 156.000
89.94742 159.000
89.96737 179.000
89.98732 152.000
90.00726 176.000
