10.00000 83.000
10.01995 101.000
10.03989 101.000
10.05984 71.000
10.07979 106.000
10.09973 96.000
10.11968 91.000
10.13963 107.000
10.15958 89.000
10.17952 105.000
10.19947 107.000
10.21942 96.000
10.23936 85.000
10.25931 81.000
10.27926 100.000
10.29920 100.000
10.31915 78.000
10.33910 93.000
10.35905 116.000
10.37899 116.000
10.39894 98.000
10.41889 99.000
10.43883 92.000
10.45878 110.000
10.47873 100.000
10.49867 87.000
10.51862 105.000
10.53857 88.000
10.55851 99.000
10.57846 110.000
10.59841 113.000
10.61836 79.000
10.63830 103.000
10.65825 108.000
10.67820 92.000
10.69814 111.000
10.71809 105.000
10.73804 103.000
10.75798 94.000
10.77793 104.000
10.79788 99.000
10.81783 86.000
10.83777 104.000
10.85772 92.000
10.87767 84.000
10.89761 97.000
10.91756 89.000
10.93751 118.000
10.95745 100.000
10.97740 110.000
10.99735 106.000
11.01730 98.000
11.03724 100.000
11.05719 114.000
11.07714 89.000
11.09708 81.000
11.11703 97.000
11.13698 98.000
11.15692 117.000
11.17687 105.000
11.19682 103.000
11.21676 103.000
11.23671 116.000
11.25666 123.000
11.27661 120.000
11.29655 94.000
11.31650 122.000
11.33645 101.000
11.35639 111.000
11.37634 107.000
11.39629 119.000
11.41623 108.000
11.43618 121.000
11.45613 117.000
11.47608 103.000
11.49602 114.000
11.51597 140.000
11.53592 130.000
11.55586 122.000
11.57581 92.000
11.59576 118.000
11.61570 132.000
11.63565 132.000
11.65560 133.000
11.67554 106.000
11.69549 114.000
11.71544 108.000
11.73539 116.000
11.75533 124.000
11.77528 136.000
11.79523 141.000
11.81517 120.000
11.83512 137.000
11.85507 111.000
11.87501 119.000
11.89496 125.000
11.91491 130.000
11.93486 130.000
11.95480 118.000
11.97475 128.000
11.99470 125.000
12.01464 130.000
12.03459 124.000
12.05454 107.000
12.07448 115.000
12.09443 130.000
12.11438 105.000
12.13432 152.000
12.15427 136.000
12.17422 122.000
12.19417 134.000
12.21411 142.000
12.23406 122.000
12.25401 109.000
12.27395 131.000
12.29390 128.000
12.31385 129.000
12.33379 136.000
12.35374 125.000
12.37369 141.000
12.39364 139.000
12.41358 129.000
12.43353 143.000
12.45348 121.000
12.47342 140.000
12.49337 134.000
12.51332 134.000
12.53326 138.000
12.55321 128.000
12.57316 119.000
12.59311 130.000
12.61305 144.000
12.63300 148.000
12.65295 140.000
12.67289 114.000
12.69284 127.000
12.71279 127.000
12.73273 125.000
12.75268 122.000
12.77263 133.000
12.79257 144.000
12.81252 135.000
12.83247 129.000
12.85242 115.000
12.87236 131.000
12.89231 134.000
12.91226 130.000
12.93220 140.000
12.95215 124.000
12.97210 137.000
12.99204 139.000
13.01199 143.000
13.03194 139.000
13.05189 128.000
13.07183 119.000
13.09178 151.000
13.11173 137.000
13.13167 137.000
13.15162 142.000
13.17157 135.000
13.19151 131.000
13.21146 116.000
13.23141 131.000
13.25135 176.000
13.27130 114.000
13.29125 139.000
13.31120 143.000
13.33114 154.000
13.35109 155.000
13.37104 128.000
13.39098 127.000
13.41093 153.000
13.43088 154.000
13.45082 130.000
13.47077 141.000
13.49072 128.000
13.51067 160.000
13.53061 155.000
13.55056 131.000
13.57051 140.000
13.59045 135.000
13.61040 121.000
13.63035 137.000
13.65029 138.000
13.67024 176.000
13.69019 130.000
13.71013 130.000
13.73008 146.000
13.75003 143.000
13.76998 152.000
13.78992 147.000
13.80987 161.000
13.82982 149.000
13.84976 146.000
13.86971 132.000
13.88966 140.000
13.90960 141.000
13.92955 139.000
13.94950 142.000
13.96945 156.000
13.98939 152.000
14.00934 151.000
14.02929 144.000
14.04923 151.000
14.06918 149.000
14.08913 149.000
14.10907 147.000
14.12902 135.000
14.14897 160.000
14.16892 132.000
14.18886 155.000
14.20881 176.000
14.22876 170.000
14.24870 149.000
14.26865 151.000
14.28860 163.000
14.30854 128.000
14.32849 186.000
14.34844 169.000
14.36838 148.000
14.38833 150.000
14.40828 186.000
14.42823 163.000
14.44817 166.000
14.46812 162.000
14.48807 141.000
14.50801 162.000
14.52796 170.000
14.54791 152.000
14.56785 159.000
14.58780 158.000
14.60775 182.000
14.62770 151.000
14.64764 179.000
14.66759 162.000
14.68754 156.000
14.70748 166.000
14.72743 156.000
14.74738 144.000
14.76732 144.000
14.78727 151.000
14.80722 156.000
14.82716 156.000
14.84711 162.000
14.86706 146.000
14.88701 138.000
14.90695 163.000
14.92690 150.000
14.94685 121.000
14.96679 165.000
14.98674 169.000
15.00669 149.000
15.02663 153.000
15.04658 170.000
15.06653 168.000
15.08648 143.000
15.10642 180.000
15.12637 174.000
15.14632 163.000
15.16626 153.000
15.18621 196.000
15.20616 159.000
15.22610 145.000
15.24605 161.000
15.26600 156.000
15.28594 182.000
15.30589 181.000
15.32584 149.000
15.34579 192.000
15.36573 151.000
15.38568 156.000
15.40563 174.000
15.42557 169.000
15.44552 199.000
15.46547 206.000
15.48541 188.000
15.50536 197.000
15.52531 188.000
15.54526 172.000
15.56520 171.000
15.58515 167.000
15.60510 159.000
15.62504 189.000
15.64499 189.000
15.66494 164.000
15.68488 179.000
15.70483 152.000
15.72478 176.000
15.74472 161.000
15.76467 215.000
15.78462 166.000
15.80457 211.000
15.82451 171.000
15.84446 181.000
15.86441 185.000
15.88435 183.000
15.90430 188.000
15.92425 168.000
15.94419 201.000
15.96414 166.000
15.98409 168.000
16.00404 195.000
16.02398 196.000
16.04393 195.000
16.06388 193.000
16.08382 186.000
16.10377 172.000
16.12372 199.000
16.14366 190.000
16.16361 207.000
16.18356 201.000
16.20351 191.000
16.22345 177.000
16.24340 212.000
16.26335 200.000
16.28329 204.000
16.30324 192.000
16.32319 193.000
16.34313 220.000
16.36308 219.000
16.38303 208.000
16.40297 207.000
16.42292 218.000
16.44287 217.000
16.46282 187.000
16.48276 225.000
16.50271 250.000
16.52266 200.000
16.54260 221.000
16.56255 223.000
16.58250 210.000
16.60244 230.000
16.62239 187.000
16.64234 226.000
16.66229 206.000
16.68223 220.000
16.70218 218.000
16.72213 223.000
16.74207 210.000
16.76202 267.000
16.78197 213.000
16.80191 228.000
16.82186 234.000
16.84181 266.000
16.86175 243.000
16.88170 257.000
16.90165 219.000
16.92160 262.000
16.94154 255.000
16.96149 265.000
16.98144 217.000
17.00138 273.000
17.02133 259.000
17.04128 239.000
17.06122 257.000
17.08117 231.000
17.10112 258.000
17.12107 251.000
17.14101 281.000
17.16096 252.000
17.18091 292.000
17.20085 274.000
17.22080 255.000
17.24075 263.000
17.26069 278.000
17.28064 239.000
17.30059 269.000
17.32053 273.000
17.34048 276.000
17.36043 281.000
17.38038 288.000
17.40032 290.000
17.42027 275.000
17.44022 276.000
17.46016 283.000
17.48011 272.000
17.50006 301.000
17.52000 257.000
17.53995 285.000
17.55990 302.000
17.57985 287.000
17.59979 262.000
17.61974 266.000
17.63969 300.000
17.65963 263.000
17.67958 323.000
17.69953 285.000
17.71947 301.000
17.73942 301.000
17.75937 330.000
17.77932 312.000
17.79926 314.000
17.81921 333.000
17.83916 305.000
17.85910 301.000
17.87905 314.000
17.89900 299.000
17.91894 306.000
17.93889 314.000
17.95884 355.000
17.97878 294.000
17.99873 344.000
18.01868 317.000
18.03863 335.000
18.05857 335.000
18.07852 352.000
18.09847 374.000
18.11841 321.000
18.13836 342.000
18.15831 296.000
18.17825 340.000
18.19820 312.000
18.21815 350.000
18.23810 345.000
18.25804 354.000
18.27799 374.000
18.29794 370.000
18.31788 326.000
18.33783 333.000
18.35778 351.000
18.37772 350.000
18.39767 361.000
18.41762 338.000
18.43756 372.000
18.45751 353.000
18.47746 365.000
18.49741 403.000
18.51735 321.000
18.53730 383.000
18.55725 349.000
18.57719 337.000
18.59714 392.000
18.61709 374.000
18.63703 404.000
18.65698 397.000
18.67693 383.000
18.69688 372.000
18.71682 392.000
18.73677 371.000
18.75672 384.000
18.77666 374.000
18.79661 382.000
18.81656 426.000
18.83650 411.000
18.85645 425.000
18.87640 396.000
18.89634 371.000
18.91629 419.000
18.93624 394.000
18.95619 381.000
18.97613 371.000
18.99608 447.000
19.01603 430.000
19.03597 397.000
19.05592 408.000
19.07587 388.000
19.09581 388.000
19.11576 387.000
19.13571 406.000
19.15566 428.000
19.17560 409.000
19.19555 433.000
19.21550 424.000
19.23544 386.000
19.25539 398.000
19.27534 430.000
19.29528 408.000
19.31523 426.000
19.33518 415.000
19.35513 390.000
19.37507 434.000
19.39502 435.000
19.41497 405.000
19.43491 422.000
19.45486 451.000
19.47481 467.000
19.49475 397.000
19.51470 457.000
19.53465 460.000
19.55459 394.000
19.57454 473.000
19.59449 433.000
19.61444 461.000
19.63438 452.000
19.65433 443.000
19.67428 497.000
19.69422 445.000
19.71417 421.000
19.73412 487.000
19.75406 447.000
19.77401 448.000
19.79396 468.000
19.81391 463.000
19.83385 481.000
19.85380 490.000
19.87375 456.000
19.89369 466.000
19.91364 476.000
19.93359 457.000
19.95353 491.000
19.97348 448.000
19.99343 461.000
20.01337 487.000
20.03332 449.000
20.05327 489.000
20.07322 478.000
20.09316 448.000
20.11311 465.000
20.13306 463.000
20.15300 481.000
20.17295 488.000
20.19290 471.000
20.21284 472.000
20.23279 505.000
20.25274 499.000
20.27269 497.000
20.29263 424.000
20.31258 501.000
20.33253 528.000
20.35247 495.000
20.37242 476.000
20.39237 493.000
20.41231 475.000
20.43226 521.000
20.45221 470.000
20.47215 525.000
20.49210 536.000
20.51205 519.000
20.53200 496.000
20.55194 476.000
20.57189 484.000
20.59184 515.000
20.61178 500.000
20.63173 537.000
20.65168 509.000
20.67162 493.000
20.69157 486.000
20.71152 500.000
20.73147 514.000
20.75141 532.000
20.77136 508.000
20.79131 519.000
20.81125 534.000
20.83120 507.000
20.85115 519.000
20.87109 535.000
20.89104 509.000
20.91099 550.000
20.93094 530.000
20.95088 501.000
20.97083 535.000
20.99078 503.000
21.01072 516.000
21.03067 511.000
21.05062 517.000
21.07056 542.000
21.09051 501.000
21.11046 491.000
21.13040 552.000
21.15035 525.000
21.17030 577.000
21.19025 550.000
21.21019 534.000
21.23014 535.000
21.25009 551.000
21.27003 579.000
21.28998 526.000
21.30993 524.000
21.32987 556.000
21.34982 535.000
21.36977 541.000
21.38972 538.000
21.40966 534.000
21.42961 525.000
21.44956 569.000
21.46950 534.000
21.48945 547.000
21.50940 526.000
21.52934 558.000
21.54929 521.000
21.56924 525.000
21.58918 557.000
21.60913 584.000
21.62908 561.000
21.64903 568.000
21.66897 559.000
21.68892 598.000
21.70887 574.000
21.72881 514.000
21.74876 541.000
21.76871 599.000
21.78865 592.000
21.80860 524.000
21.82855 542.000
21.84850 546.000
21.86844 576.000
21.88839 562.000
21.90834 606.000
21.92828 613.000
21.94823 531.000
21.96818 549.000
21.98812 570.000
22.00807 583.000
22.02802 561.000
22.04796 593.000
22.06791 602.000
22.08786 609.000
22.10781 583.000
22.12775 521.000
22.14770 599.000
22.16765 580.000
22.18759 574.000
22.20754 556.000
22.22749 586.000
22.24743 547.000
22.26738 563.000
22.28733 639.000
22.30728 566.000
22.32722 585.000
22.34717 604.000
22.36712 598.000
22.38706 596.000
22.40701 600.000
22.42696 586.000
22.44690 574.000
22.46685 570.000
22.48680 620.000
22.50675 612.000
22.52669 603.000
22.54664 591.000
22.56659 609.000
22.58653 608.000
22.60648 632.000
22.62643 581.000
22.64637 615.000
22.66632 635.000
22.68627 636.000
22.70621 623.000
22.72616 639.000
22.74611 586.000
22.76606 592.000
22.78600 607.000
22.80595 594.000
22.82590 571.000
22.84584 611.000
22.86579 620.000
22.88574 581.000
22.90568 613.000
22.92563 636.000
22.94558 598.000
22.96553 633.000
22.98547 593.000
23.00542 655.000
23.02537 646.000
23.04531 639.000
23.06526 639.000
23.08521 630.000
23.10515 638.000
23.12510 671.000
23.14505 647.000
23.16499 615.000
23.18494 638.000
23.20489 611.000
23.22484 640.000
23.24478 688.000
23.26473 658.000
23.28468 650.000
23.30462 631.000
23.32457 665.000
23.34452 681.000
23.36446 653.000
23.38441 653.000
23.40436 645.000
23.42431 650.000
23.44425 697.000
23.46420 672.000
23.48415 678.000
23.50409 673.000
23.52404 676.000
23.54399 691.000
23.56393 685.000
23.58388 707.000
23.60383 690.000
23.62377 712.000
23.64372 621.000
23.66367 677.000
23.68362 666.000
23.70356 694.000
23.72351 710.000
23.74346 691.000
23.76340 679.000
23.78335 745.000
23.80330 693.000
23.82324 704.000
23.84319 672.000
23.86314 705.000
23.88309 672.000
23.90303 698.000
23.92298 708.000
23.94293 718.000
23.96287 724.000
23.98282 739.000
24.00277 713.000
24.02271 709.000
24.04266 721.000
24.06261 730.000
24.08256 733.000
24.10250 693.000
24.12245 747.000
24.14240 716.000
24.16234 696.000
24.18229 737.000
24.20224 730.000
24.22218 721.000
24.24213 737.000
24.26208 788.000
24.28202 739.000
24.30197 756.000
24.32192 744.000
24.34187 793.000
24.36181 736.000
24.38176 773.000
24.40171 766.000
24.42165 724.000
24.44160 755.000
24.46155 784.000
24.48149 729.000
24.50144 744.000
24.52139 795.000
24.54134 747.000
24.56128 712.000
24.58123 810.000
24.60118 777.000
24.62112 744.000
24.64107 729.000
24.66102 801.000
24.68096 803.000
24.70091 780.000
24.72086 762.000
24.74080 759.000
24.76075 799.000
24.78070 760.000
24.80065 837.000
24.82059 789.000
24.84054 755.000
24.86049 767.000
24.88043 763.000
24.90038 775.000
24.92033 810.000
24.94027 860.000
24.96022 837.000
24.98017 775.000
25.00012 855.000
25.02006 806.000
25.04001 820.000
25.05996 811.000
25.07990 830.000
25.09985 883.000
25.11980 849.000
25.13974 797.000
25.15969 810.000
25.17964 853.000
25.19958 888.000
25.21953 817.000
25.23948 858.000
25.25943 780.000
25.27937 820.000
25.29932 827.000
25.31927 871.000
25.33921 761.000
25.35916 864.000
25.37911 902.000
25.39905 876.000
25.41900 870.000
25.43895 914.000
25.45890 901.000
25.47884 869.000
25.49879 854.000
25.51874 883.000
25.53868 936.000
25.55863 896.000
25.57858 836.000
25.59852 870.000
25.61847 874.000
25.63842 901.000
25.65837 926.000
25.67831 901.000
25.69826 935.000
25.71821 885.000
25.73815 925.000
25.75810 876.000
25.77805 1014.000
25.79799 883.000
25.81794 953.000
25.83789 862.000
25.85783 921.000
25.87778 974.000
25.89773 893.000
25.91768 970.000
25.93762 937.000
25.95757 955.000
25.97752 920.000
25.99746 953.000
26.01741 1001.000
26.03736 968.000
26.05730 972.000
26.07725 891.000
26.09720 966.000
26.11715 981.000
26.13709 964.000
26.15704 980.000
26.17699 951.000
26.19693 974.000
26.21688 1018.000
26.23683 1018.000
26.25677 932.000
26.27672 990.000
26.29667 1034.000
26.31661 1035.000
26.33656 1005.000
26.35651 1007.000
26.37646 1070.000
26.39640 1043.000
26.41635 979.000
26.43630 1019.000
26.45624 966.000
26.47619 1018.000
26.49614 1041.000
26.51608 1009.000
26.53603 1011.000
26.55598 1042.000
26.57593 1084.000
26.59587 1054.000
26.61582 999.000
26.63577 1082.000
26.65571 1052.000
26.67566 1070.000
26.69561 1006.000
26.71555 1024.000
26.73550 1100.000
26.75545 1104.000
26.77539 1062.000
26.79534 1071.000
26.81529 1025.000
26.83524 1084.000
26.85518 1114.000
26.87513 1082.000
26.89508 1108.000
26.91502 1106.000
26.93497 1127.000
26.95492 1091.000
26.97486 1114.000
26.99481 1134.000
27.01476 1111.000
27.03471 1152.000
27.05465 1090.000
27.07460 1056.000
27.09455 1110.000
27.11449 1158.000
27.13444 1233.000
27.15439 1177.000
27.17433 1199.000
27.19428 1115.000
27.21423 1127.000
27.23417 1134.000
27.25412 1107.000
27.27407 1135.000
27.29402 1169.000
27.31396 1195.000
27.33391 1239.000
27.35386 1163.000
27.37380 1141.000
27.39375 1168.000
27.41370 1158.000
27.43364 1153.000
27.45359 1222.000
27.47354 1115.000
27.49349 1162.000
27.51343 1189.000
27.53338 1235.000
27.55333 1159.000
27.57327 1159.000
27.59322 1189.000
27.61317 1235.000
27.63311 1248.000
27.65306 1210.000
27.67301 1213.000
27.69296 1252.000
27.71290 1195.000
27.73285 1235.000
27.75280 1187.000
27.77274 1241.000
27.79269 1228.000
27.81264 1211.000
27.83258 1193.000
27.85253 1277.000
27.87248 1194.000
27.89242 1269.000
27.91237 1176.000
27.93232 1247.000
27.95227 1192.000
27.97221 1281.000
27.99216 1261.000
28.01211 1222.000
28.03205 1239.000
28.05200 1215.000
28.07195 1217.000
28.09189 1160.000
28.11184 1245.000
28.13179 1219.000
28.15174 1247.000
28.17168 1227.000
28.19163 1259.000
28.21158 1224.000
28.23152 1283.000
28.25147 1274.000
28.27142 1203.000
28.29136 1298.000
28.31131 1238.000
28.33126 1269.000
28.35120 1231.000
28.37115 1276.000
28.39110 1298.000
28.41105 1294.000
28.43099 1244.000
28.45094 1337.000
28.47089 1267.000
28.49083 1264.000
28.51078 1275.000
28.53073 1304.000
28.55067 1279.000
28.57062 1260.000
28.59057 1237.000
28.61052 1244.000
28.63046 1304.000
28.65041 1283.000
28.67036 1288.000
28.69030 1276.000
28.71025 1345.000
28.73020 1323.000
28.75014 1367.000
28.77009 1301.000
28.79004 1312.000
28.80998 1335.000
28.82993 1320.000
28.84988 1265.000
28.86983 1299.000
28.88977 1355.000
28.90972 1377.000
28.92967 1292.000
28.94961 1304.000
28.96956 1375.000
28.98951 1266.000
29.00945 1366.000
29.02940 1350.000
29.04935 1312.000
29.06930 1365.000
29.08924 1307.000
29.10919 1296.000
29.12914 1328.000
29.14908 1306.000
29.16903 1358.000
29.18898 1317.000
29.20892 1271.000
29.22887 1352.000
29.24882 1297.000
29.26877 1259.000
29.28871 1287.000
29.30866 1388.000
29.32861 1448.000
29.34855 1301.000
29.36850 1307.000
29.38845 1383.000
29.40839 1316.000
29.42834 1311.000
29.44829 1264.000
29.46823 1334.000
29.48818 1286.000
29.50813 1339.000
29.52808 1276.000
29.54802 1412.000
29.56797 1288.000
29.58792 1309.000
29.60786 1337.000
29.62781 1340.000
29.64776 1272.000
29.66770 1314.000
29.68765 1323.000
29.70760 1362.000
29.72755 1366.000
29.74749 1364.000
29.76744 1310.000
29.78739 1289.000
29.80733 1241.000
29.82728 1348.000
29.84723 1299.000
29.86717 1323.000
29.88712 1349.000
29.90707 1382.000
29.92701 1244.000
29.94696 1346.000
29.96691 1326.000
29.98686 1333.000
30.00680 1331.000
30.02675 1331.000
30.04670 1318.000
30.06664 1372.000
30.08659 1295.000
30.10654 1297.000
30.12648 1266.000
30.14643 1320.000
30.16638 1364.000
30.18633 1260.000
30.20627 1289.000
30.22622 1292.000
30.24617 1337.000
30.26611 1284.000
30.28606 1306.000
30.30601 1243.000
30.32595 1314.000
30.34590 1338.000
30.36585 1283.000
30.38579 1273.000
30.40574 1333.000
30.42569 1288.000
30.44564 1310.000
30.46558 1303.000
30.48553 1346.000
30.50548 1303.000
30.52542 1256.000
30.54537 1307.000
30.56532 1284.000
30.58526 1294.000
30.60521 1284.000
30.62516 1304.000
30.64511 1346.000
30.66505 1301.000
30.68500 1293.000
30.70495 1242.000
30.72489 1296.000
30.74484 1287.000
30.76479 1270.000
30.78473 1257.000
30.80468 1301.000
30.82463 1250.000
30.84458 1256.000
30.86452 1194.000
30.88447 1253.000
30.90442 1296.000
30.92436 1297.000
30.94431 1271.000
30.96426 1285.000
30.98420 1264.000
31.00415 1244.000
31.02410 1194.000
31.04404 1269.000
31.06399 1245.000
31.08394 1234.000
31.10389 1266.000
31.12383 1298.000
31.14378 1291.000
31.16373 1317.000
31.18367 1272.000
31.20362 1217.000
31.22357 1269.000
31.24351 1215.000
31.26346 1217.000
31.28341 1276.000
31.30336 1271.000
31.32330 1199.000
31.34325 1254.000
31.36320 1252.000
31.38314 1200.000
31.40309 1197.000
31.42304 1265.000
31.44298 1242.000
31.46293 1253.000
31.48288 1230.000
31.50282 1153.000
31.52277 1292.000
31.54272 1285.000
31.56267 1263.000
31.58261 1279.000
31.60256 1177.000
31.62251 1217.000
31.64245 1209.000
31.66240 1179.000
31.68235 1178.000
31.70229 1148.000
31.72224 1177.000
31.74219 1180.000
31.76214 1216.000
31.78208 1183.000
31.80203 1241.000
31.82198 1165.000
31.84192 1169.000
31.86187 1169.000
31.88182 1124.000
31.90176 1194.000
31.92171 1250.000
31.94166 1154.000
31.96160 1171.000
31.98155 1174.000
32.00150 1209.000
32.02145 1205.000
32.04139 1166.000
32.06134 1152.000
32.08129 1145.000
32.10123 1196.000
32.12118 1198.000
32.14113 1206.000
32.16107 1174.000
32.18102 1208.000
32.20097 1145.000
32.22092 1132.000
32.24086 1096.000
32.26081 1090.000
32.28076 1125.000
32.30070 1134.000
32.32065 1162.000
32.34060 1129.000
32.36054 1124.000
32.38049 1114.000
32.40044 1122.000
32.42039 1097.000
32.44033 1215.000
32.46028 1220.000
32.48023 1195.000
32.50017 1071.000
32.52012 1128.000
32.54007 1141.000
32.56001 1071.000
32.57996 1073.000
32.59991 1168.000
32.61985 1099.000
32.63980 1132.000
32.65975 1153.000
32.67970 1126.000
32.69964 1079.000
32.71959 1111.000
32.73954 1061.000
32.75948 1103.000
32.77943 1078.000
32.79938 1121.000
32.81932 1093.000
32.83927 1093.000
32.85922 1115.000
32.87917 1092.000
32.89911 1081.000
32.91906 1117.000
32.93901 1029.000
32.95895 1102.000
32.97890 1110.000
32.99885 1055.000
33.01879 1040.000
33.03874 1034.000
33.05869 1088.000
33.07863 1068.000
33.09858 1029.000
33.11853 1001.000
33.13848 1062.000
33.15842 1124.000
33.17837 1074.000
33.19832 1011.000
33.21826 1096.000
33.23821 1038.000
33.25816 1016.000
33.27810 1032.000
33.29805 1033.000
33.31800 1020.000
33.33795 1105.000
33.35789 1008.000
33.37784 1008.000
33.39779 988.000
33.41773 994.000
33.43768 1019.000
33.45763 1006.000
33.47757 1011.000
33.49752 987.000
33.51747 944.000
33.53741 1013.000
33.55736 1020.000
33.57731 1039.000
33.59726 1027.000
33.61720 1007.000
33.63715 1035.000
33.65710 1009.000
33.67704 1015.000
33.69699 988.000
33.71694 981.000
33.73688 1006.000
33.75683 980.000
33.77678 983.000
33.79673 987.000
33.81667 966.000
33.83662 981.000
33.85657 923.000
33.87651 959.000
33.89646 985.000
33.91641 953.000
33.93635 1011.000
33.95630 943.000
33.97625 1010.000
33.99620 972.000
34.01614 951.000
34.03609 992.000
34.05604 961.000
34.07598 919.000
34.09593 879.000
34.11588 961.000
34.13582 977.000
34.15577 898.000
34.17572 915.000
34.19566 947.000
34.21561 951.000
34.23556 982.000
34.25551 899.000
34.27545 951.000
34.29540 915.000
34.31535 871.000
34.33529 973.000
34.35524 979.000
34.37519 908.000
34.39513 958.000
34.41508 952.000
34.43503 961.000
34.45498 902.000
34.47492 898.000
34.49487 930.000
34.51482 960.000
34.53476 946.000
34.55471 916.000
34.57466 921.000
34.59460 919.000
34.61455 916.000
34.63450 890.000
34.65444 876.000
34.67439 970.000
34.69434 964.000
34.71429 932.000
34.73423 917.000
34.75418 963.000
34.77413 930.000
34.79407 918.000
34.81402 855.000
34.83397 887.000
34.85391 974.000
34.87386 865.000
34.89381 920.000
34.91376 973.000
34.93370 885.000
34.95365 939.000
34.97360 926.000
34.99354 898.000
35.01349 917.000
35.03344 893.000
35.05338 926.000
35.07333 848.000
35.09328 873.000
35.11322 937.000
35.13317 914.000
35.15312 898.000
35.17307 910.000
35.19301 855.000
35.21296 894.000
35.23291 876.000
35.25285 887.000
35.27280 809.000
35.29275 811.000
35.31269 848.000
35.33264 836.000
35.35259 795.000
35.37254 826.000
35.39248 851.000
35.41243 788.000
35.43238 852.000
35.45232 864.000
35.47227 854.000
35.49222 816.000
35.51216 877.000
35.53211 825.000
35.55206 839.000
35.57201 869.000
35.59195 799.000
35.61190 863.000
35.63185 852.000
35.65179 844.000
35.67174 804.000
35.69169 808.000
35.71163 875.000
35.73158 862.000
35.75153 801.000
35.77147 797.000
35.79142 786.000
35.81137 799.000
35.83132 776.000
35.85126 791.000
35.87121 795.000
35.89116 842.000
35.91110 834.000
35.93105 792.000
35.95100 772.000
35.97094 811.000
35.99089 786.000
36.01084 819.000
36.03079 756.000
36.05073 746.000
36.07068 787.000
36.09063 787.000
36.11057 785.000
36.13052 842.000
36.15047 739.000
36.17041 760.000
36.19036 791.000
36.21031 800.000
36.23025 780.000
36.25020 817.000
36.27015 762.000
36.29010 762.000
36.31004 736.000
36.32999 760.000
36.34994 765.000
36.36988 767.000
36.38983 801.000
36.40978 758.000
36.42972 765.000
36.44967 765.000
36.46962 755.000
36.48957 801.000
36.50951 792.000
36.52946 793.000
36.54941 743.000
36.56935 776.000
36.58930 743.000
36.60925 800.000
36.62919 817.000
36.64914 799.000
36.66909 811.000
36.68903 801.000
36.70898 767.000
36.72893 756.000
36.74888 785.000
36.76882 760.000
36.78877 821.000
36.80872 776.000
36.82866 759.000
36.84861 782.000
36.86856 787.000
36.88850 732.000
36.90845 771.000
36.92840 777.000
36.94835 753.000
36.96829 717.000
36.98824 756.000
37.00819 741.000
37.02813 821.000
37.04808 774.000
37.06803 794.000
37.08797 754.000
37.10792 763.000
37.12787 677.000
37.14781 735.000
37.16776 715.000
37.18771 725.000
37.20766 744.000
37.22760 764.000
37.24755 743.000
37.26750 768.000
37.28744 787.000
37.30739 766.000
37.32734 747.000
37.34728 761.000
37.36723 782.000
37.38718 760.000
37.40713 728.000
37.42707 802.000
37.44702 743.000
37.46697 783.000
37.48691 729.000
37.50686 745.000
37.52681 823.000
37.54675 721.000
37.56670 782.000
37.58665 739.000
37.60660 708.000
37.62654 739.000
37.64649 749.000
37.66644 745.000
37.68638 787.000
37.70633 758.000
37.72628 778.000
37.74622 753.000
37.76617 808.000
37.78612 759.000
37.80606 686.000
37.82601 792.000
37.84596 779.000
37.86591 756.000
37.88585 731.000
37.90580 780.000
37.92575 767.000
37.94569 807.000
37.96564 830.000
37.98559 763.000
38.00553 773.000
38.02548 769.000
38.04543 766.000
38.06538 791.000
38.08532 789.000
38.10527 832.000
38.12522 868.000
38.14516 904.000
38.16511 820.000
38.18506 742.000
38.20500 799.000
38.22495 803.000
38.24490 799.000
38.26484 754.000
38.28479 806.000
38.30474 817.000
38.32469 780.000
38.34463 731.000
38.36458 772.000
38.38453 754.000
38.40447 759.000
38.42442 805.000
38.44437 731.000
38.46431 749.000
38.48426 755.000
38.50421 754.000
38.52416 774.000
38.54410 773.000
38.56405 737.000
38.58400 740.000
38.60394 750.000
38.62389 738.000
38.64384 816.000
38.66378 775.000
38.68373 764.000
38.70368 747.000
38.72362 742.000
38.74357 721.000
38.76352 758.000
38.78347 720.000
38.80341 799.000
38.82336 719.000
38.84331 735.000
38.86325 721.000
38.88320 774.000
38.90315 761.000
38.92309 760.000
38.94304 734.000
38.96299 718.000
38.98294 768.000
39.00288 731.000
39.02283 757.000
39.04278 793.000
39.06272 768.000
39.08267 747.000
39.10262 754.000
39.12256 751.000
39.14251 759.000
39.16246 773.000
39.18241 764.000
39.20235 747.000
39.22230 753.000
39.24225 712.000
39.26219 769.000
39.28214 756.000
39.30209 727.000
39.32203 793.000
39.34198 762.000
39.36193 773.000
39.38187 738.000
39.40182 785.000
39.42177 811.000
39.44172 782.000
39.46166 744.000
39.48161 752.000
39.50156 791.000
39.52150 791.000
39.54145 725.000
39.56140 783.000
39.58134 788.000
39.60129 784.000
39.62124 773.000
39.64119 753.000
39.66113 761.000
39.68108 760.000
39.70103 778.000
39.72097 760.000
39.74092 766.000
39.76087 803.000
39.78081 778.000
39.80076 743.000
39.82071 741.000
39.84065 786.000
39.86060 755.000
39.88055 737.000
39.90050 785.000
39.92044 747.000
39.94039 749.000
39.96034 805.000
39.98028 713.000
40.00023 771.000
40.02018 777.000
40.04012 785.000
40.06007 768.000
40.08002 771.000
40.09997 708.000
40.11991 762.000
40.13986 758.000
40.15981 798.000
40.17975 790.000
40.19970 743.000
40.21965 778.000
40.23959 773.000
40.25954 766.000
40.27949 709.000
40.29943 751.000
40.31938 748.000
40.33933 781.000
40.35928 768.000
40.37922 759.000
40.39917 754.000
40.41912 780.000
40.43906 765.000
40.45901 774.000
40.47896 736.000
40.49890 775.000
40.51885 756.000
40.53880 765.000
40.55875 777.000
40.57869 759.000
40.59864 801.000
40.61859 723.000
40.63853 725.000
40.65848 702.000
40.67843 752.000
40.69837 751.000
40.71832 816.000
40.73827 759.000
40.75822 804.000
40.77816 802.000
40.79811 731.000
40.81806 795.000
40.83800 787.000
40.85795 738.000
40.87790 838.000
40.89784 738.000
40.91779 722.000
40.93774 727.000
40.95768 747.000
40.97763 763.000
40.99758 759.000
41.01753 745.000
41.03747 741.000
41.05742 777.000
41.07737 795.000
41.09731 745.000
41.11726 732.000
41.13721 747.000
41.15715 749.000
41.17710 758.000
41.19705 757.000
41.21700 764.000
41.23694 789.000
41.25689 730.000
41.27684 760.000
41.29678 729.000
41.31673 738.000
41.33668 736.000
41.35662 781.000
41.37657 712.000
41.39652 797.000
41.41646 762.000
41.43641 776.000
41.45636 743.000
41.47631 734.000
41.49625 749.000
41.51620 768.000
41.53615 761.000
41.55609 773.000
41.57604 746.000
41.59599 750.000
41.61593 786.000
41.63588 732.000
41.65583 738.000
41.67578 776.000
41.69572 710.000
41.71567 773.000
41.73562 760.000
41.75556 723.000
41.77551 708.000
41.79546 721.000
41.81540 729.000
41.83535 695.000
41.85530 702.000
41.87524 749.000
41.89519 751.000
41.91514 740.000
41.93509 799.000
41.95503 720.000
41.97498 737.000
41.99493 773.000
42.01487 742.000
42.03482 738.000
42.05477 768.000
42.07471 796.000
42.09466 795.000
42.11461 785.000
42.13456 733.000
42.15450 696.000
42.17445 695.000
42.19440 776.000
42.21434 734.000
42.23429 721.000
42.25424 761.000
42.27418 722.000
42.29413 706.000
42.31408 759.000
42.33403 752.000
42.35397 771.000
42.37392 726.000
42.39387 768.000
42.41381 739.000
42.43376 734.000
42.45371 709.000
42.47365 754.000
42.49360 719.000
42.51355 763.000
42.53349 774.000
42.55344 707.000
42.57339 747.000
42.59334 710.000
42.61328 754.000
42.63323 733.000
42.65318 707.000
42.67312 738.000
42.69307 722.000
42.71302 751.000
42.73296 715.000
42.75291 749.000
42.77286 702.000
42.79281 705.000
42.81275 686.000
42.83270 743.000
42.85265 700.000
42.87259 721.000
42.89254 746.000
42.91249 720.000
42.93243 708.000
42.95238 755.000
42.97233 753.000
42.99227 723.000
43.01222 732.000
43.03217 717.000
43.05212 782.000
43.07206 703.000
43.09201 771.000
43.11196 707.000
43.13190 674.000
43.15185 664.000
43.17180 662.000
43.19174 706.000
43.21169 631.000
43.23164 708.000
43.25159 702.000
43.27153 637.000
43.29148 658.000
43.31143 652.000
43.33137 698.000
43.35132 703.000
43.37127 677.000
43.39121 683.000
43.41116 685.000
43.43111 668.000
43.45105 718.000
43.47100 657.000
43.49095 687.000
43.51090 665.000
43.53084 634.000
43.55079 679.000
43.57074 689.000
43.59068 698.000
43.61063 688.000
43.63058 667.000
43.65052 674.000
43.67047 662.000
43.69042 659.000
43.71037 667.000
43.73031 659.000
43.75026 646.000
43.77021 653.000
43.79015 675.000
43.81010 696.000
43.83005 665.000
43.84999 631.000
43.86994 694.000
43.88989 665.000
43.90984 690.000
43.92978 638.000
43.94973 636.000
43.96968 637.000
43.98962 645.000
44.00957 613.000
44.02952 633.000
44.04946 674.000
44.06941 618.000
44.08936 669.000
44.10930 704.000
44.12925 655.000
44.14920 659.000
44.16915 635.000
44.18909 660.000
44.20904 696.000
44.22899 710.000
44.24893 663.000
44.26888 655.000
44.28883 636.000
44.30877 638.000
44.32872 654.000
44.34867 649.000
44.36862 660.000
44.38856 643.000
44.40851 641.000
44.42846 624.000
44.44840 657.000
44.46835 647.000
44.48830 627.000
44.50824 618.000
44.52819 628.000
44.54814 633.000
44.56808 624.000
44.58803 564.000
44.60798 620.000
44.62793 633.000
44.64787 590.000
44.66782 617.000
44.68777 624.000
44.70771 576.000
44.72766 600.000
44.74761 601.000
44.76755 638.000
44.78750 634.000
44.80745 610.000
44.82740 640.000
44.84734 596.000
44.86729 595.000
44.88724 603.000
44.90718 658.000
44.92713 627.000
44.94708 569.000
44.96702 568.000
44.98697 615.000
45.00692 585.000
45.02686 584.000
45.04681 611.000
45.06676 582.000
45.08671 574.000
45.10665 608.000
45.12660 590.000
45.14655 607.000
45.16649 615.000
45.18644 607.000
45.20639 588.000
45.22633 596.000
45.24628 589.000
45.26623 576.000
45.28618 548.000
45.30612 622.000
45.32607 572.000
45.34602 591.000
45.36596 582.000
45.38591 581.000
45.40586 576.000
45.42580 553.000
45.44575 619.000
45.46570 596.000
45.48565 561.000
45.50559 579.000
45.52554 607.000
45.54549 600.000
45.56543 588.000
45.58538 604.000
45.60533 580.000
45.62527 586.000
45.64522 548.000
45.66517 597.000
45.68511 565.000
45.70506 577.000
45.72501 554.000
45.74496 535.000
45.76490 548.000
45.78485 603.000
45.80480 606.000
45.82474 610.000
45.84469 532.000
45.86464 565.000
45.88458 530.000
45.90453 578.000
45.92448 589.000
45.94443 575.000
45.96437 528.000
45.98432 577.000
46.00427 506.000
46.02421 561.000
46.04416 583.000
46.06411 553.000
46.08405 572.000
46.10400 605.000
46.12395 537.000
46.14389 548.000
46.16384 580.000
46.18379 558.000
46.20374 516.000
46.22368 587.000
46.24363 548.000
46.26358 501.000
46.28352 609.000
46.30347 559.000
46.32342 535.000
46.34336 519.000
46.36331 550.000
46.38326 490.000
46.40321 481.000
46.42315 511.000
46.44310 553.000
46.46305 562.000
46.48299 539.000
46.50294 557.000
46.52289 537.000
46.54283 551.000
46.56278 490.000
46.58273 518.000
46.60267 567.000
46.62262 553.000
46.64257 522.000
46.66252 522.000
46.68246 560.000
46.70241 542.000
46.72236 539.000
46.74230 517.000
46.76225 495.000
46.78220 513.000
46.80214 540.000
46.82209 476.000
46.84204 535.000
46.86199 528.000
46.88193 495.000
46.90188 553.000
46.92183 548.000
46.94177 527.000
46.96172 523.000
46.98167 503.000
47.00161 506.000
47.02156 515.000
47.04151 530.000
47.06146 552.000
47.08140 493.000
47.10135 531.000
47.12130 514.000
47.14124 489.000
47.16119 529.000
47.18114 560.000
47.20108 522.000
47.22103 496.000
47.24098 519.000
47.26092 486.000
47.28087 471.000
47.30082 490.000
47.32077 501.000
47.34071 480.000
47.36066 514.000
47.38061 502.000
47.40055 539.000
47.42050 531.000
47.44045 491.000
47.46039 528.000
47.48034 489.000
47.50029 524.000
47.52024 480.000
47.54018 442.000
47.56013 480.000
47.58008 516.000
47.60002 506.000
47.61997 528.000
47.63992 506.000
47.65986 530.000
47.67981 529.000
47.69976 502.000
47.71970 518.000
47.73965 525.000
47.75960 477.000
47.77955 508.000
47.79949 508.000
47.81944 529.000
47.83939 516.000
47.85933 514.000
47.87928 540.000
47.89923 527.000
47.91917 496.000
47.93912 543.000
47.95907 531.000
47.97902 503.000
47.99896 493.000
48.01891 530.000
48.03886 521.000
48.05880 494.000
48.07875 491.000
48.09870 491.000
48.11864 515.000
48.13859 514.000
48.15854 471.000
48.17848 506.000
48.19843 519.000
48.21838 512.000
48.23833 508.000
48.25827 475.000
48.27822 474.000
48.29817 499.000
48.31811 511.000
48.33806 489.000
48.35801 505.000
48.37795 496.000
48.39790 466.000
48.41785 511.000
48.43780 518.000
48.45774 481.000
48.47769 472.000
48.49764 503.000
48.51758 462.000
48.53753 479.000
48.55748 494.000
48.57742 472.000
48.59737 514.000
48.61732 472.000
48.63726 451.000
48.65721 501.000
48.67716 449.000
48.69711 442.000
48.71705 499.000
48.73700 499.000
48.75695 520.000
48.77689 492.000
48.79684 477.000
48.81679 489.000
48.83673 444.000
48.85668 461.000
48.87663 484.000
48.89658 496.000
48.91652 501.000
48.93647 483.000
48.95642 477.000
48.97636 428.000
48.99631 483.000
49.01626 453.000
49.03620 478.000
49.05615 453.000
49.07610 447.000
49.09605 498.000
49.11599 435.000
49.13594 494.000
49.15589 454.000
49.17583 461.000
49.19578 441.000
49.21573 498.000
49.23567 437.000
49.25562 476.000
49.27557 464.000
49.29551 457.000
49.31546 443.000
49.33541 480.000
49.35536 454.000
49.37530 446.000
49.39525 457.000
49.41520 487.000
49.43514 471.000
49.45509 491.000
49.47504 476.000
49.49498 482.000
49.51493 468.000
49.53488 473.000
49.55483 439.000
49.57477 454.000
49.59472 483.000
49.61467 428.000
49.63461 492.000
49.65456 464.000
49.67451 435.000
49.69445 469.000
49.71440 474.000
49.73435 472.000
49.75429 429.000
49.77424 472.000
49.79419 477.000
49.81414 468.000
49.83408 463.000
49.85403 437.000
49.87398 468.000
49.89392 475.000
49.91387 455.000
49.93382 459.000
49.95376 447.000
49.97371 474.000
49.99366 456.000
50.01361 433.000
50.03355 457.000
50.05350 459.000
50.07345 469.000
50.09339 464.000
50.11334 501.000
50.13329 473.000
50.15323 476.000
50.17318 442.000
50.19313 405.000
50.21307 476.000
50.23302 445.000
50.25297 438.000
50.27292 425.000
50.29286 436.000
50.31281 442.000
50.33276 440.000
50.35270 457.000
50.37265 472.000
50.39260 417.000
50.41254 451.000
50.43249 468.000
50.45244 452.000
50.47239 445.000
50.49233 436.000
50.51228 457.000
50.53223 426.000
50.55217 436.000
50.57212 478.000
50.59207 439.000
50.61201 447.000
50.63196 409.000
50.65191 444.000
50.67186 424.000
50.69180 441.000
50.71175 450.000
50.73170 423.000
50.75164 427.000
50.77159 428.000
50.79154 420.000
50.81148 467.000
50.83143 429.000
50.85138 417.000
50.87132 415.000
50.89127 417.000
50.91122 438.000
50.93117 467.000
50.95111 429.000
50.97106 481.000
50.99101 422.000
51.01095 461.000
51.03090 478.000
51.05085 463.000
51.07079 477.000
51.09074 421.000
51.11069 434.000
51.13064 406.000
51.15058 440.000
51.17053 453.000
51.19048 453.000
51.21042 437.000
51.23037 443.000
51.25032 455.000
51.27026 456.000
51.29021 437.000
51.31016 465.000
51.33010 422.000
51.35005 404.000
51.37000 448.000
51.38995 450.000
51.40989 444.000
51.42984 426.000
51.44979 423.000
51.46973 442.000
51.48968 441.000
51.50963 406.000
51.52957 441.000
51.54952 413.000
51.56947 420.000
51.58942 436.000
51.60936 422.000
51.62931 461.000
51.64926 438.000
51.66920 432.000
51.68915 430.000
51.70910 441.000
51.72904 445.000
51.74899 407.000
51.76894 426.000
51.78888 427.000
51.80883 409.000
51.82878 440.000
51.84873 434.000
51.86867 406.000
51.88862 396.000
51.90857 440.000
51.92851 414.000
51.94846 474.000
51.96841 381.000
51.98835 450.000
52.00830 413.000
52.02825 447.000
52.04820 425.000
52.06814 421.000
52.08809 464.000
52.10804 436.000
52.12798 424.000
52.14793 448.000
52.16788 404.000
52.18782 463.000
52.20777 455.000
52.22772 424.000
52.24767 449.000
52.26761 418.000
52.28756 426.000
52.30751 431.000
52.32745 404.000
52.34740 438.000
52.36735 426.000
52.38729 375.000
52.40724 415.000
52.42719 420.000
52.44713 463.000
52.46708 405.000
52.48703 406.000
52.50698 418.000
52.52692 445.000
52.54687 440.000
52.56682 396.000
52.58676 396.000
52.60671 464.000
52.62666 443.000
52.64660 431.000
52.66655 453.000
52.68650 406.000
52.70645 413.000
52.72639 416.000
52.74634 458.000
52.76629 415.000
52.78623 417.000
52.80618 446.000
52.82613 423.000
52.84607 456.000
52.86602 429.000
52.88597 391.000
52.90591 408.000
52.92586 425.000
52.94581 440.000
52.96576 406.000
52.98570 437.000
53.00565 383.000
53.02560 461.000
53.04554 445.000
53.06549 437.000
53.08544 421.000
53.10538 435.000
53.12533 428.000
53.14528 407.000
53.16523 424.000
53.18517 416.000
53.20512 401.000
53.22507 403.000
53.24501 406.000
53.26496 391.000
53.28491 425.000
53.30485 383.000
53.32480 429.000
53.34475 414.000
53.36469 400.000
53.38464 384.000
53.40459 411.000
53.42454 408.000
53.44448 440.000
53.46443 397.000
53.48438 420.000
53.50432 406.000
53.52427 383.000
53.54422 458.000
53.56416 414.000
53.58411 398.000
53.60406 412.000
53.62401 425.000
53.64395 437.000
53.66390 410.000
53.68385 426.000
53.70379 421.000
53.72374 416.000
53.74369 396.000
53.76363 406.000
53.78358 409.000
53.80353 430.000
53.82348 432.000
53.84342 390.000
53.86337 422.000
53.88332 422.000
53.90326 427.000
53.92321 407.000
53.94316 415.000
53.96310 395.000
53.98305 415.000
54.00300 415.000
54.02294 423.000
54.04289 418.000
54.06284 374.000
54.08279 405.000
54.10273 433.000
54.12268 386.000
54.14263 421.000
54.16257 406.000
54.18252 412.000
54.20247 446.000
54.22241 434.000
54.24236 399.000
54.26231 392.000
54.28226 386.000
54.30220 419.000
54.32215 408.000
54.34210 423.000
54.36204 395.000
54.38199 388.000
54.40194 422.000
54.42188 436.000
54.44183 415.000
54.46178 406.000
54.48172 355.000
54.50167 427.000
54.52162 384.000
54.54157 384.000
54.56151 396.000
54.58146 404.000
54.60141 446.000
54.62135 405.000
54.64130 397.000
54.66125 404.000
54.68119 352.000
54.70114 379.000
54.72109 416.000
54.74104 390.000
54.76098 413.000
54.78093 406.000
54.80088 425.000
54.82082 395.000
54.84077 416.000
54.86072 404.000
54.88066 391.000
54.90061 424.000
54.92056 406.000
54.94050 425.000
54.96045 396.000
54.98040 354.000
55.00035 407.000
55.02029 420.000
55.04024 431.000
55.06019 403.000
55.08013 359.000
55.10008 376.000
55.12003 393.000
55.13997 383.000
55.15992 448.000
55.17987 390.000
55.19982 403.000
55.21976 382.000
55.23971 386.000
55.25966 397.000
55.27960 380.000
55.29955 410.000
55.31950 382.000
55.33944 412.000
55.35939 447.000
55.37934 371.000
55.39929 369.000
55.41923 394.000
55.43918 406.000
55.45913 407.000
55.47907 373.000
55.49902 383.000
55.51897 373.000
55.53891 417.000
55.55886 380.000
55.57881 374.000
55.59875 383.000
55.61870 380.000
55.63865 395.000
55.65860 372.000
55.67854 371.000
55.69849 358.000
55.71844 396.000
55.73838 390.000
55.75833 408.000
55.77828 364.000
55.79822 418.000
55.81817 382.000
55.83812 403.000
55.85807 388.000
55.87801 379.000
55.89796 339.000
55.91791 388.000
55.93785 384.000
55.95780 386.000
55.97775 380.000
55.99769 384.000
56.01764 349.000
56.03759 453.000
56.05753 384.000
56.07748 393.000
56.09743 414.000
56.11738 369.000
56.13732 405.000
56.15727 373.000
56.17722 377.000
56.19716 358.000
56.21711 390.000
56.23706 372.000
56.25700 371.000
56.27695 363.000
56.29690 358.000
56.31685 371.000
56.33679 371.000
56.35674 373.000
56.37669 387.000
56.39663 402.000
56.41658 381.000
56.43653 354.000
56.45647 372.000
56.47642 380.000
56.49637 388.000
56.51631 374.000
56.53626 375.000
56.55621 347.000
56.57616 380.000
56.59610 365.000
56.61605 381.000
56.63600 346.000
56.65594 373.000
56.67589 366.000
56.69584 353.000
56.71578 393.000
56.73573 366.000
56.75568 342.000
56.77563 403.000
56.79557 402.000
56.81552 354.000
56.83547 370.000
56.85541 363.000
56.87536 353.000
56.89531 354.000
56.91525 370.000
56.93520 377.000
56.95515 362.000
56.97510 375.000
56.99504 382.000
57.01499 396.000
57.03494 385.000
57.05488 362.000
57.07483 343.000
57.09478 377.000
57.11472 356.000
57.13467 382.000
57.15462 372.000
57.17456 350.000
57.19451 370.000
57.21446 369.000
57.23441 412.000
57.25435 366.000
57.27430 395.000
57.29425 345.000
57.31419 344.000
57.33414 335.000
57.35409 382.000
57.37403 385.000
57.39398 383.000
57.41393 436.000
57.43388 362.000
57.45382 365.000
57.47377 360.000
57.49372 375.000
57.51366 381.000
57.53361 385.000
57.55356 367.000
57.57350 378.000
57.59345 379.000
57.61340 395.000
57.63334 381.000
57.65329 403.000
57.67324 398.000
57.69319 377.000
57.71313 400.000
57.73308 379.000
57.75303 373.000
57.77297 372.000
57.79292 407.000
57.81287 368.000
57.83281 364.000
57.85276 333.000
57.87271 374.000
57.89266 342.000
57.91260 385.000
57.93255 362.000
57.95250 368.000
57.97244 354.000
57.99239 364.000
58.01234 375.000
58.03228 369.000
58.05223 393.000
58.07218 389.000
58.09212 351.000
58.11207 369.000
58.13202 367.000
58.15197 371.000
58.17191 371.000
58.19186 354.000
58.21181 406.000
58.23175 372.000
58.25170 385.000
58.27165 381.000
58.29159 375.000
58.31154 360.000
58.33149 302.000
58.35144 370.000
58.37138 377.000
58.39133 323.000
58.41128 366.000
58.43122 331.000
58.45117 353.000
58.47112 347.000
58.49106 348.000
58.51101 346.000
58.53096 359.000
58.55090 369.000
58.57085 334.000
58.59080 346.000
58.61075 368.000
58.63069 362.000
58.65064 368.000
58.67059 361.000
58.69053 391.000
58.71048 327.000
58.73043 340.000
58.75037 349.000
58.77032 355.000
58.79027 345.000
58.81022 329.000
58.83016 366.000
58.85011 351.000
58.87006 345.000
58.89000 364.000
58.90995 362.000
58.92990 383.000
58.94984 364.000
58.96979 341.000
58.98974 386.000
59.00969 320.000
59.02963 357.000
59.04958 337.000
59.06953 371.000
59.08947 339.000
59.10942 337.000
59.12937 345.000
59.14931 337.000
59.16926 355.000
59.18921 326.000
59.20915 336.000
59.22910 381.000
59.24905 350.000
59.26900 311.000
59.28894 347.000
59.30889 354.000
59.32884 363.000
59.34878 320.000
59.36873 332.000
59.38868 375.000
59.40862 340.000
59.42857 352.000
59.44852 317.000
59.46847 314.000
59.48841 349.000
59.50836 325.000
59.52831 346.000
59.54825 339.000
59.56820 361.000
59.58815 358.000
59.60809 357.000
59.62804 321.000
59.64799 351.000
59.66793 364.000
59.68788 362.000
59.70783 345.000
59.72778 373.000
59.74772 327.000
59.76767 345.000
59.78762 320.000
59.80756 351.000
59.82751 313.000
59.84746 318.000
59.86740 361.000
59.88735 332.000
59.90730 353.000
59.92725 332.000
59.94719 349.000
59.96714 328.000
59.98709 336.000
60.00703 333.000
60.02698 317.000
60.04693 338.000
60.06687 341.000
60.08682 343.000
60.10677 361.000
60.12671 346.000
60.14666 341.000
60.16661 400.000
60.18656 346.000
60.20650 338.000
60.22645 330.000
60.24640 335.000
60.26634 359.000
60.28629 370.000
60.30624 318.000
60.32618 329.000
60.34613 360.000
60.36608 359.000
60.38603 343.000
60.40597 334.000
60.42592 353.000
60.44587 332.000
60.46581 333.000
60.48576 344.000
60.50571 369.000
60.52565 356.000
60.54560 335.000
60.56555 312.000
60.58550 319.000
60.60544 387.000
60.62539 373.000
60.64534 347.000
60.66528 383.000
60.68523 346.000
60.70518 349.000
60.72512 315.000
60.74507 367.000
60.76502 371.000
60.78496 319.000
60.80491 359.000
60.82486 359.000
60.84481 353.000
60.86475 360.000
60.88470 357.000
60.90465 361.000
60.92459 339.000
60.94454 392.000
60.96449 351.000
60.98443 331.000
61.00438 341.000
61.02433 344.000
61.04428 350.000
61.06422 304.000
61.08417 311.000
61.10412 330.000
61.12406 340.000
61.14401 334.000
61.16396 339.000
61.18390 325.000
61.20385 324.000
61.22380 342.000
61.24374 341.000
61.26369 322.000
61.28364 353.000
61.30359 304.000
61.32353 355.000
61.34348 360.000
61.36343 343.000
61.38337 354.000
61.40332 340.000
61.42327 326.000
61.44321 336.000
61.46316 328.000
61.48311 309.000
61.50306 344.000
61.52300 320.000
61.54295 342.000
61.56290 330.000
61.58284 312.000
61.60279 309.000
61.62274 346.000
61.64268 346.000
61.66263 348.000
61.68258 327.000
61.70252 267.000
61.72247 308.000
61.74242 314.000
61.76237 335.000
61.78231 305.000
61.80226 325.000
61.82221 363.000
61.84215 297.000
61.86210 350.000
61.88205 298.000
61.90199 319.000
61.92194 326.000
61.94189 320.000
61.96184 347.000
61.98178 294.000
62.00173 305.000
62.02168 348.000
62.04162 350.000
62.06157 322.000
62.08152 327.000
62.10146 288.000
62.12141 288.000
62.14136 343.000
62.16131 365.000
62.18125 326.000
62.20120 304.000
62.22115 333.000
62.24109 312.000
62.26104 324.000
62.28099 326.000
62.30093 328.000
62.32088 332.000
62.34083 349.000
62.36077 312.000
62.38072 326.000
62.40067 319.000
62.42062 297.000
62.44056 310.000
62.46051 326.000
62.48046 341.000
62.50040 283.000
62.52035 318.000
62.54030 317.000
62.56024 324.000
62.58019 312.000
62.60014 355.000
62.62009 337.000
62.64003 327.000
62.65998 313.000
62.67993 335.000
62.69987 310.000
62.71982 300.000
62.73977 288.000
62.75971 325.000
62.77966 312.000
62.79961 313.000
62.81955 306.000
62.83950 330.000
62.85945 324.000
62.87940 322.000
62.89934 293.000
62.91929 319.000
62.93924 330.000
62.95918 304.000
62.97913 326.000
62.99908 327.000
63.01902 309.000
63.03897 348.000
63.05892 293.000
63.07887 304.000
63.09881 313.000
63.11876 325.000
63.13871 346.000
63.15865 321.000
63.17860 323.000
63.19855 332.000
63.21849 330.000
63.23844 342.000
63.25839 280.000
63.27833 336.000
63.29828 295.000
63.31823 297.000
63.33818 334.000
63.35812 323.000
63.37807 320.000
63.39802 322.000
63.41796 320.000
63.43791 268.000
63.45786 303.000
63.47780 303.000
63.49775 326.000
63.51770 285.000
63.53765 309.000
63.55759 324.000
63.57754 336.000
63.59749 290.000
63.61743 308.000
63.63738 287.000
63.65733 294.000
63.67727 309.000
63.69722 318.000
63.71717 335.000
63.73712 303.000
63.75706 322.000
63.77701 294.000
63.79696 337.000
63.81690 285.000
63.83685 290.000
63.85680 345.000
63.87674 292.000
63.89669 326.000
63.91664 302.000
63.93658 310.000
63.95653 337.000
63.97648 322.000
63.99643 335.000
64.01637 318.000
64.03632 300.000
64.05627 255.000
64.07621 317.000
64.09616 311.000
64.11611 359.000
64.13605 273.000
64.15600 338.000
64.17595 293.000
64.19590 332.000
64.21584 331.000
64.23579 329.000
64.25574 308.000
64.27568 305.000
64.29563 329.000
64.31558 296.000
64.33552 326.000
64.35547 298.000
64.37542 346.000
64.39536 302.000
64.41531 327.000
64.43526 343.000
64.45521 335.000
64.47515 293.000
64.49510 307.000
64.51505 315.000
64.53499 318.000
64.55494 298.000
64.57489 320.000
64.59483 335.000
64.61478 315.000
64.63473 324.000
64.65468 317.000
64.67462 344.000
64.69457 306.000
64.71452 307.000
64.73446 293.000
64.75441 341.000
64.77436 366.000
64.79430 290.000
64.81425 309.000
64.83420 311.000
64.85414 308.000
64.87409 321.000
64.89404 309.000
64.91399 337.000
64.93393 306.000
64.95388 312.000
64.97383 335.000
64.99377 325.000
65.01372 298.000
65.03367 300.000
65.05361 311.000
65.07356 318.000
65.09351 335.000
65.11346 310.000
65.13340 323.000
65.15335 340.000
65.17330 304.000
65.19324 335.000
65.21319 316.000
65.23314 331.000
65.25308 301.000
65.27303 291.000
65.29298 337.000
65.31293 342.000
65.33287 308.000
65.35282 337.000
65.37277 334.000
65.39271 357.000
65.41266 346.000
65.43261 308.000
65.45255 336.000
65.47250 323.000
65.49245 340.000
65.51239 351.000
65.53234 277.000
65.55229 326.000
65.57224 350.000
65.59218 304.000
65.61213 340.000
65.63208 320.000
65.65202 316.000
65.67197 345.000
65.69192 322.000
65.71186 347.000
65.73181 305.000
65.75176 310.000
65.77171 338.000
65.79165 334.000
65.81160 297.000
65.83155 311.000
65.85149 327.000
65.87144 292.000
65.89139 303.000
65.91133 289.000
65.93128 329.000
65.95123 328.000
65.97117 309.000
65.99112 297.000
66.01107 336.000
66.03102 296.000
66.05096 302.000
66.07091 308.000
66.09086 300.000
66.11080 301.000
66.13075 311.000
66.15070 312.000
66.17064 317.000
66.19059 285.000
66.21054 310.000
66.23049 312.000
66.25043 311.000
66.27038 292.000
66.29033 329.000
66.31027 283.000
66.33022 316.000
66.35017 302.000
66.37011 295.000
66.39006 307.000
66.41001 293.000
66.42995 281.000
66.44990 319.000
66.46985 314.000
66.48980 314.000
66.50974 295.000
66.52969 310.000
66.54964 294.000
66.56958 331.000
66.58953 328.000
66.60948 314.000
66.62942 310.000
66.64937 282.000
66.66932 321.000
66.68927 325.000
66.70921 319.000
66.72916 309.000
66.74911 295.000
66.76905 309.000
66.78900 312.000
66.80895 307.000
66.82889 331.000
66.84884 251.000
66.86879 317.000
66.88874 274.000
66.90868 302.000
66.92863 340.000
66.94858 332.000
66.96852 303.000
66.98847 321.000
67.00842 292.000
67.02836 296.000
67.04831 329.000
67.06826 326.000
67.08820 303.000
67.10815 319.000
67.12810 349.000
67.14805 318.000
67.16799 318.000
67.18794 326.000
67.20789 362.000
67.22783 324.000
67.24778 348.000
67.26773 320.000
67.28767 304.000
67.30762 329.000
67.32757 324.000
67.34752 324.000
67.36746 290.000
67.38741 312.000
67.40736 348.000
67.42730 336.000
67.44725 324.000
67.46720 299.000
67.48714 332.000
67.50709 302.000
67.52704 307.000
67.54698 327.000
67.56693 336.000
67.58688 315.000
67.60683 318.000
67.62677 338.000
67.64672 320.000
67.66667 302.000
67.68661 302.000
67.70656 318.000
67.72651 331.000
67.74645 286.000
67.76640 326.000
67.78635 320.000
67.80630 297.000
67.82624 308.000
67.84619 326.000
67.86614 330.000
67.88608 323.000
67.90603 283.000
67.92598 336.000
67.94592 296.000
67.96587 278.000
67.98582 338.000
68.00576 315.000
68.02571 300.000
68.04566 318.000
68.06561 301.000
68.08555 285.000
68.10550 295.000
68.12545 310.000
68.14539 310.000
68.16534 301.000
68.18529 314.000
68.20523 267.000
68.22518 324.000
68.24513 299.000
68.26508 323.000
68.28502 269.000
68.30497 283.000
68.32492 289.000
68.34486 292.000
68.36481 290.000
68.38476 309.000
68.40470 341.000
68.42465 310.000
68.44460 272.000
68.46455 283.000
68.48449 313.000
68.50444 279.000
68.52439 320.000
68.54433 283.000
68.56428 310.000
68.58423 291.000
68.60417 260.000
68.62412 322.000
68.64407 300.000
68.66401 309.000
68.68396 298.000
68.70391 303.000
68.72386 321.000
68.74380 303.000
68.76375 301.000
68.78370 311.000
68.80364 281.000
68.82359 289.000
68.84354 309.000
68.86348 289.000
68.88343 264.000
68.90338 266.000
68.92333 274.000
68.94327 291.000
68.96322 316.000
68.98317 322.000
69.00311 323.000
69.02306 297.000
69.04301 275.000
69.06295 267.000
69.08290 300.000
69.10285 310.000
69.12279 308.000
69.14274 305.000
69.16269 296.000
69.18264 301.000
69.20258 313.000
69.22253 311.000
69.24248 274.000
69.26242 290.000
69.28237 316.000
69.30232 293.000
69.32226 285.000
69.34221 306.000
69.36216 259.000
69.38211 332.000
69.40205 318.000
69.42200 279.000
69.44195 297.000
69.46189 288.000
69.48184 293.000
69.50179 321.000
69.52173 336.000
69.54168 300.000
69.56163 333.000
69.58157 326.000
69.60152 307.000
69.62147 325.000
69.64142 299.000
69.66136 320.000
69.68131 312.000
69.70126 316.000
69.72120 332.000
69.74115 295.000
69.76110 273.000
69.78104 291.000
69.80099 287.000
69.82094 316.000
69.84089 317.000
69.86083 316.000
69.88078 284.000
69.90073 331.000
69.92067 297.000
69.94062 326.000
69.96057 282.000
69.98051 323.000
70.00046 282.000
70.02041 277.000
70.04035 282.000
70.06030 297.000
70.08025 265.000
70.10020 284.000
70.12014 288.000
70.14009 272.000
70.16004 322.000
70.17998 299.000
70.19993 291.000
70.21988 301.000
70.23982 256.000
70.25977 309.000
70.27972 342.000
70.29967 292.000
70.31961 290.000
70.33956 304.000
70.35951 283.000
70.37945 295.000
70.39940 280.000
70.41935 292.000
70.43929 291.000
70.45924 278.000
70.47919 293.000
70.49914 303.000
70.51908 274.000
70.53903 269.000
70.55898 346.000
70.57892 338.000
70.59887 281.000
70.61882 260.000
70.63876 307.000
70.65871 281.000
70.67866 304.000
70.69860 292.000
70.71855 328.000
70.73850 298.000
70.75845 319.000
70.77839 280.000
70.79834 285.000
70.81829 313.000
70.83823 269.000
70.85818 278.000
70.87813 318.000
70.89807 294.000
70.91802 301.000
70.93797 326.000
70.95792 307.000
70.97786 306.000
70.99781 303.000
71.01776 293.000
71.03770 298.000
71.05765 263.000
71.07760 311.000
71.09754 338.000
71.11749 299.000
71.13744 282.000
71.15738 297.000
71.17733 290.000
71.19728 314.000
71.21723 319.000
71.23717 297.000
71.25712 310.000
71.27707 296.000
71.29701 256.000
71.31696 298.000
71.33691 289.000
71.35685 292.000
71.37680 323.000
71.39675 289.000
71.41670 305.000
71.43664 272.000
71.45659 300.000
71.47654 312.000
71.49648 286.000
71.51643 294.000
71.53638 294.000
71.55632 297.000
71.57627 298.000
71.59622 312.000
71.61616 352.000
71.63611 305.000
71.65606 297.000
71.67601 287.000
71.69595 306.000
71.71590 302.000
71.73585 297.000
71.75579 271.000
71.77574 305.000
71.79569 294.000
71.81563 288.000
71.83558 292.000
71.85553 319.000
71.87548 316.000
71.89542 308.000
71.91537 295.000
71.93532 315.000
71.95526 265.000
71.97521 297.000
71.99516 318.000
72.01510 293.000
72.03505 290.000
72.05500 298.000
72.07495 271.000
72.09489 303.000
72.11484 299.000
72.13479 276.000
72.15473 301.000
72.17468 267.000
72.19463 353.000
72.21457 312.000
72.23452 296.000
72.25447 314.000
72.27441 311.000
72.29436 320.000
72.31431 294.000
72.33426 288.000
72.35420 283.000
72.37415 261.000
72.39410 302.000
72.41404 268.000
72.43399 296.000
72.45394 294.000
72.47388 292.000
72.49383 272.000
72.51378 296.000
72.53373 283.000
72.55367 281.000
72.57362 293.000
72.59357 319.000
72.61351 294.000
72.63346 294.000
72.65341 336.000
72.67335 264.000
72.69330 313.000
72.71325 303.000
72.73319 286.000
72.75314 283.000
72.77309 290.000
72.79304 282.000
72.81298 305.000
72.83293 273.000
72.85288 318.000
72.87282 299.000
72.89277 297.000
72.91272 247.000
72.93266 319.000
72.95261 328.000
72.97256 314.000
72.99251 313.000
73.01245 282.000
73.03240 324.000
73.05235 294.000
73.07229 292.000
73.09224 316.000
73.11219 309.000
73.13213 280.000
73.15208 318.000
73.17203 263.000
73.19197 272.000
73.21192 289.000
73.23187 285.000
73.25182 301.000
73.27176 294.000
73.29171 296.000
73.31166 306.000
73.33160 298.000
73.35155 326.000
73.37150 276.000
73.39144 282.000
73.41139 291.000
73.43134 266.000
73.45129 290.000
73.47123 280.000
73.49118 309.000
73.51113 309.000
73.53107 283.000
73.55102 315.000
73.57097 319.000
73.59091 295.000
73.61086 279.000
73.63081 279.000
73.65076 311.000
73.67070 312.000
73.69065 323.000
73.71060 284.000
73.73054 319.000
73.75049 287.000
73.77044 293.000
73.79038 305.000
73.81033 295.000
73.83028 330.000
73.85022 303.000
73.87017 280.000
73.89012 302.000
73.91007 275.000
73.93001 304.000
73.94996 278.000
73.96991 316.000
73.98985 292.000
74.00980 301.000
74.02975 283.000
74.04969 293.000
74.06964 292.000
74.08959 286.000
74.10954 301.000
74.12948 269.000
74.14943 294.000
74.16938 292.000
74.18932 283.000
74.20927 296.000
74.22922 267.000
74.24916 353.000
74.26911 329.000
74.28906 317.000
74.30900 336.000
74.32895 351.000
74.34890 289.000
74.36885 303.000
74.38879 294.000
74.40874 297.000
74.42869 328.000
74.44863 312.000
74.46858 279.000
74.48853 302.000
74.50847 284.000
74.52842 292.000
74.54837 333.000
74.56832 312.000
74.58826 280.000
74.60821 319.000
74.62816 277.000
74.64810 271.000
74.66805 307.000
74.68800 304.000
74.70794 305.000
74.72789 320.000
74.74784 254.000
74.76778 291.000
74.78773 294.000
74.80768 307.000
74.82763 289.000
74.84757 302.000
74.86752 288.000
74.88747 304.000
74.90741 296.000
74.92736 296.000
74.94731 318.000
74.96725 311.000
74.98720 301.000
75.00715 281.000
75.02710 304.000
75.04704 296.000
75.06699 319.000
75.08694 282.000
75.10688 283.000
75.12683 292.000
75.14678 301.000
75.16672 310.000
75.18667 287.000
75.20662 272.000
75.22657 300.000
75.24651 286.000
75.26646 281.000
75.28641 290.000
75.30635 278.000
75.32630 302.000
75.34625 296.000
75.36619 313.000
75.38614 292.000
75.40609 294.000
75.42603 285.000
75.44598 296.000
75.46593 290.000
75.48588 301.000
75.50582 282.000
75.52577 308.000
75.54572 294.000
75.56566 294.000
75.58561 303.000
75.60556 283.000
75.62550 296.000
75.64545 273.000
75.66540 313.000
75.68535 279.000
75.70529 285.000
75.72524 310.000
75.74519 276.000
75.76513 327.000
75.78508 279.000
75.80503 311.000
75.82497 274.000
75.84492 285.000
75.86487 334.000
75.88481 293.000
75.90476 281.000
75.92471 296.000
75.94466 297.000
75.96460 302.000
75.98455 304.000
76.00450 314.000
76.02444 278.000
76.04439 300.000
76.06434 267.000
76.08428 284.000
76.10423 307.000
76.12418 306.000
76.14413 311.000
76.16407 304.000
76.18402 296.000
76.20397 311.000
76.22391 270.000
76.24386 276.000
76.26381 310.000
76.28375 269.000
76.30370 254.000
76.32365 309.000
76.34359 275.000
76.36354 300.000
76.38349 287.000
76.40344 302.000
76.42338 276.000
76.44333 296.000
76.46328 294.000
76.48322 301.000
76.50317 291.000
76.52312 307.000
76.54306 283.000
76.56301 284.000
76.58296 304.000
76.60291 280.000
76.62285 295.000
76.64280 260.000
76.66275 313.000
76.68269 272.000
76.70264 300.000
76.72259 286.000
76.74253 291.000
76.76248 323.000
76.78243 278.000
76.80238 327.000
76.82232 279.000
76.84227 298.000
76.86222 300.000
76.88216 317.000
76.90211 289.000
76.92206 294.000
76.94200 285.000
76.96195 307.000
76.98190 281.000
77.00184 276.000
77.02179 300.000
77.04174 265.000
77.06169 264.000
77.08163 289.000
77.10158 293.000
77.12153 297.000
77.14147 290.000
77.16142 272.000
77.18137 302.000
77.20131 279.000
77.22126 261.000
77.24121 296.000
77.26116 264.000
77.28110 265.000
77.30105 281.000
77.32100 283.000
77.34094 271.000
77.36089 306.000
77.38084 284.000
77.40078 305.000
77.42073 313.000
77.44068 297.000
77.46062 299.000
77.48057 320.000
77.50052 308.000
77.52047 297.000
77.54041 308.000
77.56036 276.000
77.58031 273.000
77.60025 277.000
77.62020 287.000
77.64015 293.000
77.66009 287.000
77.68004 279.000
77.69999 314.000
77.71994 310.000
77.73988 294.000
77.75983 280.000
77.77978 310.000
77.79972 287.000
77.81967 270.000
77.83962 269.000
77.85956 291.000
77.87951 274.000
77.89946 319.000
77.91940 323.000
77.93935 298.000
77.95930 286.000
77.97925 277.000
77.99919 280.000
78.01914 300.000
78.03909 316.000
78.05903 317.000
78.07898 288.000
78.09893 276.000
78.11887 284.000
78.13882 299.000
78.15877 266.000
78.17872 295.000
78.19866 300.000
78.21861 270.000
78.23856 282.000
78.25850 276.000
78.27845 252.000
78.29840 287.000
78.31834 294.000
78.33829 274.000
78.35824 320.000
78.37819 298.000
78.39813 294.000
78.41808 295.000
78.43803 272.000
78.45797 301.000
78.47792 284.000
78.49787 279.000
78.51781 295.000
78.53776 314.000
78.55771 296.000
78.57765 290.000
78.59760 312.000
78.61755 317.000
78.63750 315.000
78.65744 292.000
78.67739 304.000
78.69734 278.000
78.71728 297.000
78.73723 316.000
78.75718 300.000
78.77712 303.000
78.79707 282.000
78.81702 298.000
78.83697 294.000
78.85691 289.000
78.87686 323.000
78.89681 273.000
78.91675 275.000
78.93670 302.000
78.95665 285.000
78.97659 282.000
78.99654 280.000
79.01649 293.000
79.03643 267.000
79.05638 279.000
79.07633 301.000
79.09628 279.000
79.11622 309.000
79.13617 290.000
79.15612 275.000
79.17606 298.000
79.19601 292.000
79.21596 312.000
79.23590 272.000
79.25585 274.000
79.27580 269.000
79.29575 294.000
79.31569 292.000
79.33564 258.000
79.35559 290.000
79.37553 304.000
79.39548 284.000
79.41543 302.000
79.43537 328.000
79.45532 287.000
79.47527 283.000
79.49521 301.000
79.51516 313.000
79.53511 289.000
79.55506 294.000
79.57500 315.000
79.59495 328.000
79.61490 282.000
79.63484 284.000
79.65479 298.000
79.67474 289.000
79.69468 297.000
79.71463 275.000
79.73458 288.000
79.75453 308.000
79.77447 325.000
79.79442 340.000
79.81437 284.000
79.83431 291.000
79.85426 294.000
79.87421 281.000
79.89415 331.000
79.91410 294.000
79.93405 310.000
79.95399 265.000
79.97394 284.000
79.99389 303.000
80.01384 291.000
80.03378 304.000
80.05373 271.000
80.07368 289.000
80.09362 305.000
80.11357 309.000
80.13352 313.000
80.15346 295.000
80.17341 300.000
80.19336 305.000
80.21331 279.000
80.23325 315.000
80.25320 269.000
80.27315 285.000
80.29309 288.000
80.31304 319.000
80.33299 315.000
80.35293 286.000
80.37288 296.000
80.39283 288.000
80.41278 268.000
80.43272 297.000
80.45267 299.000
80.47262 261.000
80.49256 298.000
80.51251 288.000
80.53246 285.000
80.55240 296.000
80.57235 323.000
80.59230 295.000
80.61224 279.000
80.63219 298.000
80.65214 306.000
80.67209 276.000
80.69203 291.000
80.71198 310.000
80.73193 307.000
80.75187 306.000
80.77182 299.000
80.79177 296.000
80.81171 326.000
80.83166 275.000
80.85161 298.000
80.87156 272.000
80.89150 278.000
80.91145 279.000
80.93140 324.000
80.95134 313.000
80.97129 266.000
80.99124 304.000
81.01118 273.000
81.03113 308.000
81.05108 317.000
81.07102 295.000
81.09097 276.000
81.11092 297.000
81.13087 281.000
81.15081 297.000
81.17076 330.000
81.19071 302.000
81.21065 308.000
81.23060 285.000
81.25055 306.000
81.27049 280.000
81.29044 278.000
81.31039 300.000
81.33034 282.000
81.35028 291.000
81.37023 282.000
81.39018 285.000
81.41012 263.000
81.43007 310.000
81.45002 281.000
81.46996 296.000
81.48991 299.000
81.50986 301.000
81.52980 282.000
81.54975 283.000
81.56970 325.000
81.58965 314.000
81.60959 296.000
81.62954 297.000
81.64949 288.000
81.66943 288.000
81.68938 257.000
81.70933 291.000
81.72927 318.000
81.74922 314.000
81.76917 296.000
81.78912 279.000
81.80906 309.000
81.82901 303.000
81.84896 310.000
81.86890 308.000
81.88885 327.000
81.90880 292.000
81.92874 311.000
81.94869 299.000
81.96864 307.000
81.98859 292.000
82.00853 327.000
82.02848 266.000
82.04843 285.000
82.06837 296.000
82.08832 275.000
82.10827 329.000
82.12821 299.000
82.14816 287.000
82.16811 311.000
82.18805 285.000
82.20800 308.000
82.22795 324.000
82.24790 296.000
82.26784 302.000
82.28779 317.000
82.30774 284.000
82.32768 282.000
82.34763 268.000
82.36758 266.000
82.38752 311.000
82.40747 321.000
82.42742 300.000
82.44737 320.000
82.46731 309.000
82.48726 322.000
82.50721 308.000
82.52715 298.000
82.54710 300.000
82.56705 316.000
82.58699 296.000
82.60694 293.000
82.62689 312.000
82.64683 291.000
82.66678 308.000
82.68673 293.000
82.70668 284.000
82.72662 289.000
82.74657 317.000
82.76652 322.000
82.78646 312.000
82.80641 302.000
82.82636 280.000
82.84630 320.000
82.86625 257.000
82.88620 331.000
82.90615 312.000
82.92609 279.000
82.94604 309.000
82.96599 289.000
82.98593 311.000
83.00588 293.000
83.02583 294.000
83.04577 291.000
83.06572 307.000
83.08567 286.000
83.10561 283.000
83.12556 315.000
83.14551 331.000
83.16546 314.000
83.18540 302.000
83.20535 306.000
83.22530 280.000
83.24524 306.000
83.26519 297.000
83.28514 315.000
83.30508 289.000
83.32503 276.000
83.34498 306.000
83.36493 266.000
83.38487 285.000
83.40482 302.000
83.42477 342.000
83.44471 287.000
83.46466 264.000
83.48461 294.000
83.50455 319.000
83.52450 259.000
83.54445 306.000
83.56440 314.000
83.58434 334.000
83.60429 317.000
83.62424 292.000
83.64418 280.000
83.66413 305.000
83.68408 276.000
83.70402 300.000
83.72397 301.000
83.74392 294.000
83.76386 305.000
83.78381 313.000
83.80376 238.000
83.82371 280.000
83.84365 297.000
83.86360 311.000
83.88355 298.000
83.90349 290.000
83.92344 272.000
83.94339 293.000
83.96333 304.000
83.98328 310.000
84.00323 286.000
84.02318 321.000
84.04312 299.000
84.06307 312.000
84.08302 295.000
84.10296 315.000
84.12291 267.000
84.14286 279.000
84.16280 299.000
84.18275 282.000
84.20270 315.000
84.22264 297.000
84.24259 299.000
84.26254 291.000
84.28249 291.000
84.30243 305.000
84.32238 317.000
84.34233 278.000
84.36227 332.000
84.38222 296.000
84.40217 318.000
84.42211 289.000
84.44206 286.000
84.46201 303.000
84.48196 295.000
84.50190 288.000
84.52185 294.000
84.54180 288.000
84.56174 307.000
84.58169 328.000
84.60164 308.000
84.62158 326.000
84.64153 287.000
84.66148 310.000
84.68142 298.000
84.70137 315.000
84.72132 295.000
84.74127 308.000
84.76121 295.000
84.78116 262.000
84.80111 266.000
84.82105 283.000
84.84100 309.000
84.86095 298.000
84.88089 280.000
84.90084 301.000
84.92079 284.000
84.94074 281.000
84.96068 303.000
84.98063 274.000
85.00058 315.000
85.02052 295.000
85.04047 267.000
85.06042 313.000
85.08036 315.000
85.10031 302.000
85.12026 296.000
85.14021 305.000
85.16015 294.000
85.18010 314.000
85.20005 298.000
85.21999 269.000
85.23994 302.000
85.25989 244.000
85.27983 291.000
85.29978 308.000
85.31973 272.000
85.33967 258.000
85.35962 275.000
85.37957 314.000
85.39952 294.000
85.41946 295.000
85.43941 306.000
85.45936 307.000
85.47930 309.000
85.49925 275.000
85.51920 270.000
85.53914 323.000
85.55909 290.000
85.57904 279.000
85.59899 290.000
85.61893 291.000
85.63888 307.000
85.65883 258.000
85.67877 312.000
85.69872 265.000
85.71867 286.000
85.73861 300.000
85.75856 313.000
85.77851 297.000
85.79845 315.000
85.81840 268.000
85.83835 279.000
85.85830 301.000
85.87824 327.000
85.89819 324.000
85.91814 301.000
85.93808 281.000
85.95803 291.000
85.97798 277.000
85.99792 280.000
86.01787 287.000
86.03782 319.000
86.05777 291.000
86.07771 292.000
86.09766 304.000
86.11761 303.000
86.13755 306.000
86.15750 291.000
86.17745 318.000
86.19739 282.000
86.21734 304.000
86.23729 300.000
86.25723 282.000
86.27718 281.000
86.29713 258.000
86.31708 294.000
86.33702 301.000
86.35697 299.000
86.37692 287.000
86.39686 318.000
86.41681 308.000
86.43676 282.000
86.45670 297.000
86.47665 273.000
86.49660 269.000
86.51655 319.000
86.53649 269.000
86.55644 300.000
86.57639 300.000
86.59633 297.000
86.61628 279.000
86.63623 288.000
86.65617 286.000
86.67612 313.000
86.69607 286.000
86.71602 289.000
86.73596 317.000
86.75591 311.000
86.77586 330.000
86.79580 285.000
86.81575 299.000
86.83570 280.000
86.85564 317.000
86.87559 290.000
86.89554 301.000
86.91548 277.000
86.93543 282.000
86.95538 258.000
86.97533 258.000
86.99527 293.000
87.01522 281.000
87.03517 309.000
87.05511 274.000
87.07506 290.000
87.09501 279.000
87.11495 268.000
87.13490 323.000
87.15485 341.000
87.17480 291.000
87.19474 308.000
87.21469 303.000
87.23464 302.000
87.25458 293.000
87.27453 282.000
87.29448 283.000
87.31442 290.000
87.33437 294.000
87.35432 337.000
87.37426 294.000
87.39421 291.000
87.41416 312.000
87.43411 310.000
87.45405 298.000
87.47400 304.000
87.49395 300.000
87.51389 313.000
87.53384 303.000
87.55379 252.000
87.57373 266.000
87.59368 296.000
87.61363 325.000
87.63358 288.000
87.65352 307.000
87.67347 296.000
87.69342 289.000
87.71336 307.000
87.73331 304.000
87.75326 284.000
87.77320 290.000
87.79315 323.000
87.81310 309.000
87.83304 294.000
87.85299 286.000
87.87294 322.000
87.89289 326.000
87.91283 298.000
87.93278 277.000
87.95273 296.000
87.97267 288.000
87.99262 273.000
88.01257 295.000
88.03251 264.000
88.05246 288.000
88.07241 292.000
88.09236 287.000
88.11230 302.000
88.13225 295.000
88.15220 266.000
88.17214 295.000
88.19209 287.000
88.21204 289.000
88.23198 302.000
88.25193 285.000
88.27188 298.000
88.29183 286.000
88.31177 302.000
88.33172 292.000
88.35167 276.000
88.37161 307.000
88.39156 322.000
88.41151 270.000
88.43145 314.000
88.45140 275.000
88.47135 260.000
88.49129 304.000
88.51124 293.000
88.53119 273.000
88.55114 274.000
88.57108 266.000
88.59103 279.000
88.61098 289.000
88.63092 309.000
88.65087 288.000
88.67082 289.000
88.69076 273.000
88.71071 296.000
88.73066 267.000
88.75061 279.000
88.77055 298.000
88.79050 303.000
88.81045 313.000
88.83039 315.000
88.85034 286.000
88.87029 272.000
88.89023 305.000
88.91018 283.000
88.93013 306.000
88.95007 302.000
88.97002 300.000
88.98997 271.000
89.00992 285.000
89.02986 276.000
89.04981 301.000
89.06976 303.000
89.08970 292.000
89.10965 266.000
89.12960 285.000
89.14954 267.000
89.16949 304.000
89.18944 289.000
89.20939 307.000
89.22933 303.000
89.24928 281.000
89.26923 304.000
89.28917 278.000
89.30912 316.000
89.32907 302.000
89.34901 303.000
89.36896 299.000
89.38891 296.000
89.40885 277.000
89.42880 291.000
89.44875 288.000
89.46870 290.000
89.48864 289.000
89.50859 290.000
89.52854 269.000
89.54848 255.000
89.56843 273.000
89.58838 280.000
89.60832 283.000
89.62827 290.000
89.64822 268.000
89.66817 286.000
89.68811 289.000
89.70806 279.000
89.72801 260.000
89.74795 297.000
89.76790 293.000
89.78785 302.000
89.80779 274.000
89.82774 293.000
89.84769 304.000
89.86764 270.000
89.88758 264.000
89.90753 273.000
89.92748 277.000
89.94742 296.000
89.96737 336.000
89.98732 276.000
90.00726 276.000
