10.00000 119.000
10.01995 103.000
10.03989 127.000
10.05984 114.000
10.07979 129.000
10.09973 133.000
10.11968 116.000
10.13963 126.000
10.15958 125.000
10.17952 113.000
10.19947 125.000
10.21942 118.000
10.23936 144.000
10.25931 132.000
10.27926 132.000
10.29920 117.000
10.31915 143.000
10.33910 157.000
10.35905 124.000
10.37899 143.000
10.39894 121.000
10.41889 119.000
10.43883 135.000
10.45878 132.000
10.47873 132.000
10.49867 117.000
10.51862 122.000
10.53857 128.000
10.55851 132.000
10.57846 135.000
10.59841 129.000
10.61836 126.000
10.63830 127.000
10.65825 127.000
10.67820 115.000
10.69814 137.000
10.71809 134.000
10.73804 149.000
10.75798 135.000
10.77793 130.000
10.79788 133.000
10.81783 122.000
10.83777 131.000
10.85772 141.000
10.87767 125.000
10.89761 141.000
10.91756 139.000
10.93751 130.000
10.95745 115.000
10.97740 138.000
10.99735 124.000
11.01730 128.000
11.03724 138.000
11.05719 136.000
11.07714 155.000
11.09708 157.000
11.11703 145.000
11.13698 131.000
11.15692 143.000
11.17687 114.000
11.19682 140.000
11.21676 141.000
11.23671 152.000
11.25666 116.000
11.27661 142.000
11.29655 141.000
11.31650 119.000
11.33645 128.000
11.35639 126.000
11.37634 123.000
11.39629 139.000
11.41623 146.000
11.43618 153.000
11.45613 130.000
11.47608 145.000
11.49602 143.000
11.51597 126.000
11.53592 144.000
11.55586 121.000
11.57581 146.000
11.59576 151.000
11.61570 143.000
11.63565 148.000
11.65560 141.000
11.67554 134.000
11.69549 143.000
11.71544 129.000
11.73539 133.000
11.75533 150.000
11.77528 164.000
11.79523 143.000
11.81517 133.000
11.83512 143.000
11.85507 131.000
11.87501 167.000
11.89496 128.000
11.91491 145.000
11.93486 117.000
11.95480 151.000
11.97475 174.000
11.99470 127.000
12.01464 124.000
12.03459 164.000
12.05454 151.000
12.07448 142.000
12.09443 141.000
12.11438 151.000
12.13432 150.000
12.15427 116.000
12.17422 150.000
12.19417 124.000
12.21411 144.000
12.23406 153.000
12.25401 162.000
12.27395 158.000
12.29390 140.000
12.31385 162.000
12.33379 150.000
12.35374 134.000
12.37369 139.000
12.39364 139.000
12.41358 144.000
12.43353 142.000
12.45348 139.000
12.47342 155.000
12.49337 132.000
12.51332 133.000
12.53326 149.000
12.55321 144.000
12.57316 168.000
12.59311 140.000
12.61305 174.000
12.63300 158.000
12.65295 175.000
12.67289 145.000
12.69284 157.000
12.71279 152.000
12.73273 153.000
12.75268 150.000
12.77263 146.000
12.79257 145.000
12.81252 173.000
12.83247 133.000
12.85242 156.000
12.87236 146.000
12.89231 170.000
12.91226 163.000
12.93220 168.000
12.95215 141.000
12.97210 152.000
12.99204 152.000
13.01199 155.000
13.03194 143.000
13.05189 169.000
13.07183 147.000
13.09178 176.000
13.11173 137.000
13.13167 145.000
13.15162 131.000
13.17157 169.000
13.19151 151.000
13.21146 145.000
13.23141 146.000
13.25135 157.000
13.27130 165.000
13.29125 197.000
13.31120 147.000
13.33114 159.000
13.35109 168.000
13.37104 173.000
13.39098 184.000
13.41093 181.000
13.43088 157.000
13.45082 183.000
13.47077 161.000
13.49072 171.000
13.51067 178.000
13.53061 174.000
13.55056 162.000
13.57051 166.000
13.59045 159.000
13.61040 159.000
13.63035 132.000
13.65029 177.000
13.67024 155.000
13.69019 152.000
13.71013 190.000
13.73008 171.000
13.75003 173.000
13.76998 181.000
13.78992 172.000
13.80987 188.000
13.82982 163.000
13.84976 163.000
13.86971 178.000
13.88966 165.000
13.90960 166.000
13.92955 164.000
13.94950 162.000
13.96945 175.000
13.98939 187.000
14.00934 179.000
14.02929 173.000
14.04923 177.000
14.06918 152.000
14.08913 167.000
14.10907 193.000
14.12902 194.000
14.14897 165.000
14.16892 159.000
14.18886 169.000
14.20881 186.000
14.22876 148.000
14.24870 188.000
14.26865 183.000
14.28860 178.000
14.30854 188.000
14.32849 167.000
14.34844 159.000
14.36838 172.000
14.38833 191.000
14.40828 168.000
14.42823 166.000
14.44817 188.000
14.46812 175.000
14.48807 175.000
14.50801 175.000
14.52796 196.000
14.54791 180.000
14.56785 183.000
14.58780 193.000
14.60775 190.000
14.62770 179.000
14.64764 165.000
14.66759 196.000
14.68754 168.000
14.70748 187.000
14.72743 194.000
14.74738 183.000
14.76732 192.000
14.78727 182.000
14.80722 175.000
14.82716 205.000
14.84711 188.000
14.86706 201.000
14.88701 191.000
14.90695 185.000
14.92690 211.000
14.94685 202.000
14.96679 209.000
14.98674 203.000
15.00669 200.000
15.02663 193.000
15.04658 207.000
15.06653 185.000
15.08648 232.000
15.10642 212.000
15.12637 218.000
15.14632 212.000
15.16626 220.000
15.18621 227.000
15.20616 226.000
15.22610 231.000
15.24605 228.000
15.26600 241.000
15.28594 236.000
15.30589 253.000
15.32584 277.000
15.34579 262.000
15.36573 283.000
15.38568 328.000
15.40563 349.000
15.42557 401.000
15.44552 486.000
15.46547 578.000
15.48541 705.000
15.50536 818.000
15.52531 1029.000
15.54526 1202.000
15.56520 1529.000
15.58515 1772.000
15.60510 2115.000
15.62504 2275.000
15.64499 2192.000
15.66494 1725.000
15.68488 1276.000
15.70483 820.000
15.72478 575.000
15.74472 381.000
15.76467 293.000
15.78462 267.000
15.80457 248.000
15.82451 246.000
15.84446 255.000
15.86441 217.000
15.88435 205.000
15.90430 235.000
15.92425 238.000
15.94419 209.000
15.96414 247.000
15.98409 243.000
16.00404 229.000
16.02398 216.000
16.04393 231.000
16.06388 208.000
16.08382 245.000
16.10377 211.000
16.12372 207.000
16.14366 202.000
16.16361 234.000
16.18356 203.000
16.20351 205.000
16.22345 204.000
16.24340 206.000
16.26335 204.000
16.28329 215.000
16.30324 216.000
16.32319 216.000
16.34313 202.000
16.36308 208.000
16.38303 190.000
16.40297 213.000
16.42292 219.000
16.44287 182.000
16.46282 218.000
16.48276 221.000
16.50271 221.000
16.52266 234.000
16.54260 205.000
16.56255 215.000
16.58250 194.000
16.60244 205.000
16.62239 204.000
16.64234 225.000
16.66229 229.000
16.68223 225.000
16.70218 220.000
16.72213 198.000
16.74207 218.000
16.76202 224.000
16.78197 232.000
16.80191 201.000
16.82186 226.000
16.84181 200.000
16.86175 209.000
16.88170 225.000
16.90165 209.000
16.92160 224.000
16.94154 218.000
16.96149 251.000
16.98144 234.000
17.00138 207.000
17.02133 236.000
17.04128 211.000
17.06122 219.000
17.08117 204.000
17.10112 217.000
17.12107 231.000
17.14101 213.000
17.16096 209.000
17.18091 230.000
17.20085 208.000
17.22080 206.000
17.24075 205.000
17.26069 212.000
17.28064 216.000
17.30059 227.000
17.32053 252.000
17.34048 232.000
17.36043 253.000
17.38038 219.000
17.40032 226.000
17.42027 226.000
17.44022 256.000
17.46016 208.000
17.48011 217.000
17.50006 236.000
17.52000 231.000
17.53995 247.000
17.55990 220.000
17.57985 233.000
17.59979 225.000
17.61974 249.000
17.63969 210.000
17.65963 216.000
17.67958 230.000
17.69953 217.000
17.71947 231.000
17.73942 222.000
17.75937 249.000
17.77932 221.000
17.79926 230.000
17.81921 210.000
17.83916 219.000
17.85910 256.000
17.87905 236.000
17.89900 233.000
17.91894 233.000
17.93889 225.000
17.95884 236.000
17.97878 225.000
17.99873 247.000
18.01868 234.000
18.03863 262.000
18.05857 296.000
18.07852 295.000
18.09847 244.000
18.11841 306.000
18.13836 338.000
18.15831 341.000
18.17825 311.000
18.19820 346.000
18.21815 380.000
18.23810 351.000
18.25804 354.000
18.27799 310.000
18.29794 292.000
18.31788 281.000
18.33783 258.000
18.35778 255.000
18.37772 218.000
18.39767 278.000
18.41762 230.000
18.43756 284.000
18.45751 222.000
18.47746 222.000
18.49741 225.000
18.51735 215.000
18.53730 248.000
18.55725 247.000
18.57719 248.000
18.59714 243.000
18.61709 255.000
18.63703 256.000
18.65698 241.000
18.67693 261.000
18.69688 269.000
18.71682 253.000
18.73677 227.000
18.75672 266.000
18.77666 237.000
18.79661 262.000
18.81656 247.000
18.83650 256.000
18.85645 242.000
18.87640 262.000
18.89634 241.000
18.91629 251.000
18.93624 240.000
18.95619 255.000
18.97613 251.000
18.99608 266.000
19.01603 249.000
19.03597 240.000
19.05592 255.000
19.07587 245.000
19.09581 232.000
19.11576 259.000
19.13571 259.000
19.15566 243.000
19.17560 266.000
19.19555 298.000
19.21550 258.000
19.23544 253.000
19.25539 272.000
19.27534 253.000
19.29528 255.000
19.31523 275.000
19.33518 268.000
19.35513 263.000
19.37507 253.000
19.39502 248.000
19.41497 252.000
19.43491 247.000
19.45486 252.000
19.47481 267.000
19.49475 276.000
19.51470 276.000
19.53465 245.000
19.55459 248.000
19.57454 235.000
19.59449 235.000
19.61444 255.000
19.63438 257.000
19.65433 240.000
19.67428 271.000
19.69422 267.000
19.71417 263.000
19.73412 280.000
19.75406 251.000
19.77401 265.000
19.79396 253.000
19.81391 269.000
19.83385 271.000
19.85380 232.000
19.87375 259.000
19.89369 270.000
19.91364 287.000
19.93359 261.000
19.95353 254.000
19.97348 253.000
19.99343 276.000
20.01337 254.000
20.03332 272.000
20.05327 254.000
20.07322 265.000
20.09316 265.000
20.11311 253.000
20.13306 287.000
20.15300 300.000
20.17295 277.000
20.19290 265.000
20.21284 301.000
20.23279 296.000
20.25274 274.000
20.27269 254.000
20.29263 305.000
20.31258 272.000
20.33253 288.000
20.35247 248.000
20.37242 272.000
20.39237 302.000
20.41231 265.000
20.43226 301.000
20.45221 282.000
20.47215 262.000
20.49210 270.000
20.51205 266.000
20.53200 250.000
20.55194 293.000
20.57189 290.000
20.59184 300.000
20.61178 246.000
20.63173 306.000
20.65168 289.000
20.67162 311.000
20.69157 301.000
20.71152 301.000
20.73147 318.000
20.75141 339.000
20.77136 320.000
20.79131 344.000
20.81125 355.000
20.83120 355.000
20.85115 393.000
20.87109 384.000
20.89104 372.000
20.91099 399.000
20.93094 383.000
20.95088 386.000
20.97083 356.000
20.99078 320.000
21.01072 326.000
21.03067 281.000
21.05062 317.000
21.07056 308.000
21.09051 276.000
21.11046 318.000
21.13040 306.000
21.15035 277.000
21.17030 301.000
21.19025 302.000
21.21019 278.000
21.23014 295.000
21.25009 276.000
21.27003 312.000
21.28998 271.000
21.30993 306.000
21.32987 317.000
21.34982 274.000
21.36977 299.000
21.38972 296.000
21.40966 310.000
21.42961 300.000
21.44956 305.000
21.46950 267.000
21.48945 307.000
21.50940 283.000
21.52934 265.000
21.54929 310.000
21.56924 314.000
21.58918 307.000
21.60913 329.000
21.62908 301.000
21.64903 327.000
21.66897 278.000
21.68892 320.000
21.70887 274.000
21.72881 332.000
21.74876 301.000
21.76871 297.000
21.78865 328.000
21.80860 302.000
21.82855 292.000
21.84850 273.000
21.86844 306.000
21.88839 273.000
21.90834 330.000
21.92828 292.000
21.94823 308.000
21.96818 294.000
21.98812 299.000
22.00807 284.000
22.02802 301.000
22.04796 314.000
22.06791 281.000
22.08786 303.000
22.10781 335.000
22.12775 322.000
22.14770 308.000
22.16765 330.000
22.18759 310.000
22.20754 303.000
22.22749 319.000
22.24743 270.000
22.26738 300.000
22.28733 297.000
22.30728 320.000
22.32722 298.000
22.34717 313.000
22.36712 355.000
22.38706 321.000
22.40701 288.000
22.42696 329.000
22.44690 337.000
22.46685 301.000
22.48680 328.000
22.50675 289.000
22.52669 276.000
22.54664 282.000
22.56659 316.000
22.58653 324.000
22.60648 304.000
22.62643 340.000
22.64637 312.000
22.66632 305.000
22.68627 317.000
22.70621 325.000
22.72616 329.000
22.74611 296.000
22.76606 298.000
22.78600 309.000
22.80595 341.000
22.82590 303.000
22.84584 331.000
22.86579 293.000
22.88574 298.000
22.90568 336.000
22.92563 300.000
22.94558 318.000
22.96553 323.000
22.98547 303.000
23.00542 327.000
23.02537 323.000
23.04531 310.000
23.06526 318.000
23.08521 319.000
23.10515 297.000
23.12510 282.000
23.14505 304.000
23.16499 323.000
23.18494 356.000
23.20489 321.000
23.22484 321.000
23.24478 315.000
23.26473 361.000
23.28468 321.000
23.30462 331.000
23.32457 331.000
23.34452 313.000
23.36446 349.000
23.38441 307.000
23.40436 328.000
23.42431 332.000
23.44425 300.000
23.46420 361.000
23.48415 339.000
23.50409 306.000
23.52404 318.000
23.54399 354.000
23.56393 328.000
23.58388 317.000
23.60383 339.000
23.62377 329.000
23.64372 346.000
23.66367 340.000
23.68362 338.000
23.70356 322.000
23.72351 353.000
23.74346 310.000
23.76340 324.000
23.78335 326.000
23.80330 303.000
23.82324 310.000
23.84319 312.000
23.86314 346.000
23.88309 305.000
23.90303 322.000
23.92298 359.000
23.94293 353.000
23.96287 340.000
23.98282 328.000
24.00277 302.000
24.02271 349.000
24.04266 379.000
24.06261 299.000
24.08256 356.000
24.10250 313.000
24.12245 350.000
24.14240 350.000
24.16234 328.000
24.18229 331.000
24.20224 361.000
24.22218 332.000
24.24213 352.000
24.26208 342.000
24.28202 341.000
24.30197 305.000
24.32192 364.000
24.34187 322.000
24.36181 366.000
24.38176 365.000
24.40171 355.000
24.42165 371.000
24.44160 328.000
24.46155 346.000
24.48149 365.000
24.50144 346.000
24.52139 346.000
24.54134 341.000
24.56128 353.000
24.58123 377.000
24.60118 355.000
24.62112 359.000
24.64107 363.000
24.66102 322.000
24.68096 350.000
24.70091 356.000
24.72086 328.000
24.74080 326.000
24.76075 331.000
24.78070 346.000
24.80065 344.000
24.82059 346.000
24.84054 327.000
24.86049 342.000
24.88043 392.000
24.90038 335.000
24.92033 365.000
24.94027 376.000
24.96022 341.000
24.98017 346.000
25.00012 347.000
25.02006 380.000
25.04001 348.000
25.05996 351.000
25.07990 402.000
25.09985 339.000
25.11980 344.000
25.13974 347.000
25.15969 325.000
25.17964 362.000
25.19958 367.000
25.21953 345.000
25.23948 358.000
25.25943 353.000
25.27937 336.000
25.29932 357.000
25.31927 364.000
25.33921 369.000
25.35916 387.000
25.37911 346.000
25.39905 355.000
25.41900 404.000
25.43895 359.000
25.45890 366.000
25.47884 375.000
25.49879 392.000
25.51874 356.000
25.53868 382.000
25.55863 357.000
25.57858 372.000
25.59852 378.000
25.61847 391.000
25.63842 327.000
25.65837 362.000
25.67831 375.000
25.69826 391.000
25.71821 382.000
25.73815 359.000
25.75810 364.000
25.77805 365.000
25.79799 379.000
25.81794 367.000
25.83789 382.000
25.85783 370.000
25.87778 375.000
25.89773 351.000
25.91768 400.000
25.93762 400.000
25.95757 363.000
25.97752 324.000
25.99746 401.000
26.01741 395.000
26.03736 397.000
26.05730 428.000
26.07725 348.000
26.09720 393.000
26.11715 393.000
26.13709 400.000
26.15704 404.000
26.17699 396.000
26.19693 396.000
26.21688 414.000
26.23683 412.000
26.25677 380.000
26.27672 407.000
26.29667 396.000
26.31661 420.000
26.33656 387.000
26.35651 412.000
26.37646 436.000
26.39640 412.000
26.41635 409.000
26.43630 392.000
26.45624 420.000
26.47619 409.000
26.49614 401.000
26.51608 388.000
26.53603 383.000
26.55598 415.000
26.57593 387.000
26.59587 438.000
26.61582 400.000
26.63577 437.000
26.65571 415.000
26.67566 385.000
26.69561 416.000
26.71555 373.000
26.73550 412.000
26.75545 403.000
26.77539 417.000
26.79534 399.000
26.81529 457.000
26.83524 414.000
26.85518 424.000
26.87513 436.000
26.89508 392.000
26.91502 394.000
26.93497 422.000
26.95492 433.000
26.97486 426.000
26.99481 411.000
27.01476 413.000
27.03471 422.000
27.05465 441.000
27.07460 427.000
27.09455 373.000
27.11449 409.000
27.13444 419.000
27.15439 432.000
27.17433 413.000
27.19428 439.000
27.21423 451.000
27.23417 439.000
27.25412 416.000
27.27407 414.000
27.29402 422.000
27.31396 404.000
27.33391 434.000
27.35386 424.000
27.37380 408.000
27.39375 492.000
27.41370 430.000
27.43364 426.000
27.45359 442.000
27.47354 447.000
27.49349 429.000
27.51343 502.000
27.53338 423.000
27.55333 458.000
27.57327 452.000
27.59322 465.000
27.61317 426.000
27.63311 436.000
27.65306 449.000
27.67301 433.000
27.69296 433.000
27.71290 441.000
27.73285 457.000
27.75280 423.000
27.77274 408.000
27.79269 422.000
27.81264 424.000
27.83258 456.000
27.85253 426.000
27.87248 405.000
27.89242 465.000
27.91237 415.000
27.93232 412.000
27.95227 433.000
27.97221 401.000
27.99216 479.000
28.01211 466.000
28.03205 486.000
28.05200 485.000
28.07195 421.000
28.09189 435.000
28.11184 446.000
28.13179 457.000
28.15174 429.000
28.17168 423.000
28.19163 433.000
28.21158 453.000
28.23152 467.000
28.25147 452.000
28.27142 506.000
28.29136 425.000
28.31131 456.000
28.33126 439.000
28.35120 459.000
28.37115 452.000
28.39110 426.000
28.41105 451.000
28.43099 434.000
28.45094 464.000
28.47089 435.000
28.49083 467.000
28.51078 440.000
28.53073 440.000
28.55067 429.000
28.57062 411.000
28.59057 429.000
28.61052 458.000
28.63046 492.000
28.65041 457.000
28.67036 469.000
28.69030 482.000
28.71025 441.000
28.73020 415.000
28.75014 457.000
28.77009 437.000
28.79004 471.000
28.80998 447.000
28.82993 417.000
28.84988 434.000
28.86983 434.000
28.88977 452.000
28.90972 452.000
28.92967 442.000
28.94961 464.000
28.96956 456.000
28.98951 499.000
29.00945 480.000
29.02940 448.000
29.04935 461.000
29.06930 469.000
29.08924 506.000
29.10919 449.000
29.12914 472.000
29.14908 494.000
29.16903 476.000
29.18898 504.000
29.20892 471.000
29.22887 437.000
29.24882 480.000
29.26877 462.000
29.28871 473.000
29.30866 464.000
29.32861 456.000
29.34855 466.000
29.36850 458.000
29.38845 503.000
29.40839 484.000
29.42834 453.000
29.44829 425.000
29.46823 459.000
29.48818 485.000
29.50813 459.000
29.52808 449.000
29.54802 462.000
29.56797 467.000
29.58792 476.000
29.60786 461.000
29.62781 495.000
29.64776 475.000
29.66770 510.000
29.68765 498.000
29.70760 466.000
29.72755 485.000
29.74749 479.000
29.76744 510.000
29.78739 502.000
29.80733 486.000
29.82728 530.000
29.84723 512.000
29.86717 525.000
29.88712 559.000
29.90707 556.000
29.92701 592.000
29.94696 613.000
29.96691 661.000
29.98686 705.000
30.00680 722.000
30.02675 715.000
30.04670 719.000
30.06664 795.000
30.08659 801.000
30.10654 799.000
30.12648 715.000
30.14643 710.000
30.16638 636.000
30.18633 601.000
30.20627 620.000
30.22622 556.000
30.24617 541.000
30.26611 508.000
30.28606 517.000
30.30601 508.000
30.32595 490.000
30.34590 459.000
30.36585 487.000
30.38579 486.000
30.40574 456.000
30.42569 483.000
30.44564 462.000
30.46558 484.000
30.48553 482.000
30.50548 448.000
30.52542 475.000
30.54537 504.000
30.56532 438.000
30.58526 486.000
30.60521 446.000
30.62516 490.000
30.64511 489.000
30.66505 499.000
30.68500 457.000
30.70495 504.000
30.72489 435.000
30.74484 463.000
30.76479 467.000
30.78473 461.000
30.80468 465.000
30.82463 415.000
30.84458 490.000
30.86452 464.000
30.88447 452.000
30.90442 478.000
30.92436 473.000
30.94431 398.000
30.96426 492.000
30.98420 428.000
31.00415 466.000
31.02410 487.000
31.04404 453.000
31.06399 496.000
31.08394 459.000
31.10389 473.000
31.12383 440.000
31.14378 465.000
31.16373 434.000
31.18367 501.000
31.20362 485.000
31.22357 438.000
31.24351 468.000
31.26346 512.000
31.28341 490.000
31.30336 476.000
31.32330 466.000
31.34325 470.000
31.36320 495.000
31.38314 459.000
31.40309 477.000
31.42304 489.000
31.44298 485.000
31.46293 462.000
31.48288 452.000
31.50282 503.000
31.52277 516.000
31.54272 525.000
31.56267 501.000
31.58261 544.000
31.60256 528.000
31.62251 533.000
31.64245 552.000
31.66240 621.000
31.68235 677.000
31.70229 660.000
31.72224 725.000
31.74219 749.000
31.76214 732.000
31.78208 741.000
31.80203 719.000
31.82198 690.000
31.84192 622.000
31.86187 610.000
31.88182 534.000
31.90176 550.000
31.92171 495.000
31.94166 535.000
31.96160 469.000
31.98155 468.000
32.00150 487.000
32.02145 515.000
32.04139 455.000
32.06134 461.000
32.08129 467.000
32.10123 446.000
32.12118 481.000
32.14113 483.000
32.16107 479.000
32.18102 515.000
32.20097 506.000
32.22092 534.000
32.24086 483.000
32.26081 476.000
32.28076 512.000
32.30070 515.000
32.32065 522.000
32.34060 508.000
32.36054 523.000
32.38049 478.000
32.40044 501.000
32.42039 447.000
32.44033 487.000
32.46028 478.000
32.48023 469.000
32.50017 437.000
32.52012 455.000
32.54007 416.000
32.56001 467.000
32.57996 420.000
32.59991 436.000
32.61985 444.000
32.63980 444.000
32.65975 443.000
32.67970 398.000
32.69964 459.000
32.71959 452.000
32.73954 413.000
32.75948 420.000
32.77943 442.000
32.79938 449.000
32.81932 454.000
32.83927 471.000
32.85922 421.000
32.87917 431.000
32.89911 424.000
32.91906 454.000
32.93901 421.000
32.95895 449.000
32.97890 443.000
32.99885 464.000
33.01879 411.000
33.03874 445.000
33.05869 435.000
33.07863 443.000
33.09858 412.000
33.11853 407.000
33.13848 400.000
33.15842 434.000
33.17837 410.000
33.19832 436.000
33.21826 433.000
33.23821 471.000
33.25816 422.000
33.27810 423.000
33.29805 423.000
33.31800 440.000
33.33795 405.000
33.35789 393.000
33.37784 423.000
33.39779 429.000
33.41773 453.000
33.43768 448.000
33.45763 424.000
33.47757 437.000
33.49752 434.000
33.51747 430.000
33.53741 423.000
33.55736 417.000
33.57731 411.000
33.59726 417.000
33.61720 431.000
33.63715 390.000
33.65710 438.000
33.67704 450.000
33.69699 403.000
33.71694 430.000
33.73688 440.000
33.75683 449.000
33.77678 416.000
33.79673 431.000
33.81667 412.000
33.83662 447.000
33.85657 380.000
33.87651 405.000
33.89646 431.000
33.91641 417.000
33.93635 464.000
33.95630 435.000
33.97625 430.000
33.99620 409.000
34.01614 424.000
34.03609 428.000
34.05604 422.000
34.07598 414.000
34.09593 442.000
34.11588 438.000
34.13582 416.000
34.15577 474.000
34.17572 439.000
34.19566 418.000
34.21561 399.000
34.23556 413.000
34.25551 408.000
34.27545 410.000
34.29540 417.000
34.31535 449.000
34.33529 469.000
34.35524 448.000
34.37519 478.000
34.39513 445.000
34.41508 497.000
34.43503 521.000
34.45498 483.000
34.47492 485.000
34.49487 512.000
34.51482 507.000
34.53476 505.000
34.55471 524.000
34.57466 531.000
34.59460 529.000
34.61455 517.000
34.63450 515.000
34.65444 495.000
34.67439 505.000
34.69434 513.000
34.71429 429.000
34.73423 468.000
34.75418 470.000
34.77413 489.000
34.79407 448.000
34.81402 460.000
34.83397 478.000
34.85391 426.000
34.87386 400.000
34.89381 432.000
34.91376 452.000
34.93370 525.000
34.95365 529.000
34.97360 503.000
34.99354 500.000
35.01349 549.000
35.03344 552.000
35.05338 572.000
35.07333 631.000
35.09328 638.000
35.11322 649.000
35.13317 673.000
35.15312 790.000
35.17307 849.000
35.19301 900.000
35.21296 974.000
35.23291 1074.000
35.25285 1135.000
35.27280 1207.000
35.29275 1271.000
35.31269 1372.000
35.33264 1507.000
35.35259 1508.000
35.37254 1575.000
35.39248 1686.000
35.41243 1816.000
35.43238 1826.000
35.45232 1832.000
35.47227 1811.000
35.49222 1761.000
35.51216 1798.000
35.53211 1593.000
35.55206 1672.000
35.57201 1455.000
35.59195 1349.000
35.61190 1282.000
35.63185 1228.000
35.65179 1078.000
35.67174 1020.000
35.69169 908.000
35.71163 859.000
35.73158 760.000
35.75153 696.000
35.77147 647.000
35.79142 569.000
35.81137 526.000
35.83132 515.000
35.85126 513.000
35.87121 530.000
35.89116 453.000
35.91110 470.000
35.93105 402.000
35.95100 446.000
35.97094 454.000
35.99089 387.000
36.01084 446.000
36.03079 440.000
36.05073 456.000
36.07068 420.000
36.09063 452.000
36.11057 485.000
36.13052 441.000
36.15047 440.000
36.17041 420.000
36.19036 439.000
36.21031 427.000
36.23025 435.000
36.25020 426.000
36.27015 386.000
36.29010 452.000
36.31004 395.000
36.32999 405.000
36.34994 414.000
36.36988 460.000
36.38983 430.000
36.40978 417.000
36.42972 462.000
36.44967 445.000
36.46962 397.000
36.48957 419.000
36.50951 458.000
36.52946 483.000
36.54941 411.000
36.56935 448.000
36.58930 467.000
36.60925 457.000
36.62919 450.000
36.64914 475.000
36.66909 438.000
36.68903 512.000
36.70898 507.000
36.72893 478.000
36.74888 535.000
36.76882 559.000
36.78877 579.000
36.80872 656.000
36.82866 702.000
36.84861 763.000
36.86856 800.000
36.88850 952.000
36.90845 1043.000
36.92840 1104.000
36.94835 1120.000
36.96829 1144.000
36.98824 976.000
37.00819 926.000
37.02813 886.000
37.04808 838.000
37.06803 741.000
37.08797 687.000
37.10792 607.000
37.12787 565.000
37.14781 569.000
37.16776 554.000
37.18771 454.000
37.20766 486.000
37.22760 470.000
37.24755 450.000
37.26750 465.000
37.28744 435.000
37.30739 443.000
37.32734 445.000
37.34728 412.000
37.36723 407.000
37.38718 407.000
37.40713 390.000
37.42707 405.000
37.44702 404.000
37.46697 417.000
37.48691 414.000
37.50686 408.000
37.52681 395.000
37.54675 407.000
37.56670 393.000
37.58665 412.000
37.60660 396.000
37.62654 381.000
37.64649 387.000
37.66644 428.000
37.68638 443.000
37.70633 354.000
37.72628 394.000
37.74622 392.000
37.76617 385.000
37.78612 414.000
37.80606 379.000
37.82601 392.000
37.84596 395.000
37.86591 406.000
37.88585 418.000
37.90580 399.000
37.92575 417.000
37.94569 390.000
37.96564 412.000
37.98559 390.000
38.00553 377.000
38.02548 400.000
38.04543 404.000
38.06538 459.000
38.08532 443.000
38.10527 463.000
38.12522 443.000
38.14516 480.000
38.16511 458.000
38.18506 511.000
38.20500 506.000
38.22495 491.000
38.24490 520.000
38.26484 574.000
38.28479 609.000
38.30474 650.000
38.32469 669.000
38.34463 715.000
38.36458 746.000
38.38453 883.000
38.40447 862.000
38.42442 929.000
38.44437 1002.000
38.46431 972.000
38.48426 1002.000
38.50421 1036.000
38.52416 992.000
38.54410 942.000
38.56405 835.000
38.58400 848.000
38.60394 806.000
38.62389 740.000
38.64384 721.000
38.66378 703.000
38.68373 651.000
38.70368 670.000
38.72362 615.000
38.74357 660.000
38.76352 635.000
38.78347 630.000
38.80341 635.000
38.82336 611.000
38.84331 627.000
38.86325 639.000
38.88320 609.000
38.90315 574.000
38.92309 575.000
38.94304 555.000
38.96299 543.000
38.98294 570.000
39.00288 568.000
39.02283 627.000
39.04278 667.000
39.06272 678.000
39.08267 637.000
39.10262 769.000
39.12256 792.000
39.14251 916.000
39.16246 954.000
39.18241 1085.000
39.20235 1171.000
39.22230 1120.000
39.24225 1009.000
39.26219 952.000
39.28214 919.000
39.30209 852.000
39.32203 820.000
39.34198 684.000
39.36193 646.000
39.38187 596.000
39.40182 493.000
39.42177 467.000
39.44172 461.000
39.46166 475.000
39.48161 429.000
39.50156 415.000
39.52150 400.000
39.54145 424.000
39.56140 392.000
39.58134 385.000
39.60129 369.000
39.62124 393.000
39.64119 366.000
39.66113 378.000
39.68108 378.000
39.70103 400.000
39.72097 368.000
39.74092 353.000
39.76087 377.000
39.78081 366.000
39.80076 394.000
39.82071 385.000
39.84065 385.000
39.86060 397.000
39.88055 381.000
39.90050 403.000
39.92044 389.000
39.94039 384.000
39.96034 392.000
39.98028 382.000
40.00023 376.000
40.02018 369.000
40.04012 389.000
40.06007 381.000
40.08002 389.000
40.09997 376.000
40.11991 420.000
40.13986 381.000
40.15981 374.000
40.17975 366.000
40.19970 380.000
40.21965 328.000
40.23959 386.000
40.25954 381.000
40.27949 395.000
40.29943 335.000
40.31938 378.000
40.33933 353.000
40.35928 374.000
40.37922 354.000
40.39917 379.000
40.41912 366.000
40.43906 361.000
40.45901 360.000
40.47896 368.000
40.49890 334.000
40.51885 375.000
40.53880 324.000
40.55875 368.000
40.57869 365.000
40.59864 358.000
40.61859 382.000
40.63853 397.000
40.65848 392.000
40.67843 338.000
40.69837 391.000
40.71832 378.000
40.73827 347.000
40.75822 380.000
40.77816 371.000
40.79811 363.000
40.81806 378.000
40.83800 374.000
40.85795 350.000
40.87790 381.000
40.89784 335.000
40.91779 380.000
40.93774 363.000
40.95768 367.000
40.97763 334.000
40.99758 367.000
41.01753 368.000
41.03747 382.000
41.05742 390.000
41.07737 392.000
41.09731 363.000
41.11726 354.000
41.13721 336.000
41.15715 374.000
41.17710 361.000
41.19705 337.000
41.21700 364.000
41.23694 370.000
41.25689 338.000
41.27684 347.000
41.29678 365.000
41.31673 366.000
41.33668 395.000
41.35662 375.000
41.37657 393.000
41.39652 357.000
41.41646 381.000
41.43641 349.000
41.45636 399.000
41.47631 359.000
41.49625 345.000
41.51620 389.000
41.53615 393.000
41.55609 374.000
41.57604 387.000
41.59599 362.000
41.61593 349.000
41.63588 359.000
41.65583 384.000
41.67578 371.000
41.69572 374.000
41.71567 321.000
41.73562 364.000
41.75556 374.000
41.77551 340.000
41.79546 393.000
41.81540 369.000
41.83535 378.000
41.85530 389.000
41.87524 379.000
41.89519 390.000
41.91514 391.000
41.93509 343.000
41.95503 367.000
41.97498 406.000
41.99493 355.000
42.01487 378.000
42.03482 369.000
42.05477 371.000
42.07471 384.000
42.09466 389.000
42.11461 379.000
42.13456 371.000
42.15450 397.000
42.17445 367.000
42.19440 377.000
42.21434 360.000
42.23429 356.000
42.25424 404.000
42.27418 360.000
42.29413 362.000
42.31408 352.000
42.33403 357.000
42.35397 321.000
42.37392 382.000
42.39387 418.000
42.41381 418.000
42.43376 406.000
42.45371 401.000
42.47365 419.000
42.49360 441.000
42.51355 426.000
42.53349 433.000
42.55344 427.000
42.57339 459.000
42.59334 459.000
42.61328 481.000
42.63323 479.000
42.65318 543.000
42.67312 512.000
42.69307 532.000
42.71302 539.000
42.73296 562.000
42.75291 627.000
42.77286 701.000
42.79281 745.000
42.81275 792.000
42.83270 844.000
42.85265 945.000
42.87259 975.000
42.89254 1047.000
42.91249 1092.000
42.93243 1159.000
42.95238 1233.000
42.97233 1212.000
42.99227 1195.000
43.01222 1190.000
43.03217 1158.000
43.05212 1116.000
43.07206 1166.000
43.09201 1072.000
43.11196 966.000
43.13190 983.000
43.15185 968.000
43.17180 941.000
43.19174 896.000
43.21169 869.000
43.23164 902.000
43.25159 869.000
43.27153 908.000
43.29148 856.000
43.31143 823.000
43.33137 740.000
43.35132 774.000
43.37127 685.000
43.39121 613.000
43.41116 577.000
43.43111 574.000
43.45105 578.000
43.47100 535.000
43.49095 468.000
43.51090 465.000
43.53084 445.000
43.55079 416.000
43.57074 432.000
43.59068 384.000
43.61063 430.000
43.63058 397.000
43.65052 353.000
43.67047 366.000
43.69042 369.000
43.71037 348.000
43.73031 355.000
43.75026 364.000
43.77021 351.000
43.79015 316.000
43.81010 366.000
43.83005 361.000
43.84999 315.000
43.86994 370.000
43.88989 348.000
43.90984 352.000
43.92978 355.000
43.94973 364.000
43.96968 367.000
43.98962 361.000
44.00957 333.000
44.02952 321.000
44.04946 322.000
44.06941 364.000
44.08936 381.000
44.10930 350.000
44.12925 364.000
44.14920 339.000
44.16915 315.000
44.18909 382.000
44.20904 355.000
44.22899 334.000
44.24893 344.000
44.26888 332.000
44.28883 335.000
44.30877 339.000
44.32872 349.000
44.34867 320.000
44.36862 365.000
44.38856 346.000
44.40851 355.000
44.42846 354.000
44.44840 335.000
44.46835 336.000
44.48830 360.000
44.50824 330.000
44.52819 373.000
44.54814 331.000
44.56808 336.000
44.58803 361.000
44.60798 334.000
44.62793 312.000
44.64787 309.000
44.66782 385.000
44.68777 333.000
44.70771 325.000
44.72766 357.000
44.74761 334.000
44.76755 347.000
44.78750 353.000
44.80745 389.000
44.82740 369.000
44.84734 343.000
44.86729 333.000
44.88724 338.000
44.90718 361.000
44.92713 347.000
44.94708 323.000
44.96702 385.000
44.98697 364.000
45.00692 318.000
45.02686 403.000
45.04681 330.000
45.06676 381.000
45.08671 342.000
45.10665 351.000
45.12660 354.000
45.14655 332.000
45.16649 346.000
45.18644 325.000
45.20639 352.000
45.22633 318.000
45.24628 334.000
45.26623 328.000
45.28618 373.000
45.30612 324.000
45.32607 349.000
45.34602 319.000
45.36596 346.000
45.38591 324.000
45.40586 358.000
45.42580 325.000
45.44575 344.000
45.46570 327.000
45.48565 298.000
45.50559 338.000
45.52554 332.000
45.54549 342.000
45.56543 344.000
45.58538 311.000
45.60533 336.000
45.62527 346.000
45.64522 317.000
45.66517 340.000
45.68511 289.000
45.70506 348.000
45.72501 332.000
45.74496 316.000
45.76490 327.000
45.78485 325.000
45.80480 323.000
45.82474 329.000
45.84469 329.000
45.86464 347.000
45.88458 324.000
45.90453 342.000
45.92448 323.000
45.94443 304.000
45.96437 327.000
45.98432 333.000
46.00427 319.000
46.02421 307.000
46.04416 317.000
46.06411 319.000
46.08405 320.000
46.10400 330.000
46.12395 320.000
46.14389 324.000
46.16384 323.000
46.18379 348.000
46.20374 329.000
46.22368 342.000
46.24363 321.000
46.26358 316.000
46.28352 325.000
46.30347 346.000
46.32342 323.000
46.34336 313.000
46.36331 309.000
46.38326 325.000
46.40321 314.000
46.42315 319.000
46.44310 307.000
46.46305 337.000
46.48299 351.000
46.50294 348.000
46.52289 303.000
46.54283 300.000
46.56278 313.000
46.58273 355.000
46.60267 324.000
46.62262 298.000
46.64257 303.000
46.66252 296.000
46.68246 335.000
46.70241 287.000
46.72236 310.000
46.74230 312.000
46.76225 303.000
46.78220 318.000
46.80214 319.000
46.82209 325.000
46.84204 292.000
46.86199 329.000
46.88193 324.000
46.90188 330.000
46.92183 327.000
46.94177 317.000
46.96172 308.000
46.98167 313.000
47.00161 286.000
47.02156 307.000
47.04151 289.000
47.06146 325.000
47.08140 324.000
47.10135 342.000
47.12130 279.000
47.14124 323.000
47.16119 309.000
47.18114 312.000
47.20108 326.000
47.22103 315.000
47.24098 316.000
47.26092 340.000
47.28087 318.000
47.30082 312.000
47.32077 314.000
47.34071 328.000
47.36066 330.000
47.38061 315.000
47.40055 299.000
47.42050 281.000
47.44045 307.000
47.46039 328.000
47.48034 327.000
47.50029 316.000
47.52024 325.000
47.54018 325.000
47.56013 336.000
47.58008 283.000
47.60002 322.000
47.61997 319.000
47.63992 317.000
47.65986 338.000
47.67981 318.000
47.69976 328.000
47.71970 322.000
47.73965 293.000
47.75960 312.000
47.77955 324.000
47.79949 312.000
47.81944 317.000
47.83939 323.000
47.85933 325.000
47.87928 323.000
47.89923 350.000
47.91917 321.000
47.93912 337.000
47.95907 345.000
47.97902 343.000
47.99896 313.000
48.01891 297.000
48.03886 343.000
48.05880 334.000
48.07875 343.000
48.09870 354.000
48.11864 336.000
48.13859 352.000
48.15854 386.000
48.17848 359.000
48.19843 377.000
48.21838 383.000
48.23833 409.000
48.25827 384.000
48.27822 435.000
48.29817 407.000
48.31811 446.000
48.33806 445.000
48.35801 458.000
48.37795 451.000
48.39790 505.000
48.41785 584.000
48.43780 579.000
48.45774 582.000
48.47769 703.000
48.49764 756.000
48.51758 872.000
48.53753 951.000
48.55748 994.000
48.57742 1073.000
48.59737 1074.000
48.61732 984.000
48.63726 1014.000
48.65721 938.000
48.67716 896.000
48.69711 899.000
48.71705 789.000
48.73700 730.000
48.75695 682.000
48.77689 577.000
48.79684 580.000
48.81679 558.000
48.83673 494.000
48.85668 423.000
48.87663 414.000
48.89658 416.000
48.91652 368.000
48.93647 374.000
48.95642 344.000
48.97636 355.000
48.99631 333.000
49.01626 316.000
49.03620 367.000
49.05615 346.000
49.07610 324.000
49.09605 335.000
49.11599 297.000
49.13594 320.000
49.15589 302.000
49.17583 344.000
49.19578 329.000
49.21573 313.000
49.23567 332.000
49.25562 293.000
49.27557 350.000
49.29551 289.000
49.31546 286.000
49.33541 322.000
49.35536 322.000
49.37530 302.000
49.39525 323.000
49.41520 317.000
49.43514 304.000
49.45509 346.000
49.47504 280.000
49.49498 292.000
49.51493 325.000
49.53488 300.000
49.55483 323.000
49.57477 316.000
49.59472 360.000
49.61467 288.000
49.63461 332.000
49.65456 271.000
49.67451 311.000
49.69445 288.000
49.71440 337.000
49.73435 311.000
49.75429 311.000
49.77424 312.000
49.79419 302.000
49.81414 295.000
49.83408 305.000
49.85403 338.000
49.87398 282.000
49.89392 306.000
49.91387 302.000
49.93382 307.000
49.95376 285.000
49.97371 319.000
49.99366 309.000
50.01361 307.000
50.03355 301.000
50.05350 300.000
50.07345 332.000
50.09339 292.000
50.11334 283.000
50.13329 304.000
50.15323 305.000
50.17318 307.000
50.19313 331.000
50.21307 325.000
50.23302 309.000
50.25297 285.000
50.27292 306.000
50.29286 307.000
50.31281 326.000
50.33276 317.000
50.35270 296.000
50.37265 326.000
50.39260 293.000
50.41254 303.000
50.43249 314.000
50.45244 285.000
50.47239 296.000
50.49233 277.000
50.51228 291.000
50.53223 303.000
50.55217 290.000
50.57212 325.000
50.59207 309.000
50.61201 279.000
50.63196 267.000
50.65191 316.000
50.67186 314.000
50.69180 314.000
50.71175 269.000
50.73170 302.000
50.75164 301.000
50.77159 275.000
50.79154 298.000
50.81148 300.000
50.83143 305.000
50.85138 300.000
50.87132 307.000
50.89127 274.000
50.91122 276.000
50.93117 298.000
50.95111 297.000
50.97106 311.000
50.99101 324.000
51.01095 293.000
51.03090 299.000
51.05085 308.000
51.07079 316.000
51.09074 302.000
51.11069 307.000
51.13064 314.000
51.15058 294.000
51.17053 288.000
51.19048 281.000
51.21042 271.000
51.23037 333.000
51.25032 284.000
51.27026 285.000
51.29021 308.000
51.31016 290.000
51.33010 271.000
51.35005 311.000
51.37000 315.000
51.38995 271.000
51.40989 289.000
51.42984 280.000
51.44979 329.000
51.46973 295.000
51.48968 314.000
51.50963 258.000
51.52957 291.000
51.54952 281.000
51.56947 309.000
51.58942 340.000
51.60936 322.000
51.62931 301.000
51.64926 301.000
51.66920 300.000
51.68915 279.000
51.70910 269.000
51.72904 310.000
51.74899 276.000
51.76894 314.000
51.78888 284.000
51.80883 312.000
51.82878 297.000
51.84873 297.000
51.86867 294.000
51.88862 292.000
51.90857 270.000
51.92851 299.000
51.94846 265.000
51.96841 290.000
51.98835 317.000
52.00830 307.000
52.02825 267.000
52.04820 304.000
52.06814 263.000
52.08809 293.000
52.10804 292.000
52.12798 310.000
52.14793 298.000
52.16788 286.000
52.18782 317.000
52.20777 318.000
52.22772 291.000
52.24767 311.000
52.26761 338.000
52.28756 291.000
52.30751 280.000
52.32745 298.000
52.34740 272.000
52.36735 286.000
52.38729 280.000
52.40724 292.000
52.42719 290.000
52.44713 315.000
52.46708 248.000
52.48703 296.000
52.50698 288.000
52.52692 279.000
52.54687 324.000
52.56682 298.000
52.58676 301.000
52.60671 305.000
52.62666 286.000
52.64660 290.000
52.66655 320.000
52.68650 317.000
52.70645 296.000
52.72639 309.000
52.74634 292.000
52.76629 315.000
52.78623 300.000
52.80618 274.000
52.82613 318.000
52.84607 292.000
52.86602 303.000
52.88597 322.000
52.90591 308.000
52.92586 325.000
52.94581 311.000
52.96576 312.000
52.98570 288.000
53.00565 295.000
53.02560 334.000
53.04554 307.000
53.06549 332.000
53.08544 369.000
53.10538 344.000
53.12533 342.000
53.14528 310.000
53.16523 359.000
53.18517 327.000
53.20512 280.000
53.22507 335.000
53.24501 325.000
53.26496 357.000
53.28491 315.000
53.30485 358.000
53.32480 323.000
53.34475 328.000
53.36469 331.000
53.38464 297.000
53.40459 316.000
53.42454 309.000
53.44448 321.000
53.46443 345.000
53.48438 352.000
53.50432 340.000
53.52427 341.000
53.54422 365.000
53.56416 348.000
53.58411 343.000
53.60406 367.000
53.62401 368.000
53.64395 365.000
53.66390 367.000
53.68385 366.000
53.70379 390.000
53.72374 321.000
53.74369 354.000
53.76363 343.000
53.78358 317.000
53.80353 359.000
53.82348 344.000
53.84342 322.000
53.86337 351.000
53.88332 308.000
53.90326 311.000
53.92321 317.000
53.94316 321.000
53.96310 316.000
53.98305 304.000
54.00300 318.000
54.02294 299.000
54.04289 314.000
54.06284 291.000
54.08279 311.000
54.10273 297.000
54.12268 308.000
54.14263 284.000
54.16257 286.000
54.18252 283.000
54.20247 312.000
54.22241 302.000
54.24236 322.000
54.26231 265.000
54.28226 309.000
54.30220 284.000
54.32215 272.000
54.34210 293.000
54.36204 286.000
54.38199 301.000
54.40194 310.000
54.42188 297.000
54.44183 282.000
54.46178 284.000
54.48172 280.000
54.50167 266.000
54.52162 270.000
54.54157 305.000
54.56151 290.000
54.58146 282.000
54.60141 289.000
54.62135 267.000
54.64130 297.000
54.66125 263.000
54.68119 282.000
54.70114 265.000
54.72109 266.000
54.74104 291.000
54.76098 286.000
54.78093 290.000
54.80088 275.000
54.82082 286.000
54.84077 276.000
54.86072 256.000
54.88066 289.000
54.90061 306.000
54.92056 291.000
54.94050 277.000
54.96045 265.000
54.98040 269.000
55.00035 290.000
55.02029 286.000
55.04024 289.000
55.06019 309.000
55.08013 315.000
55.10008 280.000
55.12003 294.000
55.13997 274.000
55.15992 299.000
55.17987 273.000
55.19982 329.000
55.21976 267.000
55.23971 294.000
55.25966 284.000
55.27960 278.000
55.29955 272.000
55.31950 288.000
55.33944 270.000
55.35939 280.000
55.37934 275.000
55.39929 288.000
55.41923 275.000
55.43918 303.000
55.45913 289.000
55.47907 319.000
55.49902 292.000
55.51897 291.000
55.53891 292.000
55.55886 315.000
55.57881 270.000
55.59875 285.000
55.61870 289.000
55.63865 288.000
55.65860 281.000
55.67854 274.000
55.69849 285.000
55.71844 274.000
55.73838 307.000
55.75833 307.000
55.77828 243.000
55.79822 263.000
55.81817 305.000
55.83812 299.000
55.85807 292.000
55.87801 280.000
55.89796 281.000
55.91791 288.000
55.93785 315.000
55.95780 287.000
55.97775 278.000
55.99769 282.000
56.01764 269.000
56.03759 310.000
56.05753 293.000
56.07748 294.000
56.09743 288.000
56.11738 285.000
56.13732 291.000
56.15727 288.000
56.17722 303.000
56.19716 277.000
56.21711 296.000
56.23706 306.000
56.25700 275.000
56.27695 318.000
56.29690 284.000
56.31685 302.000
56.33679 295.000
56.35674 289.000
56.37669 268.000
56.39663 287.000
56.41658 309.000
56.43653 296.000
56.45647 313.000
56.47642 280.000
56.49637 310.000
56.51631 285.000
56.53626 299.000
56.55621 307.000
56.57616 275.000
56.59610 279.000
56.61605 315.000
56.63600 294.000
56.65594 270.000
56.67589 298.000
56.69584 295.000
56.71578 303.000
56.73573 304.000
56.75568 317.000
56.77563 289.000
56.79557 301.000
56.81552 298.000
56.83547 311.000
56.85541 320.000
56.87536 304.000
56.89531 319.000
56.91525 352.000
56.93520 332.000
56.95515 342.000
56.97510 323.000
56.99504 359.000
57.01499 382.000
57.03494 419.000
57.05488 450.000
57.07483 436.000
57.09478 481.000
57.11472 470.000
57.13467 451.000
57.15462 482.000
57.17456 512.000
57.19451 494.000
57.21446 520.000
57.23441 520.000
57.25435 539.000
57.27430 482.000
57.29425 481.000
57.31419 417.000
57.33414 458.000
57.35409 387.000
57.37403 410.000
57.39398 362.000
57.41393 393.000
57.43388 371.000
57.45382 353.000
57.47377 355.000
57.49372 354.000
57.51366 342.000
57.53361 328.000
57.55356 345.000
57.57350 315.000
57.59345 313.000
57.61340 306.000
57.63334 334.000
57.65329 310.000
57.67324 301.000
57.69319 312.000
57.71313 321.000
57.73308 304.000
57.75303 307.000
57.77297 327.000
57.79292 315.000
57.81287 317.000
57.83281 338.000
57.85276 334.000
57.87271 315.000
57.89266 330.000
57.91260 291.000
57.93255 327.000
57.95250 365.000
57.97244 330.000
57.99239 364.000
58.01234 362.000
58.03228 356.000
58.05223 368.000
58.07218 346.000
58.09212 334.000
58.11207 367.000
58.13202 359.000
58.15197 372.000
58.17191 315.000
58.19186 318.000
58.21181 328.000
58.23175 357.000
58.25170 330.000
58.27165 345.000
58.29159 292.000
58.31154 331.000
58.33149 294.000
58.35144 294.000
58.37138 279.000
58.39133 253.000
58.41128 312.000
58.43122 318.000
58.45117 294.000
58.47112 322.000
58.49106 315.000
58.51101 290.000
58.53096 284.000
58.55090 277.000
58.57085 296.000
58.59080 309.000
58.61075 265.000
58.63069 270.000
58.65064 297.000
58.67059 298.000
58.69053 295.000
58.71048 271.000
58.73043 285.000
58.75037 282.000
58.77032 285.000
58.79027 296.000
58.81022 286.000
58.83016 294.000
58.85011 306.000
58.87006 287.000
58.89000 273.000
58.90995 291.000
58.92990 288.000
58.94984 296.000
58.96979 254.000
58.98974 290.000
59.00969 284.000
59.02963 291.000
59.04958 269.000
59.06953 271.000
59.08947 272.000
59.10942 287.000
59.12937 277.000
59.14931 290.000
59.16926 309.000
59.18921 272.000
59.20915 301.000
59.22910 279.000
59.24905 292.000
59.26900 287.000
59.28894 268.000
59.30889 278.000
59.32884 291.000
59.34878 275.000
59.36873 302.000
59.38868 261.000
59.40862 328.000
59.42857 293.000
59.44852 289.000
59.46847 323.000
59.48841 289.000
59.50836 277.000
59.52831 291.000
59.54825 276.000
59.56820 292.000
59.58815 260.000
59.60809 274.000
59.62804 304.000
59.64799 245.000
59.66793 319.000
59.68788 278.000
59.70783 290.000
59.72778 285.000
59.74772 275.000
59.76767 268.000
59.78762 311.000
59.80756 289.000
59.82751 288.000
59.84746 280.000
59.86740 295.000
59.88735 275.000
59.90730 272.000
59.92725 288.000
59.94719 312.000
59.96714 299.000
59.98709 276.000
60.00703 303.000
60.02698 298.000
60.04693 275.000
60.06687 267.000
60.08682 274.000
60.10677 269.000
60.12671 286.000
60.14666 276.000
60.16661 284.000
60.18656 248.000
60.20650 294.000
60.22645 280.000
60.24640 293.000
60.26634 281.000
60.28629 245.000
60.30624 309.000
60.32618 278.000
60.34613 259.000
60.36608 303.000
60.38603 286.000
60.40597 316.000
60.42592 257.000
60.44587 318.000
60.46581 291.000
60.48576 286.000
60.50571 271.000
60.52565 288.000
60.54560 275.000
60.56555 306.000
60.58550 300.000
60.60544 242.000
60.62539 288.000
60.64534 254.000
60.66528 299.000
60.68523 280.000
60.70518 258.000
60.72512 289.000
60.74507 273.000
60.76502 299.000
60.78496 283.000
60.80491 326.000
60.82486 286.000
60.84481 267.000
60.86475 309.000
60.88470 302.000
60.90465 288.000
60.92459 305.000
60.94454 263.000
60.96449 318.000
60.98443 277.000
61.00438 293.000
61.02433 284.000
61.04428 298.000
61.06422 305.000
61.08417 321.000
61.10412 301.000
61.12406 321.000
61.14401 299.000
61.16396 320.000
61.18390 362.000
61.20385 337.000
61.22380 342.000
61.24374 341.000
61.26369 382.000
61.28364 363.000
61.30359 379.000
61.32353 414.000
61.34348 376.000
61.36343 390.000
61.38337 373.000
61.40332 400.000
61.42327 357.000
61.44321 423.000
61.46316 416.000
61.48311 396.000
61.50306 431.000
61.52300 395.000
61.54295 371.000
61.56290 383.000
61.58284 372.000
61.60279 401.000
61.62274 410.000
61.64268 392.000
61.66263 362.000
61.68258 428.000
61.70252 444.000
61.72247 487.000
61.74242 523.000
61.76237 509.000
61.78231 543.000
61.80226 571.000
61.82221 626.000
61.84215 550.000
61.86210 516.000
61.88205 523.000
61.90199 480.000
61.92194 533.000
61.94189 487.000
61.96184 479.000
61.98178 453.000
62.00173 464.000
62.02168 434.000
62.04162 401.000
62.06157 461.000
62.08152 411.000
62.10146 400.000
62.12141 437.000
62.14136 422.000
62.16131 381.000
62.18125 397.000
62.20120 415.000
62.22115 418.000
62.24109 427.000
62.26104 476.000
62.28099 452.000
62.30093 449.000
62.32088 491.000
62.34083 499.000
62.36077 534.000
62.38072 559.000
62.40067 624.000
62.42062 655.000
62.44056 642.000
62.46051 634.000
62.48046 695.000
62.50040 640.000
62.52035 718.000
62.54030 684.000
62.56024 649.000
62.58019 696.000
62.60014 663.000
62.62009 652.000
62.64003 675.000
62.65998 674.000
62.67993 675.000
62.69987 646.000
62.71982 694.000
62.73977 624.000
62.75971 613.000
62.77966 643.000
62.79961 631.000
62.81955 585.000
62.83950 639.000
62.85945 635.000
62.87940 567.000
62.89934 546.000
62.91929 528.000
62.93924 488.000
62.95918 473.000
62.97913 471.000
62.99908 497.000
63.01902 439.000
63.03897 420.000
63.05892 404.000
63.07887 400.000
63.09881 410.000
63.11876 376.000
63.13871 407.000
63.15865 355.000
63.17860 367.000
63.19855 352.000
63.21849 335.000
63.23844 311.000
63.25839 316.000
63.27833 293.000
63.29828 303.000
63.31823 320.000
63.33818 320.000
63.35812 294.000
63.37807 310.000
63.39802 325.000
63.41796 307.000
63.43791 306.000
63.45786 293.000
63.47780 280.000
63.49775 329.000
63.51770 281.000
63.53765 287.000
63.55759 304.000
63.57754 289.000
63.59749 283.000
63.61743 282.000
63.63738 275.000
63.65733 318.000
63.67727 276.000
63.69722 294.000
63.71717 288.000
63.73712 278.000
63.75706 293.000
63.77701 294.000
63.79696 263.000
63.81690 312.000
63.83685 269.000
63.85680 281.000
63.87674 296.000
63.89669 299.000
63.91664 279.000
63.93658 330.000
63.95653 305.000
63.97648 314.000
63.99643 289.000
64.01637 318.000
64.03632 318.000
64.05627 346.000
64.07621 386.000
64.09616 340.000
64.11611 372.000
64.13605 393.000
64.15600 414.000
64.17595 442.000
64.19590 461.000
64.21584 425.000
64.23579 451.000
64.25574 444.000
64.27568 477.000
64.29563 466.000
64.31558 456.000
64.33552 395.000
64.35547 415.000
64.37542 427.000
64.39536 415.000
64.41531 446.000
64.43526 394.000
64.45521 399.000
64.47515 401.000
64.49510 345.000
64.51505 339.000
64.53499 352.000
64.55494 306.000
64.57489 305.000
64.59483 322.000
64.61478 308.000
64.63473 302.000
64.65468 299.000
64.67462 268.000
64.69457 313.000
64.71452 274.000
64.73446 311.000
64.75441 272.000
64.77436 295.000
64.79430 274.000
64.81425 312.000
64.83420 288.000
64.85414 297.000
64.87409 294.000
64.89404 286.000
64.91399 279.000
64.93393 318.000
64.95388 279.000
64.97383 299.000
64.99377 276.000
65.01372 287.000
65.03367 281.000
65.05361 282.000
65.07356 284.000
65.09351 298.000
65.11346 286.000
65.13340 263.000
65.15335 280.000
65.17330 279.000
65.19324 291.000
65.21319 272.000
65.23314 315.000
65.25308 314.000
65.27303 309.000
65.29298 325.000
65.31293 305.000
65.33287 332.000
65.35282 334.000
65.37277 332.000
65.39271 340.000
65.41266 371.000
65.43261 303.000
65.45255 322.000
65.47250 336.000
65.49245 323.000
65.51239 365.000
65.53234 345.000
65.55229 337.000
65.57224 355.000
65.59218 362.000
65.61213 336.000
65.63208 344.000
65.65202 353.000
65.67197 338.000
65.69192 343.000
65.71186 343.000
65.73181 320.000
65.75176 299.000
65.77171 331.000
65.79165 367.000
65.81160 294.000
65.83155 329.000
65.85149 370.000
65.87144 331.000
65.89139 336.000
65.91133 333.000
65.93128 338.000
65.95123 348.000
65.97117 320.000
65.99112 335.000
66.01107 352.000
66.03102 360.000
66.05096 336.000
66.07091 374.000
66.09086 372.000
66.11080 411.000
66.13075 371.000
66.15070 377.000
66.17064 398.000
66.19059 383.000
66.21054 393.000
66.23049 343.000
66.25043 358.000
66.27038 380.000
66.29033 361.000
66.31027 375.000
66.33022 351.000
66.35017 351.000
66.37011 377.000
66.39006 387.000
66.41001 373.000
66.42995 351.000
66.44990 368.000
66.46985 346.000
66.48980 371.000
66.50974 411.000
66.52969 428.000
66.54964 432.000
66.56958 418.000
66.58953 437.000
66.60948 428.000
66.62942 461.000
66.64937 455.000
66.66932 420.000
66.68927 376.000
66.70921 426.000
66.72916 436.000
66.74911 409.000
66.76905 378.000
66.78900 408.000
66.80895 365.000
66.82889 359.000
66.84884 374.000
66.86879 369.000
66.88874 359.000
66.90868 309.000
66.92863 342.000
66.94858 347.000
66.96852 335.000
66.98847 322.000
67.00842 269.000
67.02836 321.000
67.04831 283.000
67.06826 299.000
67.08820 280.000
67.10815 271.000
67.12810 284.000
67.14805 284.000
67.16799 316.000
67.18794 325.000
67.20789 294.000
67.22783 268.000
67.24778 334.000
67.26773 288.000
67.28767 313.000
67.30762 288.000
67.32757 289.000
67.34752 283.000
67.36746 286.000
67.38741 294.000
67.40736 335.000
67.42730 298.000
67.44725 339.000
67.46720 331.000
67.48714 314.000
67.50709 300.000
67.52704 295.000
67.54698 331.000
67.56693 322.000
67.58688 337.000
67.60683 315.000
67.62677 350.000
67.64672 314.000
67.66667 338.000
67.68661 342.000
67.70656 351.000
67.72651 366.000
67.74645 359.000
67.76640 360.000
67.78635 363.000
67.80630 356.000
67.82624 399.000
67.84619 364.000
67.86614 350.000
67.88608 327.000
67.90603 345.000
67.92598 334.000
67.94592 328.000
67.96587 319.000
67.98582 361.000
68.00576 328.000
68.02571 324.000
68.04566 351.000
68.06561 329.000
68.08555 308.000
68.10550 327.000
68.12545 321.000
68.14539 303.000
68.16534 267.000
68.18529 285.000
68.20523 276.000
68.22518 301.000
68.24513 288.000
68.26508 278.000
68.28502 291.000
68.30497 291.000
68.32492 279.000
68.34486 265.000
68.36481 279.000
68.38476 289.000
68.40470 280.000
68.42465 245.000
68.44460 273.000
68.46455 269.000
68.48449 282.000
68.50444 298.000
68.52439 305.000
68.54433 276.000
68.56428 247.000
68.58423 303.000
68.60417 275.000
68.62412 250.000
68.64407 280.000
68.66401 279.000
68.68396 276.000
68.70391 279.000
68.72386 273.000
68.74380 283.000
68.76375 268.000
68.78370 242.000
68.80364 255.000
68.82359 249.000
68.84354 282.000
68.86348 258.000
68.88343 277.000
68.90338 258.000
68.92333 286.000
68.94327 255.000
68.96322 265.000
68.98317 276.000
69.00311 256.000
69.02306 282.000
69.04301 272.000
69.06295 275.000
69.08290 267.000
69.10285 258.000
69.12279 271.000
69.14274 276.000
69.16269 238.000
69.18264 266.000
69.20258 266.000
69.22253 246.000
69.24248 259.000
69.26242 259.000
69.28237 307.000
69.30232 293.000
69.32226 244.000
69.34221 258.000
69.36216 275.000
69.38211 280.000
69.40205 277.000
69.42200 261.000
69.44195 283.000
69.46189 270.000
69.48184 242.000
69.50179 251.000
69.52173 266.000
69.54168 301.000
69.56163 248.000
69.58157 266.000
69.60152 257.000
69.62147 250.000
69.64142 254.000
69.66136 254.000
69.68131 253.000
69.70126 259.000
69.72120 281.000
69.74115 257.000
69.76110 261.000
69.78104 280.000
69.80099 274.000
69.82094 300.000
69.84089 286.000
69.86083 264.000
69.88078 260.000
69.90073 254.000
69.92067 304.000
69.94062 284.000
69.96057 255.000
69.98051 272.000
70.00046 316.000
70.02041 262.000
70.04035 261.000
70.06030 278.000
70.08025 256.000
70.10020 253.000
70.12014 248.000
70.14009 260.000
70.16004 269.000
70.17998 292.000
70.19993 276.000
70.21988 276.000
70.23982 289.000
70.25977 249.000
70.27972 261.000
70.29967 272.000
70.31961 229.000
70.33956 287.000
70.35951 259.000
70.37945 264.000
70.39940 238.000
70.41935 249.000
70.43929 280.000
70.45924 270.000
70.47919 277.000
70.49914 263.000
70.51908 262.000
70.53903 272.000
70.55898 271.000
70.57892 266.000
70.59887 268.000
70.61882 251.000
70.63876 287.000
70.65871 265.000
70.67866 270.000
70.69860 273.000
70.71855 282.000
70.73850 264.000
70.75845 258.000
70.77839 273.000
70.79834 229.000
70.81829 276.000
70.83823 242.000
70.85818 271.000
70.87813 272.000
70.89807 268.000
70.91802 263.000
70.93797 288.000
70.95792 279.000
70.97786 264.000
70.99781 290.000
71.01776 302.000
71.03770 282.000
71.05765 291.000
71.07760 285.000
71.09754 306.000
71.11749 301.000
71.13744 284.000
71.15738 267.000
71.17733 287.000
71.19728 260.000
71.21723 276.000
71.23717 256.000
71.25712 278.000
71.27707 273.000
71.29701 313.000
71.31696 284.000
71.33691 288.000
71.35685 267.000
71.37680 252.000
71.39675 269.000
71.41670 277.000
71.43664 264.000
71.45659 278.000
71.47654 269.000
71.49648 285.000
71.51643 268.000
71.53638 279.000
71.55632 277.000
71.57627 286.000
71.59622 256.000
71.61616 268.000
71.63611 270.000
71.65606 266.000
71.67601 277.000
71.69595 272.000
71.71590 274.000
71.73585 275.000
71.75579 285.000
71.77574 252.000
71.79569 281.000
71.81563 289.000
71.83558 269.000
71.85553 283.000
71.87548 277.000
71.89542 275.000
71.91537 245.000
71.93532 277.000
71.95526 270.000
71.97521 301.000
71.99516 275.000
72.01510 247.000
72.03505 272.000
72.05500 279.000
72.07495 250.000
72.09489 285.000
72.11484 308.000
72.13479 285.000
72.15473 295.000
72.17468 283.000
72.19463 306.000
72.21457 321.000
72.23452 296.000
72.25447 300.000
72.27441 274.000
72.29436 290.000
72.31431 294.000
72.33426 309.000
72.35420 298.000
72.37415 276.000
72.39410 303.000
72.41404 293.000
72.43399 267.000
72.45394 287.000
72.47388 299.000
72.49383 294.000
72.51378 271.000
72.53373 261.000
72.55367 301.000
72.57362 251.000
72.59357 270.000
72.61351 258.000
72.63346 261.000
72.65341 271.000
72.67335 251.000
72.69330 256.000
72.71325 248.000
72.73319 267.000
72.75314 275.000
72.77309 266.000
72.79304 302.000
72.81298 259.000
72.83293 272.000
72.85288 245.000
72.87282 251.000
72.89277 298.000
72.91272 257.000
72.93266 257.000
72.95261 260.000
72.97256 263.000
72.99251 262.000
73.01245 249.000
73.03240 273.000
73.05235 288.000
73.07229 306.000
73.09224 259.000
73.11219 281.000
73.13213 296.000
73.15208 264.000
73.17203 266.000
73.19197 275.000
73.21192 297.000
73.23187 257.000
73.25182 245.000
73.27176 285.000
73.29171 267.000
73.31166 274.000
73.33160 275.000
73.35155 299.000
73.37150 290.000
73.39144 290.000
73.41139 274.000
73.43134 259.000
73.45129 287.000
73.47123 346.000
73.49118 297.000
73.51113 331.000
73.53107 286.000
73.55102 345.000
73.57097 331.000
73.59091 317.000
73.61086 323.000
73.63081 301.000
73.65076 332.000
73.67070 292.000
73.69065 296.000
73.71060 308.000
73.73054 296.000
73.75049 276.000
73.77044 287.000
73.79038 274.000
73.81033 301.000
73.83028 279.000
73.85022 312.000
73.87017 299.000
73.89012 278.000
73.91007 297.000
73.93001 281.000
73.94996 267.000
73.96991 267.000
73.98985 284.000
74.00980 258.000
74.02975 290.000
74.04969 253.000
74.06964 254.000
74.08959 253.000
74.10954 294.000
74.12948 287.000
74.14943 274.000
74.16938 291.000
74.18932 300.000
74.20927 292.000
74.22922 281.000
74.24916 245.000
74.26911 304.000
74.28906 282.000
74.30900 295.000
74.32895 314.000
74.34890 313.000
74.36885 305.000
74.38879 292.000
74.40874 312.000
74.42869 291.000
74.44863 336.000
74.46858 329.000
74.48853 343.000
74.50847 351.000
74.52842 369.000
74.54837 400.000
74.56832 292.000
74.58826 310.000
74.60821 342.000
74.62816 312.000
74.64810 333.000
74.66805 309.000
74.68800 343.000
74.70794 325.000
74.72789 347.000
74.74784 364.000
74.76778 347.000
74.78773 359.000
74.80768 388.000
74.82763 352.000
74.84757 418.000
74.86752 423.000
74.88747 384.000
74.90741 385.000
74.92736 388.000
74.94731 369.000
74.96725 429.000
74.98720 407.000
75.00715 389.000
75.02710 417.000
75.04704 381.000
75.06699 410.000
75.08694 421.000
75.10688 399.000
75.12683 376.000
75.14678 387.000
75.16672 356.000
75.18667 378.000
75.20662 338.000
75.22657 405.000
75.24651 329.000
75.26646 373.000
75.28641 382.000
75.30635 351.000
75.32630 347.000
75.34625 388.000
75.36619 327.000
75.38614 307.000
75.40609 324.000
75.42603 323.000
75.44598 300.000
75.46593 312.000
75.48588 289.000
75.50582 296.000
75.52577 298.000
75.54572 320.000
75.56566 312.000
75.58561 272.000
75.60556 280.000
75.62550 302.000
75.64545 302.000
75.66540 293.000
75.68535 270.000
75.70529 309.000
75.72524 306.000
75.74519 244.000
75.76513 275.000
75.78508 292.000
75.80503 288.000
75.82497 260.000
75.84492 279.000
75.86487 298.000
75.88481 268.000
75.90476 284.000
75.92471 283.000
75.94466 258.000
75.96460 286.000
75.98455 275.000
76.00450 280.000
76.02444 273.000
76.04439 246.000
76.06434 272.000
76.08428 244.000
76.10423 299.000
76.12418 282.000
76.14413 230.000
76.16407 293.000
76.18402 305.000
76.20397 254.000
76.22391 275.000
76.24386 255.000
76.26381 261.000
76.28375 284.000
76.30370 265.000
76.32365 266.000
76.34359 279.000
76.36354 268.000
76.38349 229.000
76.40344 256.000
76.42338 275.000
76.44333 298.000
76.46328 237.000
76.48322 258.000
76.50317 278.000
76.52312 283.000
76.54306 271.000
76.56301 268.000
76.58296 242.000
76.60291 290.000
76.62285 265.000
76.64280 277.000
76.66275 270.000
76.68269 246.000
76.70264 284.000
76.72259 256.000
76.74253 290.000
76.76248 291.000
76.78243 259.000
76.80238 253.000
76.82232 244.000
76.84227 271.000
76.86222 257.000
76.88216 282.000
76.90211 250.000
76.92206 246.000
76.94200 272.000
76.96195 248.000
76.98190 259.000
77.00184 270.000
77.02179 236.000
77.04174 266.000
77.06169 271.000
77.08163 249.000
77.10158 244.000
77.12153 268.000
77.14147 249.000
77.16142 243.000
77.18137 288.000
77.20131 273.000
77.22126 250.000
77.24121 268.000
77.26116 225.000
77.28110 280.000
77.30105 270.000
77.32100 271.000
77.34094 270.000
77.36089 276.000
77.38084 243.000
77.40078 280.000
77.42073 285.000
77.44068 261.000
77.46062 270.000
77.48057 304.000
77.50052 315.000
77.52047 233.000
77.54041 290.000
77.56036 273.000
77.58031 256.000
77.60025 248.000
77.62020 292.000
77.64015 301.000
77.66009 278.000
77.68004 283.000
77.69999 267.000
77.71994 290.000
77.73988 263.000
77.75983 292.000
77.77978 303.000
77.79972 291.000
77.81967 272.000
77.83962 284.000
77.85956 287.000
77.87951 305.000
77.89946 332.000
77.91940 302.000
77.93935 328.000
77.95930 344.000
77.97925 331.000
77.99919 354.000
78.01914 370.000
78.03909 372.000
78.05903 365.000
78.07898 333.000
78.09893 368.000
78.11887 367.000
78.13882 339.000
78.15877 338.000
78.17872 332.000
78.19866 333.000
78.21861 340.000
78.23856 327.000
78.25850 318.000
78.27845 351.000
78.29840 319.000
78.31834 287.000
78.33829 278.000
78.35824 310.000
78.37819 277.000
78.39813 299.000
78.41808 296.000
78.43803 324.000
78.45797 274.000
78.47792 267.000
78.49787 303.000
78.51781 296.000
78.53776 272.000
78.55771 242.000
78.57765 277.000
78.59760 239.000
78.61755 251.000
78.63750 274.000
78.65744 267.000
78.67739 252.000
78.69734 308.000
78.71728 271.000
78.73723 301.000
78.75718 288.000
78.77712 298.000
78.79707 290.000
78.81702 285.000
78.83697 330.000
78.85691 326.000
78.87686 359.000
78.89681 332.000
78.91675 344.000
78.93670 330.000
78.95665 342.000
78.97659 338.000
78.99654 351.000
79.01649 325.000
79.03643 334.000
79.05638 335.000
79.07633 314.000
79.09628 338.000
79.11622 291.000
79.13617 305.000
79.15612 275.000
79.17606 334.000
79.19601 340.000
79.21596 350.000
79.23590 296.000
79.25585 317.000
79.27580 316.000
79.29575 312.000
79.31569 311.000
79.33564 330.000
79.35559 295.000
79.37553 302.000
79.39548 278.000
79.41543 271.000
79.43537 287.000
79.45532 283.000
79.47527 312.000
79.49521 304.000
79.51516 292.000
79.53511 289.000
79.55506 253.000
79.57500 266.000
79.59495 282.000
79.61490 272.000
79.63484 269.000
79.65479 268.000
79.67474 265.000
79.69468 273.000
79.71463 275.000
79.73458 264.000
79.75453 276.000
79.77447 264.000
79.79442 274.000
79.81437 253.000
79.83431 275.000
79.85426 259.000
79.87421 237.000
79.89415 280.000
79.91410 238.000
79.93405 238.000
79.95399 253.000
79.97394 289.000
79.99389 252.000
80.01384 258.000
80.03378 268.000
80.05373 250.000
80.07368 252.000
80.09362 302.000
80.11357 275.000
80.13352 273.000
80.15346 232.000
80.17341 283.000
80.19336 250.000
80.21331 276.000
80.23325 274.000
80.25320 238.000
80.27315 227.000
80.29309 251.000
80.31304 270.000
80.33299 258.000
80.35293 258.000
80.37288 283.000
80.39283 230.000
80.41278 276.000
80.43272 302.000
80.45267 261.000
80.47262 290.000
80.49256 242.000
80.51251 248.000
80.53246 239.000
80.55240 258.000
80.57235 255.000
80.59230 258.000
80.61224 238.000
80.63219 240.000
80.65214 261.000
80.67209 236.000
80.69203 260.000
80.71198 266.000
80.73193 266.000
80.75187 261.000
80.77182 259.000
80.79177 250.000
80.81171 240.000
80.83166 266.000
80.85161 265.000
80.87156 238.000
80.89150 255.000
80.91145 265.000
80.93140 289.000
80.95134 280.000
80.97129 277.000
80.99124 249.000
81.01118 245.000
81.03113 248.000
81.05108 251.000
81.07102 250.000
81.09097 237.000
81.11092 257.000
81.13087 255.000
81.15081 273.000
81.17076 266.000
81.19071 229.000
81.21065 241.000
81.23060 234.000
81.25055 246.000
81.27049 282.000
81.29044 274.000
81.31039 264.000
81.33034 245.000
81.35028 246.000
81.37023 269.000
81.39018 259.000
81.41012 272.000
81.43007 257.000
81.45002 244.000
81.46996 253.000
81.48991 294.000
81.50986 277.000
81.52980 232.000
81.54975 247.000
81.56970 279.000
81.58965 263.000
81.60959 281.000
81.62954 236.000
81.64949 249.000
81.66943 280.000
81.68938 250.000
81.70933 278.000
81.72927 261.000
81.74922 282.000
81.76917 229.000
81.78912 252.000
81.80906 249.000
81.82901 256.000
81.84896 263.000
81.86890 265.000
81.88885 234.000
81.90880 272.000
81.92874 249.000
81.94869 280.000
81.96864 237.000
81.98859 261.000
82.00853 270.000
82.02848 261.000
82.04843 241.000
82.06837 274.000
82.08832 237.000
82.10827 269.000
82.12821 275.000
82.14816 273.000
82.16811 251.000
82.18805 252.000
82.20800 266.000
82.22795 270.000
82.24790 287.000
82.26784 272.000
82.28779 287.000
82.30774 260.000
82.32768 254.000
82.34763 303.000
82.36758 271.000
82.38752 309.000
82.40747 277.000
82.42742 290.000
82.44737 275.000
82.46731 303.000
82.48726 268.000
82.50721 246.000
82.52715 271.000
82.54710 286.000
82.56705 271.000
82.58699 285.000
82.60694 286.000
82.62689 305.000
82.64683 257.000
82.66678 295.000
82.68673 280.000
82.70668 253.000
82.72662 265.000
82.74657 286.000
82.76652 267.000
82.78646 282.000
82.80641 294.000
82.82636 268.000
82.84630 262.000
82.86625 282.000
82.88620 278.000
82.90615 262.000
82.92609 288.000
82.94604 288.000
82.96599 284.000
82.98593 291.000
83.00588 291.000
83.02583 264.000
83.04577 264.000
83.06572 273.000
83.08567 282.000
83.10561 241.000
83.12556 250.000
83.14551 281.000
83.16546 287.000
83.18540 289.000
83.20535 254.000
83.22530 247.000
83.24524 271.000
83.26519 241.000
83.28514 255.000
83.30508 316.000
83.32503 248.000
83.34498 292.000
83.36493 276.000
83.38487 278.000
83.40482 255.000
83.42477 247.000
83.44471 261.000
83.46466 266.000
83.48461 264.000
83.50455 292.000
83.52450 277.000
83.54445 268.000
83.56440 274.000
83.58434 273.000
83.60429 264.000
83.62424 286.000
83.64418 282.000
83.66413 291.000
83.68408 269.000
83.70402 292.000
83.72397 264.000
83.74392 269.000
83.76386 264.000
83.78381 270.000
83.80376 266.000
83.82371 249.000
83.84365 265.000
83.86360 264.000
83.88355 262.000
83.90349 226.000
83.92344 280.000
83.94339 301.000
83.96333 293.000
83.98328 247.000
84.00323 254.000
84.02318 256.000
84.04312 262.000
84.06307 254.000
84.08302 271.000
84.10296 274.000
84.12291 243.000
84.14286 253.000
84.16280 278.000
84.18275 248.000
84.20270 283.000
84.22264 246.000
84.24259 261.000
84.26254 271.000
84.28249 245.000
84.30243 263.000
84.32238 248.000
84.34233 265.000
84.36227 298.000
84.38222 300.000
84.40217 280.000
84.42211 294.000
84.44206 282.000
84.46201 295.000
84.48196 310.000
84.50190 287.000
84.52185 303.000
84.54180 300.000
84.56174 326.000
84.58169 278.000
84.60164 324.000
84.62158 333.000
84.64153 327.000
84.66148 292.000
84.68142 333.000
84.70137 311.000
84.72132 323.000
84.74127 305.000
84.76121 306.000
84.78116 285.000
84.80111 318.000
84.82105 271.000
84.84100 310.000
84.86095 327.000
84.88089 331.000
84.90084 299.000
84.92079 307.000
84.94074 280.000
84.96068 281.000
84.98063 259.000
85.00058 280.000
85.02052 268.000
85.04047 262.000
85.06042 253.000
85.08036 259.000
85.10031 292.000
85.12026 263.000
85.14021 253.000
85.16015 241.000
85.18010 264.000
85.20005 260.000
85.21999 257.000
85.23994 264.000
85.25989 251.000
85.27983 269.000
85.29978 253.000
85.31973 265.000
85.33967 250.000
85.35962 222.000
85.37957 261.000
85.39952 238.000
85.41946 257.000
85.43941 250.000
85.45936 253.000
85.47930 241.000
85.49925 262.000
85.51920 245.000
85.53914 272.000
85.55909 275.000
85.57904 267.000
85.59899 266.000
85.61893 255.000
85.63888 249.000
85.65883 254.000
85.67877 243.000
85.69872 255.000
85.71867 254.000
85.73861 257.000
85.75856 256.000
85.77851 274.000
85.79845 251.000
85.81840 237.000
85.83835 239.000
85.85830 241.000
85.87824 281.000
85.89819 247.000
85.91814 250.000
85.93808 283.000
85.95803 264.000
85.97798 272.000
85.99792 241.000
86.01787 248.000
86.03782 254.000
86.05777 237.000
86.07771 242.000
86.09766 255.000
86.11761 241.000
86.13755 229.000
86.15750 243.000
86.17745 265.000
86.19739 288.000
86.21734 241.000
86.23729 252.000
86.25723 246.000
86.27718 250.000
86.29713 280.000
86.31708 271.000
86.33702 248.000
86.35697 237.000
86.37692 254.000
86.39686 250.000
86.41681 245.000
86.43676 235.000
86.45670 264.000
86.47665 237.000
86.49660 242.000
86.51655 258.000
86.53649 262.000
86.55644 254.000
86.57639 282.000
86.59633 259.000
86.61628 258.000
86.63623 285.000
86.65617 255.000
86.67612 268.000
86.69607 311.000
86.71602 278.000
86.73596 286.000
86.75591 245.000
86.77586 239.000
86.79580 254.000
86.81575 244.000
86.83570 299.000
86.85564 274.000
86.87559 276.000
86.89554 261.000
86.91548 253.000
86.93543 236.000
86.95538 254.000
86.97533 256.000
86.99527 285.000
87.01522 271.000
87.03517 265.000
87.05511 276.000
87.07506 262.000
87.09501 280.000
87.11495 255.000
87.13490 264.000
87.15485 262.000
87.17480 271.000
87.19474 263.000
87.21469 265.000
87.23464 283.000
87.25458 303.000
87.27453 258.000
87.29448 268.000
87.31442 280.000
87.33437 242.000
87.35432 293.000
87.37426 264.000
87.39421 266.000
87.41416 273.000
87.43411 269.000
87.45405 278.000
87.47400 261.000
87.49395 252.000
87.51389 293.000
87.53384 271.000
87.55379 248.000
87.57373 251.000
87.59368 277.000
87.61363 281.000
87.63358 269.000
87.65352 266.000
87.67347 270.000
87.69342 285.000
87.71336 268.000
87.73331 285.000
87.75326 232.000
87.77320 237.000
87.79315 243.000
87.81310 268.000
87.83304 253.000
87.85299 241.000
87.87294 233.000
87.89289 239.000
87.91283 277.000
87.93278 234.000
87.95273 249.000
87.97267 239.000
87.99262 229.000
88.01257 262.000
88.03251 244.000
88.05246 243.000
88.07241 240.000
88.09236 267.000
88.11230 238.000
88.13225 250.000
88.15220 259.000
88.17214 228.000
88.19209 260.000
88.21204 257.000
88.23198 261.000
88.25193 265.000
88.27188 258.000
88.29183 236.000
88.31177 249.000
88.33172 273.000
88.35167 210.000
88.37161 258.000
88.39156 257.000
88.41151 217.000
88.43145 277.000
88.45140 243.000
88.47135 244.000
88.49129 251.000
88.51124 252.000
88.53119 240.000
88.55114 258.000
88.57108 251.000
88.59103 271.000
88.61098 261.000
88.63092 255.000
88.65087 241.000
88.67082 246.000
88.69076 228.000
88.71071 249.000
88.73066 236.000
88.75061 268.000
88.77055 259.000
88.79050 257.000
88.81045 242.000
88.83039 241.000
88.85034 279.000
88.87029 237.000
88.89023 257.000
88.91018 256.000
88.93013 263.000
88.95007 251.000
88.97002 274.000
88.98997 281.000
89.00992 237.000
89.02986 238.000
89.04981 259.000
89.06976 260.000
89.08970 260.000
89.10965 232.000
89.12960 236.000
89.14954 257.000
89.16949 250.000
89.18944 247.000
89.20939 255.000
89.22933 260.000
89.24928 248.000
89.26923 298.000
89.28917 264.000
89.30912 285.000
89.32907 274.000
89.34901 250.000
89.36896 246.000
89.38891 256.000
89.40885 251.000
89.42880 255.000
89.44875 256.000
89.46870 279.000
89.48864 291.000
89.50859 257.000
89.52854 268.000
89.54848 259.000
89.56843 276.000
89.58838 234.000
89.60832 283.000
89.62827 254.000
89.64822 254.000
89.66817 271.000
89.68811 288.000
89.70806 269.000
89.72801 239.000
89.74795 279.000
89.76790 277.000
89.78785 237.000
89.80779 256.000
89.82774 237.000
89.84769 251.000
89.86764 272.000
89.88758 279.000
89.90753 281.000
89.92748 274.000
89.94742 240.000
89.96737 291.000
89.98732 296.000
90.00726 284.000
