10.00000 210.000
10.01995 200.000
10.03989 217.000
10.05984 211.000
10.07979 210.000
10.09973 213.000
10.11968 193.000
10.13963 207.000
10.15958 206.000
10.17952 205.000
10.19947 180.000
10.21942 221.000
10.23936 222.000
10.25931 235.000
10.27926 209.000
10.29920 220.000
10.31915 226.000
10.33910 183.000
10.35905 191.000
10.37899 225.000
10.39894 196.000
10.41889 194.000
10.43883 215.000
10.45878 212.000
10.47873 251.000
10.49867 241.000
10.51862 226.000
10.53857 210.000
10.55851 213.000
10.57846 210.000
10.59841 227.000
10.61836 212.000
10.63830 228.000
10.65825 203.000
10.67820 233.000
10.69814 236.000
10.71809 216.000
10.73804 240.000
10.75798 224.000
10.77793 212.000
10.79788 213.000
10.81783 223.000
10.83777 215.000
10.85772 222.000
10.87767 202.000
10.89761 208.000
10.91756 219.000
10.93751 194.000
10.95745 206.000
10.97740 208.000
10.99735 240.000
11.01730 216.000
11.03724 235.000
11.05719 234.000
11.07714 221.000
11.09708 246.000
11.11703 234.000
11.13698 219.000
11.15692 212.000
11.17687 223.000
11.19682 231.000
11.21676 208.000
11.23671 209.000
11.25666 235.000
11.27661 202.000
11.29655 236.000
11.31650 212.000
11.33645 204.000
11.35639 217.000
11.37634 222.000
11.39629 206.000
11.41623 230.000
11.43618 245.000
11.45613 250.000
11.47608 205.000
11.49602 216.000
11.51597 229.000
11.53592 223.000
11.55586 227.000
11.57581 194.000
11.59576 198.000
11.61570 249.000
11.63565 243.000
11.65560 218.000
11.67554 222.000
11.69549 183.000
11.71544 240.000
11.73539 224.000
11.75533 241.000
11.77528 256.000
11.79523 224.000
11.81517 224.000
11.83512 216.000
11.85507 229.000
11.87501 237.000
11.89496 225.000
11.91491 209.000
11.93486 219.000
11.95480 219.000
11.97475 230.000
11.99470 201.000
12.01464 216.000
12.03459 234.000
12.05454 245.000
12.07448 210.000
12.09443 215.000
12.11438 232.000
12.13432 243.000
12.15427 223.000
12.17422 244.000
12.19417 216.000
12.21411 243.000
12.23406 212.000
12.25401 238.000
12.27395 227.000
12.29390 241.000
12.31385 230.000
12.33379 250.000
12.35374 247.000
12.37369 210.000
12.39364 219.000
12.41358 223.000
12.43353 212.000
12.45348 236.000
12.47342 211.000
12.49337 233.000
12.51332 222.000
12.53326 233.000
12.55321 205.000
12.57316 264.000
12.59311 233.000
12.61305 237.000
12.63300 227.000
12.65295 231.000
12.67289 250.000
12.69284 222.000
12.71279 232.000
12.73273 235.000
12.75268 268.000
12.77263 212.000
12.79257 215.000
12.81252 231.000
12.83247 202.000
12.85242 217.000
12.87236 244.000
12.89231 214.000
12.91226 252.000
12.93220 252.000
12.95215 239.000
12.97210 214.000
12.99204 238.000
13.01199 236.000
13.03194 264.000
13.05189 257.000
13.07183 242.000
13.09178 249.000
13.11173 233.000
13.13167 236.000
13.15162 239.000
13.17157 257.000
13.19151 252.000
13.21146 230.000
13.23141 223.000
13.25135 234.000
13.27130 241.000
13.29125 211.000
13.31120 225.000
13.33114 216.000
13.35109 242.000
13.37104 213.000
13.39098 233.000
13.41093 266.000
13.43088 231.000
13.45082 233.000
13.47077 238.000
13.49072 240.000
13.51067 251.000
13.53061 243.000
13.55056 225.000
13.57051 223.000
13.59045 231.000
13.61040 222.000
13.63035 227.000
13.65029 228.000
13.67024 249.000
13.69019 234.000
13.71013 226.000
13.73008 248.000
13.75003 248.000
13.76998 274.000
13.78992 241.000
13.80987 250.000
13.82982 212.000
13.84976 231.000
13.86971 247.000
13.88966 259.000
13.90960 232.000
13.92955 247.000
13.94950 229.000
13.96945 239.000
13.98939 233.000
14.00934 247.000
14.02929 220.000
14.04923 249.000
14.06918 224.000
14.08913 223.000
14.10907 239.000
14.12902 238.000
14.14897 261.000
14.16892 265.000
14.18886 269.000
14.20881 255.000
14.22876 236.000
14.24870 263.000
14.26865 248.000
14.28860 238.000
14.30854 255.000
14.32849 241.000
14.34844 249.000
14.36838 234.000
14.38833 227.000
14.40828 250.000
14.42823 271.000
14.44817 243.000
14.46812 231.000
14.48807 276.000
14.50801 240.000
14.52796 228.000
14.54791 231.000
14.56785 224.000
14.58780 233.000
14.60775 255.000
14.62770 220.000
14.64764 230.000
14.66759 275.000
14.68754 227.000
14.70748 223.000
14.72743 233.000
14.74738 245.000
14.76732 249.000
14.78727 243.000
14.80722 267.000
14.82716 240.000
14.84711 254.000
14.86706 233.000
14.88701 266.000
14.90695 227.000
14.92690 239.000
14.94685 262.000
14.96679 242.000
14.98674 221.000
15.00669 261.000
15.02663 283.000
15.04658 252.000
15.06653 245.000
15.08648 255.000
15.10642 265.000
15.12637 225.000
15.14632 246.000
15.16626 236.000
15.18621 240.000
15.20616 264.000
15.22610 259.000
15.24605 260.000
15.26600 275.000
15.28594 269.000
15.30589 258.000
15.32584 271.000
15.34579 302.000
15.36573 260.000
15.38568 286.000
15.40563 291.000
15.42557 282.000
15.44552 281.000
15.46547 302.000
15.48541 302.000
15.50536 356.000
15.52531 362.000
15.54526 429.000
15.56520 450.000
15.58515 495.000
15.60510 581.000
15.62504 781.000
15.64499 1004.000
15.66494 1186.000
15.68488 1314.000
15.70483 1385.000
15.72478 1339.000
15.74472 1045.000
15.76467 870.000
15.78462 556.000
15.80457 464.000
15.82451 330.000
15.84446 324.000
15.86441 332.000
15.88435 282.000
15.90430 280.000
15.92425 251.000
15.94419 279.000
15.96414 293.000
15.98409 281.000
16.00404 266.000
16.02398 281.000
16.04393 263.000
16.06388 248.000
16.08382 268.000
16.10377 279.000
16.12372 224.000
16.14366 261.000
16.16361 226.000
16.18356 265.000
16.20351 273.000
16.22345 235.000
16.24340 243.000
16.26335 255.000
16.28329 255.000
16.30324 276.000
16.32319 262.000
16.34313 247.000
16.36308 260.000
16.38303 262.000
16.40297 273.000
16.42292 267.000
16.44287 266.000
16.46282 234.000
16.48276 270.000
16.50271 266.000
16.52266 233.000
16.54260 242.000
16.56255 245.000
16.58250 278.000
16.60244 246.000
16.62239 272.000
16.64234 261.000
16.66229 297.000
16.68223 321.000
16.70218 325.000
16.72213 312.000
16.74207 286.000
16.76202 300.000
16.78197 322.000
16.80191 306.000
16.82186 263.000
16.84181 279.000
16.86175 257.000
16.88170 260.000
16.90165 245.000
16.92160 228.000
16.94154 248.000
16.96149 251.000
16.98144 224.000
17.00138 253.000
17.02133 254.000
17.04128 234.000
17.06122 247.000
17.08117 249.000
17.10112 261.000
17.12107 221.000
17.14101 279.000
17.16096 259.000
17.18091 251.000
17.20085 253.000
17.22080 254.000
17.24075 240.000
17.26069 261.000
17.28064 269.000
17.30059 254.000
17.32053 273.000
17.34048 241.000
17.36043 245.000
17.38038 265.000
17.40032 282.000
17.42027 245.000
17.44022 252.000
17.46016 269.000
17.48011 263.000
17.50006 258.000
17.52000 228.000
17.53995 254.000
17.55990 245.000
17.57985 226.000
17.59979 247.000
17.61974 272.000
17.63969 278.000
17.65963 210.000
17.67958 272.000
17.69953 236.000
17.71947 287.000
17.73942 271.000
17.75937 234.000
17.77932 239.000
17.79926 249.000
17.81921 249.000
17.83916 248.000
17.85910 230.000
17.87905 264.000
17.89900 268.000
17.91894 236.000
17.93889 233.000
17.95884 257.000
17.97878 271.000
17.99873 296.000
18.01868 253.000
18.03863 246.000
18.05857 273.000
18.07852 255.000
18.09847 296.000
18.11841 285.000
18.13836 286.000
18.15831 308.000
18.17825 323.000
18.19820 399.000
18.21815 444.000
18.23810 601.000
18.25804 619.000
18.27799 692.000
18.29794 597.000
18.31788 522.000
18.33783 466.000
18.35778 383.000
18.37772 285.000
18.39767 279.000
18.41762 249.000
18.43756 243.000
18.45751 240.000
18.47746 247.000
18.49741 240.000
18.51735 242.000
18.53730 239.000
18.55725 250.000
18.57719 240.000
18.59714 272.000
18.61709 276.000
18.63703 259.000
18.65698 247.000
18.67693 231.000
18.69688 246.000
18.71682 243.000
18.73677 274.000
18.75672 266.000
18.77666 279.000
18.79661 270.000
18.81656 241.000
18.83650 252.000
18.85645 231.000
18.87640 241.000
18.89634 257.000
18.91629 223.000
18.93624 250.000
18.95619 285.000
18.97613 261.000
18.99608 254.000
19.01603 277.000
19.03597 277.000
19.05592 235.000
19.07587 227.000
19.09581 285.000
19.11576 264.000
19.13571 266.000
19.15566 246.000
19.17560 264.000
19.19555 255.000
19.21550 258.000
19.23544 231.000
19.25539 265.000
19.27534 238.000
19.29528 249.000
19.31523 243.000
19.33518 236.000
19.35513 266.000
19.37507 237.000
19.39502 223.000
19.41497 257.000
19.43491 281.000
19.45486 270.000
19.47481 259.000
19.49475 268.000
19.51470 239.000
19.53465 225.000
19.55459 256.000
19.57454 232.000
19.59449 264.000
19.61444 261.000
19.63438 279.000
19.65433 233.000
19.67428 251.000
19.69422 271.000
19.71417 246.000
19.73412 253.000
19.75406 264.000
19.77401 250.000
19.79396 245.000
19.81391 253.000
19.83385 283.000
19.85380 249.000
19.87375 243.000
19.89369 262.000
19.91364 260.000
19.93359 292.000
19.95353 271.000
19.97348 241.000
19.99343 286.000
20.01337 247.000
20.03332 268.000
20.05327 273.000
20.07322 260.000
20.09316 258.000
20.11311 229.000
20.13306 267.000
20.15300 254.000
20.17295 231.000
20.19290 276.000
20.21284 242.000
20.23279 246.000
20.25274 257.000
20.27269 283.000
20.29263 292.000
20.31258 246.000
20.33253 247.000
20.35247 264.000
20.37242 265.000
20.39237 245.000
20.41231 282.000
20.43226 276.000
20.45221 267.000
20.47215 293.000
20.49210 307.000
20.51205 258.000
20.53200 292.000
20.55194 276.000
20.57189 259.000
20.59184 289.000
20.61178 333.000
20.63173 378.000
20.65168 385.000
20.67162 435.000
20.69157 450.000
20.71152 472.000
20.73147 510.000
20.75141 572.000
20.77136 650.000
20.79131 647.000
20.81125 694.000
20.83120 678.000
20.85115 628.000
20.87109 625.000
20.89104 543.000
20.91099 549.000
20.93094 438.000
20.95088 488.000
20.97083 405.000
20.99078 335.000
21.01072 370.000
21.03067 287.000
21.05062 291.000
21.07056 285.000
21.09051 263.000
21.11046 269.000
21.13040 275.000
21.15035 284.000
21.17030 278.000
21.19025 297.000
21.21019 272.000
21.23014 255.000
21.25009 259.000
21.27003 270.000
21.28998 265.000
21.30993 269.000
21.32987 246.000
21.34982 262.000
21.36977 268.000
21.38972 244.000
21.40966 269.000
21.42961 270.000
21.44956 261.000
21.46950 229.000
21.48945 251.000
21.50940 240.000
21.52934 267.000
21.54929 257.000
21.56924 281.000
21.58918 239.000
21.60913 253.000
21.62908 236.000
21.64903 242.000
21.66897 284.000
21.68892 272.000
21.70887 232.000
21.72881 248.000
21.74876 265.000
21.76871 265.000
21.78865 242.000
21.80860 289.000
21.82855 286.000
21.84850 262.000
21.86844 291.000
21.88839 248.000
21.90834 289.000
21.92828 294.000
21.94823 273.000
21.96818 280.000
21.98812 258.000
22.00807 252.000
22.02802 246.000
22.04796 255.000
22.06791 277.000
22.08786 258.000
22.10781 268.000
22.12775 277.000
22.14770 270.000
22.16765 247.000
22.18759 252.000
22.20754 263.000
22.22749 228.000
22.24743 258.000
22.26738 251.000
22.28733 226.000
22.30728 258.000
22.32722 258.000
22.34717 299.000
22.36712 256.000
22.38706 245.000
22.40701 245.000
22.42696 268.000
22.44690 263.000
22.46685 280.000
22.48680 244.000
22.50675 274.000
22.52669 258.000
22.54664 265.000
22.56659 267.000
22.58653 223.000
22.60648 242.000
22.62643 276.000
22.64637 228.000
22.66632 243.000
22.68627 234.000
22.70621 252.000
22.72616 253.000
22.74611 267.000
22.76606 250.000
22.78600 239.000
22.80595 255.000
22.82590 238.000
22.84584 253.000
22.86579 254.000
22.88574 241.000
22.90568 258.000
22.92563 276.000
22.94558 263.000
22.96553 260.000
22.98547 277.000
23.00542 283.000
23.02537 240.000
23.04531 278.000
23.06526 240.000
23.08521 273.000
23.10515 252.000
23.12510 264.000
23.14505 276.000
23.16499 274.000
23.18494 281.000
23.20489 268.000
23.22484 263.000
23.24478 282.000
23.26473 278.000
23.28468 248.000
23.30462 237.000
23.32457 276.000
23.34452 243.000
23.36446 274.000
23.38441 279.000
23.40436 254.000
23.42431 258.000
23.44425 260.000
23.46420 297.000
23.48415 302.000
23.50409 297.000
23.52404 253.000
23.54399 282.000
23.56393 258.000
23.58388 253.000
23.60383 250.000
23.62377 244.000
23.64372 267.000
23.66367 256.000
23.68362 239.000
23.70356 260.000
23.72351 243.000
23.74346 229.000
23.76340 266.000
23.78335 244.000
23.80330 271.000
23.82324 271.000
23.84319 237.000
23.86314 289.000
23.88309 256.000
23.90303 269.000
23.92298 255.000
23.94293 266.000
23.96287 261.000
23.98282 251.000
24.00277 253.000
24.02271 267.000
24.04266 285.000
24.06261 282.000
24.08256 262.000
24.10250 286.000
24.12245 283.000
24.14240 243.000
24.16234 270.000
24.18229 276.000
24.20224 273.000
24.22218 300.000
24.24213 288.000
24.26208 237.000
24.28202 260.000
24.30197 276.000
24.32192 288.000
24.34187 272.000
24.36181 268.000
24.38176 269.000
24.40171 256.000
24.42165 272.000
24.44160 268.000
24.46155 275.000
24.48149 232.000
24.50144 267.000
24.52139 257.000
24.54134 276.000
24.56128 257.000
24.58123 268.000
24.60118 285.000
24.62112 281.000
24.64107 267.000
24.66102 271.000
24.68096 259.000
24.70091 286.000
24.72086 289.000
24.74080 291.000
24.76075 287.000
24.78070 281.000
24.80065 299.000
24.82059 318.000
24.84054 284.000
24.86049 310.000
24.88043 307.000
24.90038 318.000
24.92033 314.000
24.94027 305.000
24.96022 255.000
24.98017 303.000
25.00012 281.000
25.02006 296.000
25.04001 305.000
25.05996 289.000
25.07990 259.000
25.09985 261.000
25.11980 265.000
25.13974 250.000
25.15969 270.000
25.17964 255.000
25.19958 256.000
25.21953 269.000
25.23948 278.000
25.25943 280.000
25.27937 269.000
25.29932 252.000
25.31927 264.000
25.33921 267.000
25.35916 277.000
25.37911 257.000
25.39905 275.000
25.41900 267.000
25.43895 232.000
25.45890 256.000
25.47884 254.000
25.49879 269.000
25.51874 261.000
25.53868 233.000
25.55863 283.000
25.57858 274.000
25.59852 244.000
25.61847 273.000
25.63842 265.000
25.65837 283.000
25.67831 266.000
25.69826 257.000
25.71821 270.000
25.73815 279.000
25.75810 282.000
25.77805 270.000
25.79799 302.000
25.81794 299.000
25.83789 248.000
25.85783 267.000
25.87778 289.000
25.89773 272.000
25.91768 296.000
25.93762 274.000
25.95757 261.000
25.97752 298.000
25.99746 246.000
26.01741 281.000
26.03736 280.000
26.05730 266.000
26.07725 286.000
26.09720 258.000
26.11715 262.000
26.13709 264.000
26.15704 293.000
26.17699 258.000
26.19693 275.000
26.21688 255.000
26.23683 277.000
26.25677 281.000
26.27672 268.000
26.29667 260.000
26.31661 255.000
26.33656 266.000
26.35651 273.000
26.37646 304.000
26.39640 282.000
26.41635 267.000
26.43630 249.000
26.45624 310.000
26.47619 272.000
26.49614 291.000
26.51608 278.000
26.53603 258.000
26.55598 262.000
26.57593 274.000
26.59587 289.000
26.61582 281.000
26.63577 283.000
26.65571 240.000
26.67566 275.000
26.69561 258.000
26.71555 307.000
26.73550 276.000
26.75545 269.000
26.77539 241.000
26.79534 304.000
26.81529 285.000
26.83524 282.000
26.85518 274.000
26.87513 274.000
26.89508 265.000
26.91502 283.000
26.93497 288.000
26.95492 262.000
26.97486 257.000
26.99481 271.000
27.01476 263.000
27.03471 270.000
27.05465 304.000
27.07460 280.000
27.09455 254.000
27.11449 270.000
27.13444 287.000
27.15439 299.000
27.17433 306.000
27.19428 321.000
27.21423 312.000
27.23417 300.000
27.25412 276.000
27.27407 276.000
27.29402 280.000
27.31396 266.000
27.33391 259.000
27.35386 299.000
27.37380 305.000
27.39375 285.000
27.41370 291.000
27.43364 281.000
27.45359 246.000
27.47354 268.000
27.49349 269.000
27.51343 285.000
27.53338 298.000
27.55333 305.000
27.57327 263.000
27.59322 262.000
27.61317 306.000
27.63311 312.000
27.65306 286.000
27.67301 272.000
27.69296 287.000
27.71290 286.000
27.73285 262.000
27.75280 244.000
27.77274 267.000
27.79269 278.000
27.81264 282.000
27.83258 266.000
27.85253 250.000
27.87248 280.000
27.89242 291.000
27.91237 268.000
27.93232 313.000
27.95227 273.000
27.97221 316.000
27.99216 299.000
28.01211 275.000
28.03205 298.000
28.05200 263.000
28.07195 276.000
28.09189 250.000
28.11184 270.000
28.13179 284.000
28.15174 305.000
28.17168 285.000
28.19163 300.000
28.21158 282.000
28.23152 293.000
28.25147 293.000
28.27142 276.000
28.29136 295.000
28.31131 304.000
28.33126 289.000
28.35120 295.000
28.37115 287.000
28.39110 309.000
28.41105 276.000
28.43099 300.000
28.45094 310.000
28.47089 300.000
28.49083 295.000
28.51078 287.000
28.53073 298.000
28.55067 275.000
28.57062 275.000
28.59057 316.000
28.61052 277.000
28.63046 264.000
28.65041 292.000
28.67036 285.000
28.69030 278.000
28.71025 281.000
28.73020 290.000
28.75014 319.000
28.77009 309.000
28.79004 258.000
28.80998 289.000
28.82993 296.000
28.84988 311.000
28.86983 290.000
28.88977 310.000
28.90972 272.000
28.92967 302.000
28.94961 308.000
28.96956 293.000
28.98951 292.000
29.00945 350.000
29.02940 259.000
29.04935 328.000
29.06930 302.000
29.08924 356.000
29.10919 354.000
29.12914 396.000
29.14908 386.000
29.16903 377.000
29.18898 416.000
29.20892 444.000
29.22887 430.000
29.24882 453.000
29.26877 400.000
29.28871 469.000
29.30866 457.000
29.32861 377.000
29.34855 404.000
29.36850 354.000
29.38845 379.000
29.40839 295.000
29.42834 353.000
29.44829 306.000
29.46823 352.000
29.48818 313.000
29.50813 333.000
29.52808 296.000
29.54802 290.000
29.56797 348.000
29.58792 260.000
29.60786 276.000
29.62781 282.000
29.64776 296.000
29.66770 282.000
29.68765 275.000
29.70760 326.000
29.72755 271.000
29.74749 291.000
29.76744 330.000
29.78739 289.000
29.80733 282.000
29.82728 302.000
29.84723 299.000
29.86717 317.000
29.88712 347.000
29.90707 358.000
29.92701 345.000
29.94696 359.000
29.96691 402.000
29.98686 395.000
30.00680 423.000
30.02675 447.000
30.04670 495.000
30.06664 582.000
30.08659 751.000
30.10654 1024.000
30.12648 1235.000
30.14643 1199.000
30.16638 1193.000
30.18633 1023.000
30.20627 899.000
30.22622 823.000
30.24617 701.000
30.26611 569.000
30.28606 440.000
30.30601 366.000
30.32595 332.000
30.34590 342.000
30.36585 312.000
30.38579 312.000
30.40574 299.000
30.42569 325.000
30.44564 288.000
30.46558 327.000
30.48553 292.000
30.50548 301.000
30.52542 278.000
30.54537 257.000
30.56532 286.000
30.58526 258.000
30.60521 285.000
30.62516 283.000
30.64511 297.000
30.66505 284.000
30.68500 319.000
30.70495 296.000
30.72489 275.000
30.74484 282.000
30.76479 283.000
30.78473 301.000
30.80468 287.000
30.82463 312.000
30.84458 295.000
30.86452 289.000
30.88447 313.000
30.90442 289.000
30.92436 316.000
30.94431 308.000
30.96426 270.000
30.98420 294.000
31.00415 316.000
31.02410 293.000
31.04404 308.000
31.06399 269.000
31.08394 291.000
31.10389 280.000
31.12383 265.000
31.14378 305.000
31.16373 354.000
31.18367 317.000
31.20362 338.000
31.22357 309.000
31.24351 319.000
31.26346 285.000
31.28341 274.000
31.30336 301.000
31.32330 314.000
31.34325 305.000
31.36320 298.000
31.38314 304.000
31.40309 282.000
31.42304 280.000
31.44298 300.000
31.46293 298.000
31.48288 278.000
31.50282 281.000
31.52277 293.000
31.54272 268.000
31.56267 359.000
31.58261 288.000
31.60256 362.000
31.62251 327.000
31.64245 297.000
31.66240 332.000
31.68235 297.000
31.70229 330.000
31.72224 348.000
31.74219 331.000
31.76214 364.000
31.78208 369.000
31.80203 373.000
31.82198 383.000
31.84192 399.000
31.86187 358.000
31.88182 452.000
31.90176 356.000
31.92171 393.000
31.94166 335.000
31.96160 337.000
31.98155 331.000
32.00150 303.000
32.02145 308.000
32.04139 331.000
32.06134 284.000
32.08129 282.000
32.10123 293.000
32.12118 300.000
32.14113 311.000
32.16107 326.000
32.18102 282.000
32.20097 274.000
32.22092 317.000
32.24086 333.000
32.26081 312.000
32.28076 300.000
32.30070 337.000
32.32065 386.000
32.34060 366.000
32.36054 374.000
32.38049 383.000
32.40044 358.000
32.42039 349.000
32.44033 360.000
32.46028 344.000
32.48023 319.000
32.50017 335.000
32.52012 314.000
32.54007 281.000
32.56001 289.000
32.57996 291.000
32.59991 284.000
32.61985 280.000
32.63980 291.000
32.65975 338.000
32.67970 306.000
32.69964 311.000
32.71959 291.000
32.73954 288.000
32.75948 274.000
32.77943 288.000
32.79938 289.000
32.81932 314.000
32.83927 292.000
32.85922 263.000
32.87917 283.000
32.89911 280.000
32.91906 282.000
32.93901 270.000
32.95895 306.000
32.97890 322.000
32.99885 295.000
33.01879 292.000
33.03874 294.000
33.05869 253.000
33.07863 311.000
33.09858 268.000
33.11853 312.000
33.13848 291.000
33.15842 304.000
33.17837 301.000
33.19832 313.000
33.21826 314.000
33.23821 301.000
33.25816 303.000
33.27810 292.000
33.29805 310.000
33.31800 288.000
33.33795 306.000
33.35789 277.000
33.37784 294.000
33.39779 300.000
33.41773 284.000
33.43768 293.000
33.45763 309.000
33.47757 298.000
33.49752 280.000
33.51747 294.000
33.53741 309.000
33.55736 319.000
33.57731 291.000
33.59726 299.000
33.61720 325.000
33.63715 306.000
33.65710 274.000
33.67704 325.000
33.69699 301.000
33.71694 290.000
33.73688 301.000
33.75683 296.000
33.77678 305.000
33.79673 294.000
33.81667 298.000
33.83662 335.000
33.85657 316.000
33.87651 327.000
33.89646 312.000
33.91641 305.000
33.93635 329.000
33.95630 333.000
33.97625 331.000
33.99620 308.000
34.01614 329.000
34.03609 300.000
34.05604 375.000
34.07598 350.000
34.09593 338.000
34.11588 368.000
34.13582 411.000
34.15577 427.000
34.17572 434.000
34.19566 443.000
34.21561 479.000
34.23556 555.000
34.25551 554.000
34.27545 571.000
34.29540 536.000
34.31535 618.000
34.33529 650.000
34.35524 609.000
34.37519 660.000
34.39513 695.000
34.41508 660.000
34.43503 684.000
34.45498 634.000
34.47492 639.000
34.49487 626.000
34.51482 570.000
34.53476 500.000
34.55471 527.000
34.57466 564.000
34.59460 490.000
34.61455 503.000
34.63450 503.000
34.65444 456.000
34.67439 439.000
34.69434 475.000
34.71429 438.000
34.73423 453.000
34.75418 425.000
34.77413 419.000
34.79407 430.000
34.81402 415.000
34.83397 407.000
34.85391 383.000
34.87386 426.000
34.89381 389.000
34.91376 384.000
34.93370 398.000
34.95365 351.000
34.97360 387.000
34.99354 396.000
35.01349 418.000
35.03344 382.000
35.05338 375.000
35.07333 432.000
35.09328 442.000
35.11322 465.000
35.13317 476.000
35.15312 524.000
35.17307 545.000
35.19301 634.000
35.21296 728.000
35.23291 706.000
35.25285 872.000
35.27280 978.000
35.29275 1081.000
35.31269 1192.000
35.33264 1340.000
35.35259 1435.000
35.37254 1459.000
35.39248 1701.000
35.41243 1703.000
35.43238 1930.000
35.45232 2128.000
35.47227 2616.000
35.49222 3274.000
35.51216 3756.000
35.53211 3963.000
35.55206 3516.000
35.57201 2983.000
35.59195 2737.000
35.61190 2488.000
35.63185 2291.000
35.65179 1803.000
35.67174 1310.000
35.69169 992.000
35.71163 738.000
35.73158 663.000
35.75153 577.000
35.77147 497.000
35.79142 467.000
35.81137 523.000
35.83132 489.000
35.85126 453.000
35.87121 442.000
35.89116 411.000
35.91110 413.000
35.93105 411.000
35.95100 434.000
35.97094 415.000
35.99089 421.000
36.01084 404.000
36.03079 391.000
36.05073 385.000
36.07068 416.000
36.09063 407.000
36.11057 402.000
36.13052 351.000
36.15047 413.000
36.17041 369.000
36.19036 372.000
36.21031 352.000
36.23025 362.000
36.25020 345.000
36.27015 354.000
36.29010 326.000
36.31004 355.000
36.32999 371.000
36.34994 348.000
36.36988 345.000
36.38983 300.000
36.40978 368.000
36.42972 317.000
36.44967 354.000
36.46962 346.000
36.48957 328.000
36.50951 330.000
36.52946 328.000
36.54941 361.000
36.56935 318.000
36.58930 344.000
36.60925 357.000
36.62919 373.000
36.64914 350.000
36.66909 375.000
36.68903 360.000
36.70898 388.000
36.72893 378.000
36.74888 427.000
36.76882 422.000
36.78877 421.000
36.80872 455.000
36.82866 478.000
36.84861 509.000
36.86856 641.000
36.88850 703.000
36.90845 826.000
36.92840 877.000
36.94835 977.000
36.96829 1121.000
36.98824 1172.000
37.00819 1164.000
37.02813 1180.000
37.04808 1105.000
37.06803 1024.000
37.08797 993.000
37.10792 914.000
37.12787 929.000
37.14781 929.000
37.16776 828.000
37.18771 796.000
37.20766 644.000
37.22760 599.000
37.24755 593.000
37.26750 529.000
37.28744 500.000
37.30739 467.000
37.32734 440.000
37.34728 406.000
37.36723 387.000
37.38718 362.000
37.40713 332.000
37.42707 361.000
37.44702 334.000
37.46697 319.000
37.48691 332.000
37.50686 308.000
37.52681 342.000
37.54675 360.000
37.56670 346.000
37.58665 330.000
37.60660 330.000
37.62654 293.000
37.64649 315.000
37.66644 335.000
37.68638 327.000
37.70633 379.000
37.72628 328.000
37.74622 329.000
37.76617 313.000
37.78612 332.000
37.80606 330.000
37.82601 343.000
37.84596 333.000
37.86591 333.000
37.88585 347.000
37.90580 336.000
37.92575 341.000
37.94569 318.000
37.96564 342.000
37.98559 324.000
38.00553 368.000
38.02548 324.000
38.04543 339.000
38.06538 350.000
38.08532 363.000
38.10527 336.000
38.12522 352.000
38.14516 376.000
38.16511 381.000
38.18506 346.000
38.20500 425.000
38.22495 376.000
38.24490 411.000
38.26484 428.000
38.28479 419.000
38.30474 429.000
38.32469 452.000
38.34463 515.000
38.36458 566.000
38.38453 584.000
38.40447 602.000
38.42442 623.000
38.44437 761.000
38.46431 858.000
38.48426 877.000
38.50421 1012.000
38.52416 1079.000
38.54410 1129.000
38.56405 1118.000
38.58400 1100.000
38.60394 1115.000
38.62389 1023.000
38.64384 1013.000
38.66378 963.000
38.68373 838.000
38.70368 817.000
38.72362 738.000
38.74357 712.000
38.76352 735.000
38.78347 649.000
38.80341 646.000
38.82336 651.000
38.84331 591.000
38.86325 647.000
38.88320 628.000
38.90315 599.000
38.92309 571.000
38.94304 543.000
38.96299 486.000
38.98294 476.000
39.00288 510.000
39.02283 464.000
39.04278 441.000
39.06272 458.000
39.08267 485.000
39.10262 475.000
39.12256 506.000
39.14251 499.000
39.16246 471.000
39.18241 475.000
39.20235 458.000
39.22230 446.000
39.24225 397.000
39.26219 383.000
39.28214 386.000
39.30209 375.000
39.32203 325.000
39.34198 342.000
39.36193 349.000
39.38187 330.000
39.40182 311.000
39.42177 298.000
39.44172 335.000
39.46166 310.000
39.48161 322.000
39.50156 286.000
39.52150 319.000
39.54145 323.000
39.56140 296.000
39.58134 301.000
39.60129 319.000
39.62124 292.000
39.64119 283.000
39.66113 317.000
39.68108 255.000
39.70103 321.000
39.72097 303.000
39.74092 311.000
39.76087 292.000
39.78081 307.000
39.80076 296.000
39.82071 272.000
39.84065 311.000
39.86060 318.000
39.88055 297.000
39.90050 287.000
39.92044 272.000
39.94039 280.000
39.96034 307.000
39.98028 276.000
40.00023 296.000
40.02018 285.000
40.04012 258.000
40.06007 261.000
40.08002 290.000
40.09997 313.000
40.11991 306.000
40.13986 286.000
40.15981 326.000
40.17975 270.000
40.19970 268.000
40.21965 306.000
40.23959 296.000
40.25954 274.000
40.27949 279.000
40.29943 277.000
40.31938 263.000
40.33933 270.000
40.35928 287.000
40.37922 291.000
40.39917 298.000
40.41912 303.000
40.43906 289.000
40.45901 303.000
40.47896 281.000
40.49890 286.000
40.51885 314.000
40.53880 301.000
40.55875 281.000
40.57869 276.000
40.59864 318.000
40.61859 297.000
40.63853 274.000
40.65848 269.000
40.67843 324.000
40.69837 285.000
40.71832 325.000
40.73827 266.000
40.75822 294.000
40.77816 269.000
40.79811 305.000
40.81806 292.000
40.83800 313.000
40.85795 285.000
40.87790 315.000
40.89784 290.000
40.91779 295.000
40.93774 303.000
40.95768 267.000
40.97763 266.000
40.99758 288.000
41.01753 304.000
41.03747 339.000
41.05742 287.000
41.07737 304.000
41.09731 292.000
41.11726 294.000
41.13721 310.000
41.15715 302.000
41.17710 289.000
41.19705 294.000
41.21700 268.000
41.23694 259.000
41.25689 304.000
41.27684 292.000
41.29678 298.000
41.31673 323.000
41.33668 300.000
41.35662 299.000
41.37657 280.000
41.39652 322.000
41.41646 318.000
41.43641 264.000
41.45636 295.000
41.47631 318.000
41.49625 266.000
41.51620 292.000
41.53615 333.000
41.55609 272.000
41.57604 273.000
41.59599 304.000
41.61593 273.000
41.63588 309.000
41.65583 275.000
41.67578 296.000
41.69572 324.000
41.71567 275.000
41.73562 276.000
41.75556 278.000
41.77551 290.000
41.79546 281.000
41.81540 295.000
41.83535 253.000
41.85530 278.000
41.87524 294.000
41.89519 308.000
41.91514 291.000
41.93509 296.000
41.95503 281.000
41.97498 313.000
41.99493 262.000
42.01487 302.000
42.03482 272.000
42.05477 294.000
42.07471 294.000
42.09466 290.000
42.11461 282.000
42.13456 277.000
42.15450 277.000
42.17445 281.000
42.19440 307.000
42.21434 305.000
42.23429 302.000
42.25424 323.000
42.27418 262.000
42.29413 328.000
42.31408 308.000
42.33403 322.000
42.35397 289.000
42.37392 326.000
42.39387 325.000
42.41381 301.000
42.43376 361.000
42.45371 303.000
42.47365 351.000
42.49360 322.000
42.51355 323.000
42.53349 367.000
42.55344 333.000
42.57339 369.000
42.59334 352.000
42.61328 347.000
42.63323 380.000
42.65318 395.000
42.67312 419.000
42.69307 451.000
42.71302 465.000
42.73296 436.000
42.75291 509.000
42.77286 518.000
42.79281 530.000
42.81275 576.000
42.83270 638.000
42.85265 677.000
42.87259 787.000
42.89254 905.000
42.91249 1001.000
42.93243 1024.000
42.95238 1042.000
42.97233 1131.000
42.99227 1152.000
43.01222 1199.000
43.03217 1191.000
43.05212 1191.000
43.07206 1205.000
43.09201 1142.000
43.11196 1232.000
43.13190 1109.000
43.15185 1182.000
43.17180 1281.000
43.19174 1370.000
43.21169 1372.000
43.23164 1302.000
43.25159 1141.000
43.27153 1040.000
43.29148 924.000
43.31143 854.000
43.33137 888.000
43.35132 768.000
43.37127 659.000
43.39121 609.000
43.41116 465.000
43.43111 478.000
43.45105 408.000
43.47100 362.000
43.49095 372.000
43.51090 353.000
43.53084 347.000
43.55079 331.000
43.57074 335.000
43.59068 330.000
43.61063 341.000
43.63058 316.000
43.65052 304.000
43.67047 301.000
43.69042 308.000
43.71037 304.000
43.73031 322.000
43.75026 276.000
43.77021 317.000
43.79015 276.000
43.81010 280.000
43.83005 295.000
43.84999 281.000
43.86994 288.000
43.88989 281.000
43.90984 298.000
43.92978 277.000
43.94973 291.000
43.96968 306.000
43.98962 311.000
44.00957 283.000
44.02952 290.000
44.04946 286.000
44.06941 291.000
44.08936 254.000
44.10930 295.000
44.12925 285.000
44.14920 303.000
44.16915 300.000
44.18909 256.000
44.20904 279.000
44.22899 280.000
44.24893 274.000
44.26888 278.000
44.28883 284.000
44.30877 276.000
44.32872 301.000
44.34867 275.000
44.36862 304.000
44.38856 297.000
44.40851 293.000
44.42846 305.000
44.44840 288.000
44.46835 281.000
44.48830 316.000
44.50824 303.000
44.52819 314.000
44.54814 269.000
44.56808 273.000
44.58803 303.000
44.60798 290.000
44.62793 278.000
44.64787 278.000
44.66782 283.000
44.68777 275.000
44.70771 308.000
44.72766 288.000
44.74761 294.000
44.76755 321.000
44.78750 317.000
44.80745 308.000
44.82740 266.000
44.84734 293.000
44.86729 319.000
44.88724 285.000
44.90718 341.000
44.92713 301.000
44.94708 283.000
44.96702 307.000
44.98697 289.000
45.00692 316.000
45.02686 299.000
45.04681 288.000
45.06676 313.000
45.08671 291.000
45.10665 283.000
45.12660 298.000
45.14655 304.000
45.16649 269.000
45.18644 295.000
45.20639 250.000
45.22633 280.000
45.24628 297.000
45.26623 316.000
45.28618 308.000
45.30612 288.000
45.32607 326.000
45.34602 298.000
45.36596 304.000
45.38591 274.000
45.40586 265.000
45.42580 284.000
45.44575 318.000
45.46570 317.000
45.48565 296.000
45.50559 297.000
45.52554 263.000
45.54549 288.000
45.56543 284.000
45.58538 305.000
45.60533 297.000
45.62527 319.000
45.64522 295.000
45.66517 267.000
45.68511 289.000
45.70506 277.000
45.72501 253.000
45.74496 317.000
45.76490 264.000
45.78485 283.000
45.80480 307.000
45.82474 283.000
45.84469 264.000
45.86464 267.000
45.88458 270.000
45.90453 285.000
45.92448 268.000
45.94443 285.000
45.96437 282.000
45.98432 290.000
46.00427 279.000
46.02421 273.000
46.04416 296.000
46.06411 284.000
46.08405 286.000
46.10400 277.000
46.12395 279.000
46.14389 291.000
46.16384 282.000
46.18379 293.000
46.20374 273.000
46.22368 279.000
46.24363 266.000
46.26358 306.000
46.28352 284.000
46.30347 292.000
46.32342 294.000
46.34336 285.000
46.36331 293.000
46.38326 268.000
46.40321 267.000
46.42315 265.000
46.44310 261.000
46.46305 266.000
46.48299 241.000
46.50294 325.000
46.52289 260.000
46.54283 272.000
46.56278 283.000
46.58273 280.000
46.60267 283.000
46.62262 290.000
46.64257 265.000
46.66252 282.000
46.68246 293.000
46.70241 298.000
46.72236 254.000
46.74230 260.000
46.76225 269.000
46.78220 285.000
46.80214 295.000
46.82209 273.000
46.84204 254.000
46.86199 265.000
46.88193 268.000
46.90188 276.000
46.92183 282.000
46.94177 283.000
46.96172 291.000
46.98167 255.000
47.00161 265.000
47.02156 308.000
47.04151 257.000
47.06146 293.000
47.08140 256.000
47.10135 287.000
47.12130 275.000
47.14124 298.000
47.16119 302.000
47.18114 294.000
47.20108 251.000
47.22103 270.000
47.24098 273.000
47.26092 294.000
47.28087 296.000
47.30082 288.000
47.32077 280.000
47.34071 284.000
47.36066 290.000
47.38061 289.000
47.40055 325.000
47.42050 277.000
47.44045 309.000
47.46039 293.000
47.48034 254.000
47.50029 296.000
47.52024 257.000
47.54018 313.000
47.56013 288.000
47.58008 278.000
47.60002 288.000
47.61997 292.000
47.63992 251.000
47.65986 281.000
47.67981 247.000
47.69976 308.000
47.71970 274.000
47.73965 292.000
47.75960 301.000
47.77955 299.000
47.79949 303.000
47.81944 299.000
47.83939 289.000
47.85933 344.000
47.87928 282.000
47.89923 312.000
47.91917 335.000
47.93912 305.000
47.95907 320.000
47.97902 330.000
47.99896 332.000
48.01891 340.000
48.03886 335.000
48.05880 309.000
48.07875 305.000
48.09870 290.000
48.11864 286.000
48.13859 288.000
48.15854 296.000
48.17848 303.000
48.19843 282.000
48.21838 303.000
48.23833 287.000
48.25827 314.000
48.27822 364.000
48.29817 304.000
48.31811 324.000
48.33806 374.000
48.35801 361.000
48.37795 335.000
48.39790 349.000
48.41785 325.000
48.43780 373.000
48.45774 400.000
48.47769 410.000
48.49764 471.000
48.51758 459.000
48.53753 498.000
48.55748 481.000
48.57742 509.000
48.59737 527.000
48.61732 521.000
48.63726 522.000
48.65721 528.000
48.67716 521.000
48.69711 585.000
48.71705 560.000
48.73700 591.000
48.75695 520.000
48.77689 479.000
48.79684 474.000
48.81679 447.000
48.83673 457.000
48.85668 435.000
48.87663 398.000
48.89658 369.000
48.91652 404.000
48.93647 373.000
48.95642 365.000
48.97636 359.000
48.99631 344.000
49.01626 350.000
49.03620 331.000
49.05615 338.000
49.07610 343.000
49.09605 289.000
49.11599 305.000
49.13594 316.000
49.15589 298.000
49.17583 309.000
49.19578 311.000
49.21573 303.000
49.23567 331.000
49.25562 310.000
49.27557 298.000
49.29551 311.000
49.31546 335.000
49.33541 327.000
49.35536 303.000
49.37530 319.000
49.39525 327.000
49.41520 298.000
49.43514 323.000
49.45509 321.000
49.47504 310.000
49.49498 327.000
49.51493 303.000
49.53488 321.000
49.55483 298.000
49.57477 295.000
49.59472 296.000
49.61467 300.000
49.63461 302.000
49.65456 279.000
49.67451 275.000
49.69445 336.000
49.71440 295.000
49.73435 316.000
49.75429 337.000
49.77424 300.000
49.79419 273.000
49.81414 302.000
49.83408 260.000
49.85403 289.000
49.87398 300.000
49.89392 285.000
49.91387 284.000
49.93382 259.000
49.95376 309.000
49.97371 272.000
49.99366 254.000
50.01361 261.000
50.03355 288.000
50.05350 292.000
50.07345 301.000
50.09339 286.000
50.11334 266.000
50.13329 276.000
50.15323 280.000
50.17318 299.000
50.19313 251.000
50.21307 281.000
50.23302 265.000
50.25297 262.000
50.27292 300.000
50.29286 282.000
50.31281 249.000
50.33276 284.000
50.35270 267.000
50.37265 288.000
50.39260 228.000
50.41254 264.000
50.43249 280.000
50.45244 287.000
50.47239 257.000
50.49233 259.000
50.51228 289.000
50.53223 271.000
50.55217 267.000
50.57212 279.000
50.59207 278.000
50.61201 233.000
50.63196 272.000
50.65191 268.000
50.67186 271.000
50.69180 327.000
50.71175 264.000
50.73170 280.000
50.75164 257.000
50.77159 279.000
50.79154 283.000
50.81148 292.000
50.83143 253.000
50.85138 249.000
50.87132 274.000
50.89127 253.000
50.91122 254.000
50.93117 283.000
50.95111 267.000
50.97106 298.000
50.99101 267.000
51.01095 273.000
51.03090 275.000
51.05085 299.000
51.07079 285.000
51.09074 282.000
51.11069 306.000
51.13064 294.000
51.15058 314.000
51.17053 258.000
51.19048 281.000
51.21042 270.000
51.23037 281.000
51.25032 285.000
51.27026 299.000
51.29021 278.000
51.31016 266.000
51.33010 279.000
51.35005 291.000
51.37000 289.000
51.38995 282.000
51.40989 300.000
51.42984 284.000
51.44979 270.000
51.46973 275.000
51.48968 295.000
51.50963 272.000
51.52957 264.000
51.54952 278.000
51.56947 279.000
51.58942 278.000
51.60936 293.000
51.62931 281.000
51.64926 266.000
51.66920 273.000
51.68915 291.000
51.70910 315.000
51.72904 300.000
51.74899 294.000
51.76894 267.000
51.78888 310.000
51.80883 307.000
51.82878 326.000
51.84873 317.000
51.86867 320.000
51.88862 334.000
51.90857 314.000
51.92851 304.000
51.94846 305.000
51.96841 271.000
51.98835 302.000
52.00830 313.000
52.02825 290.000
52.04820 332.000
52.06814 346.000
52.08809 296.000
52.10804 298.000
52.12798 280.000
52.14793 271.000
52.16788 287.000
52.18782 311.000
52.20777 309.000
52.22772 272.000
52.24767 267.000
52.26761 285.000
52.28756 291.000
52.30751 297.000
52.32745 276.000
52.34740 250.000
52.36735 267.000
52.38729 268.000
52.40724 286.000
52.42719 268.000
52.44713 263.000
52.46708 269.000
52.48703 296.000
52.50698 293.000
52.52692 276.000
52.54687 287.000
52.56682 272.000
52.58676 272.000
52.60671 290.000
52.62666 264.000
52.64660 257.000
52.66655 295.000
52.68650 278.000
52.70645 271.000
52.72639 299.000
52.74634 323.000
52.76629 279.000
52.78623 281.000
52.80618 251.000
52.82613 259.000
52.84607 284.000
52.86602 277.000
52.88597 268.000
52.90591 272.000
52.92586 305.000
52.94581 288.000
52.96576 282.000
52.98570 285.000
53.00565 324.000
53.02560 299.000
53.04554 295.000
53.06549 308.000
53.08544 322.000
53.10538 279.000
53.12533 327.000
53.14528 302.000
53.16523 316.000
53.18517 321.000
53.20512 324.000
53.22507 355.000
53.24501 327.000
53.26496 330.000
53.28491 314.000
53.30485 340.000
53.32480 344.000
53.34475 331.000
53.36469 356.000
53.38464 346.000
53.40459 329.000
53.42454 354.000
53.44448 328.000
53.46443 356.000
53.48438 364.000
53.50432 341.000
53.52427 328.000
53.54422 368.000
53.56416 356.000
53.58411 395.000
53.60406 433.000
53.62401 481.000
53.64395 583.000
53.66390 522.000
53.68385 492.000
53.70379 410.000
53.72374 393.000
53.74369 424.000
53.76363 407.000
53.78358 435.000
53.80353 426.000
53.82348 407.000
53.84342 358.000
53.86337 326.000
53.88332 318.000
53.90326 303.000
53.92321 274.000
53.94316 269.000
53.96310 307.000
53.98305 291.000
54.00300 282.000
54.02294 264.000
54.04289 268.000
54.06284 293.000
54.08279 276.000
54.10273 306.000
54.12268 302.000
54.14263 297.000
54.16257 317.000
54.18252 282.000
54.20247 277.000
54.22241 286.000
54.24236 292.000
54.26231 300.000
54.28226 291.000
54.30220 290.000
54.32215 319.000
54.34210 296.000
54.36204 303.000
54.38199 287.000
54.40194 259.000
54.42188 278.000
54.44183 290.000
54.46178 266.000
54.48172 270.000
54.50167 270.000
54.52162 270.000
54.54157 279.000
54.56151 260.000
54.58146 286.000
54.60141 293.000
54.62135 307.000
54.64130 279.000
54.66125 283.000
54.68119 305.000
54.70114 245.000
54.72109 257.000
54.74104 315.000
54.76098 275.000
54.78093 279.000
54.80088 277.000
54.82082 250.000
54.84077 270.000
54.86072 242.000
54.88066 256.000
54.90061 292.000
54.92056 266.000
54.94050 279.000
54.96045 273.000
54.98040 255.000
55.00035 310.000
55.02029 303.000
55.04024 275.000
55.06019 286.000
55.08013 275.000
55.10008 297.000
55.12003 260.000
55.13997 281.000
55.15992 274.000
55.17987 248.000
55.19982 253.000
55.21976 305.000
55.23971 281.000
55.25966 250.000
55.27960 307.000
55.29955 259.000
55.31950 280.000
55.33944 309.000
55.35939 286.000
55.37934 280.000
55.39929 241.000
55.41923 263.000
55.43918 259.000
55.45913 276.000
55.47907 311.000
55.49902 272.000
55.51897 254.000
55.53891 277.000
55.55886 268.000
55.57881 288.000
55.59875 268.000
55.61870 297.000
55.63865 266.000
55.65860 293.000
55.67854 274.000
55.69849 289.000
55.71844 280.000
55.73838 278.000
55.75833 271.000
55.77828 268.000
55.79822 289.000
55.81817 272.000
55.83812 287.000
55.85807 245.000
55.87801 272.000
55.89796 275.000
55.91791 261.000
55.93785 285.000
55.95780 275.000
55.97775 292.000
55.99769 272.000
56.01764 272.000
56.03759 283.000
56.05753 304.000
56.07748 283.000
56.09743 261.000
56.11738 280.000
56.13732 253.000
56.15727 264.000
56.17722 301.000
56.19716 285.000
56.21711 266.000
56.23706 265.000
56.25700 296.000
56.27695 266.000
56.29690 301.000
56.31685 282.000
56.33679 260.000
56.35674 270.000
56.37669 293.000
56.39663 296.000
56.41658 276.000
56.43653 297.000
56.45647 299.000
56.47642 280.000
56.49637 289.000
56.51631 294.000
56.53626 286.000
56.55621 294.000
56.57616 307.000
56.59610 273.000
56.61605 279.000
56.63600 292.000
56.65594 265.000
56.67589 314.000
56.69584 294.000
56.71578 272.000
56.73573 318.000
56.75568 276.000
56.77563 252.000
56.79557 306.000
56.81552 286.000
56.83547 273.000
56.85541 281.000
56.87536 341.000
56.89531 319.000
56.91525 336.000
56.93520 369.000
56.95515 394.000
56.97510 355.000
56.99504 348.000
57.01499 365.000
57.03494 351.000
57.05488 387.000
57.07483 398.000
57.09478 431.000
57.11472 527.000
57.13467 548.000
57.15462 664.000
57.17456 847.000
57.19451 1020.000
57.21446 1022.000
57.23441 960.000
57.25435 778.000
57.27430 689.000
57.29425 598.000
57.31419 630.000
57.33414 693.000
57.35409 635.000
57.37403 658.000
57.39398 568.000
57.41393 549.000
57.43388 486.000
57.45382 391.000
57.47377 377.000
57.49372 337.000
57.51366 329.000
57.53361 333.000
57.55356 334.000
57.57350 335.000
57.59345 364.000
57.61340 293.000
57.63334 328.000
57.65329 296.000
57.67324 306.000
57.69319 300.000
57.71313 321.000
57.73308 250.000
57.75303 324.000
57.77297 284.000
57.79292 298.000
57.81287 303.000
57.83281 279.000
57.85276 303.000
57.87271 303.000
57.89266 297.000
57.91260 318.000
57.93255 312.000
57.95250 292.000
57.97244 352.000
57.99239 316.000
58.01234 328.000
58.03228 316.000
58.05223 346.000
58.07218 344.000
58.09212 397.000
58.11207 394.000
58.13202 389.000
58.15197 406.000
58.17191 352.000
58.19186 436.000
58.21181 379.000
58.23175 382.000
58.25170 392.000
58.27165 396.000
58.29159 352.000
58.31154 354.000
58.33149 348.000
58.35144 312.000
58.37138 342.000
58.39133 315.000
58.41128 337.000
58.43122 319.000
58.45117 289.000
58.47112 288.000
58.49106 291.000
58.51101 277.000
58.53096 291.000
58.55090 287.000
58.57085 291.000
58.59080 283.000
58.61075 301.000
58.63069 290.000
58.65064 286.000
58.67059 306.000
58.69053 294.000
58.71048 271.000
58.73043 265.000
58.75037 281.000
58.77032 263.000
58.79027 290.000
58.81022 275.000
58.83016 277.000
58.85011 261.000
58.87006 283.000
58.89000 259.000
58.90995 241.000
58.92990 273.000
58.94984 288.000
58.96979 274.000
58.98974 267.000
59.00969 274.000
59.02963 304.000
59.04958 286.000
59.06953 279.000
59.08947 278.000
59.10942 299.000
59.12937 287.000
59.14931 245.000
59.16926 260.000
59.18921 265.000
59.20915 297.000
59.22910 264.000
59.24905 267.000
59.26900 281.000
59.28894 261.000
59.30889 250.000
59.32884 273.000
59.34878 295.000
59.36873 274.000
59.38868 291.000
59.40862 281.000
59.42857 278.000
59.44852 280.000
59.46847 265.000
59.48841 273.000
59.50836 284.000
59.52831 283.000
59.54825 252.000
59.56820 271.000
59.58815 244.000
59.60809 261.000
59.62804 307.000
59.64799 292.000
59.66793 306.000
59.68788 298.000
59.70783 278.000
59.72778 243.000
59.74772 267.000
59.76767 278.000
59.78762 255.000
59.80756 259.000
59.82751 274.000
59.84746 256.000
59.86740 266.000
59.88735 262.000
59.90730 260.000
59.92725 266.000
59.94719 270.000
59.96714 255.000
59.98709 266.000
60.00703 279.000
60.02698 271.000
60.04693 281.000
60.06687 285.000
60.08682 299.000
60.10677 290.000
60.12671 293.000
60.14666 278.000
60.16661 305.000
60.18656 304.000
60.20650 289.000
60.22645 315.000
60.24640 279.000
60.26634 275.000
60.28629 286.000
60.30624 279.000
60.32618 322.000
60.34613 277.000
60.36608 267.000
60.38603 315.000
60.40597 263.000
60.42592 296.000
60.44587 310.000
60.46581 258.000
60.48576 277.000
60.50571 272.000
60.52565 253.000
60.54560 285.000
60.56555 306.000
60.58550 279.000
60.60544 319.000
60.62539 253.000
60.64534 265.000
60.66528 277.000
60.68523 286.000
60.70518 248.000
60.72512 299.000
60.74507 279.000
60.76502 291.000
60.78496 289.000
60.80491 291.000
60.82486 278.000
60.84481 286.000
60.86475 294.000
60.88470 292.000
60.90465 320.000
60.92459 290.000
60.94454 295.000
60.96449 296.000
60.98443 282.000
61.00438 276.000
61.02433 290.000
61.04428 322.000
61.06422 322.000
61.08417 311.000
61.10412 283.000
61.12406 292.000
61.14401 310.000
61.16396 331.000
61.18390 300.000
61.20385 308.000
61.22380 318.000
61.24374 381.000
61.26369 332.000
61.28364 345.000
61.30359 322.000
61.32353 383.000
61.34348 420.000
61.36343 434.000
61.38337 451.000
61.40332 394.000
61.42327 478.000
61.44321 429.000
61.46316 441.000
61.48311 465.000
61.50306 435.000
61.52300 420.000
61.54295 390.000
61.56290 446.000
61.58284 429.000
61.60279 456.000
61.62274 473.000
61.64268 464.000
61.66263 449.000
61.68258 463.000
61.70252 470.000
61.72247 432.000
61.74242 442.000
61.76237 402.000
61.78231 437.000
61.80226 416.000
61.82221 428.000
61.84215 411.000
61.86210 437.000
61.88205 387.000
61.90199 407.000
61.92194 419.000
61.94189 380.000
61.96184 382.000
61.98178 385.000
62.00173 380.000
62.02168 393.000
62.04162 416.000
62.06157 394.000
62.08152 413.000
62.10146 395.000
62.12141 376.000
62.14136 367.000
62.16131 384.000
62.18125 375.000
62.20120 375.000
62.22115 366.000
62.24109 399.000
62.26104 418.000
62.28099 466.000
62.30093 395.000
62.32088 475.000
62.34083 492.000
62.36077 491.000
62.38072 502.000
62.40067 575.000
62.42062 601.000
62.44056 563.000
62.46051 633.000
62.48046 670.000
62.50040 654.000
62.52035 700.000
62.54030 743.000
62.56024 694.000
62.58019 747.000
62.60014 731.000
62.62009 731.000
62.64003 677.000
62.65998 741.000
62.67993 756.000
62.69987 711.000
62.71982 739.000
62.73977 778.000
62.75971 852.000
62.77966 915.000
62.79961 1113.000
62.81955 1226.000
62.83950 1340.000
62.85945 1311.000
62.87940 1207.000
62.89934 1010.000
62.91929 760.000
62.93924 727.000
62.95918 773.000
62.97913 783.000
62.99908 859.000
63.01902 807.000
63.03897 775.000
63.05892 690.000
63.07887 587.000
63.09881 501.000
63.11876 437.000
63.13871 391.000
63.15865 370.000
63.17860 345.000
63.19855 351.000
63.21849 311.000
63.23844 339.000
63.25839 327.000
63.27833 339.000
63.29828 298.000
63.31823 325.000
63.33818 300.000
63.35812 308.000
63.37807 275.000
63.39802 317.000
63.41796 317.000
63.43791 285.000
63.45786 304.000
63.47780 289.000
63.49775 269.000
63.51770 295.000
63.53765 307.000
63.55759 277.000
63.57754 305.000
63.59749 302.000
63.61743 301.000
63.63738 266.000
63.65733 277.000
63.67727 275.000
63.69722 279.000
63.71717 282.000
63.73712 305.000
63.75706 302.000
63.77701 308.000
63.79696 310.000
63.81690 300.000
63.83685 288.000
63.85680 322.000
63.87674 312.000
63.89669 304.000
63.91664 292.000
63.93658 279.000
63.95653 317.000
63.97648 300.000
63.99643 326.000
64.01637 353.000
64.03632 314.000
64.05627 346.000
64.07621 328.000
64.09616 328.000
64.11611 321.000
64.13605 302.000
64.15600 337.000
64.17595 319.000
64.19590 342.000
64.21584 316.000
64.23579 321.000
64.25574 318.000
64.27568 289.000
64.29563 318.000
64.31558 309.000
64.33552 307.000
64.35547 320.000
64.37542 285.000
64.39536 323.000
64.41531 309.000
64.43526 277.000
64.45521 296.000
64.47515 264.000
64.49510 294.000
64.51505 284.000
64.53499 289.000
64.55494 303.000
64.57489 273.000
64.59483 276.000
64.61478 281.000
64.63473 298.000
64.65468 289.000
64.67462 258.000
64.69457 302.000
64.71452 289.000
64.73446 289.000
64.75441 273.000
64.77436 271.000
64.79430 265.000
64.81425 236.000
64.83420 293.000
64.85414 289.000
64.87409 260.000
64.89404 301.000
64.91399 294.000
64.93393 288.000
64.95388 261.000
64.97383 309.000
64.99377 314.000
65.01372 298.000
65.03367 278.000
65.05361 306.000
65.07356 301.000
65.09351 292.000
65.11346 294.000
65.13340 341.000
65.15335 301.000
65.17330 277.000
65.19324 287.000
65.21319 313.000
65.23314 351.000
65.25308 301.000
65.27303 333.000
65.29298 313.000
65.31293 341.000
65.33287 366.000
65.35282 332.000
65.37277 350.000
65.39271 381.000
65.41266 333.000
65.43261 360.000
65.45255 359.000
65.47250 385.000
65.49245 355.000
65.51239 330.000
65.53234 354.000
65.55229 377.000
65.57224 385.000
65.59218 359.000
65.61213 394.000
65.63208 390.000
65.65202 372.000
65.67197 395.000
65.69192 401.000
65.71186 391.000
65.73181 401.000
65.75176 373.000
65.77171 376.000
65.79165 389.000
65.81160 372.000
65.83155 353.000
65.85149 357.000
65.87144 320.000
65.89139 339.000
65.91133 325.000
65.93128 349.000
65.95123 365.000
65.97117 363.000
65.99112 359.000
66.01107 360.000
66.03102 402.000
66.05096 385.000
66.07091 379.000
66.09086 383.000
66.11080 399.000
66.13075 398.000
66.15070 404.000
66.17064 373.000
66.19059 413.000
66.21054 444.000
66.23049 389.000
66.25043 439.000
66.27038 439.000
66.29033 412.000
66.31027 400.000
66.33022 406.000
66.35017 423.000
66.37011 362.000
66.39006 414.000
66.41001 400.000
66.42995 358.000
66.44990 376.000
66.46985 383.000
66.48980 376.000
66.50974 355.000
66.52969 390.000
66.54964 351.000
66.56958 344.000
66.58953 320.000
66.60948 329.000
66.62942 329.000
66.64937 351.000
66.66932 319.000
66.68927 345.000
66.70921 331.000
66.72916 291.000
66.74911 314.000
66.76905 303.000
66.78900 309.000
66.80895 303.000
66.82889 319.000
66.84884 305.000
66.86879 296.000
66.88874 293.000
66.90868 270.000
66.92863 317.000
66.94858 330.000
66.96852 317.000
66.98847 297.000
67.00842 321.000
67.02836 301.000
67.04831 290.000
67.06826 273.000
67.08820 318.000
67.10815 308.000
67.12810 276.000
67.14805 287.000
67.16799 272.000
67.18794 284.000
67.20789 281.000
67.22783 287.000
67.24778 270.000
67.26773 307.000
67.28767 317.000
67.30762 289.000
67.32757 284.000
67.34752 316.000
67.36746 285.000
67.38741 272.000
67.40736 321.000
67.42730 296.000
67.44725 298.000
67.46720 312.000
67.48714 271.000
67.50709 289.000
67.52704 304.000
67.54698 319.000
67.56693 272.000
67.58688 314.000
67.60683 331.000
67.62677 342.000
67.64672 300.000
67.66667 356.000
67.68661 360.000
67.70656 341.000
67.72651 340.000
67.74645 333.000
67.76640 355.000
67.78635 379.000
67.80630 398.000
67.82624 385.000
67.84619 387.000
67.86614 387.000
67.88608 368.000
67.90603 380.000
67.92598 356.000
67.94592 382.000
67.96587 367.000
67.98582 375.000
68.00576 390.000
68.02571 380.000
68.04566 365.000
68.06561 332.000
68.08555 323.000
68.10550 346.000
68.12545 349.000
68.14539 336.000
68.16534 322.000
68.18529 342.000
68.20523 316.000
68.22518 336.000
68.24513 319.000
68.26508 296.000
68.28502 313.000
68.30497 311.000
68.32492 301.000
68.34486 302.000
68.36481 306.000
68.38476 300.000
68.40470 285.000
68.42465 292.000
68.44460 304.000
68.46455 304.000
68.48449 305.000
68.50444 279.000
68.52439 294.000
68.54433 268.000
68.56428 273.000
68.58423 253.000
68.60417 273.000
68.62412 272.000
68.64407 284.000
68.66401 278.000
68.68396 316.000
68.70391 262.000
68.72386 283.000
68.74380 272.000
68.76375 271.000
68.78370 292.000
68.80364 274.000
68.82359 280.000
68.84354 279.000
68.86348 267.000
68.88343 293.000
68.90338 263.000
68.92333 264.000
68.94327 259.000
68.96322 263.000
68.98317 283.000
69.00311 263.000
69.02306 277.000
69.04301 269.000
69.06295 290.000
69.08290 262.000
69.10285 262.000
69.12279 264.000
69.14274 253.000
69.16269 303.000
69.18264 285.000
69.20258 243.000
69.22253 265.000
69.24248 295.000
69.26242 261.000
69.28237 266.000
69.30232 251.000
69.32226 286.000
69.34221 276.000
69.36216 263.000
69.38211 280.000
69.40205 260.000
69.42200 273.000
69.44195 271.000
69.46189 262.000
69.48184 272.000
69.50179 237.000
69.52173 263.000
69.54168 252.000
69.56163 265.000
69.58157 272.000
69.60152 284.000
69.62147 257.000
69.64142 271.000
69.66136 276.000
69.68131 265.000
69.70126 257.000
69.72120 259.000
69.74115 273.000
69.76110 252.000
69.78104 263.000
69.80099 254.000
69.82094 293.000
69.84089 260.000
69.86083 273.000
69.88078 257.000
69.90073 238.000
69.92067 286.000
69.94062 246.000
69.96057 233.000
69.98051 249.000
70.00046 245.000
70.02041 267.000
70.04035 291.000
70.06030 262.000
70.08025 238.000
70.10020 245.000
70.12014 267.000
70.14009 281.000
70.16004 266.000
70.17998 262.000
70.19993 287.000
70.21988 255.000
70.23982 249.000
70.25977 243.000
70.27972 269.000
70.29967 294.000
70.31961 257.000
70.33956 244.000
70.35951 263.000
70.37945 263.000
70.39940 260.000
70.41935 276.000
70.43929 259.000
70.45924 263.000
70.47919 247.000
70.49914 249.000
70.51908 255.000
70.53903 256.000
70.55898 254.000
70.57892 305.000
70.59887 263.000
70.61882 273.000
70.63876 282.000
70.65871 261.000
70.67866 259.000
70.69860 237.000
70.71855 271.000
70.73850 283.000
70.75845 271.000
70.77839 263.000
70.79834 262.000
70.81829 255.000
70.83823 307.000
70.85818 275.000
70.87813 295.000
70.89807 274.000
70.91802 273.000
70.93797 267.000
70.95792 256.000
70.97786 264.000
70.99781 244.000
71.01776 296.000
71.03770 256.000
71.05765 291.000
71.07760 269.000
71.09754 334.000
71.11749 274.000
71.13744 294.000
71.15738 293.000
71.17733 247.000
71.19728 291.000
71.21723 278.000
71.23717 301.000
71.25712 289.000
71.27707 345.000
71.29701 324.000
71.31696 359.000
71.33691 333.000
71.35685 316.000
71.37680 365.000
71.39675 306.000
71.41670 339.000
71.43664 318.000
71.45659 273.000
71.47654 288.000
71.49648 367.000
71.51643 311.000
71.53638 284.000
71.55632 295.000
71.57627 321.000
71.59622 302.000
71.61616 305.000
71.63611 261.000
71.65606 260.000
71.67601 293.000
71.69595 314.000
71.71590 295.000
71.73585 288.000
71.75579 265.000
71.77574 274.000
71.79569 265.000
71.81563 280.000
71.83558 297.000
71.85553 280.000
71.87548 277.000
71.89542 264.000
71.91537 265.000
71.93532 301.000
71.95526 261.000
71.97521 302.000
71.99516 285.000
72.01510 287.000
72.03505 281.000
72.05500 283.000
72.07495 294.000
72.09489 306.000
72.11484 301.000
72.13479 318.000
72.15473 306.000
72.17468 310.000
72.19463 310.000
72.21457 301.000
72.23452 353.000
72.25447 337.000
72.27441 358.000
72.29436 357.000
72.31431 325.000
72.33426 340.000
72.35420 345.000
72.37415 326.000
72.39410 316.000
72.41404 310.000
72.43399 333.000
72.45394 317.000
72.47388 349.000
72.49383 343.000
72.51378 319.000
72.53373 298.000
72.55367 304.000
72.57362 325.000
72.59357 298.000
72.61351 269.000
72.63346 299.000
72.65341 301.000
72.67335 267.000
72.69330 317.000
72.71325 310.000
72.73319 314.000
72.75314 280.000
72.77309 301.000
72.79304 286.000
72.81298 294.000
72.83293 286.000
72.85288 264.000
72.87282 259.000
72.89277 289.000
72.91272 300.000
72.93266 291.000
72.95261 278.000
72.97256 265.000
72.99251 264.000
73.01245 260.000
73.03240 301.000
73.05235 289.000
73.07229 292.000
73.09224 278.000
73.11219 287.000
73.13213 285.000
73.15208 283.000
73.17203 301.000
73.19197 288.000
73.21192 283.000
73.23187 305.000
73.25182 282.000
73.27176 264.000
73.29171 299.000
73.31166 283.000
73.33160 284.000
73.35155 274.000
73.37150 314.000
73.39144 290.000
73.41139 281.000
73.43134 294.000
73.45129 287.000
73.47123 285.000
73.49118 243.000
73.51113 288.000
73.53107 273.000
73.55102 292.000
73.57097 270.000
73.59091 260.000
73.61086 257.000
73.63081 275.000
73.65076 260.000
73.67070 306.000
73.69065 269.000
73.71060 298.000
73.73054 262.000
73.75049 246.000
73.77044 251.000
73.79038 261.000
73.81033 292.000
73.83028 297.000
73.85022 254.000
73.87017 283.000
73.89012 260.000
73.91007 247.000
73.93001 298.000
73.94996 258.000
73.96991 250.000
73.98985 294.000
74.00980 265.000
74.02975 285.000
74.04969 312.000
74.06964 251.000
74.08959 272.000
74.10954 297.000
74.12948 292.000
74.14943 289.000
74.16938 307.000
74.18932 310.000
74.20927 312.000
74.22922 266.000
74.24916 289.000
74.26911 306.000
74.28906 312.000
74.30900 344.000
74.32895 400.000
74.34890 372.000
74.36885 383.000
74.38879 472.000
74.40874 423.000
74.42869 414.000
74.44863 401.000
74.46858 353.000
74.48853 343.000
74.50847 334.000
74.52842 363.000
74.54837 348.000
74.56832 374.000
74.58826 393.000
74.60821 424.000
74.62816 415.000
74.64810 397.000
74.66805 399.000
74.68800 368.000
74.70794 348.000
74.72789 350.000
74.74784 351.000
74.76778 379.000
74.78773 396.000
74.80768 371.000
74.82763 399.000
74.84757 383.000
74.86752 388.000
74.88747 408.000
74.90741 415.000
74.92736 424.000
74.94731 423.000
74.96725 433.000
74.98720 400.000
75.00715 470.000
75.02710 462.000
75.04704 468.000
75.06699 424.000
75.08694 455.000
75.10688 482.000
75.12683 444.000
75.14678 403.000
75.16672 446.000
75.18667 418.000
75.20662 411.000
75.22657 423.000
75.24651 417.000
75.26646 382.000
75.28641 375.000
75.30635 387.000
75.32630 398.000
75.34625 423.000
75.36619 386.000
75.38614 433.000
75.40609 390.000
75.42603 389.000
75.44598 416.000
75.46593 381.000
75.48588 357.000
75.50582 347.000
75.52577 338.000
75.54572 337.000
75.56566 325.000
75.58561 329.000
75.60556 301.000
75.62550 350.000
75.64545 346.000
75.66540 336.000
75.68535 317.000
75.70529 297.000
75.72524 284.000
75.74519 309.000
75.76513 299.000
75.78508 256.000
75.80503 277.000
75.82497 291.000
75.84492 292.000
75.86487 279.000
75.88481 277.000
75.90476 260.000
75.92471 265.000
75.94466 275.000
75.96460 244.000
75.98455 252.000
76.00450 295.000
76.02444 280.000
76.04439 274.000
76.06434 283.000
76.08428 270.000
76.10423 297.000
76.12418 229.000
76.14413 240.000
76.16407 262.000
76.18402 243.000
76.20397 267.000
76.22391 271.000
76.24386 265.000
76.26381 280.000
76.28375 299.000
76.30370 267.000
76.32365 282.000
76.34359 261.000
76.36354 274.000
76.38349 277.000
76.40344 273.000
76.42338 300.000
76.44333 264.000
76.46328 284.000
76.48322 263.000
76.50317 278.000
76.52312 275.000
76.54306 272.000
76.56301 260.000
76.58296 262.000
76.60291 246.000
76.62285 270.000
76.64280 276.000
76.66275 285.000
76.68269 290.000
76.70264 291.000
76.72259 279.000
76.74253 272.000
76.76248 252.000
76.78243 274.000
76.80238 282.000
76.82232 259.000
76.84227 261.000
76.86222 288.000
76.88216 282.000
76.90211 279.000
76.92206 274.000
76.94200 290.000
76.96195 245.000
76.98190 243.000
77.00184 273.000
77.02179 268.000
77.04174 258.000
77.06169 267.000
77.08163 244.000
77.10158 247.000
77.12153 250.000
77.14147 275.000
77.16142 272.000
77.18137 297.000
77.20131 271.000
77.22126 287.000
77.24121 258.000
77.26116 266.000
77.28110 290.000
77.30105 283.000
77.32100 252.000
77.34094 263.000
77.36089 242.000
77.38084 262.000
77.40078 243.000
77.42073 261.000
77.44068 261.000
77.46062 250.000
77.48057 295.000
77.50052 280.000
77.52047 250.000
77.54041 259.000
77.56036 270.000
77.58031 275.000
77.60025 230.000
77.62020 282.000
77.64015 261.000
77.66009 269.000
77.68004 271.000
77.69999 244.000
77.71994 288.000
77.73988 275.000
77.75983 258.000
77.77978 277.000
77.79972 289.000
77.81967 263.000
77.83962 277.000
77.85956 249.000
77.87951 254.000
77.89946 263.000
77.91940 298.000
77.93935 265.000
77.95930 284.000
77.97925 270.000
77.99919 287.000
78.01914 259.000
78.03909 275.000
78.05903 293.000
78.07898 288.000
78.09893 286.000
78.11887 300.000
78.13882 262.000
78.15877 274.000
78.17872 263.000
78.19866 287.000
78.21861 302.000
78.23856 291.000
78.25850 266.000
78.27845 282.000
78.29840 273.000
78.31834 281.000
78.33829 274.000
78.35824 283.000
78.37819 260.000
78.39813 299.000
78.41808 276.000
78.43803 260.000
78.45797 272.000
78.47792 265.000
78.49787 299.000
78.51781 263.000
78.53776 296.000
78.55771 292.000
78.57765 264.000
78.59760 260.000
78.61755 298.000
78.63750 276.000
78.65744 295.000
78.67739 291.000
78.69734 287.000
78.71728 253.000
78.73723 286.000
78.75718 316.000
78.77712 329.000
78.79707 310.000
78.81702 306.000
78.83697 328.000
78.85691 338.000
78.87686 289.000
78.89681 299.000
78.91675 375.000
78.93670 341.000
78.95665 324.000
78.97659 344.000
78.99654 353.000
79.01649 344.000
79.03643 389.000
79.05638 351.000
79.07633 347.000
79.09628 346.000
79.11622 324.000
79.13617 329.000
79.15612 329.000
79.17606 325.000
79.19601 352.000
79.21596 352.000
79.23590 306.000
79.25585 341.000
79.27580 341.000
79.29575 331.000
79.31569 339.000
79.33564 337.000
79.35559 339.000
79.37553 322.000
79.39548 340.000
79.41543 361.000
79.43537 339.000
79.45532 369.000
79.47527 314.000
79.49521 309.000
79.51516 250.000
79.53511 311.000
79.55506 296.000
79.57500 281.000
79.59495 316.000
79.61490 321.000
79.63484 304.000
79.65479 332.000
79.67474 321.000
79.69468 301.000
79.71463 281.000
79.73458 281.000
79.75453 242.000
79.77447 283.000
79.79442 250.000
79.81437 265.000
79.83431 297.000
79.85426 274.000
79.87421 278.000
79.89415 233.000
79.91410 289.000
79.93405 263.000
79.95399 232.000
79.97394 276.000
79.99389 275.000
80.01384 275.000
80.03378 269.000
80.05373 293.000
80.07368 269.000
80.09362 257.000
80.11357 263.000
80.13352 269.000
80.15346 252.000
80.17341 268.000
80.19336 284.000
80.21331 277.000
80.23325 286.000
80.25320 273.000
80.27315 293.000
80.29309 250.000
80.31304 272.000
80.33299 281.000
80.35293 298.000
80.37288 268.000
80.39283 260.000
80.41278 275.000
80.43272 267.000
80.45267 267.000
80.47262 256.000
80.49256 279.000
80.51251 261.000
80.53246 254.000
80.55240 268.000
80.57235 257.000
80.59230 296.000
80.61224 256.000
80.63219 288.000
80.65214 263.000
80.67209 298.000
80.69203 269.000
80.71198 303.000
80.73193 264.000
80.75187 251.000
80.77182 241.000
80.79177 251.000
80.81171 257.000
80.83166 277.000
80.85161 297.000
80.87156 249.000
80.89150 281.000
80.91145 275.000
80.93140 252.000
80.95134 259.000
80.97129 286.000
80.99124 237.000
81.01118 275.000
81.03113 252.000
81.05108 259.000
81.07102 260.000
81.09097 240.000
81.11092 255.000
81.13087 255.000
81.15081 249.000
81.17076 267.000
81.19071 291.000
81.21065 263.000
81.23060 273.000
81.25055 239.000
81.27049 271.000
81.29044 279.000
81.31039 245.000
81.33034 263.000
81.35028 235.000
81.37023 256.000
81.39018 234.000
81.41012 241.000
81.43007 262.000
81.45002 262.000
81.46996 269.000
81.48991 261.000
81.50986 276.000
81.52980 260.000
81.54975 245.000
81.56970 279.000
81.58965 251.000
81.60959 265.000
81.62954 273.000
81.64949 281.000
81.66943 238.000
81.68938 274.000
81.70933 257.000
81.72927 249.000
81.74922 294.000
81.76917 267.000
81.78912 264.000
81.80906 249.000
81.82901 251.000
81.84896 274.000
81.86890 277.000
81.88885 290.000
81.90880 289.000
81.92874 275.000
81.94869 281.000
81.96864 294.000
81.98859 272.000
82.00853 250.000
82.02848 288.000
82.04843 292.000
82.06837 284.000
82.08832 307.000
82.10827 294.000
82.12821 285.000
82.14816 289.000
82.16811 279.000
82.18805 273.000
82.20800 272.000
82.22795 281.000
82.24790 300.000
82.26784 250.000
82.28779 271.000
82.30774 292.000
82.32768 305.000
82.34763 282.000
82.36758 314.000
82.38752 306.000
82.40747 292.000
82.42742 305.000
82.44737 275.000
82.46731 286.000
82.48726 270.000
82.50721 287.000
82.52715 279.000
82.54710 300.000
82.56705 333.000
82.58699 302.000
82.60694 337.000
82.62689 288.000
82.64683 304.000
82.66678 302.000
82.68673 307.000
82.70668 288.000
82.72662 282.000
82.74657 310.000
82.76652 293.000
82.78646 309.000
82.80641 312.000
82.82636 303.000
82.84630 306.000
82.86625 288.000
82.88620 306.000
82.90615 283.000
82.92609 312.000
82.94604 277.000
82.96599 301.000
82.98593 276.000
83.00588 283.000
83.02583 310.000
83.04577 279.000
83.06572 294.000
83.08567 273.000
83.10561 291.000
83.12556 313.000
83.14551 292.000
83.16546 299.000
83.18540 282.000
83.20535 310.000
83.22530 271.000
83.24524 276.000
83.26519 277.000
83.28514 300.000
83.30508 266.000
83.32503 276.000
83.34498 299.000
83.36493 299.000
83.38487 279.000
83.40482 284.000
83.42477 302.000
83.44471 260.000
83.46466 296.000
83.48461 290.000
83.50455 302.000
83.52450 282.000
83.54445 285.000
83.56440 275.000
83.58434 282.000
83.60429 270.000
83.62424 292.000
83.64418 291.000
83.66413 291.000
83.68408 268.000
83.70402 278.000
83.72397 280.000
83.74392 293.000
83.76386 284.000
83.78381 263.000
83.80376 311.000
83.82371 301.000
83.84365 284.000
83.86360 278.000
83.88355 298.000
83.90349 277.000
83.92344 293.000
83.94339 284.000
83.96333 284.000
83.98328 281.000
84.00323 278.000
84.02318 274.000
84.04312 272.000
84.06307 266.000
84.08302 276.000
84.10296 290.000
84.12291 271.000
84.14286 264.000
84.16280 267.000
84.18275 273.000
84.20270 289.000
84.22264 256.000
84.24259 264.000
84.26254 280.000
84.28249 266.000
84.30243 290.000
84.32238 266.000
84.34233 298.000
84.36227 287.000
84.38222 297.000
84.40217 267.000
84.42211 322.000
84.44206 256.000
84.46201 286.000
84.48196 278.000
84.50190 277.000
84.52185 283.000
84.54180 282.000
84.56174 282.000
84.58169 261.000
84.60164 271.000
84.62158 256.000
84.64153 273.000
84.66148 272.000
84.68142 297.000
84.70137 268.000
84.72132 251.000
84.74127 272.000
84.76121 256.000
84.78116 288.000
84.80111 281.000
84.82105 292.000
84.84100 271.000
84.86095 271.000
84.88089 269.000
84.90084 285.000
84.92079 276.000
84.94074 223.000
84.96068 270.000
84.98063 250.000
85.00058 266.000
85.02052 246.000
85.04047 295.000
85.06042 279.000
85.08036 281.000
85.10031 253.000
85.12026 265.000
85.14021 265.000
85.16015 266.000
85.18010 293.000
85.20005 273.000
85.21999 274.000
85.23994 236.000
85.25989 268.000
85.27983 259.000
85.29978 270.000
85.31973 283.000
85.33967 288.000
85.35962 237.000
85.37957 250.000
85.39952 263.000
85.41946 298.000
85.43941 286.000
85.45936 258.000
85.47930 259.000
85.49925 250.000
85.51920 273.000
85.53914 292.000
85.55909 211.000
85.57904 234.000
85.59899 236.000
85.61893 273.000
85.63888 286.000
85.65883 247.000
85.67877 254.000
85.69872 245.000
85.71867 254.000
85.73861 264.000
85.75856 275.000
85.77851 266.000
85.79845 273.000
85.81840 241.000
85.83835 284.000
85.85830 262.000
85.87824 252.000
85.89819 254.000
85.91814 268.000
85.93808 244.000
85.95803 272.000
85.97798 255.000
85.99792 255.000
86.01787 250.000
86.03782 254.000
86.05777 263.000
86.07771 263.000
86.09766 248.000
86.11761 276.000
86.13755 288.000
86.15750 239.000
86.17745 264.000
86.19739 278.000
86.21734 262.000
86.23729 271.000
86.25723 239.000
86.27718 248.000
86.29713 287.000
86.31708 267.000
86.33702 257.000
86.35697 266.000
86.37692 260.000
86.39686 256.000
86.41681 244.000
86.43676 250.000
86.45670 246.000
86.47665 260.000
86.49660 296.000
86.51655 270.000
86.53649 268.000
86.55644 269.000
86.57639 244.000
86.59633 273.000
86.61628 295.000
86.63623 258.000
86.65617 235.000
86.67612 277.000
86.69607 294.000
86.71602 296.000
86.73596 275.000
86.75591 279.000
86.77586 241.000
86.79580 275.000
86.81575 297.000
86.83570 262.000
86.85564 251.000
86.87559 263.000
86.89554 286.000
86.91548 260.000
86.93543 252.000
86.95538 268.000
86.97533 291.000
86.99527 291.000
87.01522 282.000
87.03517 278.000
87.05511 285.000
87.07506 307.000
87.09501 321.000
87.11495 333.000
87.13490 294.000
87.15485 286.000
87.17480 299.000
87.19474 306.000
87.21469 301.000
87.23464 315.000
87.25458 314.000
87.27453 360.000
87.29448 366.000
87.31442 371.000
87.33437 309.000
87.35432 322.000
87.37426 310.000
87.39421 316.000
87.41416 279.000
87.43411 324.000
87.45405 289.000
87.47400 294.000
87.49395 313.000
87.51389 295.000
87.53384 283.000
87.55379 314.000
87.57373 320.000
87.59368 277.000
87.61363 323.000
87.63358 297.000
87.65352 267.000
87.67347 271.000
87.69342 265.000
87.71336 271.000
87.73331 285.000
87.75326 285.000
87.77320 255.000
87.79315 249.000
87.81310 282.000
87.83304 269.000
87.85299 311.000
87.87294 258.000
87.89289 261.000
87.91283 275.000
87.93278 266.000
87.95273 268.000
87.97267 257.000
87.99262 274.000
88.01257 233.000
88.03251 285.000
88.05246 260.000
88.07241 257.000
88.09236 251.000
88.11230 242.000
88.13225 233.000
88.15220 252.000
88.17214 264.000
88.19209 255.000
88.21204 232.000
88.23198 266.000
88.25193 262.000
88.27188 270.000
88.29183 245.000
88.31177 263.000
88.33172 294.000
88.35167 285.000
88.37161 288.000
88.39156 277.000
88.41151 245.000
88.43145 245.000
88.45140 271.000
88.47135 273.000
88.49129 259.000
88.51124 269.000
88.53119 273.000
88.55114 265.000
88.57108 254.000
88.59103 258.000
88.61098 246.000
88.63092 264.000
88.65087 274.000
88.67082 239.000
88.69076 274.000
88.71071 243.000
88.73066 267.000
88.75061 271.000
88.77055 256.000
88.79050 302.000
88.81045 269.000
88.83039 274.000
88.85034 276.000
88.87029 255.000
88.89023 260.000
88.91018 276.000
88.93013 258.000
88.95007 242.000
88.97002 295.000
88.98997 258.000
89.00992 247.000
89.02986 277.000
89.04981 289.000
89.06976 285.000
89.08970 264.000
89.10965 259.000
89.12960 297.000
89.14954 258.000
89.16949 292.000
89.18944 276.000
89.20939 282.000
89.22933 250.000
89.24928 286.000
89.26923 273.000
89.28917 287.000
89.30912 301.000
89.32907 293.000
89.34901 316.000
89.36896 280.000
89.38891 294.000
89.40885 266.000
89.42880 269.000
89.44875 309.000
89.46870 270.000
89.48864 283.000
89.50859 278.000
89.52854 284.000
89.54848 272.000
89.56843 277.000
89.58838 297.000
89.60832 263.000
89.62827 321.000
89.64822 278.000
89.66817 304.000
89.68811 285.000
89.70806 318.000
89.72801 295.000
89.74795 289.000
89.76790 287.000
89.78785 281.000
89.80779 326.000
89.82774 282.000
89.84769 304.000
89.86764 297.000
89.88758 297.000
89.90753 288.000
89.92748 310.000
89.94742 298.000
89.96737 283.000
89.98732 310.000
90.00726 298.000
