10.00000 20.000
10.01995 15.000
10.03989 14.000
10.05984 16.000
10.07979 26.000
10.09973 14.000
10.11968 14.000
10.13963 13.000
10.15958 14.000
10.17952 11.000
10.19947 11.000
10.21942 23.000
10.23936 16.000
10.25931 27.000
10.27926 19.000
10.29920 13.000
10.31915 18.000
10.33910 13.000
10.35905 14.000
10.37899 12.000
10.39894 13.000
10.41889 22.000
10.43883 2.000
10.45878 18.000
10.47873 15.000
10.49867 15.000
10.51862 16.000
10.53857 15.000
10.55851 18.000
10.57846 14.000
10.59841 12.000
10.61836 14.000
10.63830 11.000
10.65825 13.000
10.67820 17.000
10.69814 17.000
10.71809 11.000
10.73804 12.000
10.75798 12.000
10.77793 10.000
10.79788 15.000
10.81783 11.000
10.83777 17.000
10.85772 14.000
10.87767 18.000
10.89761 15.000
10.91756 10.000
10.93751 16.000
10.95745 12.000
10.97740 18.000
10.99735 7.000
11.01730 10.000
11.03724 16.000
11.05719 11.000
11.07714 11.000
11.09708 16.000
11.11703 17.000
11.13698 11.000
11.15692 17.000
11.17687 15.000
11.19682 14.000
11.21676 21.000
11.23671 14.000
11.25666 20.000
11.27661 14.000
11.29655 12.000
11.31650 17.000
11.33645 14.000
11.35639 21.000
11.37634 15.000
11.39629 19.000
11.41623 24.000
11.43618 37.000
11.45613 23.000
11.47608 21.000
11.49602 17.000
11.51597 16.000
11.53592 22.000
11.55586 18.000
11.57581 16.000
11.59576 25.000
11.61570 15.000
11.63565 18.000
11.65560 9.000
11.67554 11.000
11.69549 16.000
11.71544 11.000
11.73539 7.000
11.75533 13.000
11.77528 12.000
11.79523 16.000
11.81517 14.000
11.83512 13.000
11.85507 20.000
11.87501 15.000
11.89496 13.000
11.91491 18.000
11.93486 13.000
11.95480 19.000
11.97475 18.000
11.99470 17.000
12.01464 12.000
12.03459 6.000
12.05454 7.000
12.07448 16.000
12.09443 15.000
12.11438 14.000
12.13432 15.000
12.15427 16.000
12.17422 14.000
12.19417 17.000
12.21411 19.000
12.23406 20.000
12.25401 14.000
12.27395 15.000
12.29390 17.000
12.31385 16.000
12.33379 13.000
12.35374 11.000
12.37369 13.000
12.39364 5.000
12.41358 10.000
12.43353 11.000
12.45348 14.000
12.47342 13.000
12.49337 12.000
12.51332 15.000
12.53326 16.000
12.55321 11.000
12.57316 18.000
12.59311 9.000
12.61305 11.000
12.63300 19.000
12.65295 22.000
12.67289 12.000
12.69284 16.000
12.71279 20.000
12.73273 17.000
12.75268 17.000
12.77263 12.000
12.79257 15.000
12.81252 20.000
12.83247 17.000
12.85242 11.000
12.87236 8.000
12.89231 23.000
12.91226 16.000
12.93220 11.000
12.95215 15.000
12.97210 14.000
12.99204 15.000
13.01199 10.000
13.03194 18.000
13.05189 12.000
13.07183 14.000
13.09178 9.000
13.11173 11.000
13.13167 18.000
13.15162 13.000
13.17157 13.000
13.19151 19.000
13.21146 16.000
13.23141 18.000
13.25135 20.000
13.27130 16.000
13.29125 15.000
13.31120 6.000
13.33114 14.000
13.35109 16.000
13.37104 17.000
13.39098 18.000
13.41093 17.000
13.43088 15.000
13.45082 16.000
13.47077 13.000
13.49072 19.000
13.51067 11.000
13.53061 18.000
13.55056 12.000
13.57051 16.000
13.59045 17.000
13.61040 16.000
13.63035 15.000
13.65029 18.000
13.67024 16.000
13.69019 12.000
13.71013 14.000
13.73008 21.000
13.75003 19.000
13.76998 15.000
13.78992 18.000
13.80987 21.000
13.82982 17.000
13.84976 16.000
13.86971 15.000
13.88966 22.000
13.90960 15.000
13.92955 18.000
13.94950 24.000
13.96945 19.000
13.98939 17.000
14.00934 23.000
14.02929 12.000
14.04923 18.000
14.06918 17.000
14.08913 25.000
14.10907 20.000
14.12902 19.000
14.14897 17.000
14.16892 23.000
14.18886 20.000
14.20881 20.000
14.22876 26.000
14.24870 27.000
14.26865 16.000
14.28860 17.000
14.30854 18.000
14.32849 27.000
14.34844 27.000
14.36838 16.000
14.38833 16.000
14.40828 29.000
14.42823 24.000
14.44817 22.000
14.46812 28.000
14.48807 19.000
14.50801 26.000
14.52796 19.000
14.54791 19.000
14.56785 17.000
14.58780 23.000
14.60775 14.000
14.62770 23.000
14.64764 35.000
14.66759 19.000
14.68754 28.000
14.70748 15.000
14.72743 23.000
14.74738 16.000
14.76732 26.000
14.78727 30.000
14.80722 12.000
14.82716 31.000
14.84711 25.000
14.86706 25.000
14.88701 32.000
14.90695 27.000
14.92690 33.000
14.94685 25.000
14.96679 35.000
14.98674 46.000
15.00669 35.000
15.02663 41.000
15.04658 32.000
15.06653 26.000
15.08648 35.000
15.10642 31.000
15.12637 41.000
15.14632 39.000
15.16626 46.000
15.18621 45.000
15.20616 32.000
15.22610 45.000
15.24605 35.000
15.26600 50.000
15.28594 59.000
15.30589 48.000
15.32584 60.000
15.34579 63.000
15.36573 61.000
15.38568 74.000
15.40563 75.000
15.42557 78.000
15.44552 116.000
15.46547 101.000
15.48541 127.000
15.50536 155.000
15.52531 230.000
15.54526 263.000
15.56520 308.000
15.58515 489.000
15.60510 658.000
15.62504 903.000
15.64499 1277.000
15.66494 1750.000
15.68488 2057.000
15.70483 2328.000
15.72478 2510.000
15.74472 2231.000
15.76467 1852.000
15.78462 1513.000
15.80457 1094.000
15.82451 789.000
15.84446 445.000
15.86441 262.000
15.88435 159.000
15.90430 78.000
15.92425 78.000
15.94419 62.000
15.96414 62.000
15.98409 56.000
16.00404 49.000
16.02398 42.000
16.04393 33.000
16.06388 25.000
16.08382 36.000
16.10377 32.000
16.12372 33.000
16.14366 30.000
16.16361 43.000
16.18356 23.000
16.20351 29.000
16.22345 32.000
16.24340 18.000
16.26335 13.000
16.28329 25.000
16.30324 26.000
16.32319 20.000
16.34313 23.000
16.36308 17.000
16.38303 21.000
16.40297 14.000
16.42292 22.000
16.44287 20.000
16.46282 14.000
16.48276 16.000
16.50271 11.000
16.52266 18.000
16.54260 22.000
16.56255 19.000
16.58250 23.000
16.60244 16.000
16.62239 17.000
16.64234 19.000
16.66229 14.000
16.68223 10.000
16.70218 13.000
16.72213 13.000
16.74207 11.000
16.76202 12.000
16.78197 17.000
16.80191 24.000
16.82186 12.000
16.84181 12.000
16.86175 11.000
16.88170 17.000
16.90165 18.000
16.92160 14.000
16.94154 17.000
16.96149 12.000
16.98144 10.000
17.00138 22.000
17.02133 14.000
17.04128 11.000
17.06122 20.000
17.08117 15.000
17.10112 5.000
17.12107 8.000
17.14101 14.000
17.16096 11.000
17.18091 13.000
17.20085 11.000
17.22080 19.000
17.24075 12.000
17.26069 15.000
17.28064 16.000
17.30059 11.000
17.32053 8.000
17.34048 17.000
17.36043 17.000
17.38038 12.000
17.40032 9.000
17.42027 12.000
17.44022 15.000
17.46016 12.000
17.48011 16.000
17.50006 13.000
17.52000 12.000
17.53995 8.000
17.55990 16.000
17.57985 14.000
17.59979 11.000
17.61974 18.000
17.63969 13.000
17.65963 12.000
17.67958 9.000
17.69953 23.000
17.71947 15.000
17.73942 13.000
17.75937 20.000
17.77932 14.000
17.79926 16.000
17.81921 21.000
17.83916 21.000
17.85910 36.000
17.87905 33.000
17.89900 51.000
17.91894 77.000
17.93889 92.000
17.95884 120.000
17.97878 177.000
17.99873 217.000
18.01868 227.000
18.03863 252.000
18.05857 234.000
18.07852 222.000
18.09847 174.000
18.11841 134.000
18.13836 98.000
18.15831 84.000
18.17825 49.000
18.19820 39.000
18.21815 28.000
18.23810 21.000
18.25804 19.000
18.27799 17.000
18.29794 17.000
18.31788 20.000
18.33783 17.000
18.35778 18.000
18.37772 16.000
18.39767 10.000
18.41762 11.000
18.43756 10.000
18.45751 7.000
18.47746 15.000
18.49741 15.000
18.51735 12.000
18.53730 19.000
18.55725 13.000
18.57719 15.000
18.59714 15.000
18.61709 9.000
18.63703 9.000
18.65698 11.000
18.67693 13.000
18.69688 17.000
18.71682 16.000
18.73677 19.000
18.75672 14.000
18.77666 14.000
18.79661 16.000
18.81656 10.000
18.83650 15.000
18.85645 17.000
18.87640 15.000
18.89634 11.000
18.91629 18.000
18.93624 11.000
18.95619 12.000
18.97613 11.000
18.99608 13.000
19.01603 11.000
19.03597 12.000
19.05592 10.000
19.07587 15.000
19.09581 8.000
19.11576 11.000
19.13571 14.000
19.15566 16.000
19.17560 12.000
19.19555 4.000
19.21550 20.000
19.23544 11.000
19.25539 9.000
19.27534 17.000
19.29528 9.000
19.31523 10.000
19.33518 18.000
19.35513 18.000
19.37507 16.000
19.39502 8.000
19.41497 10.000
19.43491 19.000
19.45486 8.000
19.47481 13.000
19.49475 10.000
19.51470 16.000
19.53465 15.000
19.55459 9.000
19.57454 15.000
19.59449 11.000
19.61444 15.000
19.63438 11.000
19.65433 9.000
19.67428 17.000
19.69422 14.000
19.71417 11.000
19.73412 8.000
19.75406 10.000
19.77401 13.000
19.79396 11.000
19.81391 9.000
19.83385 13.000
19.85380 6.000
19.87375 13.000
19.89369 22.000
19.91364 20.000
19.93359 13.000
19.95353 11.000
19.97348 8.000
19.99343 14.000
20.01337 8.000
20.03332 10.000
20.05327 10.000
20.07322 11.000
20.09316 15.000
20.11311 7.000
20.13306 16.000
20.15300 6.000
20.17295 9.000
20.19290 8.000
20.21284 8.000
20.23279 17.000
20.25274 13.000
20.27269 10.000
20.29263 11.000
20.31258 9.000
20.33253 16.000
20.35247 13.000
20.37242 13.000
20.39237 15.000
20.41231 13.000
20.43226 20.000
20.45221 13.000
20.47215 8.000
20.49210 16.000
20.51205 13.000
20.53200 18.000
20.55194 23.000
20.57189 20.000
20.59184 10.000
20.61178 17.000
20.63173 9.000
20.65168 5.000
20.67162 20.000
20.69157 16.000
20.71152 6.000
20.73147 11.000
20.75141 16.000
20.77136 21.000
20.79131 13.000
20.81125 10.000
20.83120 6.000
20.85115 11.000
20.87109 19.000
20.89104 19.000
20.91099 9.000
20.93094 17.000
20.95088 17.000
20.97083 15.000
20.99078 9.000
21.01072 13.000
21.03067 5.000
21.05062 17.000
21.07056 10.000
21.09051 14.000
21.11046 19.000
21.13040 19.000
21.15035 12.000
21.17030 13.000
21.19025 12.000
21.21019 19.000
21.23014 12.000
21.25009 13.000
21.27003 14.000
21.28998 14.000
21.30993 8.000
21.32987 16.000
21.34982 9.000
21.36977 9.000
21.38972 9.000
21.40966 9.000
21.42961 13.000
21.44956 11.000
21.46950 12.000
21.48945 10.000
21.50940 16.000
21.52934 18.000
21.54929 11.000
21.56924 16.000
21.58918 10.000
21.60913 6.000
21.62908 17.000
21.64903 16.000
21.66897 15.000
21.68892 12.000
21.70887 17.000
21.72881 13.000
21.74876 14.000
21.76871 12.000
21.78865 11.000
21.80860 18.000
21.82855 7.000
21.84850 12.000
21.86844 18.000
21.88839 12.000
21.90834 20.000
21.92828 14.000
21.94823 15.000
21.96818 11.000
21.98812 10.000
22.00807 16.000
22.02802 17.000
22.04796 7.000
22.06791 14.000
22.08786 11.000
22.10781 15.000
22.12775 8.000
22.14770 10.000
22.16765 14.000
22.18759 11.000
22.20754 11.000
22.22749 18.000
22.24743 13.000
22.26738 15.000
22.28733 17.000
22.30728 14.000
22.32722 8.000
22.34717 8.000
22.36712 14.000
22.38706 14.000
22.40701 14.000
22.42696 20.000
22.44690 14.000
22.46685 9.000
22.48680 19.000
22.50675 10.000
22.52669 11.000
22.54664 15.000
22.56659 10.000
22.58653 21.000
22.60648 10.000
22.62643 17.000
22.64637 18.000
22.66632 7.000
22.68627 9.000
22.70621 16.000
22.72616 13.000
22.74611 14.000
22.76606 18.000
22.78600 9.000
22.80595 10.000
22.82590 14.000
22.84584 18.000
22.86579 9.000
22.88574 16.000
22.90568 11.000
22.92563 15.000
22.94558 16.000
22.96553 19.000
22.98547 18.000
23.00542 17.000
23.02537 15.000
23.04531 14.000
23.06526 8.000
23.08521 14.000
23.10515 13.000
23.12510 10.000
23.14505 10.000
23.16499 20.000
23.18494 9.000
23.20489 11.000
23.22484 10.000
23.24478 16.000
23.26473 10.000
23.28468 11.000
23.30462 19.000
23.32457 11.000
23.34452 13.000
23.36446 10.000
23.38441 10.000
23.40436 16.000
23.42431 10.000
23.44425 11.000
23.46420 9.000
23.48415 8.000
23.50409 18.000
23.52404 8.000
23.54399 14.000
23.56393 10.000
23.58388 21.000
23.60383 11.000
23.62377 7.000
23.64372 10.000
23.66367 14.000
23.68362 12.000
23.70356 20.000
23.72351 11.000
23.74346 12.000
23.76340 12.000
23.78335 16.000
23.80330 16.000
23.82324 10.000
23.84319 17.000
23.86314 21.000
23.88309 14.000
23.90303 16.000
23.92298 8.000
23.94293 10.000
23.96287 14.000
23.98282 13.000
24.00277 9.000
24.02271 14.000
24.04266 8.000
24.06261 12.000
24.08256 20.000
24.10250 13.000
24.12245 13.000
24.14240 23.000
24.16234 22.000
24.18229 40.000
24.20224 32.000
24.22218 32.000
24.24213 27.000
24.26208 25.000
24.28202 33.000
24.30197 22.000
24.32192 22.000
24.34187 17.000
24.36181 20.000
24.38176 11.000
24.40171 11.000
24.42165 14.000
24.44160 17.000
24.46155 15.000
24.48149 11.000
24.50144 19.000
24.52139 12.000
24.54134 11.000
24.56128 16.000
24.58123 18.000
24.60118 20.000
24.62112 11.000
24.64107 9.000
24.66102 17.000
24.68096 14.000
24.70091 15.000
24.72086 12.000
24.74080 15.000
24.76075 14.000
24.78070 15.000
24.80065 10.000
24.82059 15.000
24.84054 9.000
24.86049 12.000
24.88043 24.000
24.90038 14.000
24.92033 16.000
24.94027 6.000
24.96022 15.000
24.98017 16.000
25.00012 18.000
25.02006 14.000
25.04001 21.000
25.05996 20.000
25.07990 10.000
25.09985 16.000
25.11980 18.000
25.13974 17.000
25.15969 12.000
25.17964 16.000
25.19958 9.000
25.21953 15.000
25.23948 15.000
25.25943 12.000
25.27937 12.000
25.29932 6.000
25.31927 18.000
25.33921 15.000
25.35916 14.000
25.37911 15.000
25.39905 14.000
25.41900 12.000
25.43895 17.000
25.45890 15.000
25.47884 7.000
25.49879 9.000
25.51874 9.000
25.53868 9.000
25.55863 15.000
25.57858 17.000
25.59852 14.000
25.61847 11.000
25.63842 16.000
25.65837 8.000
25.67831 11.000
25.69826 26.000
25.71821 14.000
25.73815 13.000
25.75810 12.000
25.77805 9.000
25.79799 12.000
25.81794 18.000
25.83789 13.000
25.85783 15.000
25.87778 12.000
25.89773 16.000
25.91768 15.000
25.93762 17.000
25.95757 17.000
25.97752 15.000
25.99746 12.000
26.01741 12.000
26.03736 16.000
26.05730 14.000
26.07725 20.000
26.09720 20.000
26.11715 12.000
26.13709 13.000
26.15704 17.000
26.17699 13.000
26.19693 16.000
26.21688 10.000
26.23683 22.000
26.25677 25.000
26.27672 22.000
26.29667 19.000
26.31661 16.000
26.33656 14.000
26.35651 11.000
26.37646 22.000
26.39640 10.000
26.41635 12.000
26.43630 14.000
26.45624 11.000
26.47619 12.000
26.49614 16.000
26.51608 14.000
26.53603 18.000
26.55598 19.000
26.57593 19.000
26.59587 19.000
26.61582 15.000
26.63577 25.000
26.65571 16.000
26.67566 20.000
26.69561 16.000
26.71555 18.000
26.73550 21.000
26.75545 22.000
26.77539 13.000
26.79534 17.000
26.81529 25.000
26.83524 16.000
26.85518 17.000
26.87513 15.000
26.89508 9.000
26.91502 21.000
26.93497 22.000
26.95492 14.000
26.97486 15.000
26.99481 13.000
27.01476 20.000
27.03471 13.000
27.05465 13.000
27.07460 14.000
27.09455 20.000
27.11449 10.000
27.13444 13.000
27.15439 19.000
27.17433 14.000
27.19428 14.000
27.21423 10.000
27.23417 14.000
27.25412 10.000
27.27407 16.000
27.29402 27.000
27.31396 16.000
27.33391 19.000
27.35386 13.000
27.37380 16.000
27.39375 21.000
27.41370 15.000
27.43364 17.000
27.45359 20.000
27.47354 15.000
27.49349 15.000
27.51343 15.000
27.53338 15.000
27.55333 13.000
27.57327 13.000
27.59322 10.000
27.61317 14.000
27.63311 15.000
27.65306 15.000
27.67301 16.000
27.69296 18.000
27.71290 17.000
27.73285 20.000
27.75280 5.000
27.77274 21.000
27.79269 13.000
27.81264 10.000
27.83258 20.000
27.85253 15.000
27.87248 21.000
27.89242 18.000
27.91237 14.000
27.93232 15.000
27.95227 9.000
27.97221 16.000
27.99216 16.000
28.01211 27.000
28.03205 12.000
28.05200 18.000
28.07195 10.000
28.09189 11.000
28.11184 25.000
28.13179 16.000
28.15174 19.000
28.17168 18.000
28.19163 14.000
28.21158 12.000
28.23152 15.000
28.25147 18.000
28.27142 24.000
28.29136 16.000
28.31131 21.000
28.33126 18.000
28.35120 21.000
28.37115 12.000
28.39110 20.000
28.41105 12.000
28.43099 17.000
28.45094 14.000
28.47089 12.000
28.49083 23.000
28.51078 17.000
28.53073 19.000
28.55067 17.000
28.57062 16.000
28.59057 25.000
28.61052 19.000
28.63046 20.000
28.65041 15.000
28.67036 20.000
28.69030 23.000
28.71025 15.000
28.73020 22.000
28.75014 20.000
28.77009 18.000
28.79004 18.000
28.80998 20.000
28.82993 26.000
28.84988 25.000
28.86983 30.000
28.88977 19.000
28.90972 35.000
28.92967 16.000
28.94961 26.000
28.96956 21.000
28.98951 13.000
29.00945 26.000
29.02940 22.000
29.04935 15.000
29.06930 21.000
29.08924 22.000
29.10919 16.000
29.12914 18.000
29.14908 18.000
29.16903 19.000
29.18898 30.000
29.20892 18.000
29.22887 20.000
29.24882 25.000
29.26877 20.000
29.28871 16.000
29.30866 23.000
29.32861 18.000
29.34855 21.000
29.36850 25.000
29.38845 32.000
29.40839 31.000
29.42834 41.000
29.44829 42.000
29.46823 49.000
29.48818 60.000
29.50813 69.000
29.52808 98.000
29.54802 141.000
29.56797 125.000
29.58792 134.000
29.60786 127.000
29.62781 144.000
29.64776 128.000
29.66770 114.000
29.68765 120.000
29.70760 126.000
29.72755 99.000
29.74749 103.000
29.76744 79.000
29.78739 71.000
29.80733 74.000
29.82728 37.000
29.84723 44.000
29.86717 30.000
29.88712 31.000
29.90707 25.000
29.92701 22.000
29.94696 23.000
29.96691 15.000
29.98686 21.000
30.00680 32.000
30.02675 17.000
30.04670 20.000
30.06664 20.000
30.08659 17.000
30.10654 21.000
30.12648 27.000
30.14643 23.000
30.16638 26.000
30.18633 32.000
30.20627 30.000
30.22622 24.000
30.24617 19.000
30.26611 15.000
30.28606 26.000
30.30601 21.000
30.32595 19.000
30.34590 18.000
30.36585 20.000
30.38579 23.000
30.40574 23.000
30.42569 13.000
30.44564 18.000
30.46558 20.000
30.48553 14.000
30.50548 16.000
30.52542 29.000
30.54537 19.000
30.56532 16.000
30.58526 23.000
30.60521 19.000
30.62516 16.000
30.64511 18.000
30.66505 20.000
30.68500 9.000
30.70495 11.000
30.72489 20.000
30.74484 14.000
30.76479 18.000
30.78473 17.000
30.80468 18.000
30.82463 24.000
30.84458 22.000
30.86452 15.000
30.88447 18.000
30.90442 15.000
30.92436 9.000
30.94431 27.000
30.96426 23.000
30.98420 23.000
31.00415 16.000
31.02410 18.000
31.04404 18.000
31.06399 21.000
31.08394 24.000
31.10389 17.000
31.12383 19.000
31.14378 18.000
31.16373 18.000
31.18367 21.000
31.20362 19.000
31.22357 29.000
31.24351 21.000
31.26346 22.000
31.28341 20.000
31.30336 23.000
31.32330 20.000
31.34325 29.000
31.36320 30.000
31.38314 19.000
31.40309 41.000
31.42304 26.000
31.44298 24.000
31.46293 36.000
31.48288 48.000
31.50282 44.000
31.52277 50.000
31.54272 69.000
31.56267 78.000
31.58261 99.000
31.60256 118.000
31.62251 137.000
31.64245 172.000
31.66240 210.000
31.68235 263.000
31.70229 285.000
31.72224 273.000
31.74219 262.000
31.76214 235.000
31.78208 202.000
31.80203 184.000
31.82198 145.000
31.84192 99.000
31.86187 101.000
31.88182 68.000
31.90176 62.000
31.92171 41.000
31.94166 25.000
31.96160 23.000
31.98155 27.000
32.00150 22.000
32.02145 23.000
32.04139 22.000
32.06134 23.000
32.08129 16.000
32.10123 21.000
32.12118 22.000
32.14113 20.000
32.16107 27.000
32.18102 20.000
32.20097 22.000
32.22092 26.000
32.24086 20.000
32.26081 22.000
32.28076 25.000
32.30070 25.000
32.32065 21.000
32.34060 26.000
32.36054 20.000
32.38049 19.000
32.40044 19.000
32.42039 15.000
32.44033 16.000
32.46028 23.000
32.48023 12.000
32.50017 20.000
32.52012 19.000
32.54007 16.000
32.56001 9.000
32.57996 23.000
32.59991 20.000
32.61985 22.000
32.63980 24.000
32.65975 14.000
32.67970 21.000
32.69964 14.000
32.71959 20.000
32.73954 12.000
32.75948 13.000
32.77943 19.000
32.79938 14.000
32.81932 23.000
32.83927 25.000
32.85922 24.000
32.87917 22.000
32.89911 16.000
32.91906 14.000
32.93901 24.000
32.95895 21.000
32.97890 18.000
32.99885 19.000
33.01879 34.000
33.03874 38.000
33.05869 28.000
33.07863 31.000
33.09858 22.000
33.11853 34.000
33.13848 50.000
33.15842 64.000
33.17837 67.000
33.19832 83.000
33.21826 85.000
33.23821 80.000
33.25816 78.000
33.27810 71.000
33.29805 88.000
33.31800 68.000
33.33795 57.000
33.35789 30.000
33.37784 36.000
33.39779 34.000
33.41773 33.000
33.43768 27.000
33.45763 15.000
33.47757 20.000
33.49752 18.000
33.51747 17.000
33.53741 32.000
33.55736 22.000
33.57731 14.000
33.59726 21.000
33.61720 19.000
33.63715 20.000
33.65710 21.000
33.67704 19.000
33.69699 14.000
33.71694 27.000
33.73688 24.000
33.75683 18.000
33.77678 19.000
33.79673 18.000
33.81667 17.000
33.83662 22.000
33.85657 25.000
33.87651 27.000
33.89646 19.000
33.91641 21.000
33.93635 17.000
33.95630 26.000
33.97625 28.000
33.99620 15.000
34.01614 28.000
34.03609 26.000
34.05604 27.000
34.07598 25.000
34.09593 26.000
34.11588 20.000
34.13582 24.000
34.15577 26.000
34.17572 21.000
34.19566 27.000
34.21561 25.000
34.23556 23.000
34.25551 23.000
34.27545 26.000
34.29540 28.000
34.31535 25.000
34.33529 26.000
34.35524 19.000
34.37519 40.000
34.39513 32.000
34.41508 40.000
34.43503 33.000
34.45498 35.000
34.47492 50.000
34.49487 51.000
34.51482 52.000
34.53476 75.000
34.55471 70.000
34.57466 101.000
34.59460 128.000
34.61455 154.000
34.63450 178.000
34.65444 186.000
34.67439 223.000
34.69434 229.000
34.71429 249.000
34.73423 254.000
34.75418 224.000
34.77413 262.000
34.79407 240.000
34.81402 196.000
34.83397 257.000
34.85391 293.000
34.87386 337.000
34.89381 350.000
34.91376 417.000
34.93370 484.000
34.95365 486.000
34.97360 510.000
34.99354 502.000
35.01349 493.000
35.03344 429.000
35.05338 402.000
35.07333 319.000
35.09328 266.000
35.11322 221.000
35.13317 181.000
35.15312 128.000
35.17307 117.000
35.19301 67.000
35.21296 65.000
35.23291 56.000
35.25285 52.000
35.27280 51.000
35.29275 45.000
35.31269 52.000
35.33264 55.000
35.35259 39.000
35.37254 72.000
35.39248 71.000
35.41243 87.000
35.43238 138.000
35.45232 147.000
35.47227 201.000
35.49222 298.000
35.51216 319.000
35.53211 418.000
35.55206 440.000
35.57201 438.000
35.59195 445.000
35.61190 450.000
35.63185 421.000
35.65179 358.000
35.67174 294.000
35.69169 260.000
35.71163 204.000
35.73158 172.000
35.75153 142.000
35.77147 112.000
35.79142 77.000
35.81137 72.000
35.83132 68.000
35.85126 52.000
35.87121 40.000
35.89116 32.000
35.91110 33.000
35.93105 26.000
35.95100 20.000
35.97094 30.000
35.99089 24.000
36.01084 31.000
36.03079 25.000
36.05073 33.000
36.07068 19.000
36.09063 31.000
36.11057 17.000
36.13052 30.000
36.15047 28.000
36.17041 20.000
36.19036 14.000
36.21031 33.000
36.23025 31.000
36.25020 27.000
36.27015 26.000
36.29010 30.000
36.31004 33.000
36.32999 51.000
36.34994 51.000
36.36988 72.000
36.38983 68.000
36.40978 91.000
36.42972 118.000
36.44967 119.000
36.46962 130.000
36.48957 125.000
36.50951 134.000
36.52946 145.000
36.54941 122.000
36.56935 108.000
36.58930 91.000
36.60925 81.000
36.62919 67.000
36.64914 50.000
36.66909 44.000
36.68903 39.000
36.70898 34.000
36.72893 29.000
36.74888 23.000
36.76882 25.000
36.78877 18.000
36.80872 31.000
36.82866 23.000
36.84861 22.000
36.86856 24.000
36.88850 28.000
36.90845 14.000
36.92840 24.000
36.94835 24.000
36.96829 21.000
36.98824 23.000
37.00819 25.000
37.02813 23.000
37.04808 24.000
37.06803 22.000
37.08797 30.000
37.10792 22.000
37.12787 24.000
37.14781 36.000
37.16776 21.000
37.18771 23.000
37.20766 25.000
37.22760 27.000
37.24755 25.000
37.26750 16.000
37.28744 17.000
37.30739 19.000
37.32734 30.000
37.34728 23.000
37.36723 19.000
37.38718 22.000
37.40713 24.000
37.42707 16.000
37.44702 18.000
37.46697 28.000
37.48691 28.000
37.50686 23.000
37.52681 22.000
37.54675 26.000
37.56670 14.000
37.58665 19.000
37.60660 27.000
37.62654 21.000
37.64649 17.000
37.66644 34.000
37.68638 26.000
37.70633 33.000
37.72628 19.000
37.74622 22.000
37.76617 21.000
37.78612 24.000
37.80606 21.000
37.82601 30.000
37.84596 22.000
37.86591 29.000
37.88585 25.000
37.90580 21.000
37.92575 37.000
37.94569 32.000
37.96564 32.000
37.98559 30.000
38.00553 19.000
38.02548 31.000
38.04543 37.000
38.06538 29.000
38.08532 27.000
38.10527 24.000
38.12522 24.000
38.14516 27.000
38.16511 33.000
38.18506 40.000
38.20500 33.000
38.22495 25.000
38.24490 27.000
38.26484 31.000
38.28479 33.000
38.30474 27.000
38.32469 26.000
38.34463 44.000
38.36458 29.000
38.38453 36.000
38.40447 38.000
38.42442 33.000
38.44437 46.000
38.46431 41.000
38.48426 31.000
38.50421 39.000
38.52416 34.000
38.54410 48.000
38.56405 37.000
38.58400 38.000
38.60394 39.000
38.62389 60.000
38.64384 55.000
38.66378 65.000
38.68373 60.000
38.70368 68.000
38.72362 83.000
38.74357 88.000
38.76352 84.000
38.78347 113.000
38.80341 84.000
38.82336 107.000
38.84331 122.000
38.86325 143.000
38.88320 151.000
38.90315 186.000
38.92309 203.000
38.94304 240.000
38.96299 353.000
38.98294 389.000
39.00288 473.000
39.02283 591.000
39.04278 643.000
39.06272 714.000
39.08267 761.000
39.10262 743.000
39.12256 707.000
39.14251 629.000
39.16246 565.000
39.18241 478.000
39.20235 440.000
39.22230 408.000
39.24225 308.000
39.26219 209.000
39.28214 171.000
39.30209 122.000
39.32203 120.000
39.34198 84.000
39.36193 85.000
39.38187 76.000
39.40182 63.000
39.42177 58.000
39.44172 68.000
39.46166 57.000
39.48161 52.000
39.50156 40.000
39.52150 44.000
39.54145 42.000
39.56140 44.000
39.58134 27.000
39.60129 27.000
39.62124 26.000
39.64119 26.000
39.66113 43.000
39.68108 38.000
39.70103 22.000
39.72097 33.000
39.74092 24.000
39.76087 26.000
39.78081 30.000
39.80076 19.000
39.82071 24.000
39.84065 21.000
39.86060 31.000
39.88055 23.000
39.90050 27.000
39.92044 21.000
39.94039 21.000
39.96034 12.000
39.98028 30.000
40.00023 26.000
40.02018 25.000
40.04012 31.000
40.06007 21.000
40.08002 17.000
40.09997 20.000
40.11991 25.000
40.13986 19.000
40.15981 30.000
40.17975 21.000
40.19970 18.000
40.21965 25.000
40.23959 20.000
40.25954 19.000
40.27949 22.000
40.29943 24.000
40.31938 24.000
40.33933 19.000
40.35928 13.000
40.37922 19.000
40.39917 25.000
40.41912 24.000
40.43906 17.000
40.45901 13.000
40.47896 19.000
40.49890 23.000
40.51885 11.000
40.53880 19.000
40.55875 27.000
40.57869 8.000
40.59864 13.000
40.61859 16.000
40.63853 18.000
40.65848 20.000
40.67843 12.000
40.69837 18.000
40.71832 13.000
40.73827 16.000
40.75822 23.000
40.77816 22.000
40.79811 21.000
40.81806 17.000
40.83800 24.000
40.85795 24.000
40.87790 33.000
40.89784 29.000
40.91779 30.000
40.93774 26.000
40.95768 28.000
40.97763 28.000
40.99758 35.000
41.01753 23.000
41.03747 26.000
41.05742 19.000
41.07737 28.000
41.09731 27.000
41.11726 19.000
41.13721 16.000
41.15715 17.000
41.17710 25.000
41.19705 22.000
41.21700 18.000
41.23694 21.000
41.25689 22.000
41.27684 21.000
41.29678 20.000
41.31673 19.000
41.33668 22.000
41.35662 23.000
41.37657 21.000
41.39652 18.000
41.41646 21.000
41.43641 14.000
41.45636 22.000
41.47631 22.000
41.49625 25.000
41.51620 14.000
41.53615 21.000
41.55609 17.000
41.57604 18.000
41.59599 15.000
41.61593 27.000
41.63588 19.000
41.65583 24.000
41.67578 16.000
41.69572 25.000
41.71567 20.000
41.73562 23.000
41.75556 26.000
41.77551 22.000
41.79546 26.000
41.81540 27.000
41.83535 18.000
41.85530 26.000
41.87524 36.000
41.89519 30.000
41.91514 39.000
41.93509 58.000
41.95503 48.000
41.97498 60.000
41.99493 60.000
42.01487 52.000
42.03482 64.000
42.05477 62.000
42.07471 71.000
42.09466 70.000
42.11461 71.000
42.13456 68.000
42.15450 62.000
42.17445 65.000
42.19440 51.000
42.21434 57.000
42.23429 58.000
42.25424 52.000
42.27418 45.000
42.29413 49.000
42.31408 44.000
42.33403 57.000
42.35397 64.000
42.37392 73.000
42.39387 71.000
42.41381 91.000
42.43376 101.000
42.45371 127.000
42.47365 147.000
42.49360 150.000
42.51355 154.000
42.53349 133.000
42.55344 164.000
42.57339 138.000
42.59334 119.000
42.61328 115.000
42.63323 87.000
42.65318 103.000
42.67312 82.000
42.69307 101.000
42.71302 66.000
42.73296 38.000
42.75291 50.000
42.77286 49.000
42.79281 41.000
42.81275 37.000
42.83270 44.000
42.85265 46.000
42.87259 40.000
42.89254 47.000
42.91249 53.000
42.93243 52.000
42.95238 66.000
42.97233 77.000
42.99227 99.000
43.01222 126.000
43.03217 154.000
43.05212 193.000
43.07206 216.000
43.09201 240.000
43.11196 290.000
43.13190 284.000
43.15185 302.000
43.17180 320.000
43.19174 286.000
43.21169 241.000
43.23164 222.000
43.25159 197.000
43.27153 150.000
43.29148 144.000
43.31143 127.000
43.33137 100.000
43.35132 89.000
43.37127 67.000
43.39121 75.000
43.41116 57.000
43.43111 51.000
43.45105 43.000
43.47100 37.000
43.49095 39.000
43.51090 38.000
43.53084 41.000
43.55079 32.000
43.57074 39.000
43.59068 20.000
43.61063 29.000
43.63058 29.000
43.65052 19.000
43.67047 24.000
43.69042 34.000
43.71037 18.000
43.73031 36.000
43.75026 27.000
43.77021 26.000
43.79015 18.000
43.81010 24.000
43.83005 20.000
43.84999 21.000
43.86994 17.000
43.88989 16.000
43.90984 24.000
43.92978 18.000
43.94973 17.000
43.96968 21.000
43.98962 24.000
44.00957 21.000
44.02952 19.000
44.04946 16.000
44.06941 18.000
44.08936 22.000
44.10930 19.000
44.12925 21.000
44.14920 22.000
44.16915 16.000
44.18909 17.000
44.20904 17.000
44.22899 19.000
44.24893 21.000
44.26888 16.000
44.28883 13.000
44.30877 17.000
44.32872 15.000
44.34867 17.000
44.36862 17.000
44.38856 23.000
44.40851 24.000
44.42846 19.000
44.44840 15.000
44.46835 12.000
44.48830 17.000
44.50824 16.000
44.52819 27.000
44.54814 15.000
44.56808 18.000
44.58803 18.000
44.60798 12.000
44.62793 19.000
44.64787 16.000
44.66782 17.000
44.68777 21.000
44.70771 18.000
44.72766 19.000
44.74761 18.000
44.76755 12.000
44.78750 19.000
44.80745 17.000
44.82740 16.000
44.84734 21.000
44.86729 17.000
44.88724 19.000
44.90718 15.000
44.92713 24.000
44.94708 12.000
44.96702 12.000
44.98697 17.000
45.00692 16.000
45.02686 24.000
45.04681 9.000
45.06676 17.000
45.08671 9.000
45.10665 13.000
45.12660 25.000
45.14655 18.000
45.16649 15.000
45.18644 15.000
45.20639 12.000
45.22633 18.000
45.24628 21.000
45.26623 16.000
45.28618 19.000
45.30612 14.000
45.32607 16.000
45.34602 17.000
45.36596 14.000
45.38591 15.000
45.40586 15.000
45.42580 18.000
45.44575 19.000
45.46570 14.000
45.48565 20.000
45.50559 21.000
45.52554 12.000
45.54549 14.000
45.56543 20.000
45.58538 20.000
45.60533 16.000
45.62527 16.000
45.64522 13.000
45.66517 19.000
45.68511 16.000
45.70506 18.000
45.72501 12.000
45.74496 16.000
45.76490 16.000
45.78485 18.000
45.80480 17.000
45.82474 19.000
45.84469 8.000
45.86464 16.000
45.88458 11.000
45.90453 22.000
45.92448 16.000
45.94443 16.000
45.96437 16.000
45.98432 7.000
46.00427 27.000
46.02421 15.000
46.04416 24.000
46.06411 17.000
46.08405 21.000
46.10400 17.000
46.12395 13.000
46.14389 21.000
46.16384 22.000
46.18379 24.000
46.20374 24.000
46.22368 30.000
46.24363 28.000
46.26358 23.000
46.28352 18.000
46.30347 28.000
46.32342 21.000
46.34336 27.000
46.36331 32.000
46.38326 19.000
46.40321 23.000
46.42315 21.000
46.44310 19.000
46.46305 36.000
46.48299 23.000
46.50294 26.000
46.52289 24.000
46.54283 21.000
46.56278 22.000
46.58273 21.000
46.60267 26.000
46.62262 23.000
46.64257 26.000
46.66252 20.000
46.68246 14.000
46.70241 25.000
46.72236 16.000
46.74230 25.000
46.76225 25.000
46.78220 17.000
46.80214 24.000
46.82209 18.000
46.84204 24.000
46.86199 20.000
46.88193 36.000
46.90188 16.000
46.92183 20.000
46.94177 23.000
46.96172 23.000
46.98167 22.000
47.00161 17.000
47.02156 11.000
47.04151 18.000
47.06146 26.000
47.08140 17.000
47.10135 19.000
47.12130 24.000
47.14124 14.000
47.16119 17.000
47.18114 19.000
47.20108 23.000
47.22103 19.000
47.24098 22.000
47.26092 18.000
47.28087 22.000
47.30082 40.000
47.32077 19.000
47.34071 34.000
47.36066 19.000
47.38061 36.000
47.40055 30.000
47.42050 40.000
47.44045 30.000
47.46039 35.000
47.48034 15.000
47.50029 26.000
47.52024 18.000
47.54018 41.000
47.56013 39.000
47.58008 30.000
47.60002 34.000
47.61997 30.000
47.63992 39.000
47.65986 31.000
47.67981 48.000
47.69976 39.000
47.71970 36.000
47.73965 43.000
47.75960 42.000
47.77955 42.000
47.79949 42.000
47.81944 46.000
47.83939 50.000
47.85933 50.000
47.87928 60.000
47.89923 57.000
47.91917 58.000
47.93912 60.000
47.95907 58.000
47.97902 57.000
47.99896 66.000
48.01891 73.000
48.03886 67.000
48.05880 80.000
48.07875 100.000
48.09870 114.000
48.11864 115.000
48.13859 138.000
48.15854 168.000
48.17848 187.000
48.19843 239.000
48.21838 301.000
48.23833 344.000
48.25827 390.000
48.27822 488.000
48.29817 544.000
48.31811 584.000
48.33806 597.000
48.35801 605.000
48.37795 562.000
48.39790 537.000
48.41785 508.000
48.43780 492.000
48.45774 429.000
48.47769 338.000
48.49764 343.000
48.51758 281.000
48.53753 225.000
48.55748 193.000
48.57742 126.000
48.59737 115.000
48.61732 113.000
48.63726 100.000
48.65721 84.000
48.67716 83.000
48.69711 83.000
48.71705 53.000
48.73700 63.000
48.75695 59.000
48.77689 63.000
48.79684 52.000
48.81679 50.000
48.83673 49.000
48.85668 57.000
48.87663 35.000
48.89658 52.000
48.91652 42.000
48.93647 45.000
48.95642 48.000
48.97636 40.000
48.99631 38.000
49.01626 34.000
49.03620 37.000
49.05615 32.000
49.07610 32.000
49.09605 22.000
49.11599 28.000
49.13594 38.000
49.15589 34.000
49.17583 26.000
49.19578 34.000
49.21573 26.000
49.23567 29.000
49.25562 20.000
49.27557 35.000
49.29551 32.000
49.31546 21.000
49.33541 21.000
49.35536 30.000
49.37530 28.000
49.39525 25.000
49.41520 27.000
49.43514 33.000
49.45509 36.000
49.47504 40.000
49.49498 30.000
49.51493 53.000
49.53488 50.000
49.55483 35.000
49.57477 36.000
49.59472 44.000
49.61467 35.000
49.63461 42.000
49.65456 37.000
49.67451 32.000
49.69445 35.000
49.71440 29.000
49.73435 27.000
49.75429 21.000
49.77424 26.000
49.79419 21.000
49.81414 13.000
49.83408 24.000
49.85403 17.000
49.87398 19.000
49.89392 18.000
49.91387 13.000
49.93382 29.000
49.95376 16.000
49.97371 9.000
49.99366 15.000
50.01361 20.000
50.03355 16.000
50.05350 17.000
50.07345 19.000
50.09339 16.000
50.11334 22.000
50.13329 19.000
50.15323 16.000
50.17318 21.000
50.19313 10.000
50.21307 12.000
50.23302 20.000
50.25297 14.000
50.27292 13.000
50.29286 16.000
50.31281 9.000
50.33276 7.000
50.35270 19.000
50.37265 21.000
50.39260 14.000
50.41254 11.000
50.43249 23.000
50.45244 13.000
50.47239 14.000
50.49233 20.000
50.51228 16.000
50.53223 9.000
50.55217 13.000
50.57212 15.000
50.59207 11.000
50.61201 20.000
50.63196 22.000
50.65191 8.000
50.67186 14.000
50.69180 13.000
50.71175 15.000
50.73170 12.000
50.75164 15.000
50.77159 20.000
50.79154 10.000
50.81148 16.000
50.83143 11.000
50.85138 15.000
50.87132 21.000
50.89127 15.000
50.91122 16.000
50.93117 13.000
50.95111 15.000
50.97106 10.000
50.99101 19.000
51.01095 18.000
51.03090 14.000
51.05085 16.000
51.07079 9.000
51.09074 9.000
51.11069 17.000
51.13064 20.000
51.15058 17.000
51.17053 12.000
51.19048 10.000
51.21042 12.000
51.23037 17.000
51.25032 11.000
51.27026 19.000
51.29021 15.000
51.31016 13.000
51.33010 8.000
51.35005 16.000
51.37000 9.000
51.38995 9.000
51.40989 14.000
51.42984 14.000
51.44979 9.000
51.46973 7.000
51.48968 7.000
51.50963 11.000
51.52957 16.000
51.54952 8.000
51.56947 11.000
51.58942 11.000
51.60936 17.000
51.62931 12.000
51.64926 14.000
51.66920 11.000
51.68915 15.000
51.70910 12.000
51.72904 5.000
51.74899 13.000
51.76894 7.000
51.78888 23.000
51.80883 18.000
51.82878 9.000
51.84873 16.000
51.86867 13.000
51.88862 9.000
51.90857 14.000
51.92851 13.000
51.94846 17.000
51.96841 12.000
51.98835 5.000
52.00830 18.000
52.02825 16.000
52.04820 9.000
52.06814 18.000
52.08809 6.000
52.10804 16.000
52.12798 19.000
52.14793 16.000
52.16788 25.000
52.18782 16.000
52.20777 18.000
52.22772 23.000
52.24767 25.000
52.26761 27.000
52.28756 23.000
52.30751 26.000
52.32745 24.000
52.34740 23.000
52.36735 25.000
52.38729 26.000
52.40724 30.000
52.42719 21.000
52.44713 20.000
52.46708 43.000
52.48703 24.000
52.50698 36.000
52.52692 34.000
52.54687 36.000
52.56682 27.000
52.58676 37.000
52.60671 33.000
52.62666 48.000
52.64660 45.000
52.66655 41.000
52.68650 43.000
52.70645 41.000
52.72639 35.000
52.74634 30.000
52.76629 25.000
52.78623 22.000
52.80618 11.000
52.82613 20.000
52.84607 17.000
52.86602 18.000
52.88597 13.000
52.90591 14.000
52.92586 13.000
52.94581 16.000
52.96576 14.000
52.98570 7.000
53.00565 13.000
53.02560 6.000
53.04554 13.000
53.06549 18.000
53.08544 15.000
53.10538 13.000
53.12533 13.000
53.14528 21.000
53.16523 11.000
53.18517 14.000
53.20512 11.000
53.22507 12.000
53.24501 13.000
53.26496 18.000
53.28491 13.000
53.30485 17.000
53.32480 10.000
53.34475 14.000
53.36469 9.000
53.38464 17.000
53.40459 17.000
53.42454 17.000
53.44448 24.000
53.46443 17.000
53.48438 8.000
53.50432 6.000
53.52427 13.000
53.54422 11.000
53.56416 19.000
53.58411 10.000
53.60406 12.000
53.62401 17.000
53.64395 16.000
53.66390 14.000
53.68385 20.000
53.70379 11.000
53.72374 15.000
53.74369 13.000
53.76363 12.000
53.78358 9.000
53.80353 12.000
53.82348 17.000
53.84342 11.000
53.86337 24.000
53.88332 13.000
53.90326 16.000
53.92321 16.000
53.94316 16.000
53.96310 14.000
53.98305 18.000
54.00300 17.000
54.02294 21.000
54.04289 30.000
54.06284 30.000
54.08279 26.000
54.10273 40.000
54.12268 37.000
54.14263 35.000
54.16257 48.000
54.18252 34.000
54.20247 31.000
54.22241 31.000
54.24236 28.000
54.26231 35.000
54.28226 27.000
54.30220 31.000
54.32215 36.000
54.34210 35.000
54.36204 21.000
54.38199 21.000
54.40194 23.000
54.42188 5.000
54.44183 12.000
54.46178 17.000
54.48172 21.000
54.50167 12.000
54.52162 11.000
54.54157 15.000
54.56151 13.000
54.58146 17.000
54.60141 14.000
54.62135 17.000
54.64130 14.000
54.66125 22.000
54.68119 17.000
54.70114 9.000
54.72109 16.000
54.74104 14.000
54.76098 15.000
54.78093 8.000
54.80088 10.000
54.82082 11.000
54.84077 18.000
54.86072 14.000
54.88066 19.000
54.90061 22.000
54.92056 15.000
54.94050 12.000
54.96045 24.000
54.98040 19.000
55.00035 10.000
55.02029 18.000
55.04024 16.000
55.06019 17.000
55.08013 17.000
55.10008 16.000
55.12003 12.000
55.13997 14.000
55.15992 25.000
55.17987 22.000
55.19982 25.000
55.21976 18.000
55.23971 19.000
55.25966 25.000
55.27960 21.000
55.29955 18.000
55.31950 23.000
55.33944 24.000
55.35939 25.000
55.37934 36.000
55.39929 41.000
55.41923 37.000
55.43918 32.000
55.45913 42.000
55.47907 48.000
55.49902 48.000
55.51897 56.000
55.53891 44.000
55.55886 52.000
55.57881 62.000
55.59875 50.000
55.61870 70.000
55.63865 51.000
55.65860 41.000
55.67854 56.000
55.69849 53.000
55.71844 51.000
55.73838 44.000
55.75833 41.000
55.77828 47.000
55.79822 42.000
55.81817 32.000
55.83812 64.000
55.85807 57.000
55.87801 61.000
55.89796 52.000
55.91791 67.000
55.93785 72.000
55.95780 93.000
55.97775 92.000
55.99769 101.000
56.01764 102.000
56.03759 100.000
56.05753 131.000
56.07748 126.000
56.09743 120.000
56.11738 115.000
56.13732 129.000
56.15727 119.000
56.17722 146.000
56.19716 128.000
56.21711 105.000
56.23706 97.000
56.25700 113.000
56.27695 91.000
56.29690 93.000
56.31685 73.000
56.33679 57.000
56.35674 69.000
56.37669 62.000
56.39663 41.000
56.41658 36.000
56.43653 32.000
56.45647 24.000
56.47642 28.000
56.49637 29.000
56.51631 26.000
56.53626 22.000
56.55621 20.000
56.57616 12.000
56.59610 16.000
56.61605 13.000
56.63600 15.000
56.65594 16.000
56.67589 17.000
56.69584 13.000
56.71578 14.000
56.73573 12.000
56.75568 20.000
56.77563 15.000
56.79557 15.000
56.81552 19.000
56.83547 21.000
56.85541 17.000
56.87536 16.000
56.89531 25.000
56.91525 16.000
56.93520 23.000
56.95515 24.000
56.97510 16.000
56.99504 19.000
57.01499 24.000
57.03494 13.000
57.05488 12.000
57.07483 26.000
57.09478 16.000
57.11472 14.000
57.13467 18.000
57.15462 15.000
57.17456 19.000
57.19451 15.000
57.21446 14.000
57.23441 16.000
57.25435 20.000
57.27430 14.000
57.29425 20.000
57.31419 13.000
57.33414 14.000
57.35409 17.000
57.37403 12.000
57.39398 17.000
57.41393 9.000
57.43388 11.000
57.45382 17.000
57.47377 11.000
57.49372 18.000
57.51366 16.000
57.53361 21.000
57.55356 16.000
57.57350 20.000
57.59345 17.000
57.61340 18.000
57.63334 25.000
57.65329 15.000
57.67324 16.000
57.69319 21.000
57.71313 19.000
57.73308 17.000
57.75303 16.000
57.77297 12.000
57.79292 16.000
57.81287 17.000
57.83281 9.000
57.85276 11.000
57.87271 17.000
57.89266 25.000
57.91260 10.000
57.93255 9.000
57.95250 17.000
57.97244 11.000
57.99239 15.000
58.01234 10.000
58.03228 8.000
58.05223 12.000
58.07218 10.000
58.09212 16.000
58.11207 21.000
58.13202 15.000
58.15197 12.000
58.17191 20.000
58.19186 11.000
58.21181 12.000
58.23175 27.000
58.25170 17.000
58.27165 13.000
58.29159 21.000
58.31154 21.000
58.33149 15.000
58.35144 12.000
58.37138 15.000
58.39133 19.000
58.41128 13.000
58.43122 9.000
58.45117 14.000
58.47112 18.000
58.49106 17.000
58.51101 14.000
58.53096 12.000
58.55090 12.000
58.57085 22.000
58.59080 13.000
58.61075 12.000
58.63069 11.000
58.65064 7.000
58.67059 13.000
58.69053 19.000
58.71048 16.000
58.73043 22.000
58.75037 16.000
58.77032 14.000
58.79027 14.000
58.81022 16.000
58.83016 16.000
58.85011 12.000
58.87006 16.000
58.89000 13.000
58.90995 13.000
58.92990 19.000
58.94984 9.000
58.96979 12.000
58.98974 11.000
59.00969 16.000
59.02963 17.000
59.04958 12.000
59.06953 20.000
59.08947 12.000
59.10942 8.000
59.12937 16.000
59.14931 16.000
59.16926 20.000
59.18921 20.000
59.20915 16.000
59.22910 16.000
59.24905 14.000
59.26900 12.000
59.28894 10.000
59.30889 10.000
59.32884 10.000
59.34878 20.000
59.36873 17.000
59.38868 13.000
59.40862 22.000
59.42857 17.000
59.44852 18.000
59.46847 21.000
59.48841 17.000
59.50836 19.000
59.52831 8.000
59.54825 21.000
59.56820 12.000
59.58815 16.000
59.60809 19.000
59.62804 19.000
59.64799 17.000
59.66793 14.000
59.68788 11.000
59.70783 20.000
59.72778 18.000
59.74772 24.000
59.76767 17.000
59.78762 18.000
59.80756 22.000
59.82751 22.000
59.84746 11.000
59.86740 21.000
59.88735 21.000
59.90730 21.000
59.92725 18.000
59.94719 11.000
59.96714 18.000
59.98709 15.000
60.00703 18.000
60.02698 18.000
60.04693 10.000
60.06687 19.000
60.08682 21.000
60.10677 15.000
60.12671 16.000
60.14666 17.000
60.16661 15.000
60.18656 21.000
60.20650 15.000
60.22645 23.000
60.24640 16.000
60.26634 24.000
60.28629 29.000
60.30624 17.000
60.32618 14.000
60.34613 10.000
60.36608 31.000
60.38603 19.000
60.40597 23.000
60.42592 25.000
60.44587 23.000
60.46581 15.000
60.48576 21.000
60.50571 22.000
60.52565 12.000
60.54560 23.000
60.56555 27.000
60.58550 33.000
60.60544 19.000
60.62539 22.000
60.64534 20.000
60.66528 36.000
60.68523 21.000
60.70518 18.000
60.72512 31.000
60.74507 29.000
60.76502 22.000
60.78496 34.000
60.80491 32.000
60.82486 35.000
60.84481 36.000
60.86475 24.000
60.88470 36.000
60.90465 35.000
60.92459 29.000
60.94454 38.000
60.96449 35.000
60.98443 43.000
61.00438 48.000
61.02433 52.000
61.04428 52.000
61.06422 58.000
61.08417 69.000
61.10412 64.000
61.12406 83.000
61.14401 123.000
61.16396 128.000
61.18390 140.000
61.20385 170.000
61.22380 224.000
61.24374 240.000
61.26369 252.000
61.28364 295.000
61.30359 335.000
61.32353 335.000
61.34348 356.000
61.36343 370.000
61.38337 376.000
61.40332 348.000
61.42327 385.000
61.44321 351.000
61.46316 373.000
61.48311 336.000
61.50306 247.000
61.52300 291.000
61.54295 273.000
61.56290 266.000
61.58284 237.000
61.60279 223.000
61.62274 238.000
61.64268 201.000
61.66263 183.000
61.68258 171.000
61.70252 180.000
61.72247 145.000
61.74242 130.000
61.76237 110.000
61.78231 107.000
61.80226 105.000
61.82221 92.000
61.84215 74.000
61.86210 95.000
61.88205 67.000
61.90199 52.000
61.92194 57.000
61.94189 52.000
61.96184 47.000
61.98178 28.000
62.00173 49.000
62.02168 47.000
62.04162 37.000
62.06157 28.000
62.08152 28.000
62.10146 39.000
62.12141 32.000
62.14136 31.000
62.16131 29.000
62.18125 15.000
62.20120 21.000
62.22115 25.000
62.24109 33.000
62.26104 27.000
62.28099 28.000
62.30093 20.000
62.32088 19.000
62.34083 26.000
62.36077 47.000
62.38072 30.000
62.40067 29.000
62.42062 27.000
62.44056 31.000
62.46051 41.000
62.48046 43.000
62.50040 38.000
62.52035 37.000
62.54030 36.000
62.56024 27.000
62.58019 33.000
62.60014 29.000
62.62009 28.000
62.64003 32.000
62.65998 31.000
62.67993 31.000
62.69987 23.000
62.71982 38.000
62.73977 27.000
62.75971 34.000
62.77966 27.000
62.79961 33.000
62.81955 23.000
62.83950 31.000
62.85945 18.000
62.87940 15.000
62.89934 21.000
62.91929 12.000
62.93924 18.000
62.95918 24.000
62.97913 17.000
62.99908 26.000
63.01902 20.000
63.03897 16.000
63.05892 20.000
63.07887 30.000
63.09881 16.000
63.11876 19.000
63.13871 22.000
63.15865 23.000
63.17860 17.000
63.19855 17.000
63.21849 19.000
63.23844 20.000
63.25839 24.000
63.27833 21.000
63.29828 24.000
63.31823 24.000
63.33818 30.000
63.35812 28.000
63.37807 24.000
63.39802 19.000
63.41796 28.000
63.43791 27.000
63.45786 17.000
63.47780 32.000
63.49775 32.000
63.51770 33.000
63.53765 41.000
63.55759 39.000
63.57754 35.000
63.59749 57.000
63.61743 73.000
63.63738 74.000
63.65733 88.000
63.67727 139.000
63.69722 150.000
63.71717 214.000
63.73712 241.000
63.75706 297.000
63.77701 316.000
63.79696 299.000
63.81690 266.000
63.83685 243.000
63.85680 227.000
63.87674 210.000
63.89669 222.000
63.91664 177.000
63.93658 185.000
63.95653 183.000
63.97648 162.000
63.99643 166.000
64.01637 126.000
64.03632 131.000
64.05627 99.000
64.07621 75.000
64.09616 72.000
64.11611 60.000
64.13605 59.000
64.15600 52.000
64.17595 44.000
64.19590 41.000
64.21584 52.000
64.23579 48.000
64.25574 45.000
64.27568 34.000
64.29563 33.000
64.31558 45.000
64.33552 25.000
64.35547 29.000
64.37542 37.000
64.39536 25.000
64.41531 25.000
64.43526 19.000
64.45521 22.000
64.47515 24.000
64.49510 16.000
64.51505 26.000
64.53499 29.000
64.55494 29.000
64.57489 22.000
64.59483 13.000
64.61478 32.000
64.63473 22.000
64.65468 17.000
64.67462 26.000
64.69457 22.000
64.71452 33.000
64.73446 26.000
64.75441 29.000
64.77436 26.000
64.79430 23.000
64.81425 21.000
64.83420 29.000
64.85414 31.000
64.87409 38.000
64.89404 21.000
64.91399 24.000
64.93393 12.000
64.95388 19.000
64.97383 19.000
64.99377 24.000
65.01372 20.000
65.03367 17.000
65.05361 19.000
65.07356 16.000
65.09351 6.000
65.11346 18.000
65.13340 19.000
65.15335 20.000
65.17330 9.000
65.19324 17.000
65.21319 16.000
65.23314 17.000
65.25308 9.000
65.27303 20.000
65.29298 10.000
65.31293 14.000
65.33287 15.000
65.35282 13.000
65.37277 18.000
65.39271 15.000
65.41266 24.000
65.43261 12.000
65.45255 19.000
65.47250 13.000
65.49245 16.000
65.51239 19.000
65.53234 14.000
65.55229 21.000
65.57224 16.000
65.59218 13.000
65.61213 18.000
65.63208 20.000
65.65202 22.000
65.67197 22.000
65.69192 20.000
65.71186 15.000
65.73181 35.000
65.75176 26.000
65.77171 29.000
65.79165 25.000
65.81160 24.000
65.83155 26.000
65.85149 26.000
65.87144 34.000
65.89139 38.000
65.91133 46.000
65.93128 49.000
65.95123 64.000
65.97117 78.000
65.99112 95.000
66.01107 115.000
66.03102 122.000
66.05096 166.000
66.07091 195.000
66.09086 212.000
66.11080 233.000
66.13075 246.000
66.15070 243.000
66.17064 205.000
66.19059 182.000
66.21054 194.000
66.23049 171.000
66.25043 151.000
66.27038 161.000
66.29033 141.000
66.31027 140.000
66.33022 143.000
66.35017 112.000
66.37011 125.000
66.39006 98.000
66.41001 68.000
66.42995 50.000
66.44990 50.000
66.46985 37.000
66.48980 36.000
66.50974 29.000
66.52969 26.000
66.54964 19.000
66.56958 22.000
66.58953 18.000
66.60948 22.000
66.62942 19.000
66.64937 21.000
66.66932 8.000
66.68927 19.000
66.70921 14.000
66.72916 19.000
66.74911 8.000
66.76905 21.000
66.78900 22.000
66.80895 16.000
66.82889 13.000
66.84884 13.000
66.86879 17.000
66.88874 18.000
66.90868 13.000
66.92863 7.000
66.94858 8.000
66.96852 16.000
66.98847 17.000
67.00842 20.000
67.02836 12.000
67.04831 14.000
67.06826 23.000
67.08820 18.000
67.10815 12.000
67.12810 7.000
67.14805 16.000
67.16799 15.000
67.18794 22.000
67.20789 13.000
67.22783 10.000
67.24778 18.000
67.26773 10.000
67.28767 11.000
67.30762 13.000
67.32757 11.000
67.34752 17.000
67.36746 12.000
67.38741 10.000
67.40736 11.000
67.42730 14.000
67.44725 20.000
67.46720 14.000
67.48714 10.000
67.50709 19.000
67.52704 8.000
67.54698 6.000
67.56693 13.000
67.58688 11.000
67.60683 21.000
67.62677 14.000
67.64672 13.000
67.66667 15.000
67.68661 10.000
67.70656 16.000
67.72651 13.000
67.74645 12.000
67.76640 14.000
67.78635 9.000
67.80630 9.000
67.82624 9.000
67.84619 6.000
67.86614 14.000
67.88608 9.000
67.90603 11.000
67.92598 17.000
67.94592 6.000
67.96587 7.000
67.98582 17.000
68.00576 12.000
68.02571 9.000
68.04566 10.000
68.06561 22.000
68.08555 11.000
68.10550 7.000
68.12545 15.000
68.14539 12.000
68.16534 11.000
68.18529 14.000
68.20523 13.000
68.22518 12.000
68.24513 9.000
68.26508 18.000
68.28502 18.000
68.30497 11.000
68.32492 8.000
68.34486 8.000
68.36481 10.000
68.38476 7.000
68.40470 8.000
68.42465 15.000
68.44460 16.000
68.46455 12.000
68.48449 17.000
68.50444 16.000
68.52439 10.000
68.54433 13.000
68.56428 13.000
68.58423 11.000
68.60417 6.000
68.62412 15.000
68.64407 10.000
68.66401 17.000
68.68396 9.000
68.70391 15.000
68.72386 11.000
68.74380 6.000
68.76375 15.000
68.78370 15.000
68.80364 14.000
68.82359 13.000
68.84354 23.000
68.86348 12.000
68.88343 10.000
68.90338 18.000
68.92333 15.000
68.94327 14.000
68.96322 15.000
68.98317 22.000
69.00311 19.000
69.02306 26.000
69.04301 17.000
69.06295 19.000
69.08290 23.000
69.10285 20.000
69.12279 14.000
69.14274 17.000
69.16269 23.000
69.18264 25.000
69.20258 13.000
69.22253 13.000
69.24248 15.000
69.26242 23.000
69.28237 17.000
69.30232 15.000
69.32226 16.000
69.34221 19.000
69.36216 19.000
69.38211 12.000
69.40205 12.000
69.42200 8.000
69.44195 13.000
69.46189 13.000
69.48184 12.000
69.50179 10.000
69.52173 15.000
69.54168 7.000
69.56163 18.000
69.58157 21.000
69.60152 6.000
69.62147 17.000
69.64142 12.000
69.66136 17.000
69.68131 15.000
69.70126 20.000
69.72120 13.000
69.74115 17.000
69.76110 17.000
69.78104 16.000
69.80099 17.000
69.82094 15.000
69.84089 22.000
69.86083 19.000
69.88078 16.000
69.90073 17.000
69.92067 14.000
69.94062 8.000
69.96057 13.000
69.98051 17.000
70.00046 20.000
70.02041 22.000
70.04035 13.000
70.06030 19.000
70.08025 14.000
70.10020 9.000
70.12014 17.000
70.14009 9.000
70.16004 5.000
70.17998 12.000
70.19993 13.000
70.21988 16.000
70.23982 15.000
70.25977 20.000
70.27972 10.000
70.29967 14.000
70.31961 12.000
70.33956 16.000
70.35951 18.000
70.37945 10.000
70.39940 7.000
70.41935 9.000
70.43929 8.000
70.45924 12.000
70.47919 11.000
70.49914 9.000
70.51908 14.000
70.53903 15.000
70.55898 16.000
70.57892 5.000
70.59887 12.000
70.61882 12.000
70.63876 10.000
70.65871 8.000
70.67866 9.000
70.69860 14.000
70.71855 10.000
70.73850 17.000
70.75845 10.000
70.77839 11.000
70.79834 8.000
70.81829 9.000
70.83823 18.000
70.85818 14.000
70.87813 8.000
70.89807 3.000
70.91802 16.000
70.93797 15.000
70.95792 10.000
70.97786 18.000
70.99781 11.000
71.01776 10.000
71.03770 9.000
71.05765 9.000
71.07760 14.000
71.09754 7.000
71.11749 9.000
71.13744 16.000
71.15738 16.000
71.17733 9.000
71.19728 14.000
71.21723 10.000
71.23717 19.000
71.25712 9.000
71.27707 13.000
71.29701 8.000
71.31696 7.000
71.33691 13.000
71.35685 12.000
71.37680 12.000
71.39675 10.000
71.41670 12.000
71.43664 8.000
71.45659 12.000
71.47654 12.000
71.49648 8.000
71.51643 5.000
71.53638 18.000
71.55632 11.000
71.57627 15.000
71.59622 13.000
71.61616 15.000
71.63611 9.000
71.65606 7.000
71.67601 9.000
71.69595 10.000
71.71590 8.000
71.73585 9.000
71.75579 13.000
71.77574 15.000
71.79569 13.000
71.81563 16.000
71.83558 11.000
71.85553 10.000
71.87548 9.000
71.89542 14.000
71.91537 14.000
71.93532 11.000
71.95526 21.000
71.97521 20.000
71.99516 15.000
72.01510 18.000
72.03505 18.000
72.05500 20.000
72.07495 13.000
72.09489 19.000
72.11484 18.000
72.13479 18.000
72.15473 15.000
72.17468 18.000
72.19463 18.000
72.21457 18.000
72.23452 22.000
72.25447 31.000
72.27441 28.000
72.29436 32.000
72.31431 36.000
72.33426 28.000
72.35420 22.000
72.37415 28.000
72.39410 24.000
72.41404 31.000
72.43399 26.000
72.45394 32.000
72.47388 30.000
72.49383 42.000
72.51378 37.000
72.53373 36.000
72.55367 49.000
72.57362 36.000
72.59357 46.000
72.61351 62.000
72.63346 48.000
72.65341 49.000
72.67335 59.000
72.69330 49.000
72.71325 63.000
72.73319 47.000
72.75314 41.000
72.77309 63.000
72.79304 57.000
72.81298 78.000
72.83293 71.000
72.85288 73.000
72.87282 100.000
72.89277 90.000
72.91272 93.000
72.93266 86.000
72.95261 125.000
72.97256 127.000
72.99251 90.000
73.01245 97.000
73.03240 83.000
73.05235 84.000
73.07229 64.000
73.09224 66.000
73.11219 52.000
73.13213 67.000
73.15208 66.000
73.17203 60.000
73.19197 53.000
73.21192 49.000
73.23187 52.000
73.25182 37.000
73.27176 38.000
73.29171 46.000
73.31166 24.000
73.33160 25.000
73.35155 32.000
73.37150 20.000
73.39144 23.000
73.41139 17.000
73.43134 18.000
73.45129 15.000
73.47123 22.000
73.49118 23.000
73.51113 18.000
73.53107 20.000
73.55102 22.000
73.57097 26.000
73.59091 19.000
73.61086 22.000
73.63081 28.000
73.65076 33.000
73.67070 28.000
73.69065 28.000
73.71060 30.000
73.73054 32.000
73.75049 34.000
73.77044 18.000
73.79038 34.000
73.81033 18.000
73.83028 28.000
73.85022 21.000
73.87017 30.000
73.89012 27.000
73.91007 21.000
73.93001 23.000
73.94996 27.000
73.96991 26.000
73.98985 24.000
74.00980 17.000
74.02975 22.000
74.04969 19.000
74.06964 17.000
74.08959 17.000
74.10954 15.000
74.12948 23.000
74.14943 15.000
74.16938 18.000
74.18932 15.000
74.20927 17.000
74.22922 11.000
74.24916 18.000
74.26911 12.000
74.28906 12.000
74.30900 19.000
74.32895 12.000
74.34890 23.000
74.36885 15.000
74.38879 12.000
74.40874 17.000
74.42869 14.000
74.44863 19.000
74.46858 8.000
74.48853 8.000
74.50847 16.000
74.52842 12.000
74.54837 9.000
74.56832 10.000
74.58826 20.000
74.60821 9.000
74.62816 11.000
74.64810 7.000
74.66805 8.000
74.68800 11.000
74.70794 11.000
74.72789 5.000
74.74784 20.000
74.76778 7.000
74.78773 12.000
74.80768 12.000
74.82763 11.000
74.84757 15.000
74.86752 14.000
74.88747 19.000
74.90741 11.000
74.92736 11.000
74.94731 13.000
74.96725 19.000
74.98720 23.000
75.00715 22.000
75.02710 21.000
75.04704 29.000
75.06699 28.000
75.08694 34.000
75.10688 45.000
75.12683 55.000
75.14678 43.000
75.16672 44.000
75.18667 33.000
75.20662 36.000
75.22657 39.000
75.24651 45.000
75.26646 38.000
75.28641 27.000
75.30635 39.000
75.32630 44.000
75.34625 31.000
75.36619 28.000
75.38614 37.000
75.40609 33.000
75.42603 30.000
75.44598 28.000
75.46593 22.000
75.48588 18.000
75.50582 22.000
75.52577 19.000
75.54572 25.000
75.56566 24.000
75.58561 17.000
75.60556 18.000
75.62550 16.000
75.64545 20.000
75.66540 16.000
75.68535 14.000
75.70529 18.000
75.72524 18.000
75.74519 20.000
75.76513 9.000
75.78508 20.000
75.80503 15.000
75.82497 21.000
75.84492 19.000
75.86487 19.000
75.88481 15.000
75.90476 17.000
75.92471 10.000
75.94466 9.000
75.96460 12.000
75.98455 13.000
76.00450 8.000
76.02444 15.000
76.04439 6.000
76.06434 14.000
76.08428 15.000
76.10423 15.000
76.12418 13.000
76.14413 11.000
76.16407 13.000
76.18402 9.000
76.20397 7.000
76.22391 7.000
76.24386 19.000
76.26381 10.000
76.28375 10.000
76.30370 11.000
76.32365 18.000
76.34359 10.000
76.36354 14.000
76.38349 13.000
76.40344 17.000
76.42338 12.000
76.44333 13.000
76.46328 8.000
76.48322 8.000
76.50317 24.000
76.52312 9.000
76.54306 10.000
76.56301 13.000
76.58296 8.000
76.60291 14.000
76.62285 12.000
76.64280 13.000
76.66275 11.000
76.68269 17.000
76.70264 11.000
76.72259 14.000
76.74253 13.000
76.76248 22.000
76.78243 19.000
76.80238 19.000
76.82232 16.000
76.84227 23.000
76.86222 20.000
76.88216 23.000
76.90211 18.000
76.92206 18.000
76.94200 27.000
76.96195 24.000
76.98190 26.000
77.00184 31.000
77.02179 36.000
77.04174 35.000
77.06169 28.000
77.08163 36.000
77.10158 35.000
77.12153 37.000
77.14147 53.000
77.16142 45.000
77.18137 54.000
77.20131 69.000
77.22126 74.000
77.24121 87.000
77.26116 117.000
77.28110 120.000
77.30105 156.000
77.32100 157.000
77.34094 172.000
77.36089 152.000
77.38084 156.000
77.40078 134.000
77.42073 146.000
77.44068 120.000
77.46062 117.000
77.48057 118.000
77.50052 102.000
77.52047 104.000
77.54041 105.000
77.56036 107.000
77.58031 103.000
77.60025 92.000
77.62020 82.000
77.64015 88.000
77.66009 69.000
77.68004 61.000
77.69999 56.000
77.71994 48.000
77.73988 40.000
77.75983 26.000
77.77978 31.000
77.79972 38.000
77.81967 32.000
77.83962 26.000
77.85956 30.000
77.87951 27.000
77.89946 19.000
77.91940 23.000
77.93935 19.000
77.95930 15.000
77.97925 25.000
77.99919 16.000
78.01914 13.000
78.03909 22.000
78.05903 22.000
78.07898 22.000
78.09893 21.000
78.11887 12.000
78.13882 11.000
78.15877 19.000
78.17872 15.000
78.19866 16.000
78.21861 14.000
78.23856 13.000
78.25850 16.000
78.27845 16.000
78.29840 13.000
78.31834 12.000
78.33829 19.000
78.35824 8.000
78.37819 14.000
78.39813 8.000
78.41808 11.000
78.43803 18.000
78.45797 10.000
78.47792 14.000
78.49787 9.000
78.51781 13.000
78.53776 10.000
78.55771 10.000
78.57765 13.000
78.59760 10.000
78.61755 12.000
78.63750 7.000
78.65744 16.000
78.67739 14.000
78.69734 13.000
78.71728 12.000
78.73723 12.000
78.75718 8.000
78.77712 9.000
78.79707 9.000
78.81702 12.000
78.83697 16.000
78.85691 13.000
78.87686 14.000
78.89681 17.000
78.91675 11.000
78.93670 5.000
78.95665 7.000
78.97659 15.000
78.99654 15.000
79.01649 10.000
79.03643 13.000
79.05638 18.000
79.07633 11.000
79.09628 14.000
79.11622 12.000
79.13617 9.000
79.15612 10.000
79.17606 10.000
79.19601 10.000
79.21596 9.000
79.23590 14.000
79.25585 6.000
79.27580 14.000
79.29575 13.000
79.31569 12.000
79.33564 7.000
79.35559 12.000
79.37553 14.000
79.39548 6.000
79.41543 9.000
79.43537 8.000
79.45532 16.000
79.47527 14.000
79.49521 14.000
79.51516 10.000
79.53511 9.000
79.55506 8.000
79.57500 9.000
79.59495 11.000
79.61490 8.000
79.63484 10.000
79.65479 6.000
79.67474 13.000
79.69468 11.000
79.71463 15.000
79.73458 12.000
79.75453 12.000
79.77447 12.000
79.79442 9.000
79.81437 9.000
79.83431 14.000
79.85426 11.000
79.87421 15.000
79.89415 19.000
79.91410 21.000
79.93405 19.000
79.95399 19.000
79.97394 20.000
79.99389 18.000
80.01384 28.000
80.03378 30.000
80.05373 27.000
80.07368 27.000
80.09362 29.000
80.11357 25.000
80.13352 21.000
80.15346 18.000
80.17341 30.000
80.19336 25.000
80.21331 19.000
80.23325 27.000
80.25320 15.000
80.27315 26.000
80.29309 21.000
80.31304 18.000
80.33299 18.000
80.35293 23.000
80.37288 16.000
80.39283 24.000
80.41278 21.000
80.43272 16.000
80.45267 22.000
80.47262 15.000
80.49256 18.000
80.51251 18.000
80.53246 15.000
80.55240 19.000
80.57235 19.000
80.59230 16.000
80.61224 17.000
80.63219 18.000
80.65214 23.000
80.67209 13.000
80.69203 7.000
80.71198 15.000
80.73193 14.000
80.75187 20.000
80.77182 10.000
80.79177 17.000
80.81171 10.000
80.83166 9.000
80.85161 11.000
80.87156 8.000
80.89150 13.000
80.91145 17.000
80.93140 10.000
80.95134 9.000
80.97129 8.000
80.99124 10.000
81.01118 4.000
81.03113 14.000
81.05108 9.000
81.07102 17.000
81.09097 6.000
81.11092 11.000
81.13087 6.000
81.15081 6.000
81.17076 9.000
81.19071 9.000
81.21065 6.000
81.23060 5.000
81.25055 12.000
81.27049 16.000
81.29044 7.000
81.31039 11.000
81.33034 10.000
81.35028 11.000
81.37023 9.000
81.39018 8.000
81.41012 8.000
81.43007 13.000
81.45002 14.000
81.46996 9.000
81.48991 7.000
81.50986 12.000
81.52980 9.000
81.54975 10.000
81.56970 9.000
81.58965 10.000
81.60959 7.000
81.62954 9.000
81.64949 1.000
81.66943 10.000
81.68938 10.000
81.70933 11.000
81.72927 9.000
81.74922 12.000
81.76917 9.000
81.78912 15.000
81.80906 13.000
81.82901 13.000
81.84896 5.000
81.86890 8.000
81.88885 4.000
81.90880 9.000
81.92874 9.000
81.94869 7.000
81.96864 9.000
81.98859 6.000
82.00853 7.000
82.02848 14.000
82.04843 11.000
82.06837 13.000
82.08832 16.000
82.10827 13.000
82.12821 11.000
82.14816 9.000
82.16811 8.000
82.18805 10.000
82.20800 8.000
82.22795 8.000
82.24790 11.000
82.26784 13.000
82.28779 13.000
82.30774 17.000
82.32768 12.000
82.34763 11.000
82.36758 7.000
82.38752 10.000
82.40747 15.000
82.42742 10.000
82.44737 10.000
82.46731 8.000
82.48726 9.000
82.50721 11.000
82.52715 8.000
82.54710 6.000
82.56705 15.000
82.58699 11.000
82.60694 10.000
82.62689 7.000
82.64683 7.000
82.66678 12.000
82.68673 11.000
82.70668 10.000
82.72662 14.000
82.74657 12.000
82.76652 7.000
82.78646 11.000
82.80641 15.000
82.82636 8.000
82.84630 13.000
82.86625 16.000
82.88620 11.000
82.90615 18.000
82.92609 16.000
82.94604 18.000
82.96599 12.000
82.98593 11.000
83.00588 12.000
83.02583 26.000
83.04577 12.000
83.06572 13.000
83.08567 13.000
83.10561 16.000
83.12556 16.000
83.14551 20.000
83.16546 20.000
83.18540 5.000
83.20535 18.000
83.22530 19.000
83.24524 14.000
83.26519 24.000
83.28514 15.000
83.30508 16.000
83.32503 14.000
83.34498 13.000
83.36493 19.000
83.38487 24.000
83.40482 12.000
83.42477 14.000
83.44471 14.000
83.46466 21.000
83.48461 17.000
83.50455 29.000
83.52450 19.000
83.54445 20.000
83.56440 20.000
83.58434 21.000
83.60429 26.000
83.62424 33.000
83.64418 41.000
83.66413 48.000
83.68408 55.000
83.70402 57.000
83.72397 57.000
83.74392 74.000
83.76386 71.000
83.78381 82.000
83.80376 101.000
83.82371 88.000
83.84365 99.000
83.86360 97.000
83.88355 80.000
83.90349 71.000
83.92344 67.000
83.94339 72.000
83.96333 71.000
83.98328 72.000
84.00323 62.000
84.02318 49.000
84.04312 52.000
84.06307 53.000
84.08302 69.000
84.10296 51.000
84.12291 57.000
84.14286 56.000
84.16280 50.000
84.18275 38.000
84.20270 41.000
84.22264 27.000
84.24259 22.000
84.26254 26.000
84.28249 27.000
84.30243 20.000
84.32238 19.000
84.34233 22.000
84.36227 8.000
84.38222 12.000
84.40217 17.000
84.42211 14.000
84.44206 15.000
84.46201 25.000
84.48196 23.000
84.50190 18.000
84.52185 19.000
84.54180 20.000
84.56174 20.000
84.58169 13.000
84.60164 18.000
84.62158 13.000
84.64153 12.000
84.66148 14.000
84.68142 14.000
84.70137 18.000
84.72132 17.000
84.74127 19.000
84.76121 18.000
84.78116 12.000
84.80111 15.000
84.82105 14.000
84.84100 20.000
84.86095 23.000
84.88089 17.000
84.90084 18.000
84.92079 18.000
84.94074 27.000
84.96068 22.000
84.98063 16.000
85.00058 18.000
85.02052 14.000
85.04047 20.000
85.06042 20.000
85.08036 21.000
85.10031 22.000
85.12026 21.000
85.14021 12.000
85.16015 24.000
85.18010 14.000
85.20005 24.000
85.21999 20.000
85.23994 19.000
85.25989 15.000
85.27983 24.000
85.29978 16.000
85.31973 14.000
85.33967 21.000
85.35962 21.000
85.37957 15.000
85.39952 17.000
85.41946 13.000
85.43941 16.000
85.45936 22.000
85.47930 18.000
85.49925 16.000
85.51920 12.000
85.53914 12.000
85.55909 15.000
85.57904 9.000
85.59899 12.000
85.61893 12.000
85.63888 13.000
85.65883 9.000
85.67877 14.000
85.69872 15.000
85.71867 10.000
85.73861 14.000
85.75856 18.000
85.77851 19.000
85.79845 17.000
85.81840 9.000
85.83835 17.000
85.85830 23.000
85.87824 17.000
85.89819 25.000
85.91814 19.000
85.93808 27.000
85.95803 25.000
85.97798 16.000
85.99792 23.000
86.01787 27.000
86.03782 30.000
86.05777 21.000
86.07771 20.000
86.09766 30.000
86.11761 18.000
86.13755 14.000
86.15750 14.000
86.17745 13.000
86.19739 12.000
86.21734 17.000
86.23729 15.000
86.25723 20.000
86.27718 14.000
86.29713 6.000
86.31708 15.000
86.33702 18.000
86.35697 19.000
86.37692 19.000
86.39686 21.000
86.41681 22.000
86.43676 16.000
86.45670 18.000
86.47665 31.000
86.49660 27.000
86.51655 16.000
86.53649 23.000
86.55644 20.000
86.57639 25.000
86.59633 17.000
86.61628 26.000
86.63623 14.000
86.65617 19.000
86.67612 15.000
86.69607 19.000
86.71602 14.000
86.73596 13.000
86.75591 16.000
86.77586 9.000
86.79580 20.000
86.81575 20.000
86.83570 14.000
86.85564 15.000
86.87559 13.000
86.89554 11.000
86.91548 13.000
86.93543 14.000
86.95538 10.000
86.97533 11.000
86.99527 17.000
87.01522 25.000
87.03517 10.000
87.05511 14.000
87.07506 9.000
87.09501 22.000
87.11495 23.000
87.13490 16.000
87.15485 16.000
87.17480 18.000
87.19474 13.000
87.21469 12.000
87.23464 12.000
87.25458 18.000
87.27453 11.000
87.29448 12.000
87.31442 15.000
87.33437 15.000
87.35432 13.000
87.37426 20.000
87.39421 15.000
87.41416 18.000
87.43411 21.000
87.45405 23.000
87.47400 17.000
87.49395 23.000
87.51389 24.000
87.53384 27.000
87.55379 29.000
87.57373 29.000
87.59368 28.000
87.61363 30.000
87.63358 29.000
87.65352 25.000
87.67347 23.000
87.69342 37.000
87.71336 27.000
87.73331 30.000
87.75326 34.000
87.77320 35.000
87.79315 41.000
87.81310 30.000
87.83304 32.000
87.85299 33.000
87.87294 35.000
87.89289 49.000
87.91283 35.000
87.93278 46.000
87.95273 31.000
87.97267 40.000
87.99262 29.000
88.01257 30.000
88.03251 36.000
88.05246 29.000
88.07241 35.000
88.09236 30.000
88.11230 34.000
88.13225 35.000
88.15220 41.000
88.17214 31.000
88.19209 30.000
88.21204 27.000
88.23198 32.000
88.25193 23.000
88.27188 22.000
88.29183 30.000
88.31177 18.000
88.33172 29.000
88.35167 30.000
88.37161 22.000
88.39156 16.000
88.41151 19.000
88.43145 19.000
88.45140 18.000
88.47135 18.000
88.49129 14.000
88.51124 20.000
88.53119 19.000
88.55114 14.000
88.57108 24.000
88.59103 19.000
88.61098 13.000
88.63092 11.000
88.65087 13.000
88.67082 12.000
88.69076 13.000
88.71071 14.000
88.73066 19.000
88.75061 22.000
88.77055 6.000
88.79050 14.000
88.81045 11.000
88.83039 11.000
88.85034 11.000
88.87029 13.000
88.89023 9.000
88.91018 14.000
88.93013 5.000
88.95007 10.000
88.97002 17.000
88.98997 17.000
89.00992 11.000
89.02986 8.000
89.04981 13.000
89.06976 12.000
89.08970 9.000
89.10965 7.000
89.12960 6.000
89.14954 13.000
89.16949 6.000
89.18944 11.000
89.20939 14.000
89.22933 13.000
89.24928 6.000
89.26923 12.000
89.28917 8.000
89.30912 10.000
89.32907 9.000
89.34901 5.000
89.36896 10.000
89.38891 14.000
89.40885 9.000
89.42880 14.000
89.44875 2.000
89.46870 9.000
89.48864 11.000
89.50859 8.000
89.52854 6.000
89.54848 8.000
89.56843 15.000
89.58838 8.000
89.60832 11.000
89.62827 12.000
89.64822 9.000
89.66817 6.000
89.68811 12.000
89.70806 12.000
89.72801 16.000
89.74795 6.000
89.76790 10.000
89.78785 15.000
89.80779 7.000
89.82774 4.000
89.84769 9.000
89.86764 10.000
89.88758 9.000
89.90753 9.000
89.92748 9.000
89.94742 15.000
89.96737 9.000
89.98732 9.000
90.00726 8.000
