10.00000 89.000
10.01995 95.000
10.03989 98.000
10.05984 96.000
10.07979 104.000
10.09973 96.000
10.11968 102.000
10.13963 94.000
10.15958 94.000
10.17952 97.000
10.19947 98.000
10.21942 91.000
10.23936 99.000
10.25931 94.000
10.27926 105.000
10.29920 98.000
10.31915 99.000
10.33910 104.000
10.35905 94.000
10.37899 91.000
10.39894 86.000
10.41889 100.000
10.43883 81.000
10.45878 91.000
10.47873 89.000
10.49867 91.000
10.51862 102.000
10.53857 105.000
10.55851 85.000
10.57846 74.000
10.59841 97.000
10.61836 87.000
10.63830 82.000
10.65825 96.000
10.67820 101.000
10.69814 70.000
10.71809 85.000
10.73804 87.000
10.75798 103.000
10.77793 113.000
10.79788 100.000
10.81783 99.000
10.83777 87.000
10.85772 79.000
10.87767 92.000
10.89761 95.000
10.91756 92.000
10.93751 97.000
10.95745 88.000
10.97740 84.000
10.99735 81.000
11.01730 91.000
11.03724 92.000
11.05719 95.000
11.07714 91.000
11.09708 99.000
11.11703 83.000
11.13698 92.000
11.15692 123.000
11.17687 100.000
11.19682 113.000
11.21676 97.000
11.23671 101.000
11.25666 100.000
11.27661 111.000
11.29655 108.000
11.31650 85.000
11.33645 99.000
11.35639 89.000
11.37634 112.000
11.39629 104.000
11.41623 101.000
11.43618 96.000
11.45613 114.000
11.47608 107.000
11.49602 101.000
11.51597 100.000
11.53592 105.000
11.55586 129.000
11.57581 100.000
11.59576 91.000
11.61570 95.000
11.63565 88.000
11.65560 80.000
11.67554 96.000
11.69549 101.000
11.71544 85.000
11.73539 100.000
11.75533 115.000
11.77528 81.000
11.79523 108.000
11.81517 104.000
11.83512 98.000
11.85507 99.000
11.87501 106.000
11.89496 108.000
11.91491 103.000
11.93486 88.000
11.95480 91.000
11.97475 106.000
11.99470 115.000
12.01464 101.000
12.03459 101.000
12.05454 114.000
12.07448 102.000
12.09443 94.000
12.11438 86.000
12.13432 104.000
12.15427 87.000
12.17422 96.000
12.19417 96.000
12.21411 93.000
12.23406 112.000
12.25401 112.000
12.27395 112.000
12.29390 88.000
12.31385 123.000
12.33379 129.000
12.35374 98.000
12.37369 109.000
12.39364 117.000
12.41358 106.000
12.43353 93.000
12.45348 104.000
12.47342 119.000
12.49337 108.000
12.51332 102.000
12.53326 121.000
12.55321 108.000
12.57316 111.000
12.59311 103.000
12.61305 115.000
12.63300 93.000
12.65295 104.000
12.67289 114.000
12.69284 105.000
12.71279 105.000
12.73273 123.000
12.75268 101.000
12.77263 123.000
12.79257 101.000
12.81252 102.000
12.83247 106.000
12.85242 108.000
12.87236 101.000
12.89231 98.000
12.91226 111.000
12.93220 97.000
12.95215 113.000
12.97210 94.000
12.99204 145.000
13.01199 121.000
13.03194 107.000
13.05189 117.000
13.07183 109.000
13.09178 132.000
13.11173 106.000
13.13167 106.000
13.15162 120.000
13.17157 118.000
13.19151 104.000
13.21146 127.000
13.23141 102.000
13.25135 138.000
13.27130 97.000
13.29125 105.000
13.31120 110.000
13.33114 122.000
13.35109 109.000
13.37104 101.000
13.39098 113.000
13.41093 111.000
13.43088 110.000
13.45082 144.000
13.47077 120.000
13.49072 126.000
13.51067 94.000
13.53061 122.000
13.55056 123.000
13.57051 135.000
13.59045 123.000
13.61040 118.000
13.63035 113.000
13.65029 104.000
13.67024 110.000
13.69019 118.000
13.71013 103.000
13.73008 123.000
13.75003 129.000
13.76998 133.000
13.78992 122.000
13.80987 134.000
13.82982 117.000
13.84976 94.000
13.86971 114.000
13.88966 132.000
13.90960 106.000
13.92955 139.000
13.94950 110.000
13.96945 115.000
13.98939 106.000
14.00934 130.000
14.02929 123.000
14.04923 137.000
14.06918 118.000
14.08913 107.000
14.10907 119.000
14.12902 114.000
14.14897 128.000
14.16892 132.000
14.18886 124.000
14.20881 129.000
14.22876 117.000
14.24870 120.000
14.26865 113.000
14.28860 125.000
14.30854 124.000
14.32849 141.000
14.34844 135.000
14.36838 127.000
14.38833 113.000
14.40828 120.000
14.42823 136.000
14.44817 135.000
14.46812 127.000
14.48807 133.000
14.50801 119.000
14.52796 126.000
14.54791 136.000
14.56785 142.000
14.58780 145.000
14.60775 124.000
14.62770 140.000
14.64764 128.000
14.66759 127.000
14.68754 130.000
14.70748 143.000
14.72743 139.000
14.74738 150.000
14.76732 150.000
14.78727 132.000
14.80722 138.000
14.82716 115.000
14.84711 140.000
14.86706 150.000
14.88701 144.000
14.90695 113.000
14.92690 134.000
14.94685 126.000
14.96679 141.000
14.98674 166.000
15.00669 158.000
15.02663 135.000
15.04658 131.000
15.06653 154.000
15.08648 138.000
15.10642 128.000
15.12637 119.000
15.14632 124.000
15.16626 146.000
15.18621 144.000
15.20616 149.000
15.22610 153.000
15.24605 134.000
15.26600 148.000
15.28594 151.000
15.30589 157.000
15.32584 170.000
15.34579 154.000
15.36573 129.000
15.38568 163.000
15.40563 167.000
15.42557 143.000
15.44552 157.000
15.46547 145.000
15.48541 160.000
15.50536 162.000
15.52531 143.000
15.54526 190.000
15.56520 152.000
15.58515 142.000
15.60510 131.000
15.62504 168.000
15.64499 134.000
15.66494 143.000
15.68488 138.000
15.70483 118.000
15.72478 174.000
15.74472 142.000
15.76467 144.000
15.78462 148.000
15.80457 159.000
15.82451 149.000
15.84446 167.000
15.86441 181.000
15.88435 149.000
15.90430 161.000
15.92425 186.000
15.94419 158.000
15.96414 162.000
15.98409 165.000
16.00404 143.000
16.02398 173.000
16.04393 152.000
16.06388 178.000
16.08382 162.000
16.10377 173.000
16.12372 157.000
16.14366 169.000
16.16361 171.000
16.18356 169.000
16.20351 167.000
16.22345 161.000
16.24340 157.000
16.26335 175.000
16.28329 181.000
16.30324 176.000
16.32319 167.000
16.34313 180.000
16.36308 160.000
16.38303 195.000
16.40297 165.000
16.42292 149.000
16.44287 173.000
16.46282 153.000
16.48276 178.000
16.50271 164.000
16.52266 176.000
16.54260 150.000
16.56255 185.000
16.58250 188.000
16.60244 168.000
16.62239 189.000
16.64234 174.000
16.66229 180.000
16.68223 161.000
16.70218 182.000
16.72213 170.000
16.74207 195.000
16.76202 198.000
16.78197 199.000
16.80191 180.000
16.82186 189.000
16.84181 154.000
16.86175 173.000
16.88170 184.000
16.90165 167.000
16.92160 201.000
16.94154 193.000
16.96149 181.000
16.98144 188.000
17.00138 204.000
17.02133 177.000
17.04128 188.000
17.06122 192.000
17.08117 192.000
17.10112 210.000
17.12107 158.000
17.14101 189.000
17.16096 182.000
17.18091 187.000
17.20085 199.000
17.22080 192.000
17.24075 166.000
17.26069 183.000
17.28064 177.000
17.30059 201.000
17.32053 208.000
17.34048 216.000
17.36043 178.000
17.38038 162.000
17.40032 189.000
17.42027 208.000
17.44022 210.000
17.46016 207.000
17.48011 175.000
17.50006 198.000
17.52000 202.000
17.53995 210.000
17.55990 180.000
17.57985 218.000
17.59979 191.000
17.61974 187.000
17.63969 208.000
17.65963 215.000
17.67958 207.000
17.69953 209.000
17.71947 207.000
17.73942 211.000
17.75937 218.000
17.77932 211.000
17.79926 233.000
17.81921 218.000
17.83916 194.000
17.85910 204.000
17.87905 233.000
17.89900 215.000
17.91894 246.000
17.93889 247.000
17.95884 208.000
17.97878 235.000
17.99873 244.000
18.01868 253.000
18.03863 260.000
18.05857 244.000
18.07852 235.000
18.09847 242.000
18.11841 265.000
18.13836 227.000
18.15831 211.000
18.17825 221.000
18.19820 211.000
18.21815 259.000
18.23810 242.000
18.25804 216.000
18.27799 229.000
18.29794 245.000
18.31788 227.000
18.33783 230.000
18.35778 218.000
18.37772 253.000
18.39767 228.000
18.41762 233.000
18.43756 221.000
18.45751 232.000
18.47746 210.000
18.49741 238.000
18.51735 217.000
18.53730 231.000
18.55725 236.000
18.57719 239.000
18.59714 228.000
18.61709 210.000
18.63703 249.000
18.65698 220.000
18.67693 251.000
18.69688 239.000
18.71682 229.000
18.73677 260.000
18.75672 222.000
18.77666 212.000
18.79661 243.000
18.81656 226.000
18.83650 213.000
18.85645 270.000
18.87640 253.000
18.89634 248.000
18.91629 239.000
18.93624 217.000
18.95619 234.000
18.97613 226.000
18.99608 214.000
19.01603 244.000
19.03597 251.000
19.05592 255.000
19.07587 229.000
19.09581 218.000
19.11576 247.000
19.13571 261.000
19.15566 250.000
19.17560 259.000
19.19555 236.000
19.21550 251.000
19.23544 247.000
19.25539 237.000
19.27534 233.000
19.29528 253.000
19.31523 266.000
19.33518 264.000
19.35513 242.000
19.37507 232.000
19.39502 245.000
19.41497 248.000
19.43491 269.000
19.45486 261.000
19.47481 273.000
19.49475 275.000
19.51470 254.000
19.53465 262.000
19.55459 268.000
19.57454 274.000
19.59449 232.000
19.61444 264.000
19.63438 257.000
19.65433 224.000
19.67428 261.000
19.69422 281.000
19.71417 227.000
19.73412 268.000
19.75406 265.000
19.77401 273.000
19.79396 251.000
19.81391 265.000
19.83385 265.000
19.85380 280.000
19.87375 273.000
19.89369 264.000
19.91364 266.000
19.93359 255.000
19.95353 290.000
19.97348 293.000
19.99343 261.000
20.01337 258.000
20.03332 305.000
20.05327 259.000
20.07322 292.000
20.09316 261.000
20.11311 258.000
20.13306 288.000
20.15300 303.000
20.17295 294.000
20.19290 300.000
20.21284 358.000
20.23279 312.000
20.25274 328.000
20.27269 335.000
20.29263 335.000
20.31258 316.000
20.33253 368.000
20.35247 376.000
20.37242 363.000
20.39237 363.000
20.41231 389.000
20.43226 407.000
20.45221 445.000
20.47215 420.000
20.49210 438.000
20.51205 457.000
20.53200 482.000
20.55194 444.000
20.57189 498.000
20.59184 443.000
20.61178 479.000
20.63173 495.000
20.65168 523.000
20.67162 437.000
20.69157 490.000
20.71152 519.000
20.73147 492.000
20.75141 518.000
20.77136 405.000
20.79131 426.000
20.81125 394.000
20.83120 400.000
20.85115 353.000
20.87109 362.000
20.89104 329.000
20.91099 325.000
20.93094 291.000
20.95088 294.000
20.97083 296.000
20.99078 300.000
21.01072 284.000
21.03067 279.000
21.05062 272.000
21.07056 279.000
21.09051 281.000
21.11046 266.000
21.13040 278.000
21.15035 304.000
21.17030 283.000
21.19025 305.000
21.21019 286.000
21.23014 267.000
21.25009 285.000
21.27003 304.000
21.28998 264.000
21.30993 285.000
21.32987 268.000
21.34982 298.000
21.36977 285.000
21.38972 281.000
21.40966 267.000
21.42961 291.000
21.44956 302.000
21.46950 267.000
21.48945 308.000
21.50940 277.000
21.52934 296.000
21.54929 294.000
21.56924 283.000
21.58918 296.000
21.60913 291.000
21.62908 284.000
21.64903 259.000
21.66897 314.000
21.68892 302.000
21.70887 311.000
21.72881 292.000
21.74876 328.000
21.76871 290.000
21.78865 293.000
21.80860 278.000
21.82855 300.000
21.84850 272.000
21.86844 301.000
21.88839 298.000
21.90834 285.000
21.92828 336.000
21.94823 274.000
21.96818 315.000
21.98812 314.000
22.00807 275.000
22.02802 290.000
22.04796 315.000
22.06791 308.000
22.08786 305.000
22.10781 295.000
22.12775 295.000
22.14770 277.000
22.16765 291.000
22.18759 315.000
22.20754 267.000
22.22749 299.000
22.24743 332.000
22.26738 317.000
22.28733 318.000
22.30728 331.000
22.32722 325.000
22.34717 300.000
22.36712 298.000
22.38706 321.000
22.40701 305.000
22.42696 323.000
22.44690 295.000
22.46685 312.000
22.48680 321.000
22.50675 299.000
22.52669 317.000
22.54664 309.000
22.56659 305.000
22.58653 308.000
22.60648 338.000
22.62643 317.000
22.64637 314.000
22.66632 312.000
22.68627 338.000
22.70621 336.000
22.72616 335.000
22.74611 333.000
22.76606 331.000
22.78600 298.000
22.80595 316.000
22.82590 313.000
22.84584 310.000
22.86579 301.000
22.88574 308.000
22.90568 336.000
22.92563 317.000
22.94558 307.000
22.96553 315.000
22.98547 309.000
23.00542 317.000
23.02537 313.000
23.04531 339.000
23.06526 324.000
23.08521 309.000
23.10515 342.000
23.12510 324.000
23.14505 329.000
23.16499 300.000
23.18494 319.000
23.20489 332.000
23.22484 328.000
23.24478 309.000
23.26473 313.000
23.28468 321.000
23.30462 270.000
23.32457 305.000
23.34452 323.000
23.36446 317.000
23.38441 314.000
23.40436 292.000
23.42431 317.000
23.44425 334.000
23.46420 290.000
23.48415 327.000
23.50409 295.000
23.52404 307.000
23.54399 322.000
23.56393 334.000
23.58388 349.000
23.60383 350.000
23.62377 317.000
23.64372 347.000
23.66367 351.000
23.68362 304.000
23.70356 328.000
23.72351 333.000
23.74346 355.000
23.76340 362.000
23.78335 346.000
23.80330 333.000
23.82324 337.000
23.84319 340.000
23.86314 321.000
23.88309 341.000
23.90303 339.000
23.92298 361.000
23.94293 331.000
23.96287 365.000
23.98282 329.000
24.00277 345.000
24.02271 363.000
24.04266 384.000
24.06261 295.000
24.08256 325.000
24.10250 351.000
24.12245 346.000
24.14240 318.000
24.16234 318.000
24.18229 343.000
24.20224 346.000
24.22218 337.000
24.24213 346.000
24.26208 340.000
24.28202 335.000
24.30197 349.000
24.32192 288.000
24.34187 310.000
24.36181 342.000
24.38176 319.000
24.40171 323.000
24.42165 335.000
24.44160 355.000
24.46155 372.000
24.48149 330.000
24.50144 363.000
24.52139 326.000
24.54134 345.000
24.56128 329.000
24.58123 358.000
24.60118 327.000
24.62112 367.000
24.64107 352.000
24.66102 348.000
24.68096 357.000
24.70091 368.000
24.72086 355.000
24.74080 337.000
24.76075 366.000
24.78070 362.000
24.80065 344.000
24.82059 339.000
24.84054 342.000
24.86049 352.000
24.88043 351.000
24.90038 310.000
24.92033 374.000
24.94027 343.000
24.96022 379.000
24.98017 369.000
25.00012 348.000
25.02006 391.000
25.04001 372.000
25.05996 347.000
25.07990 363.000
25.09985 306.000
25.11980 348.000
25.13974 350.000
25.15969 327.000
25.17964 341.000
25.19958 333.000
25.21953 347.000
25.23948 344.000
25.25943 323.000
25.27937 350.000
25.29932 354.000
25.31927 337.000
25.33921 349.000
25.35916 336.000
25.37911 367.000
25.39905 361.000
25.41900 369.000
25.43895 370.000
25.45890 346.000
25.47884 364.000
25.49879 345.000
25.51874 341.000
25.53868 350.000
25.55863 361.000
25.57858 360.000
25.59852 370.000
25.61847 364.000
25.63842 371.000
25.65837 368.000
25.67831 362.000
25.69826 371.000
25.71821 349.000
25.73815 356.000
25.75810 387.000
25.77805 370.000
25.79799 374.000
25.81794 371.000
25.83789 364.000
25.85783 393.000
25.87778 403.000
25.89773 353.000
25.91768 362.000
25.93762 346.000
25.95757 393.000
25.97752 326.000
25.99746 364.000
26.01741 369.000
26.03736 392.000
26.05730 371.000
26.07725 398.000
26.09720 374.000
26.11715 335.000
26.13709 344.000
26.15704 363.000
26.17699 395.000
26.19693 392.000
26.21688 352.000
26.23683 376.000
26.25677 364.000
26.27672 367.000
26.29667 377.000
26.31661 396.000
26.33656 375.000
26.35651 351.000
26.37646 358.000
26.39640 394.000
26.41635 372.000
26.43630 341.000
26.45624 406.000
26.47619 394.000
26.49614 398.000
26.51608 362.000
26.53603 397.000
26.55598 348.000
26.57593 371.000
26.59587 360.000
26.61582 370.000
26.63577 384.000
26.65571 378.000
26.67566 412.000
26.69561 386.000
26.71555 417.000
26.73550 371.000
26.75545 388.000
26.77539 383.000
26.79534 382.000
26.81529 404.000
26.83524 413.000
26.85518 389.000
26.87513 381.000
26.89508 398.000
26.91502 390.000
26.93497 351.000
26.95492 392.000
26.97486 366.000
26.99481 404.000
27.01476 386.000
27.03471 387.000
27.05465 377.000
27.07460 369.000
27.09455 348.000
27.11449 366.000
27.13444 417.000
27.15439 388.000
27.17433 394.000
27.19428 424.000
27.21423 376.000
27.23417 379.000
27.25412 398.000
27.27407 365.000
27.29402 379.000
27.31396 396.000
27.33391 369.000
27.35386 363.000
27.37380 428.000
27.39375 410.000
27.41370 404.000
27.43364 400.000
27.45359 367.000
27.47354 357.000
27.49349 380.000
27.51343 376.000
27.53338 428.000
27.55333 384.000
27.57327 383.000
27.59322 368.000
27.61317 403.000
27.63311 372.000
27.65306 413.000
27.67301 372.000
27.69296 339.000
27.71290 398.000
27.73285 392.000
27.75280 381.000
27.77274 334.000
27.79269 362.000
27.81264 440.000
27.83258 407.000
27.85253 342.000
27.87248 417.000
27.89242 383.000
27.91237 404.000
27.93232 416.000
27.95227 362.000
27.97221 391.000
27.99216 420.000
28.01211 434.000
28.03205 369.000
28.05200 397.000
28.07195 405.000
28.09189 387.000
28.11184 362.000
28.13179 395.000
28.15174 408.000
28.17168 398.000
28.19163 365.000
28.21158 349.000
28.23152 365.000
28.25147 384.000
28.27142 379.000
28.29136 405.000
28.31131 385.000
28.33126 372.000
28.35120 416.000
28.37115 424.000
28.39110 355.000
28.41105 403.000
28.43099 400.000
28.45094 398.000
28.47089 435.000
28.49083 404.000
28.51078 409.000
28.53073 375.000
28.55067 419.000
28.57062 397.000
28.59057 414.000
28.61052 443.000
28.63046 398.000
28.65041 414.000
28.67036 400.000
28.69030 431.000
28.71025 397.000
28.73020 412.000
28.75014 435.000
28.77009 407.000
28.79004 398.000
28.80998 405.000
28.82993 430.000
28.84988 400.000
28.86983 388.000
28.88977 472.000
28.90972 411.000
28.92967 444.000
28.94961 426.000
28.96956 434.000
28.98951 421.000
29.00945 457.000
29.02940 435.000
29.04935 457.000
29.06930 417.000
29.08924 438.000
29.10919 414.000
29.12914 456.000
29.14908 441.000
29.16903 431.000
29.18898 442.000
29.20892 433.000
29.22887 454.000
29.24882 444.000
29.26877 454.000
29.28871 463.000
29.30866 402.000
29.32861 449.000
29.34855 401.000
29.36850 447.000
29.38845 389.000
29.40839 377.000
29.42834 407.000
29.44829 426.000
29.46823 399.000
29.48818 400.000
29.50813 418.000
29.52808 403.000
29.54802 430.000
29.56797 411.000
29.58792 454.000
29.60786 436.000
29.62781 438.000
29.64776 448.000
29.66770 409.000
29.68765 449.000
29.70760 479.000
29.72755 470.000
29.74749 444.000
29.76744 485.000
29.78739 496.000
29.80733 480.000
29.82728 516.000
29.84723 519.000
29.86717 473.000
29.88712 548.000
29.90707 593.000
29.92701 565.000
29.94696 557.000
29.96691 531.000
29.98686 521.000
30.00680 548.000
30.02675 483.000
30.04670 493.000
30.06664 447.000
30.08659 464.000
30.10654 426.000
30.12648 429.000
30.14643 447.000
30.16638 401.000
30.18633 421.000
30.20627 418.000
30.22622 422.000
30.24617 415.000
30.26611 436.000
30.28606 419.000
30.30601 385.000
30.32595 413.000
30.34590 409.000
30.36585 410.000
30.38579 392.000
30.40574 409.000
30.42569 435.000
30.44564 439.000
30.46558 450.000
30.48553 409.000
30.50548 458.000
30.52542 399.000
30.54537 430.000
30.56532 435.000
30.58526 422.000
30.60521 406.000
30.62516 423.000
30.64511 399.000
30.66505 427.000
30.68500 361.000
30.70495 432.000
30.72489 387.000
30.74484 388.000
30.76479 423.000
30.78473 395.000
30.80468 449.000
30.82463 414.000
30.84458 418.000
30.86452 370.000
30.88447 421.000
30.90442 438.000
30.92436 389.000
30.94431 415.000
30.96426 388.000
30.98420 375.000
31.00415 440.000
31.02410 426.000
31.04404 406.000
31.06399 381.000
31.08394 441.000
31.10389 383.000
31.12383 410.000
31.14378 384.000
31.16373 398.000
31.18367 349.000
31.20362 409.000
31.22357 404.000
31.24351 398.000
31.26346 379.000
31.28341 403.000
31.30336 402.000
31.32330 404.000
31.34325 407.000
31.36320 380.000
31.38314 375.000
31.40309 399.000
31.42304 401.000
31.44298 368.000
31.46293 435.000
31.48288 391.000
31.50282 412.000
31.52277 409.000
31.54272 394.000
31.56267 372.000
31.58261 378.000
31.60256 372.000
31.62251 401.000
31.64245 384.000
31.66240 389.000
31.68235 375.000
31.70229 354.000
31.72224 395.000
31.74219 365.000
31.76214 391.000
31.78208 370.000
31.80203 414.000
31.82198 402.000
31.84192 411.000
31.86187 367.000
31.88182 400.000
31.90176 377.000
31.92171 385.000
31.94166 387.000
31.96160 364.000
31.98155 380.000
32.00150 369.000
32.02145 388.000
32.04139 391.000
32.06134 389.000
32.08129 384.000
32.10123 374.000
32.12118 362.000
32.14113 389.000
32.16107 392.000
32.18102 387.000
32.20097 397.000
32.22092 377.000
32.24086 362.000
32.26081 385.000
32.28076 375.000
32.30070 368.000
32.32065 362.000
32.34060 408.000
32.36054 383.000
32.38049 362.000
32.40044 393.000
32.42039 376.000
32.44033 353.000
32.46028 381.000
32.48023 350.000
32.50017 395.000
32.52012 385.000
32.54007 392.000
32.56001 411.000
32.57996 377.000
32.59991 340.000
32.61985 405.000
32.63980 389.000
32.65975 348.000
32.67970 385.000
32.69964 395.000
32.71959 361.000
32.73954 358.000
32.75948 402.000
32.77943 342.000
32.79938 392.000
32.81932 356.000
32.83927 375.000
32.85922 368.000
32.87917 365.000
32.89911 368.000
32.91906 393.000
32.93901 425.000
32.95895 388.000
32.97890 368.000
32.99885 369.000
33.01879 425.000
33.03874 397.000
33.05869 396.000
33.07863 375.000
33.09858 389.000
33.11853 386.000
33.13848 374.000
33.15842 368.000
33.17837 369.000
33.19832 391.000
33.21826 398.000
33.23821 380.000
33.25816 376.000
33.27810 368.000
33.29805 357.000
33.31800 384.000
33.33795 383.000
33.35789 344.000
33.37784 380.000
33.39779 433.000
33.41773 352.000
33.43768 391.000
33.45763 386.000
33.47757 362.000
33.49752 401.000
33.51747 361.000
33.53741 360.000
33.55736 385.000
33.57731 409.000
33.59726 371.000
33.61720 401.000
33.63715 416.000
33.65710 433.000
33.67704 407.000
33.69699 431.000
33.71694 480.000
33.73688 463.000
33.75683 451.000
33.77678 476.000
33.79673 474.000
33.81667 465.000
33.83662 446.000
33.85657 515.000
33.87651 533.000
33.89646 513.000
33.91641 513.000
33.93635 525.000
33.95630 515.000
33.97625 546.000
33.99620 538.000
34.01614 504.000
34.03609 548.000
34.05604 512.000
34.07598 567.000
34.09593 545.000
34.11588 554.000
34.13582 593.000
34.15577 559.000
34.17572 554.000
34.19566 593.000
34.21561 615.000
34.23556 654.000
34.25551 648.000
34.27545 635.000
34.29540 623.000
34.31535 647.000
34.33529 662.000
34.35524 678.000
34.37519 673.000
34.39513 655.000
34.41508 636.000
34.43503 567.000
34.45498 553.000
34.47492 542.000
34.49487 579.000
34.51482 487.000
34.53476 489.000
34.55471 459.000
34.57466 418.000
34.59460 451.000
34.61455 441.000
34.63450 415.000
34.65444 428.000
34.67439 382.000
34.69434 394.000
34.71429 393.000
34.73423 372.000
34.75418 412.000
34.77413 377.000
34.79407 355.000
34.81402 348.000
34.83397 398.000
34.85391 363.000
34.87386 371.000
34.89381 360.000
34.91376 396.000
34.93370 392.000
34.95365 409.000
34.97360 449.000
34.99354 432.000
35.01349 436.000
35.03344 433.000
35.05338 452.000
35.07333 439.000
35.09328 481.000
35.11322 477.000
35.13317 521.000
35.15312 507.000
35.17307 580.000
35.19301 582.000
35.21296 610.000
35.23291 655.000
35.25285 681.000
35.27280 756.000
35.29275 777.000
35.31269 855.000
35.33264 806.000
35.35259 815.000
35.37254 834.000
35.39248 750.000
35.41243 758.000
35.43238 673.000
35.45232 678.000
35.47227 589.000
35.49222 555.000
35.51216 422.000
35.53211 468.000
35.55206 420.000
35.57201 387.000
35.59195 382.000
35.61190 404.000
35.63185 358.000
35.65179 374.000
35.67174 366.000
35.69169 353.000
35.71163 358.000
35.73158 378.000
35.75153 356.000
35.77147 328.000
35.79142 336.000
35.81137 356.000
35.83132 333.000
35.85126 359.000
35.87121 398.000
35.89116 360.000
35.91110 397.000
35.93105 369.000
35.95100 387.000
35.97094 352.000
35.99089 401.000
36.01084 373.000
36.03079 386.000
36.05073 393.000
36.07068 355.000
36.09063 374.000
36.11057 365.000
36.13052 375.000
36.15047 393.000
36.17041 396.000
36.19036 380.000
36.21031 396.000
36.23025 366.000
36.25020 410.000
36.27015 420.000
36.29010 458.000
36.31004 464.000
36.32999 460.000
36.34994 453.000
36.36988 501.000
36.38983 577.000
36.40978 588.000
36.42972 590.000
36.44967 618.000
36.46962 684.000
36.48957 719.000
36.50951 798.000
36.52946 843.000
36.54941 985.000
36.56935 1073.000
36.58930 1139.000
36.60925 1265.000
36.62919 1373.000
36.64914 1483.000
36.66909 1570.000
36.68903 1738.000
36.70898 1836.000
36.72893 1991.000
36.74888 2191.000
36.76882 2450.000
36.78877 2435.000
36.80872 2532.000
36.82866 2516.000
36.84861 2443.000
36.86856 2363.000
36.88850 2191.000
36.90845 2006.000
36.92840 1720.000
36.94835 1478.000
36.96829 1252.000
36.98824 1120.000
37.00819 900.000
37.02813 703.000
37.04808 612.000
37.06803 493.000
37.08797 451.000
37.10792 416.000
37.12787 396.000
37.14781 371.000
37.16776 372.000
37.18771 367.000
37.20766 385.000
37.22760 365.000
37.24755 341.000
37.26750 360.000
37.28744 355.000
37.30739 325.000
37.32734 315.000
37.34728 341.000
37.36723 337.000
37.38718 347.000
37.40713 339.000
37.42707 328.000
37.44702 316.000
37.46697 324.000
37.48691 346.000
37.50686 328.000
37.52681 323.000
37.54675 345.000
37.56670 318.000
37.58665 312.000
37.60660 351.000
37.62654 328.000
37.64649 339.000
37.66644 338.000
37.68638 330.000
37.70633 323.000
37.72628 308.000
37.74622 350.000
37.76617 313.000
37.78612 331.000
37.80606 293.000
37.82601 354.000
37.84596 309.000
37.86591 339.000
37.88585 325.000
37.90580 305.000
37.92575 318.000
37.94569 294.000
37.96564 340.000
37.98559 332.000
38.00553 300.000
38.02548 283.000
38.04543 321.000
38.06538 332.000
38.08532 324.000
38.10527 319.000
38.12522 341.000
38.14516 319.000
38.16511 293.000
38.18506 329.000
38.20500 333.000
38.22495 287.000
38.24490 296.000
38.26484 325.000
38.28479 333.000
38.30474 304.000
38.32469 347.000
38.34463 314.000
38.36458 326.000
38.38453 296.000
38.40447 291.000
38.42442 281.000
38.44437 317.000
38.46431 317.000
38.48426 329.000
38.50421 337.000
38.52416 334.000
38.54410 329.000
38.56405 280.000
38.58400 325.000
38.60394 312.000
38.62389 296.000
38.64384 343.000
38.66378 334.000
38.68373 313.000
38.70368 311.000
38.72362 290.000
38.74357 285.000
38.76352 321.000
38.78347 320.000
38.80341 303.000
38.82336 315.000
38.84331 303.000
38.86325 335.000
38.88320 301.000
38.90315 349.000
38.92309 306.000
38.94304 287.000
38.96299 326.000
38.98294 321.000
39.00288 299.000
39.02283 294.000
39.04278 333.000
39.06272 295.000
39.08267 288.000
39.10262 302.000
39.12256 323.000
39.14251 293.000
39.16246 275.000
39.18241 337.000
39.20235 318.000
39.22230 308.000
39.24225 304.000
39.26219 318.000
39.28214 315.000
39.30209 316.000
39.32203 288.000
39.34198 290.000
39.36193 308.000
39.38187 301.000
39.40182 297.000
39.42177 331.000
39.44172 293.000
39.46166 302.000
39.48161 292.000
39.50156 286.000
39.52150 292.000
39.54145 336.000
39.56140 269.000
39.58134 311.000
39.60129 312.000
39.62124 290.000
39.64119 310.000
39.66113 318.000
39.68108 281.000
39.70103 316.000
39.72097 316.000
39.74092 335.000
39.76087 289.000
39.78081 284.000
39.80076 302.000
39.82071 293.000
39.84065 328.000
39.86060 303.000
39.88055 327.000
39.90050 309.000
39.92044 297.000
39.94039 327.000
39.96034 302.000
39.98028 281.000
40.00023 343.000
40.02018 298.000
40.04012 285.000
40.06007 304.000
40.08002 295.000
40.09997 307.000
40.11991 279.000
40.13986 296.000
40.15981 308.000
40.17975 309.000
40.19970 309.000
40.21965 306.000
40.23959 274.000
40.25954 283.000
40.27949 284.000
40.29943 310.000
40.31938 316.000
40.33933 323.000
40.35928 326.000
40.37922 314.000
40.39917 314.000
40.41912 322.000
40.43906 318.000
40.45901 322.000
40.47896 331.000
40.49890 308.000
40.51885 329.000
40.53880 291.000
40.55875 288.000
40.57869 300.000
40.59864 318.000
40.61859 302.000
40.63853 329.000
40.65848 299.000
40.67843 330.000
40.69837 299.000
40.71832 294.000
40.73827 292.000
40.75822 336.000
40.77816 323.000
40.79811 285.000
40.81806 313.000
40.83800 325.000
40.85795 329.000
40.87790 316.000
40.89784 310.000
40.91779 321.000
40.93774 293.000
40.95768 306.000
40.97763 314.000
40.99758 299.000
41.01753 320.000
41.03747 290.000
41.05742 280.000
41.07737 294.000
41.09731 297.000
41.11726 306.000
41.13721 320.000
41.15715 312.000
41.17710 308.000
41.19705 327.000
41.21700 312.000
41.23694 282.000
41.25689 306.000
41.27684 299.000
41.29678 312.000
41.31673 286.000
41.33668 287.000
41.35662 310.000
41.37657 287.000
41.39652 302.000
41.41646 304.000
41.43641 294.000
41.45636 277.000
41.47631 302.000
41.49625 315.000
41.51620 301.000
41.53615 300.000
41.55609 295.000
41.57604 326.000
41.59599 297.000
41.61593 328.000
41.63588 338.000
41.65583 313.000
41.67578 364.000
41.69572 302.000
41.71567 342.000
41.73562 297.000
41.75556 338.000
41.77551 308.000
41.79546 297.000
41.81540 339.000
41.83535 292.000
41.85530 313.000
41.87524 299.000
41.89519 305.000
41.91514 350.000
41.93509 367.000
41.95503 330.000
41.97498 310.000
41.99493 348.000
42.01487 348.000
42.03482 346.000
42.05477 354.000
42.07471 366.000
42.09466 360.000
42.11461 394.000
42.13456 377.000
42.15450 359.000
42.17445 385.000
42.19440 393.000
42.21434 413.000
42.23429 425.000
42.25424 437.000
42.27418 492.000
42.29413 512.000
42.31408 498.000
42.33403 525.000
42.35397 589.000
42.37392 655.000
42.39387 643.000
42.41381 711.000
42.43376 773.000
42.45371 862.000
42.47365 930.000
42.49360 1025.000
42.51355 1046.000
42.53349 1099.000
42.55344 1200.000
42.57339 1224.000
42.59334 1420.000
42.61328 1587.000
42.63323 1640.000
42.65318 1815.000
42.67312 1894.000
42.69307 2101.000
42.71302 2265.000
42.73296 2512.000
42.75291 2743.000
42.77286 2915.000
42.79281 3124.000
42.81275 3372.000
42.83270 3424.000
42.85265 3623.000
42.87259 3701.000
42.89254 3577.000
42.91249 3262.000
42.93243 3053.000
42.95238 2849.000
42.97233 2491.000
42.99227 2137.000
43.01222 1866.000
43.03217 1649.000
43.05212 1354.000
43.07206 1196.000
43.09201 928.000
43.11196 839.000
43.13190 687.000
43.15185 595.000
43.17180 539.000
43.19174 480.000
43.21169 444.000
43.23164 437.000
43.25159 391.000
43.27153 353.000
43.29148 363.000
43.31143 369.000
43.33137 361.000
43.35132 340.000
43.37127 355.000
43.39121 358.000
43.41116 327.000
43.43111 338.000
43.45105 377.000
43.47100 327.000
43.49095 331.000
43.51090 341.000
43.53084 344.000
43.55079 317.000
43.57074 307.000
43.59068 330.000
43.61063 312.000
43.63058 331.000
43.65052 323.000
43.67047 321.000
43.69042 336.000
43.71037 294.000
43.73031 305.000
43.75026 323.000
43.77021 302.000
43.79015 322.000
43.81010 302.000
43.83005 322.000
43.84999 327.000
43.86994 319.000
43.88989 290.000
43.90984 313.000
43.92978 302.000
43.94973 286.000
43.96968 286.000
43.98962 321.000
44.00957 316.000
44.02952 296.000
44.04946 304.000
44.06941 319.000
44.08936 287.000
44.10930 280.000
44.12925 302.000
44.14920 306.000
44.16915 336.000
44.18909 294.000
44.20904 303.000
44.22899 322.000
44.24893 278.000
44.26888 322.000
44.28883 306.000
44.30877 283.000
44.32872 300.000
44.34867 286.000
44.36862 315.000
44.38856 307.000
44.40851 309.000
44.42846 277.000
44.44840 304.000
44.46835 315.000
44.48830 315.000
44.50824 322.000
44.52819 322.000
44.54814 274.000
44.56808 276.000
44.58803 274.000
44.60798 301.000
44.62793 250.000
44.64787 328.000
44.66782 284.000
44.68777 346.000
44.70771 311.000
44.72766 296.000
44.74761 305.000
44.76755 307.000
44.78750 287.000
44.80745 295.000
44.82740 290.000
44.84734 312.000
44.86729 299.000
44.88724 256.000
44.90718 295.000
44.92713 295.000
44.94708 311.000
44.96702 294.000
44.98697 294.000
45.00692 276.000
45.02686 295.000
45.04681 278.000
45.06676 287.000
45.08671 293.000
45.10665 266.000
45.12660 267.000
45.14655 272.000
45.16649 295.000
45.18644 287.000
45.20639 266.000
45.22633 276.000
45.24628 267.000
45.26623 316.000
45.28618 289.000
45.30612 269.000
45.32607 295.000
45.34602 281.000
45.36596 272.000
45.38591 294.000
45.40586 267.000
45.42580 240.000
45.44575 297.000
45.46570 292.000
45.48565 280.000
45.50559 276.000
45.52554 280.000
45.54549 273.000
45.56543 296.000
45.58538 299.000
45.60533 240.000
45.62527 261.000
45.64522 286.000
45.66517 296.000
45.68511 271.000
45.70506 267.000
45.72501 249.000
45.74496 255.000
45.76490 280.000
45.78485 282.000
45.80480 259.000
45.82474 282.000
45.84469 298.000
45.86464 305.000
45.88458 251.000
45.90453 273.000
45.92448 280.000
45.94443 296.000
45.96437 290.000
45.98432 245.000
46.00427 281.000
46.02421 256.000
46.04416 242.000
46.06411 270.000
46.08405 289.000
46.10400 264.000
46.12395 268.000
46.14389 293.000
46.16384 282.000
46.18379 283.000
46.20374 247.000
46.22368 283.000
46.24363 270.000
46.26358 306.000
46.28352 277.000
46.30347 263.000
46.32342 266.000
46.34336 262.000
46.36331 313.000
46.38326 299.000
46.40321 286.000
46.42315 299.000
46.44310 289.000
46.46305 271.000
46.48299 281.000
46.50294 266.000
46.52289 277.000
46.54283 264.000
46.56278 267.000
46.58273 280.000
46.60267 273.000
46.62262 252.000
46.64257 259.000
46.66252 282.000
46.68246 252.000
46.70241 285.000
46.72236 268.000
46.74230 263.000
46.76225 271.000
46.78220 279.000
46.80214 263.000
46.82209 268.000
46.84204 268.000
46.86199 276.000
46.88193 268.000
46.90188 282.000
46.92183 253.000
46.94177 284.000
46.96172 253.000
46.98167 265.000
47.00161 254.000
47.02156 271.000
47.04151 279.000
47.06146 234.000
47.08140 275.000
47.10135 265.000
47.12130 290.000
47.14124 259.000
47.16119 269.000
47.18114 265.000
47.20108 284.000
47.22103 283.000
47.24098 288.000
47.26092 281.000
47.28087 303.000
47.30082 261.000
47.32077 270.000
47.34071 274.000
47.36066 273.000
47.38061 280.000
47.40055 257.000
47.42050 301.000
47.44045 250.000
47.46039 260.000
47.48034 285.000
47.50029 279.000
47.52024 282.000
47.54018 294.000
47.56013 275.000
47.58008 273.000
47.60002 289.000
47.61997 284.000
47.63992 266.000
47.65986 243.000
47.67981 275.000
47.69976 279.000
47.71970 270.000
47.73965 272.000
47.75960 281.000
47.77955 256.000
47.79949 284.000
47.81944 280.000
47.83939 256.000
47.85933 253.000
47.87928 276.000
47.89923 255.000
47.91917 295.000
47.93912 305.000
47.95907 270.000
47.97902 267.000
47.99896 280.000
48.01891 275.000
48.03886 249.000
48.05880 255.000
48.07875 240.000
48.09870 263.000
48.11864 253.000
48.13859 284.000
48.15854 281.000
48.17848 268.000
48.19843 266.000
48.21838 267.000
48.23833 251.000
48.25827 272.000
48.27822 273.000
48.29817 280.000
48.31811 280.000
48.33806 253.000
48.35801 275.000
48.37795 271.000
48.39790 271.000
48.41785 283.000
48.43780 273.000
48.45774 275.000
48.47769 267.000
48.49764 307.000
48.51758 292.000
48.53753 265.000
48.55748 260.000
48.57742 295.000
48.59737 268.000
48.61732 288.000
48.63726 261.000
48.65721 270.000
48.67716 262.000
48.69711 275.000
48.71705 267.000
48.73700 252.000
48.75695 275.000
48.77689 270.000
48.79684 262.000
48.81679 255.000
48.83673 288.000
48.85668 264.000
48.87663 280.000
48.89658 286.000
48.91652 244.000
48.93647 274.000
48.95642 293.000
48.97636 282.000
48.99631 274.000
49.01626 321.000
49.03620 323.000
49.05615 303.000
49.07610 291.000
49.09605 292.000
49.11599 277.000
49.13594 287.000
49.15589 251.000
49.17583 288.000
49.19578 283.000
49.21573 293.000
49.23567 255.000
49.25562 286.000
49.27557 259.000
49.29551 267.000
49.31546 299.000
49.33541 297.000
49.35536 264.000
49.37530 283.000
49.39525 315.000
49.41520 285.000
49.43514 288.000
49.45509 296.000
49.47504 312.000
49.49498 315.000
49.51493 276.000
49.53488 277.000
49.55483 292.000
49.57477 280.000
49.59472 290.000
49.61467 280.000
49.63461 272.000
49.65456 267.000
49.67451 254.000
49.69445 234.000
49.71440 256.000
49.73435 289.000
49.75429 307.000
49.77424 268.000
49.79419 248.000
49.81414 257.000
49.83408 257.000
49.85403 257.000
49.87398 279.000
49.89392 281.000
49.91387 244.000
49.93382 245.000
49.95376 273.000
49.97371 291.000
49.99366 254.000
50.01361 254.000
50.03355 287.000
50.05350 286.000
50.07345 270.000
50.09339 262.000
50.11334 253.000
50.13329 260.000
50.15323 268.000
50.17318 266.000
50.19313 265.000
50.21307 290.000
50.23302 284.000
50.25297 262.000
50.27292 258.000
50.29286 234.000
50.31281 248.000
50.33276 304.000
50.35270 254.000
50.37265 270.000
50.39260 269.000
50.41254 288.000
50.43249 285.000
50.45244 265.000
50.47239 249.000
50.49233 261.000
50.51228 233.000
50.53223 263.000
50.55217 241.000
50.57212 275.000
50.59207 258.000
50.61201 275.000
50.63196 287.000
50.65191 236.000
50.67186 260.000
50.69180 265.000
50.71175 276.000
50.73170 266.000
50.75164 224.000
50.77159 249.000
50.79154 283.000
50.81148 289.000
50.83143 253.000
50.85138 284.000
50.87132 260.000
50.89127 236.000
50.91122 233.000
50.93117 252.000
50.95111 254.000
50.97106 238.000
50.99101 269.000
51.01095 239.000
51.03090 254.000
51.05085 271.000
51.07079 256.000
51.09074 234.000
51.11069 263.000
51.13064 248.000
51.15058 276.000
51.17053 308.000
51.19048 274.000
51.21042 253.000
51.23037 248.000
51.25032 254.000
51.27026 248.000
51.29021 229.000
51.31016 266.000
51.33010 257.000
51.35005 254.000
51.37000 229.000
51.38995 233.000
51.40989 246.000
51.42984 241.000
51.44979 278.000
51.46973 241.000
51.48968 283.000
51.50963 283.000
51.52957 273.000
51.54952 233.000
51.56947 262.000
51.58942 273.000
51.60936 291.000
51.62931 254.000
51.64926 258.000
51.66920 263.000
51.68915 270.000
51.70910 256.000
51.72904 259.000
51.74899 257.000
51.76894 275.000
51.78888 262.000
51.80883 241.000
51.82878 247.000
51.84873 245.000
51.86867 278.000
51.88862 205.000
51.90857 259.000
51.92851 239.000
51.94846 267.000
51.96841 255.000
51.98835 252.000
52.00830 274.000
52.02825 236.000
52.04820 227.000
52.06814 278.000
52.08809 253.000
52.10804 276.000
52.12798 251.000
52.14793 254.000
52.16788 237.000
52.18782 281.000
52.20777 244.000
52.22772 241.000
52.24767 240.000
52.26761 239.000
52.28756 263.000
52.30751 264.000
52.32745 280.000
52.34740 266.000
52.36735 239.000
52.38729 278.000
52.40724 283.000
52.42719 245.000
52.44713 247.000
52.46708 254.000
52.48703 270.000
52.50698 240.000
52.52692 276.000
52.54687 242.000
52.56682 244.000
52.58676 246.000
52.60671 250.000
52.62666 224.000
52.64660 256.000
52.66655 238.000
52.68650 244.000
52.70645 253.000
52.72639 255.000
52.74634 272.000
52.76629 239.000
52.78623 270.000
52.80618 271.000
52.82613 260.000
52.84607 272.000
52.86602 244.000
52.88597 264.000
52.90591 259.000
52.92586 281.000
52.94581 228.000
52.96576 267.000
52.98570 254.000
53.00565 246.000
53.02560 288.000
53.04554 248.000
53.06549 245.000
53.08544 198.000
53.10538 281.000
53.12533 218.000
53.14528 257.000
53.16523 285.000
53.18517 275.000
53.20512 263.000
53.22507 279.000
53.24501 277.000
53.26496 254.000
53.28491 268.000
53.30485 270.000
53.32480 264.000
53.34475 307.000
53.36469 273.000
53.38464 281.000
53.40459 293.000
53.42454 284.000
53.44448 304.000
53.46443 271.000
53.48438 289.000
53.50432 311.000
53.52427 321.000
53.54422 314.000
53.56416 297.000
53.58411 280.000
53.60406 285.000
53.62401 307.000
53.64395 291.000
53.66390 277.000
53.68385 266.000
53.70379 273.000
53.72374 264.000
53.74369 288.000
53.76363 252.000
53.78358 243.000
53.80353 279.000
53.82348 314.000
53.84342 244.000
53.86337 277.000
53.88332 276.000
53.90326 243.000
53.92321 229.000
53.94316 277.000
53.96310 289.000
53.98305 284.000
54.00300 273.000
54.02294 249.000
54.04289 246.000
54.06284 272.000
54.08279 260.000
54.10273 236.000
54.12268 249.000
54.14263 278.000
54.16257 278.000
54.18252 256.000
54.20247 268.000
54.22241 234.000
54.24236 298.000
54.26231 280.000
54.28226 282.000
54.30220 290.000
54.32215 289.000
54.34210 257.000
54.36204 248.000
54.38199 261.000
54.40194 244.000
54.42188 222.000
54.44183 307.000
54.46178 264.000
54.48172 288.000
54.50167 266.000
54.52162 260.000
54.54157 286.000
54.56151 277.000
54.58146 280.000
54.60141 267.000
54.62135 237.000
54.64130 278.000
54.66125 294.000
54.68119 279.000
54.70114 287.000
54.72109 273.000
54.74104 241.000
54.76098 273.000
54.78093 239.000
54.80088 251.000
54.82082 270.000
54.84077 244.000
54.86072 252.000
54.88066 268.000
54.90061 264.000
54.92056 281.000
54.94050 269.000
54.96045 243.000
54.98040 271.000
55.00035 254.000
55.02029 221.000
55.04024 262.000
55.06019 267.000
55.08013 229.000
55.10008 278.000
55.12003 250.000
55.13997 262.000
55.15992 268.000
55.17987 269.000
55.19982 278.000
55.21976 253.000
55.23971 264.000
55.25966 267.000
55.27960 279.000
55.29955 235.000
55.31950 253.000
55.33944 246.000
55.35939 254.000
55.37934 276.000
55.39929 262.000
55.41923 246.000
55.43918 230.000
55.45913 284.000
55.47907 239.000
55.49902 227.000
55.51897 252.000
55.53891 233.000
55.55886 262.000
55.57881 240.000
55.59875 251.000
55.61870 285.000
55.63865 268.000
55.65860 278.000
55.67854 262.000
55.69849 247.000
55.71844 278.000
55.73838 253.000
55.75833 271.000
55.77828 285.000
55.79822 255.000
55.81817 264.000
55.83812 269.000
55.85807 246.000
55.87801 249.000
55.89796 246.000
55.91791 261.000
55.93785 254.000
55.95780 252.000
55.97775 253.000
55.99769 254.000
56.01764 276.000
56.03759 256.000
56.05753 258.000
56.07748 259.000
56.09743 258.000
56.11738 271.000
56.13732 267.000
56.15727 229.000
56.17722 248.000
56.19716 274.000
56.21711 250.000
56.23706 243.000
56.25700 253.000
56.27695 262.000
56.29690 269.000
56.31685 268.000
56.33679 276.000
56.35674 247.000
56.37669 292.000
56.39663 257.000
56.41658 263.000
56.43653 294.000
56.45647 276.000
56.47642 251.000
56.49637 263.000
56.51631 288.000
56.53626 230.000
56.55621 271.000
56.57616 251.000
56.59610 285.000
56.61605 272.000
56.63600 272.000
56.65594 257.000
56.67589 271.000
56.69584 280.000
56.71578 315.000
56.73573 306.000
56.75568 294.000
56.77563 279.000
56.79557 266.000
56.81552 292.000
56.83547 321.000
56.85541 286.000
56.87536 324.000
56.89531 364.000
56.91525 319.000
56.93520 354.000
56.95515 339.000
56.97510 352.000
56.99504 381.000
57.01499 409.000
57.03494 412.000
57.05488 371.000
57.07483 408.000
57.09478 371.000
57.11472 391.000
57.13467 322.000
57.15462 354.000
57.17456 364.000
57.19451 337.000
57.21446 346.000
57.23441 328.000
57.25435 311.000
57.27430 311.000
57.29425 328.000
57.31419 277.000
57.33414 278.000
57.35409 286.000
57.37403 273.000
57.39398 246.000
57.41393 258.000
57.43388 250.000
57.45382 269.000
57.47377 263.000
57.49372 269.000
57.51366 241.000
57.53361 236.000
57.55356 280.000
57.57350 247.000
57.59345 282.000
57.61340 244.000
57.63334 274.000
57.65329 254.000
57.67324 247.000
57.69319 249.000
57.71313 256.000
57.73308 259.000
57.75303 253.000
57.77297 241.000
57.79292 280.000
57.81287 236.000
57.83281 254.000
57.85276 219.000
57.87271 262.000
57.89266 250.000
57.91260 268.000
57.93255 247.000
57.95250 256.000
57.97244 252.000
57.99239 284.000
58.01234 209.000
58.03228 255.000
58.05223 265.000
58.07218 273.000
58.09212 265.000
58.11207 270.000
58.13202 278.000
58.15197 271.000
58.17191 245.000
58.19186 262.000
58.21181 233.000
58.23175 261.000
58.25170 252.000
58.27165 267.000
58.29159 282.000
58.31154 293.000
58.33149 257.000
58.35144 276.000
58.37138 263.000
58.39133 266.000
58.41128 252.000
58.43122 261.000
58.45117 218.000
58.47112 264.000
58.49106 229.000
58.51101 257.000
58.53096 264.000
58.55090 262.000
58.57085 243.000
58.59080 246.000
58.61075 256.000
58.63069 274.000
58.65064 262.000
58.67059 268.000
58.69053 266.000
58.71048 256.000
58.73043 264.000
58.75037 274.000
58.77032 263.000
58.79027 254.000
58.81022 250.000
58.83016 235.000
58.85011 228.000
58.87006 279.000
58.89000 230.000
58.90995 256.000
58.92990 261.000
58.94984 229.000
58.96979 272.000
58.98974 264.000
59.00969 261.000
59.02963 274.000
59.04958 247.000
59.06953 247.000
59.08947 257.000
59.10942 275.000
59.12937 260.000
59.14931 264.000
59.16926 241.000
59.18921 229.000
59.20915 227.000
59.22910 254.000
59.24905 250.000
59.26900 267.000
59.28894 251.000
59.30889 257.000
59.32884 257.000
59.34878 265.000
59.36873 255.000
59.38868 255.000
59.40862 287.000
59.42857 243.000
59.44852 276.000
59.46847 232.000
59.48841 286.000
59.50836 259.000
59.52831 259.000
59.54825 250.000
59.56820 260.000
59.58815 281.000
59.60809 261.000
59.62804 246.000
59.64799 263.000
59.66793 289.000
59.68788 253.000
59.70783 272.000
59.72778 300.000
59.74772 277.000
59.76767 245.000
59.78762 253.000
59.80756 280.000
59.82751 249.000
59.84746 271.000
59.86740 262.000
59.88735 271.000
59.90730 279.000
59.92725 284.000
59.94719 266.000
59.96714 264.000
59.98709 254.000
60.00703 262.000
60.02698 284.000
60.04693 257.000
60.06687 247.000
60.08682 236.000
60.10677 265.000
60.12671 259.000
60.14666 263.000
60.16661 250.000
60.18656 269.000
60.20650 255.000
60.22645 272.000
60.24640 233.000
60.26634 246.000
60.28629 279.000
60.30624 248.000
60.32618 266.000
60.34613 273.000
60.36608 254.000
60.38603 276.000
60.40597 266.000
60.42592 259.000
60.44587 242.000
60.46581 244.000
60.48576 270.000
60.50571 257.000
60.52565 275.000
60.54560 260.000
60.56555 259.000
60.58550 255.000
60.60544 256.000
60.62539 265.000
60.64534 254.000
60.66528 251.000
60.68523 248.000
60.70518 277.000
60.72512 278.000
60.74507 283.000
60.76502 272.000
60.78496 302.000
60.80491 282.000
60.82486 279.000
60.84481 298.000
60.86475 266.000
60.88470 287.000
60.90465 259.000
60.92459 274.000
60.94454 277.000
60.96449 287.000
60.98443 269.000
61.00438 248.000
61.02433 313.000
61.04428 285.000
61.06422 277.000
61.08417 277.000
61.10412 306.000
61.12406 325.000
61.14401 278.000
61.16396 291.000
61.18390 292.000
61.20385 282.000
61.22380 276.000
61.24374 317.000
61.26369 305.000
61.28364 272.000
61.30359 292.000
61.32353 314.000
61.34348 256.000
61.36343 292.000
61.38337 290.000
61.40332 285.000
61.42327 291.000
61.44321 295.000
61.46316 301.000
61.48311 306.000
61.50306 300.000
61.52300 278.000
61.54295 287.000
61.56290 326.000
61.58284 295.000
61.60279 311.000
61.62274 328.000
61.64268 297.000
61.66263 354.000
61.68258 341.000
61.70252 362.000
61.72247 360.000
61.74242 344.000
61.76237 411.000
61.78231 375.000
61.80226 378.000
61.82221 419.000
61.84215 419.000
61.86210 437.000
61.88205 476.000
61.90199 495.000
61.92194 523.000
61.94189 522.000
61.96184 574.000
61.98178 563.000
62.00173 607.000
62.02168 643.000
62.04162 695.000
62.06157 713.000
62.08152 745.000
62.10146 789.000
62.12141 804.000
62.14136 805.000
62.16131 854.000
62.18125 887.000
62.20120 944.000
62.22115 1057.000
62.24109 1104.000
62.26104 1174.000
62.28099 1246.000
62.30093 1282.000
62.32088 1405.000
62.34083 1393.000
62.36077 1585.000
62.38072 1663.000
62.40067 1751.000
62.42062 1650.000
62.44056 1698.000
62.46051 1721.000
62.48046 1638.000
62.50040 1532.000
62.52035 1420.000
62.54030 1436.000
62.56024 1267.000
62.58019 1243.000
62.60014 1201.000
62.62009 1111.000
62.64003 1029.000
62.65998 966.000
62.67993 932.000
62.69987 828.000
62.71982 746.000
62.73977 646.000
62.75971 619.000
62.77966 519.000
62.79961 494.000
62.81955 461.000
62.83950 486.000
62.85945 390.000
62.87940 420.000
62.89934 390.000
62.91929 375.000
62.93924 373.000
62.95918 341.000
62.97913 332.000
62.99908 354.000
63.01902 296.000
63.03897 301.000
63.05892 289.000
63.07887 281.000
63.09881 290.000
63.11876 282.000
63.13871 281.000
63.15865 294.000
63.17860 298.000
63.19855 280.000
63.21849 265.000
63.23844 299.000
63.25839 291.000
63.27833 272.000
63.29828 289.000
63.31823 270.000
63.33818 276.000
63.35812 246.000
63.37807 226.000
63.39802 290.000
63.41796 257.000
63.43791 270.000
63.45786 269.000
63.47780 281.000
63.49775 302.000
63.51770 273.000
63.53765 238.000
63.55759 246.000
63.57754 283.000
63.59749 293.000
63.61743 253.000
63.63738 291.000
63.65733 247.000
63.67727 256.000
63.69722 262.000
63.71717 283.000
63.73712 256.000
63.75706 248.000
63.77701 276.000
63.79696 236.000
63.81690 263.000
63.83685 266.000
63.85680 277.000
63.87674 279.000
63.89669 267.000
63.91664 277.000
63.93658 248.000
63.95653 281.000
63.97648 290.000
63.99643 267.000
64.01637 266.000
64.03632 248.000
64.05627 281.000
64.07621 278.000
64.09616 239.000
64.11611 258.000
64.13605 265.000
64.15600 269.000
64.17595 263.000
64.19590 258.000
64.21584 255.000
64.23579 281.000
64.25574 257.000
64.27568 295.000
64.29563 276.000
64.31558 251.000
64.33552 247.000
64.35547 260.000
64.37542 259.000
64.39536 260.000
64.41531 263.000
64.43526 263.000
64.45521 257.000
64.47515 268.000
64.49510 240.000
64.51505 278.000
64.53499 255.000
64.55494 242.000
64.57489 279.000
64.59483 265.000
64.61478 280.000
64.63473 265.000
64.65468 254.000
64.67462 245.000
64.69457 244.000
64.71452 249.000
64.73446 258.000
64.75441 226.000
64.77436 275.000
64.79430 284.000
64.81425 272.000
64.83420 250.000
64.85414 245.000
64.87409 253.000
64.89404 272.000
64.91399 274.000
64.93393 276.000
64.95388 261.000
64.97383 254.000
64.99377 243.000
65.01372 257.000
65.03367 285.000
65.05361 262.000
65.07356 262.000
65.09351 268.000
65.11346 244.000
65.13340 284.000
65.15335 272.000
65.17330 252.000
65.19324 266.000
65.21319 255.000
65.23314 244.000
65.25308 301.000
65.27303 255.000
65.29298 248.000
65.31293 227.000
65.33287 238.000
65.35282 247.000
65.37277 250.000
65.39271 244.000
65.41266 249.000
65.43261 241.000
65.45255 245.000
65.47250 270.000
65.49245 281.000
65.51239 266.000
65.53234 281.000
65.55229 235.000
65.57224 261.000
65.59218 276.000
65.61213 256.000
65.63208 241.000
65.65202 259.000
65.67197 233.000
65.69192 249.000
65.71186 271.000
65.73181 266.000
65.75176 250.000
65.77171 265.000
65.79165 239.000
65.81160 267.000
65.83155 289.000
65.85149 271.000
65.87144 278.000
65.89139 272.000
65.91133 241.000
65.93128 270.000
65.95123 255.000
65.97117 250.000
65.99112 240.000
66.01107 282.000
66.03102 250.000
66.05096 275.000
66.07091 261.000
66.09086 250.000
66.11080 275.000
66.13075 236.000
66.15070 259.000
66.17064 225.000
66.19059 242.000
66.21054 265.000
66.23049 283.000
66.25043 233.000
66.27038 248.000
66.29033 278.000
66.31027 250.000
66.33022 288.000
66.35017 268.000
66.37011 259.000
66.39006 241.000
66.41001 258.000
66.42995 244.000
66.44990 231.000
66.46985 254.000
66.48980 259.000
66.50974 222.000
66.52969 281.000
66.54964 251.000
66.56958 229.000
66.58953 257.000
66.60948 241.000
66.62942 254.000
66.64937 242.000
66.66932 254.000
66.68927 248.000
66.70921 228.000
66.72916 235.000
66.74911 244.000
66.76905 222.000
66.78900 249.000
66.80895 271.000
66.82889 228.000
66.84884 232.000
66.86879 254.000
66.88874 204.000
66.90868 250.000
66.92863 255.000
66.94858 210.000
66.96852 253.000
66.98847 264.000
67.00842 307.000
67.02836 269.000
67.04831 236.000
67.06826 239.000
67.08820 249.000
67.10815 272.000
67.12810 233.000
67.14805 241.000
67.16799 261.000
67.18794 273.000
67.20789 249.000
67.22783 251.000
67.24778 239.000
67.26773 270.000
67.28767 250.000
67.30762 241.000
67.32757 248.000
67.34752 219.000
67.36746 276.000
67.38741 255.000
67.40736 236.000
67.42730 228.000
67.44725 227.000
67.46720 228.000
67.48714 238.000
67.50709 254.000
67.52704 250.000
67.54698 258.000
67.56693 234.000
67.58688 256.000
67.60683 243.000
67.62677 203.000
67.64672 219.000
67.66667 252.000
67.68661 264.000
67.70656 242.000
67.72651 218.000
67.74645 253.000
67.76640 265.000
67.78635 253.000
67.80630 278.000
67.82624 265.000
67.84619 255.000
67.86614 245.000
67.88608 235.000
67.90603 263.000
67.92598 230.000
67.94592 263.000
67.96587 218.000
67.98582 276.000
68.00576 222.000
68.02571 271.000
68.04566 265.000
68.06561 252.000
68.08555 248.000
68.10550 268.000
68.12545 247.000
68.14539 236.000
68.16534 219.000
68.18529 275.000
68.20523 218.000
68.22518 259.000
68.24513 264.000
68.26508 210.000
68.28502 249.000
68.30497 223.000
68.32492 233.000
68.34486 227.000
68.36481 243.000
68.38476 237.000
68.40470 236.000
68.42465 265.000
68.44460 250.000
68.46455 257.000
68.48449 243.000
68.50444 232.000
68.52439 242.000
68.54433 247.000
68.56428 229.000
68.58423 228.000
68.60417 237.000
68.62412 268.000
68.64407 234.000
68.66401 255.000
68.68396 265.000
68.70391 261.000
68.72386 245.000
68.74380 261.000
68.76375 235.000
68.78370 237.000
68.80364 249.000
68.82359 213.000
68.84354 228.000
68.86348 251.000
68.88343 229.000
68.90338 236.000
68.92333 267.000
68.94327 245.000
68.96322 242.000
68.98317 263.000
69.00311 249.000
69.02306 242.000
69.04301 241.000
69.06295 267.000
69.08290 248.000
69.10285 247.000
69.12279 211.000
69.14274 256.000
69.16269 247.000
69.18264 235.000
69.20258 263.000
69.22253 226.000
69.24248 245.000
69.26242 248.000
69.28237 236.000
69.30232 235.000
69.32226 275.000
69.34221 244.000
69.36216 247.000
69.38211 242.000
69.40205 240.000
69.42200 228.000
69.44195 231.000
69.46189 232.000
69.48184 252.000
69.50179 256.000
69.52173 282.000
69.54168 241.000
69.56163 230.000
69.58157 250.000
69.60152 273.000
69.62147 247.000
69.64142 241.000
69.66136 230.000
69.68131 246.000
69.70126 249.000
69.72120 229.000
69.74115 221.000
69.76110 225.000
69.78104 248.000
69.80099 249.000
69.82094 252.000
69.84089 257.000
69.86083 234.000
69.88078 247.000
69.90073 296.000
69.92067 252.000
69.94062 252.000
69.96057 244.000
69.98051 240.000
70.00046 250.000
70.02041 228.000
70.04035 229.000
70.06030 238.000
70.08025 249.000
70.10020 245.000
70.12014 234.000
70.14009 218.000
70.16004 242.000
70.17998 245.000
70.19993 250.000
70.21988 247.000
70.23982 231.000
70.25977 263.000
70.27972 229.000
70.29967 251.000
70.31961 239.000
70.33956 228.000
70.35951 235.000
70.37945 247.000
70.39940 265.000
70.41935 247.000
70.43929 244.000
70.45924 210.000
70.47919 248.000
70.49914 236.000
70.51908 240.000
70.53903 271.000
70.55898 245.000
70.57892 265.000
70.59887 218.000
70.61882 204.000
70.63876 249.000
70.65871 257.000
70.67866 246.000
70.69860 224.000
70.71855 261.000
70.73850 226.000
70.75845 224.000
70.77839 250.000
70.79834 258.000
70.81829 275.000
70.83823 254.000
70.85818 255.000
70.87813 262.000
70.89807 249.000
70.91802 240.000
70.93797 240.000
70.95792 244.000
70.97786 243.000
70.99781 235.000
71.01776 240.000
71.03770 249.000
71.05765 238.000
71.07760 254.000
71.09754 241.000
71.11749 266.000
71.13744 249.000
71.15738 267.000
71.17733 243.000
71.19728 241.000
71.21723 274.000
71.23717 244.000
71.25712 255.000
71.27707 252.000
71.29701 240.000
71.31696 249.000
71.33691 248.000
71.35685 240.000
71.37680 225.000
71.39675 265.000
71.41670 254.000
71.43664 231.000
71.45659 259.000
71.47654 238.000
71.49648 249.000
71.51643 241.000
71.53638 260.000
71.55632 275.000
71.57627 247.000
71.59622 249.000
71.61616 237.000
71.63611 213.000
71.65606 250.000
71.67601 253.000
71.69595 245.000
71.71590 228.000
71.73585 241.000
71.75579 245.000
71.77574 239.000
71.79569 234.000
71.81563 210.000
71.83558 240.000
71.85553 214.000
71.87548 250.000
71.89542 270.000
71.91537 232.000
71.93532 268.000
71.95526 218.000
71.97521 233.000
71.99516 225.000
72.01510 221.000
72.03505 226.000
72.05500 249.000
72.07495 249.000
72.09489 231.000
72.11484 252.000
72.13479 249.000
72.15473 219.000
72.17468 249.000
72.19463 247.000
72.21457 255.000
72.23452 263.000
72.25447 251.000
72.27441 242.000
72.29436 249.000
72.31431 269.000
72.33426 231.000
72.35420 272.000
72.37415 245.000
72.39410 224.000
72.41404 242.000
72.43399 199.000
72.45394 249.000
72.47388 253.000
72.49383 266.000
72.51378 277.000
72.53373 236.000
72.55367 260.000
72.57362 227.000
72.59357 246.000
72.61351 209.000
72.63346 259.000
72.65341 240.000
72.67335 253.000
72.69330 263.000
72.71325 207.000
72.73319 259.000
72.75314 258.000
72.77309 245.000
72.79304 218.000
72.81298 251.000
72.83293 232.000
72.85288 225.000
72.87282 274.000
72.89277 237.000
72.91272 246.000
72.93266 234.000
72.95261 262.000
72.97256 297.000
72.99251 266.000
73.01245 235.000
73.03240 272.000
73.05235 249.000
73.07229 217.000
73.09224 262.000
73.11219 238.000
73.13213 247.000
73.15208 266.000
73.17203 281.000
73.19197 217.000
73.21192 238.000
73.23187 253.000
73.25182 271.000
73.27176 259.000
73.29171 231.000
73.31166 238.000
73.33160 263.000
73.35155 238.000
73.37150 254.000
73.39144 249.000
73.41139 250.000
73.43134 243.000
73.45129 238.000
73.47123 257.000
73.49118 238.000
73.51113 253.000
73.53107 242.000
73.55102 241.000
73.57097 254.000
73.59091 282.000
73.61086 254.000
73.63081 248.000
73.65076 235.000
73.67070 242.000
73.69065 250.000
73.71060 240.000
73.73054 244.000
73.75049 250.000
73.77044 263.000
73.79038 248.000
73.81033 263.000
73.83028 230.000
73.85022 251.000
73.87017 294.000
73.89012 261.000
73.91007 230.000
73.93001 254.000
73.94996 286.000
73.96991 244.000
73.98985 245.000
74.00980 275.000
74.02975 272.000
74.04969 270.000
74.06964 283.000
74.08959 265.000
74.10954 322.000
74.12948 291.000
74.14943 280.000
74.16938 298.000
74.18932 307.000
74.20927 308.000
74.22922 343.000
74.24916 301.000
74.26911 326.000
74.28906 323.000
74.30900 348.000
74.32895 337.000
74.34890 338.000
74.36885 354.000
74.38879 326.000
74.40874 350.000
74.42869 368.000
74.44863 396.000
74.46858 394.000
74.48853 351.000
74.50847 388.000
74.52842 358.000
74.54837 387.000
74.56832 371.000
74.58826 419.000
74.60821 406.000
74.62816 408.000
74.64810 430.000
74.66805 439.000
74.68800 465.000
74.70794 464.000
74.72789 473.000
74.74784 476.000
74.76778 491.000
74.78773 559.000
74.80768 580.000
74.82763 580.000
74.84757 623.000
74.86752 597.000
74.88747 661.000
74.90741 650.000
74.92736 739.000
74.94731 700.000
74.96725 775.000
74.98720 677.000
75.00715 638.000
75.02710 674.000
75.04704 620.000
75.06699 598.000
75.08694 606.000
75.10688 557.000
75.12683 548.000
75.14678 521.000
75.16672 534.000
75.18667 498.000
75.20662 442.000
75.22657 435.000
75.24651 437.000
75.26646 406.000
75.28641 396.000
75.30635 349.000
75.32630 335.000
75.34625 372.000
75.36619 335.000
75.38614 298.000
75.40609 276.000
75.42603 284.000
75.44598 273.000
75.46593 265.000
75.48588 280.000
75.50582 275.000
75.52577 261.000
75.54572 246.000
75.56566 225.000
75.58561 272.000
75.60556 281.000
75.62550 252.000
75.64545 224.000
75.66540 260.000
75.68535 243.000
75.70529 255.000
75.72524 220.000
75.74519 284.000
75.76513 246.000
75.78508 270.000
75.80503 239.000
75.82497 242.000
75.84492 280.000
75.86487 279.000
75.88481 247.000
75.90476 263.000
75.92471 261.000
75.94466 256.000
75.96460 262.000
75.98455 246.000
76.00450 254.000
76.02444 236.000
76.04439 279.000
76.06434 247.000
76.08428 237.000
76.10423 247.000
76.12418 259.000
76.14413 257.000
76.16407 253.000
76.18402 242.000
76.20397 241.000
76.22391 227.000
76.24386 251.000
76.26381 245.000
76.28375 242.000
76.30370 216.000
76.32365 281.000
76.34359 249.000
76.36354 229.000
76.38349 282.000
76.40344 231.000
76.42338 233.000
76.44333 266.000
76.46328 243.000
76.48322 225.000
76.50317 255.000
76.52312 221.000
76.54306 250.000
76.56301 226.000
76.58296 224.000
76.60291 218.000
76.62285 268.000
76.64280 256.000
76.66275 234.000
76.68269 262.000
76.70264 268.000
76.72259 253.000
76.74253 208.000
76.76248 241.000
76.78243 247.000
76.80238 249.000
76.82232 237.000
76.84227 250.000
76.86222 261.000
76.88216 243.000
76.90211 242.000
76.92206 236.000
76.94200 259.000
76.96195 252.000
76.98190 225.000
77.00184 257.000
77.02179 260.000
77.04174 237.000
77.06169 239.000
77.08163 242.000
77.10158 232.000
77.12153 269.000
77.14147 224.000
77.16142 239.000
77.18137 236.000
77.20131 258.000
77.22126 247.000
77.24121 238.000
77.26116 219.000
77.28110 243.000
77.30105 257.000
77.32100 222.000
77.34094 219.000
77.36089 244.000
77.38084 238.000
77.40078 251.000
77.42073 263.000
77.44068 250.000
77.46062 252.000
77.48057 213.000
77.50052 255.000
77.52047 254.000
77.54041 236.000
77.56036 238.000
77.58031 231.000
77.60025 247.000
77.62020 256.000
77.64015 253.000
77.66009 275.000
77.68004 210.000
77.69999 233.000
77.71994 236.000
77.73988 269.000
77.75983 240.000
77.77978 234.000
77.79972 267.000
77.81967 231.000
77.83962 246.000
77.85956 247.000
77.87951 222.000
77.89946 254.000
77.91940 222.000
77.93935 248.000
77.95930 214.000
77.97925 256.000
77.99919 235.000
78.01914 231.000
78.03909 224.000
78.05903 237.000
78.07898 227.000
78.09893 236.000
78.11887 257.000
78.13882 254.000
78.15877 249.000
78.17872 255.000
78.19866 245.000
78.21861 233.000
78.23856 265.000
78.25850 286.000
78.27845 275.000
78.29840 254.000
78.31834 300.000
78.33829 298.000
78.35824 289.000
78.37819 319.000
78.39813 294.000
78.41808 335.000
78.43803 317.000
78.45797 341.000
78.47792 360.000
78.49787 324.000
78.51781 357.000
78.53776 363.000
78.55771 333.000
78.57765 349.000
78.59760 349.000
78.61755 320.000
78.63750 394.000
78.65744 368.000
78.67739 375.000
78.69734 396.000
78.71728 391.000
78.73723 451.000
78.75718 443.000
78.77712 497.000
78.79707 445.000
78.81702 542.000
78.83697 547.000
78.85691 525.000
78.87686 576.000
78.89681 586.000
78.91675 617.000
78.93670 575.000
78.95665 550.000
78.97659 583.000
78.99654 536.000
79.01649 509.000
79.03643 549.000
79.05638 485.000
79.07633 491.000
79.09628 429.000
79.11622 460.000
79.13617 434.000
79.15612 437.000
79.17606 396.000
79.19601 406.000
79.21596 377.000
79.23590 366.000
79.25585 325.000
79.27580 406.000
79.29575 328.000
79.31569 313.000
79.33564 303.000
79.35559 303.000
79.37553 298.000
79.39548 289.000
79.41543 289.000
79.43537 289.000
79.45532 280.000
79.47527 275.000
79.49521 241.000
79.51516 259.000
79.53511 288.000
79.55506 241.000
79.57500 226.000
79.59495 244.000
79.61490 254.000
79.63484 237.000
79.65479 270.000
79.67474 238.000
79.69468 249.000
79.71463 236.000
79.73458 238.000
79.75453 264.000
79.77447 253.000
79.79442 259.000
79.81437 231.000
79.83431 238.000
79.85426 241.000
79.87421 263.000
79.89415 230.000
79.91410 248.000
79.93405 254.000
79.95399 218.000
79.97394 241.000
79.99389 226.000
80.01384 219.000
80.03378 237.000
80.05373 233.000
80.07368 231.000
80.09362 252.000
80.11357 225.000
80.13352 236.000
80.15346 255.000
80.17341 266.000
80.19336 242.000
80.21331 204.000
80.23325 272.000
80.25320 248.000
80.27315 252.000
80.29309 249.000
80.31304 231.000
80.33299 252.000
80.35293 261.000
80.37288 271.000
80.39283 222.000
80.41278 251.000
80.43272 268.000
80.45267 251.000
80.47262 235.000
80.49256 228.000
80.51251 249.000
80.53246 265.000
80.55240 240.000
80.57235 230.000
80.59230 230.000
80.61224 257.000
80.63219 221.000
80.65214 228.000
80.67209 247.000
80.69203 222.000
80.71198 241.000
80.73193 236.000
80.75187 230.000
80.77182 226.000
80.79177 219.000
80.81171 246.000
80.83166 261.000
80.85161 191.000
80.87156 256.000
80.89150 257.000
80.91145 234.000
80.93140 237.000
80.95134 223.000
80.97129 247.000
80.99124 262.000
81.01118 255.000
81.03113 249.000
81.05108 250.000
81.07102 227.000
81.09097 232.000
81.11092 225.000
81.13087 256.000
81.15081 220.000
81.17076 236.000
81.19071 213.000
81.21065 227.000
81.23060 249.000
81.25055 249.000
81.27049 250.000
81.29044 215.000
81.31039 236.000
81.33034 265.000
81.35028 244.000
81.37023 258.000
81.39018 225.000
81.41012 234.000
81.43007 214.000
81.45002 256.000
81.46996 218.000
81.48991 250.000
81.50986 240.000
81.52980 250.000
81.54975 232.000
81.56970 205.000
81.58965 229.000
81.60959 243.000
81.62954 256.000
81.64949 260.000
81.66943 264.000
81.68938 247.000
81.70933 237.000
81.72927 246.000
81.74922 269.000
81.76917 227.000
81.78912 239.000
81.80906 211.000
81.82901 239.000
81.84896 214.000
81.86890 243.000
81.88885 252.000
81.90880 222.000
81.92874 245.000
81.94869 240.000
81.96864 195.000
81.98859 240.000
82.00853 232.000
82.02848 240.000
82.04843 245.000
82.06837 265.000
82.08832 238.000
82.10827 236.000
82.12821 209.000
82.14816 238.000
82.16811 229.000
82.18805 212.000
82.20800 236.000
82.22795 258.000
82.24790 216.000
82.26784 242.000
82.28779 232.000
82.30774 234.000
82.32768 229.000
82.34763 235.000
82.36758 261.000
82.38752 261.000
82.40747 253.000
82.42742 228.000
82.44737 210.000
82.46731 246.000
82.48726 226.000
82.50721 235.000
82.52715 257.000
82.54710 262.000
82.56705 243.000
82.58699 258.000
82.60694 227.000
82.62689 225.000
82.64683 263.000
82.66678 248.000
82.68673 236.000
82.70668 240.000
82.72662 240.000
82.74657 234.000
82.76652 273.000
82.78646 213.000
82.80641 257.000
82.82636 220.000
82.84630 229.000
82.86625 227.000
82.88620 258.000
82.90615 234.000
82.92609 228.000
82.94604 217.000
82.96599 242.000
82.98593 233.000
83.00588 236.000
83.02583 281.000
83.04577 232.000
83.06572 219.000
83.08567 241.000
83.10561 239.000
83.12556 263.000
83.14551 236.000
83.16546 210.000
83.18540 250.000
83.20535 261.000
83.22530 249.000
83.24524 235.000
83.26519 214.000
83.28514 246.000
83.30508 260.000
83.32503 238.000
83.34498 261.000
83.36493 239.000
83.38487 237.000
83.40482 264.000
83.42477 235.000
83.44471 221.000
83.46466 210.000
83.48461 224.000
83.50455 227.000
83.52450 252.000
83.54445 257.000
83.56440 245.000
83.58434 234.000
83.60429 238.000
83.62424 232.000
83.64418 218.000
83.66413 200.000
83.68408 256.000
83.70402 260.000
83.72397 244.000
83.74392 222.000
83.76386 249.000
83.78381 248.000
83.80376 263.000
83.82371 201.000
83.84365 237.000
83.86360 237.000
83.88355 246.000
83.90349 204.000
83.92344 236.000
83.94339 208.000
83.96333 241.000
83.98328 217.000
84.00323 241.000
84.02318 219.000
84.04312 231.000
84.06307 225.000
84.08302 233.000
84.10296 208.000
84.12291 227.000
84.14286 232.000
84.16280 252.000
84.18275 246.000
84.20270 240.000
84.22264 262.000
84.24259 239.000
84.26254 242.000
84.28249 200.000
84.30243 218.000
84.32238 222.000
84.34233 256.000
84.36227 213.000
84.38222 252.000
84.40217 249.000
84.42211 209.000
84.44206 247.000
84.46201 261.000
84.48196 248.000
84.50190 246.000
84.52185 238.000
84.54180 225.000
84.56174 223.000
84.58169 267.000
84.60164 221.000
84.62158 262.000
84.64153 226.000
84.66148 246.000
84.68142 263.000
84.70137 217.000
84.72132 227.000
84.74127 249.000
84.76121 232.000
84.78116 247.000
84.80111 228.000
84.82105 237.000
84.84100 241.000
84.86095 230.000
84.88089 228.000
84.90084 241.000
84.92079 230.000
84.94074 233.000
84.96068 221.000
84.98063 209.000
85.00058 236.000
85.02052 250.000
85.04047 213.000
85.06042 233.000
85.08036 211.000
85.10031 226.000
85.12026 227.000
85.14021 220.000
85.16015 242.000
85.18010 225.000
85.20005 249.000
85.21999 242.000
85.23994 237.000
85.25989 240.000
85.27983 232.000
85.29978 213.000
85.31973 245.000
85.33967 236.000
85.35962 224.000
85.37957 245.000
85.39952 219.000
85.41946 231.000
85.43941 233.000
85.45936 225.000
85.47930 220.000
85.49925 207.000
85.51920 226.000
85.53914 253.000
85.55909 238.000
85.57904 247.000
85.59899 228.000
85.61893 233.000
85.63888 219.000
85.65883 237.000
85.67877 269.000
85.69872 233.000
85.71867 237.000
85.73861 230.000
85.75856 229.000
85.77851 235.000
85.79845 229.000
85.81840 257.000
85.83835 222.000
85.85830 230.000
85.87824 221.000
85.89819 231.000
85.91814 205.000
85.93808 243.000
85.95803 230.000
85.97798 245.000
85.99792 239.000
86.01787 249.000
86.03782 220.000
86.05777 195.000
86.07771 226.000
86.09766 227.000
86.11761 236.000
86.13755 251.000
86.15750 227.000
86.17745 245.000
86.19739 217.000
86.21734 231.000
86.23729 225.000
86.25723 226.000
86.27718 234.000
86.29713 234.000
86.31708 235.000
86.33702 243.000
86.35697 235.000
86.37692 240.000
86.39686 232.000
86.41681 230.000
86.43676 249.000
86.45670 268.000
86.47665 238.000
86.49660 248.000
86.51655 225.000
86.53649 250.000
86.55644 244.000
86.57639 227.000
86.59633 247.000
86.61628 210.000
86.63623 281.000
86.65617 218.000
86.67612 248.000
86.69607 264.000
86.71602 257.000
86.73596 229.000
86.75591 229.000
86.77586 257.000
86.79580 256.000
86.81575 230.000
86.83570 249.000
86.85564 245.000
86.87559 217.000
86.89554 223.000
86.91548 253.000
86.93543 248.000
86.95538 253.000
86.97533 255.000
86.99527 242.000
87.01522 250.000
87.03517 258.000
87.05511 294.000
87.07506 272.000
87.09501 238.000
87.11495 253.000
87.13490 240.000
87.15485 226.000
87.17480 265.000
87.19474 250.000
87.21469 274.000
87.23464 245.000
87.25458 223.000
87.27453 255.000
87.29448 246.000
87.31442 240.000
87.33437 221.000
87.35432 220.000
87.37426 255.000
87.39421 275.000
87.41416 218.000
87.43411 253.000
87.45405 235.000
87.47400 238.000
87.49395 233.000
87.51389 244.000
87.53384 253.000
87.55379 219.000
87.57373 220.000
87.59368 230.000
87.61363 246.000
87.63358 238.000
87.65352 249.000
87.67347 223.000
87.69342 231.000
87.71336 238.000
87.73331 239.000
87.75326 233.000
87.77320 228.000
87.79315 243.000
87.81310 263.000
87.83304 248.000
87.85299 259.000
87.87294 231.000
87.89289 228.000
87.91283 214.000
87.93278 228.000
87.95273 240.000
87.97267 243.000
87.99262 246.000
88.01257 217.000
88.03251 219.000
88.05246 229.000
88.07241 233.000
88.09236 244.000
88.11230 220.000
88.13225 221.000
88.15220 240.000
88.17214 213.000
88.19209 238.000
88.21204 222.000
88.23198 225.000
88.25193 240.000
88.27188 222.000
88.29183 223.000
88.31177 244.000
88.33172 253.000
88.35167 276.000
88.37161 229.000
88.39156 233.000
88.41151 226.000
88.43145 233.000
88.45140 220.000
88.47135 258.000
88.49129 238.000
88.51124 216.000
88.53119 253.000
88.55114 222.000
88.57108 270.000
88.59103 250.000
88.61098 249.000
88.63092 212.000
88.65087 274.000
88.67082 234.000
88.69076 214.000
88.71071 265.000
88.73066 232.000
88.75061 219.000
88.77055 215.000
88.79050 200.000
88.81045 254.000
88.83039 243.000
88.85034 251.000
88.87029 240.000
88.89023 229.000
88.91018 241.000
88.93013 261.000
88.95007 228.000
88.97002 244.000
88.98997 224.000
89.00992 252.000
89.02986 228.000
89.04981 255.000
89.06976 227.000
89.08970 227.000
89.10965 275.000
89.12960 223.000
89.14954 237.000
89.16949 233.000
89.18944 225.000
89.20939 210.000
89.22933 272.000
89.24928 239.000
89.26923 232.000
89.28917 249.000
89.30912 237.000
89.32907 218.000
89.34901 253.000
89.36896 234.000
89.38891 234.000
89.40885 221.000
89.42880 226.000
89.44875 234.000
89.46870 248.000
89.48864 247.000
89.50859 240.000
89.52854 244.000
89.54848 223.000
89.56843 237.000
89.58838 256.000
89.60832 245.000
89.62827 238.000
89.64822 246.000
89.66817 265.000
89.68811 245.000
89.70806 224.000
89.72801 231.000
89.74795 272.000
89.76790 249.000
89.78785 254.000
89.80779 260.000
89.82774 216.000
89.84769 238.000
89.86764 235.000
89.88758 250.000
89.90753 263.000
89.92748 277.000
89.94742 246.000
89.96737 304.000
89.98732 250.000
90.00726 268.000
