10.00000 119.000
10.01995 150.000
10.03989 125.000
10.05984 104.000
10.07979 114.000
10.09973 129.000
10.11968 129.000
10.13963 138.000
10.15958 133.000
10.17952 128.000
10.19947 133.000
10.21942 141.000
10.23936 113.000
10.25931 111.000
10.27926 115.000
10.29920 143.000
10.31915 113.000
10.33910 120.000
10.35905 133.000
10.37899 121.000
10.39894 130.000
10.41889 112.000
10.43883 134.000
10.45878 123.000
10.47873 106.000
10.49867 132.000
10.51862 131.000
10.53857 119.000
10.55851 116.000
10.57846 136.000
10.59841 128.000
10.61836 131.000
10.63830 148.000
10.65825 130.000
10.67820 116.000
10.69814 109.000
10.71809 110.000
10.73804 140.000
10.75798 107.000
10.77793 121.000
10.79788 107.000
10.81783 132.000
10.83777 101.000
10.85772 126.000
10.87767 111.000
10.89761 128.000
10.91756 127.000
10.93751 117.000
10.95745 117.000
10.97740 125.000
10.99735 134.000
11.01730 128.000
11.03724 122.000
11.05719 134.000
11.07714 136.000
11.09708 112.000
11.11703 110.000
11.13698 106.000
11.15692 122.000
11.17687 116.000
11.19682 130.000
11.21676 131.000
11.23671 127.000
11.25666 108.000
11.27661 143.000
11.29655 108.000
11.31650 118.000
11.33645 126.000
11.35639 142.000
11.37634 123.000
11.39629 129.000
11.41623 112.000
11.43618 134.000
11.45613 121.000
11.47608 120.000
11.49602 118.000
11.51597 100.000
11.53592 129.000
11.55586 127.000
11.57581 129.000
11.59576 134.000
11.61570 103.000
11.63565 120.000
11.65560 116.000
11.67554 123.000
11.69549 111.000
11.71544 115.000
11.73539 116.000
11.75533 126.000
11.77528 125.000
11.79523 114.000
11.81517 139.000
11.83512 125.000
11.85507 119.000
11.87501 133.000
11.89496 135.000
11.91491 115.000
11.93486 130.000
11.95480 118.000
11.97475 115.000
11.99470 121.000
12.01464 101.000
12.03459 130.000
12.05454 101.000
12.07448 114.000
12.09443 124.000
12.11438 142.000
12.13432 122.000
12.15427 117.000
12.17422 115.000
12.19417 120.000
12.21411 128.000
12.23406 125.000
12.25401 131.000
12.27395 135.000
12.29390 115.000
12.31385 106.000
12.33379 121.000
12.35374 127.000
12.37369 123.000
12.39364 111.000
12.41358 128.000
12.43353 130.000
12.45348 116.000
12.47342 110.000
12.49337 105.000
12.51332 126.000
12.53326 124.000
12.55321 133.000
12.57316 126.000
12.59311 112.000
12.61305 140.000
12.63300 110.000
12.65295 122.000
12.67289 120.000
12.69284 127.000
12.71279 114.000
12.73273 133.000
12.75268 125.000
12.77263 117.000
12.79257 136.000
12.81252 118.000
12.83247 138.000
12.85242 127.000
12.87236 109.000
12.89231 125.000
12.91226 120.000
12.93220 126.000
12.95215 108.000
12.97210 120.000
12.99204 111.000
13.01199 117.000
13.03194 127.000
13.05189 107.000
13.07183 121.000
13.09178 118.000
13.11173 108.000
13.13167 129.000
13.15162 118.000
13.17157 106.000
13.19151 128.000
13.21146 129.000
13.23141 104.000
13.25135 111.000
13.27130 109.000
13.29125 134.000
13.31120 130.000
13.33114 133.000
13.35109 124.000
13.37104 127.000
13.39098 126.000
13.41093 131.000
13.43088 113.000
13.45082 106.000
13.47077 134.000
13.49072 105.000
13.51067 133.000
13.53061 119.000
13.55056 115.000
13.57051 124.000
13.59045 123.000
13.61040 141.000
13.63035 111.000
13.65029 131.000
13.67024 111.000
13.69019 109.000
13.71013 119.000
13.73008 92.000
13.75003 105.000
13.76998 123.000
13.78992 125.000
13.80987 114.000
13.82982 121.000
13.84976 118.000
13.86971 132.000
13.88966 107.000
13.90960 126.000
13.92955 111.000
13.94950 134.000
13.96945 124.000
13.98939 132.000
14.00934 135.000
14.02929 124.000
14.04923 125.000
14.06918 131.000
14.08913 134.000
14.10907 138.000
14.12902 142.000
14.14897 116.000
14.16892 116.000
14.18886 126.000
14.20881 113.000
14.22876 122.000
14.24870 120.000
14.26865 111.000
14.28860 113.000
14.30854 132.000
14.32849 138.000
14.34844 119.000
14.36838 131.000
14.38833 112.000
14.40828 143.000
14.42823 123.000
14.44817 132.000
14.46812 122.000
14.48807 122.000
14.50801 115.000
14.52796 130.000
14.54791 124.000
14.56785 130.000
14.58780 147.000
14.60775 126.000
14.62770 135.000
14.64764 104.000
14.66759 135.000
14.68754 129.000
14.70748 126.000
14.72743 120.000
14.74738 131.000
14.76732 119.000
14.78727 131.000
14.80722 130.000
14.82716 128.000
14.84711 139.000
14.86706 138.000
14.88701 127.000
14.90695 133.000
14.92690 142.000
14.94685 103.000
14.96679 135.000
14.98674 113.000
15.00669 149.000
15.02663 127.000
15.04658 133.000
15.06653 131.000
15.08648 115.000
15.10642 140.000
15.12637 149.000
15.14632 120.000
15.16626 122.000
15.18621 125.000
15.20616 152.000
15.22610 158.000
15.24605 155.000
15.26600 145.000
15.28594 162.000
15.30589 159.000
15.32584 178.000
15.34579 140.000
15.36573 154.000
15.38568 164.000
15.40563 145.000
15.42557 158.000
15.44552 172.000
15.46547 167.000
15.48541 162.000
15.50536 173.000
15.52531 171.000
15.54526 211.000
15.56520 207.000
15.58515 165.000
15.60510 208.000
15.62504 196.000
15.64499 197.000
15.66494 247.000
15.68488 252.000
15.70483 281.000
15.72478 309.000
15.74472 442.000
15.76467 502.000
15.78462 687.000
15.80457 1115.000
15.82451 1601.000
15.84446 2614.000
15.86441 4209.000
15.88435 6265.000
15.90430 7852.000
15.92425 7804.000
15.94419 6270.000
15.96414 4052.000
15.98409 2192.000
16.00404 1223.000
16.02398 600.000
16.04393 418.000
16.06388 369.000
16.08382 348.000
16.10377 364.000
16.12372 341.000
16.14366 442.000
16.16361 497.000
16.18356 583.000
16.20351 664.000
16.22345 686.000
16.24340 774.000
16.26335 695.000
16.28329 625.000
16.30324 464.000
16.32319 392.000
16.34313 274.000
16.36308 238.000
16.38303 192.000
16.40297 160.000
16.42292 144.000
16.44287 176.000
16.46282 179.000
16.48276 156.000
16.50271 151.000
16.52266 137.000
16.54260 138.000
16.56255 165.000
16.58250 143.000
16.60244 135.000
16.62239 145.000
16.64234 138.000
16.66229 151.000
16.68223 159.000
16.70218 153.000
16.72213 131.000
16.74207 143.000
16.76202 140.000
16.78197 124.000
16.80191 158.000
16.82186 152.000
16.84181 125.000
16.86175 146.000
16.88170 167.000
16.90165 143.000
16.92160 146.000
16.94154 162.000
16.96149 146.000
16.98144 116.000
17.00138 121.000
17.02133 139.000
17.04128 122.000
17.06122 123.000
17.08117 133.000
17.10112 133.000
17.12107 118.000
17.14101 119.000
17.16096 135.000
17.18091 129.000
17.20085 130.000
17.22080 122.000
17.24075 132.000
17.26069 102.000
17.28064 138.000
17.30059 111.000
17.32053 89.000
17.34048 123.000
17.36043 127.000
17.38038 146.000
17.40032 124.000
17.42027 138.000
17.44022 102.000
17.46016 125.000
17.48011 117.000
17.50006 132.000
17.52000 128.000
17.53995 133.000
17.55990 139.000
17.57985 140.000
17.59979 132.000
17.61974 114.000
17.63969 124.000
17.65963 105.000
17.67958 115.000
17.69953 118.000
17.71947 124.000
17.73942 124.000
17.75937 133.000
17.77932 131.000
17.79926 112.000
17.81921 114.000
17.83916 129.000
17.85910 142.000
17.87905 134.000
17.89900 101.000
17.91894 140.000
17.93889 134.000
17.95884 119.000
17.97878 132.000
17.99873 130.000
18.01868 119.000
18.03863 114.000
18.05857 98.000
18.07852 122.000
18.09847 118.000
18.11841 133.000
18.13836 100.000
18.15831 146.000
18.17825 136.000
18.19820 118.000
18.21815 123.000
18.23810 111.000
18.25804 136.000
18.27799 133.000
18.29794 121.000
18.31788 139.000
18.33783 151.000
18.35778 161.000
18.37772 156.000
18.39767 239.000
18.41762 334.000
18.43756 375.000
18.45751 292.000
18.47746 269.000
18.49741 218.000
18.51735 178.000
18.53730 160.000
18.55725 127.000
18.57719 139.000
18.59714 134.000
18.61709 126.000
18.63703 118.000
18.65698 126.000
18.67693 115.000
18.69688 126.000
18.71682 105.000
18.73677 117.000
18.75672 118.000
18.77666 141.000
18.79661 116.000
18.81656 123.000
18.83650 117.000
18.85645 110.000
18.87640 136.000
18.89634 126.000
18.91629 113.000
18.93624 108.000
18.95619 129.000
18.97613 108.000
18.99608 97.000
19.01603 117.000
19.03597 126.000
19.05592 126.000
19.07587 105.000
19.09581 98.000
19.11576 144.000
19.13571 102.000
19.15566 117.000
19.17560 130.000
19.19555 114.000
19.21550 118.000
19.23544 124.000
19.25539 119.000
19.27534 129.000
19.29528 115.000
19.31523 106.000
19.33518 125.000
19.35513 113.000
19.37507 115.000
19.39502 121.000
19.41497 124.000
19.43491 120.000
19.45486 125.000
19.47481 126.000
19.49475 132.000
19.51470 122.000
19.53465 95.000
19.55459 117.000
19.57454 122.000
19.59449 118.000
19.61444 127.000
19.63438 114.000
19.65433 114.000
19.67428 135.000
19.69422 102.000
19.71417 116.000
19.73412 105.000
19.75406 125.000
19.77401 121.000
19.79396 98.000
19.81391 116.000
19.83385 142.000
19.85380 93.000
19.87375 125.000
19.89369 100.000
19.91364 112.000
19.93359 116.000
19.95353 122.000
19.97348 145.000
19.99343 132.000
20.01337 112.000
20.03332 112.000
20.05327 148.000
20.07322 129.000
20.09316 119.000
20.11311 111.000
20.13306 116.000
20.15300 120.000
20.17295 115.000
20.19290 112.000
20.21284 125.000
20.23279 117.000
20.25274 119.000
20.27269 122.000
20.29263 104.000
20.31258 108.000
20.33253 119.000
20.35247 128.000
20.37242 128.000
20.39237 116.000
20.41231 112.000
20.43226 128.000
20.45221 143.000
20.47215 112.000
20.49210 141.000
20.51205 119.000
20.53200 125.000
20.55194 109.000
20.57189 143.000
20.59184 116.000
20.61178 134.000
20.63173 121.000
20.65168 141.000
20.67162 129.000
20.69157 145.000
20.71152 152.000
20.73147 144.000
20.75141 167.000
20.77136 181.000
20.79131 209.000
20.81125 240.000
20.83120 264.000
20.85115 274.000
20.87109 302.000
20.89104 329.000
20.91099 384.000
20.93094 346.000
20.95088 303.000
20.97083 343.000
20.99078 330.000
21.01072 312.000
21.03067 258.000
21.05062 271.000
21.07056 270.000
21.09051 268.000
21.11046 243.000
21.13040 216.000
21.15035 199.000
21.17030 181.000
21.19025 151.000
21.21019 142.000
21.23014 151.000
21.25009 145.000
21.27003 138.000
21.28998 122.000
21.30993 152.000
21.32987 149.000
21.34982 126.000
21.36977 126.000
21.38972 133.000
21.40966 135.000
21.42961 145.000
21.44956 128.000
21.46950 124.000
21.48945 116.000
21.50940 143.000
21.52934 125.000
21.54929 105.000
21.56924 127.000
21.58918 134.000
21.60913 124.000
21.62908 124.000
21.64903 133.000
21.66897 105.000
21.68892 126.000
21.70887 122.000
21.72881 114.000
21.74876 124.000
21.76871 143.000
21.78865 145.000
21.80860 123.000
21.82855 122.000
21.84850 128.000
21.86844 133.000
21.88839 119.000
21.90834 124.000
21.92828 128.000
21.94823 116.000
21.96818 139.000
21.98812 114.000
22.00807 139.000
22.02802 142.000
22.04796 122.000
22.06791 113.000
22.08786 123.000
22.10781 125.000
22.12775 126.000
22.14770 124.000
22.16765 111.000
22.18759 132.000
22.20754 128.000
22.22749 116.000
22.24743 121.000
22.26738 120.000
22.28733 126.000
22.30728 124.000
22.32722 121.000
22.34717 126.000
22.36712 110.000
22.38706 120.000
22.40701 116.000
22.42696 131.000
22.44690 115.000
22.46685 138.000
22.48680 123.000
22.50675 127.000
22.52669 128.000
22.54664 119.000
22.56659 127.000
22.58653 127.000
22.60648 120.000
22.62643 127.000
22.64637 121.000
22.66632 121.000
22.68627 128.000
22.70621 132.000
22.72616 142.000
22.74611 131.000
22.76606 126.000
22.78600 97.000
22.80595 133.000
22.82590 133.000
22.84584 113.000
22.86579 109.000
22.88574 140.000
22.90568 107.000
22.92563 118.000
22.94558 130.000
22.96553 143.000
22.98547 141.000
23.00542 119.000
23.02537 143.000
23.04531 129.000
23.06526 150.000
23.08521 133.000
23.10515 115.000
23.12510 123.000
23.14505 119.000
23.16499 108.000
23.18494 129.000
23.20489 123.000
23.22484 131.000
23.24478 117.000
23.26473 134.000
23.28468 117.000
23.30462 131.000
23.32457 129.000
23.34452 125.000
23.36446 119.000
23.38441 142.000
23.40436 129.000
23.42431 114.000
23.44425 154.000
23.46420 126.000
23.48415 132.000
23.50409 134.000
23.52404 122.000
23.54399 107.000
23.56393 129.000
23.58388 128.000
23.60383 104.000
23.62377 126.000
23.64372 129.000
23.66367 118.000
23.68362 99.000
23.70356 132.000
23.72351 113.000
23.74346 122.000
23.76340 123.000
23.78335 128.000
23.80330 121.000
23.82324 114.000
23.84319 133.000
23.86314 156.000
23.88309 126.000
23.90303 132.000
23.92298 131.000
23.94293 121.000
23.96287 109.000
23.98282 150.000
24.00277 137.000
24.02271 116.000
24.04266 123.000
24.06261 133.000
24.08256 129.000
24.10250 135.000
24.12245 125.000
24.14240 109.000
24.16234 123.000
24.18229 150.000
24.20224 104.000
24.22218 136.000
24.24213 119.000
24.26208 151.000
24.28202 135.000
24.30197 126.000
24.32192 130.000
24.34187 137.000
24.36181 137.000
24.38176 119.000
24.40171 114.000
24.42165 134.000
24.44160 116.000
24.46155 132.000
24.48149 137.000
24.50144 126.000
24.52139 146.000
24.54134 126.000
24.56128 119.000
24.58123 115.000
24.60118 139.000
24.62112 132.000
24.64107 138.000
24.66102 128.000
24.68096 130.000
24.70091 138.000
24.72086 136.000
24.74080 125.000
24.76075 124.000
24.78070 124.000
24.80065 146.000
24.82059 131.000
24.84054 134.000
24.86049 127.000
24.88043 132.000
24.90038 138.000
24.92033 138.000
24.94027 124.000
24.96022 137.000
24.98017 154.000
25.00012 142.000
25.02006 162.000
25.04001 133.000
25.05996 161.000
25.07990 141.000
25.09985 144.000
25.11980 130.000
25.13974 138.000
25.15969 152.000
25.17964 118.000
25.19958 149.000
25.21953 132.000
25.23948 146.000
25.25943 160.000
25.27937 108.000
25.29932 138.000
25.31927 102.000
25.33921 111.000
25.35916 132.000
25.37911 115.000
25.39905 123.000
25.41900 136.000
25.43895 125.000
25.45890 134.000
25.47884 135.000
25.49879 125.000
25.51874 140.000
25.53868 142.000
25.55863 145.000
25.57858 125.000
25.59852 130.000
25.61847 128.000
25.63842 132.000
25.65837 144.000
25.67831 123.000
25.69826 135.000
25.71821 141.000
25.73815 130.000
25.75810 145.000
25.77805 141.000
25.79799 126.000
25.81794 125.000
25.83789 116.000
25.85783 125.000
25.87778 137.000
25.89773 113.000
25.91768 132.000
25.93762 122.000
25.95757 121.000
25.97752 118.000
25.99746 148.000
26.01741 142.000
26.03736 113.000
26.05730 152.000
26.07725 139.000
26.09720 134.000
26.11715 134.000
26.13709 137.000
26.15704 141.000
26.17699 111.000
26.19693 124.000
26.21688 129.000
26.23683 128.000
26.25677 126.000
26.27672 132.000
26.29667 132.000
26.31661 109.000
26.33656 150.000
26.35651 131.000
26.37646 136.000
26.39640 123.000
26.41635 133.000
26.43630 119.000
26.45624 133.000
26.47619 125.000
26.49614 129.000
26.51608 129.000
26.53603 118.000
26.55598 143.000
26.57593 121.000
26.59587 116.000
26.61582 131.000
26.63577 138.000
26.65571 137.000
26.67566 153.000
26.69561 135.000
26.71555 126.000
26.73550 134.000
26.75545 160.000
26.77539 141.000
26.79534 126.000
26.81529 140.000
26.83524 132.000
26.85518 124.000
26.87513 139.000
26.89508 140.000
26.91502 127.000
26.93497 154.000
26.95492 154.000
26.97486 137.000
26.99481 127.000
27.01476 145.000
27.03471 147.000
27.05465 132.000
27.07460 136.000
27.09455 150.000
27.11449 154.000
27.13444 137.000
27.15439 152.000
27.17433 153.000
27.19428 135.000
27.21423 146.000
27.23417 143.000
27.25412 132.000
27.27407 145.000
27.29402 122.000
27.31396 129.000
27.33391 149.000
27.35386 114.000
27.37380 154.000
27.39375 108.000
27.41370 146.000
27.43364 131.000
27.45359 135.000
27.47354 126.000
27.49349 122.000
27.51343 131.000
27.53338 149.000
27.55333 144.000
27.57327 131.000
27.59322 134.000
27.61317 140.000
27.63311 141.000
27.65306 166.000
27.67301 128.000
27.69296 142.000
27.71290 145.000
27.73285 124.000
27.75280 148.000
27.77274 141.000
27.79269 126.000
27.81264 136.000
27.83258 116.000
27.85253 148.000
27.87248 117.000
27.89242 106.000
27.91237 158.000
27.93232 160.000
27.95227 148.000
27.97221 155.000
27.99216 140.000
28.01211 145.000
28.03205 127.000
28.05200 157.000
28.07195 134.000
28.09189 155.000
28.11184 123.000
28.13179 160.000
28.15174 122.000
28.17168 111.000
28.19163 114.000
28.21158 127.000
28.23152 132.000
28.25147 151.000
28.27142 121.000
28.29136 133.000
28.31131 130.000
28.33126 143.000
28.35120 144.000
28.37115 163.000
28.39110 132.000
28.41105 155.000
28.43099 137.000
28.45094 129.000
28.47089 157.000
28.49083 121.000
28.51078 142.000
28.53073 149.000
28.55067 135.000
28.57062 148.000
28.59057 137.000
28.61052 137.000
28.63046 124.000
28.65041 158.000
28.67036 130.000
28.69030 146.000
28.71025 150.000
28.73020 116.000
28.75014 136.000
28.77009 148.000
28.79004 118.000
28.80998 132.000
28.82993 146.000
28.84988 154.000
28.86983 143.000
28.88977 145.000
28.90972 135.000
28.92967 140.000
28.94961 131.000
28.96956 136.000
28.98951 135.000
29.00945 153.000
29.02940 144.000
29.04935 153.000
29.06930 141.000
29.08924 114.000
29.10919 119.000
29.12914 153.000
29.14908 132.000
29.16903 138.000
29.18898 171.000
29.20892 142.000
29.22887 128.000
29.24882 132.000
29.26877 126.000
29.28871 141.000
29.30866 175.000
29.32861 164.000
29.34855 152.000
29.36850 202.000
29.38845 188.000
29.40839 199.000
29.42834 203.000
29.44829 189.000
29.46823 163.000
29.48818 172.000
29.50813 167.000
29.52808 144.000
29.54802 148.000
29.56797 167.000
29.58792 161.000
29.60786 133.000
29.62781 143.000
29.64776 149.000
29.66770 159.000
29.68765 131.000
29.70760 155.000
29.72755 166.000
29.74749 161.000
29.76744 134.000
29.78739 156.000
29.80733 152.000
29.82728 157.000
29.84723 148.000
29.86717 150.000
29.88712 154.000
29.90707 159.000
29.92701 148.000
29.94696 151.000
29.96691 171.000
29.98686 150.000
30.00680 141.000
30.02675 163.000
30.04670 149.000
30.06664 176.000
30.08659 169.000
30.10654 163.000
30.12648 189.000
30.14643 171.000
30.16638 208.000
30.18633 190.000
30.20627 213.000
30.22622 243.000
30.24617 297.000
30.26611 397.000
30.28606 603.000
30.30601 805.000
30.32595 723.000
30.34590 518.000
30.36585 500.000
30.38579 525.000
30.40574 423.000
30.42569 306.000
30.44564 223.000
30.46558 184.000
30.48553 155.000
30.50548 184.000
30.52542 161.000
30.54537 152.000
30.56532 150.000
30.58526 162.000
30.60521 145.000
30.62516 141.000
30.64511 154.000
30.66505 149.000
30.68500 152.000
30.70495 151.000
30.72489 148.000
30.74484 129.000
30.76479 147.000
30.78473 155.000
30.80468 132.000
30.82463 143.000
30.84458 121.000
30.86452 130.000
30.88447 136.000
30.90442 160.000
30.92436 145.000
30.94431 132.000
30.96426 156.000
30.98420 136.000
31.00415 149.000
31.02410 165.000
31.04404 146.000
31.06399 137.000
31.08394 139.000
31.10389 142.000
31.12383 141.000
31.14378 134.000
31.16373 134.000
31.18367 137.000
31.20362 157.000
31.22357 168.000
31.24351 161.000
31.26346 151.000
31.28341 136.000
31.30336 133.000
31.32330 155.000
31.34325 133.000
31.36320 130.000
31.38314 150.000
31.40309 131.000
31.42304 147.000
31.44298 168.000
31.46293 146.000
31.48288 169.000
31.50282 180.000
31.52277 153.000
31.54272 138.000
31.56267 140.000
31.58261 153.000
31.60256 170.000
31.62251 147.000
31.64245 120.000
31.66240 157.000
31.68235 154.000
31.70229 135.000
31.72224 163.000
31.74219 158.000
31.76214 162.000
31.78208 167.000
31.80203 145.000
31.82198 148.000
31.84192 157.000
31.86187 156.000
31.88182 164.000
31.90176 189.000
31.92171 182.000
31.94166 182.000
31.96160 253.000
31.98155 262.000
32.00150 269.000
32.02145 386.000
32.04139 471.000
32.06134 588.000
32.08129 772.000
32.10123 829.000
32.12118 734.000
32.14113 674.000
32.16107 678.000
32.18102 602.000
32.20097 402.000
32.22092 355.000
32.24086 343.000
32.26081 273.000
32.28076 225.000
32.30070 189.000
32.32065 169.000
32.34060 153.000
32.36054 173.000
32.38049 173.000
32.40044 155.000
32.42039 161.000
32.44033 147.000
32.46028 143.000
32.48023 161.000
32.50017 186.000
32.52012 183.000
32.54007 137.000
32.56001 182.000
32.57996 156.000
32.59991 180.000
32.61985 170.000
32.63980 157.000
32.65975 161.000
32.67970 156.000
32.69964 201.000
32.71959 163.000
32.73954 203.000
32.75948 194.000
32.77943 183.000
32.79938 181.000
32.81932 195.000
32.83927 192.000
32.85922 189.000
32.87917 184.000
32.89911 173.000
32.91906 190.000
32.93901 154.000
32.95895 201.000
32.97890 127.000
32.99885 155.000
33.01879 166.000
33.03874 125.000
33.05869 162.000
33.07863 144.000
33.09858 130.000
33.11853 142.000
33.13848 177.000
33.15842 131.000
33.17837 150.000
33.19832 149.000
33.21826 142.000
33.23821 128.000
33.25816 148.000
33.27810 124.000
33.29805 138.000
33.31800 148.000
33.33795 128.000
33.35789 150.000
33.37784 145.000
33.39779 148.000
33.41773 128.000
33.43768 141.000
33.45763 147.000
33.47757 133.000
33.49752 141.000
33.51747 162.000
33.53741 162.000
33.55736 168.000
33.57731 148.000
33.59726 126.000
33.61720 155.000
33.63715 151.000
33.65710 145.000
33.67704 160.000
33.69699 145.000
33.71694 156.000
33.73688 152.000
33.75683 170.000
33.77678 169.000
33.79673 153.000
33.81667 130.000
33.83662 167.000
33.85657 143.000
33.87651 151.000
33.89646 144.000
33.91641 156.000
33.93635 154.000
33.95630 163.000
33.97625 161.000
33.99620 151.000
34.01614 150.000
34.03609 161.000
34.05604 163.000
34.07598 168.000
34.09593 181.000
34.11588 182.000
34.13582 206.000
34.15577 189.000
34.17572 208.000
34.19566 187.000
34.21561 195.000
34.23556 210.000
34.25551 227.000
34.27545 230.000
34.29540 271.000
34.31535 269.000
34.33529 306.000
34.35524 299.000
34.37519 289.000
34.39513 365.000
34.41508 379.000
34.43503 369.000
34.45498 383.000
34.47492 386.000
34.49487 370.000
34.51482 365.000
34.53476 354.000
34.55471 329.000
34.57466 327.000
34.59460 323.000
34.61455 334.000
34.63450 331.000
34.65444 311.000
34.67439 283.000
34.69434 273.000
34.71429 268.000
34.73423 233.000
34.75418 261.000
34.77413 236.000
34.79407 201.000
34.81402 206.000
34.83397 239.000
34.85391 231.000
34.87386 219.000
34.89381 182.000
34.91376 218.000
34.93370 218.000
34.95365 197.000
34.97360 172.000
34.99354 177.000
35.01349 169.000
35.03344 164.000
35.05338 178.000
35.07333 161.000
35.09328 161.000
35.11322 182.000
35.13317 157.000
35.15312 178.000
35.17307 182.000
35.19301 194.000
35.21296 182.000
35.23291 187.000
35.25285 201.000
35.27280 205.000
35.29275 238.000
35.31269 217.000
35.33264 228.000
35.35259 223.000
35.37254 236.000
35.39248 250.000
35.41243 252.000
35.43238 295.000
35.45232 340.000
35.47227 366.000
35.49222 393.000
35.51216 455.000
35.53211 513.000
35.55206 609.000
35.57201 680.000
35.59195 735.000
35.61190 925.000
35.63185 1075.000
35.65179 1385.000
35.67174 1885.000
35.69169 2187.000
35.71163 2028.000
35.73158 1654.000
35.75153 1329.000
35.77147 1275.000
35.79142 1362.000
35.81137 1075.000
35.83132 737.000
35.85126 565.000
35.87121 409.000
35.89116 357.000
35.91110 334.000
35.93105 339.000
35.95100 257.000
35.97094 278.000
35.99089 250.000
36.01084 221.000
36.03079 225.000
36.05073 198.000
36.07068 206.000
36.09063 221.000
36.11057 205.000
36.13052 181.000
36.15047 198.000
36.17041 200.000
36.19036 147.000
36.21031 172.000
36.23025 190.000
36.25020 170.000
36.27015 174.000
36.29010 174.000
36.31004 192.000
36.32999 187.000
36.34994 190.000
36.36988 168.000
36.38983 151.000
36.40978 191.000
36.42972 200.000
36.44967 163.000
36.46962 157.000
36.48957 201.000
36.50951 194.000
36.52946 205.000
36.54941 197.000
36.56935 183.000
36.58930 163.000
36.60925 179.000
36.62919 179.000
36.64914 196.000
36.66909 192.000
36.68903 200.000
36.70898 199.000
36.72893 178.000
36.74888 213.000
36.76882 210.000
36.78877 174.000
36.80872 240.000
36.82866 238.000
36.84861 262.000
36.86856 266.000
36.88850 265.000
36.90845 303.000
36.92840 319.000
36.94835 326.000
36.96829 330.000
36.98824 361.000
37.00819 389.000
37.02813 425.000
37.04808 472.000
37.06803 528.000
37.08797 557.000
37.10792 615.000
37.12787 678.000
37.14781 670.000
37.16776 681.000
37.18771 681.000
37.20766 677.000
37.22760 627.000
37.24755 528.000
37.26750 472.000
37.28744 442.000
37.30739 386.000
37.32734 386.000
37.34728 343.000
37.36723 317.000
37.38718 245.000
37.40713 264.000
37.42707 247.000
37.44702 244.000
37.46697 202.000
37.48691 172.000
37.50686 166.000
37.52681 183.000
37.54675 158.000
37.56670 176.000
37.58665 172.000
37.60660 154.000
37.62654 170.000
37.64649 165.000
37.66644 141.000
37.68638 158.000
37.70633 171.000
37.72628 143.000
37.74622 169.000
37.76617 139.000
37.78612 158.000
37.80606 152.000
37.82601 161.000
37.84596 139.000
37.86591 161.000
37.88585 146.000
37.90580 166.000
37.92575 159.000
37.94569 166.000
37.96564 158.000
37.98559 171.000
38.00553 147.000
38.02548 155.000
38.04543 147.000
38.06538 161.000
38.08532 167.000
38.10527 142.000
38.12522 157.000
38.14516 162.000
38.16511 160.000
38.18506 166.000
38.20500 145.000
38.22495 164.000
38.24490 172.000
38.26484 181.000
38.28479 139.000
38.30474 185.000
38.32469 145.000
38.34463 145.000
38.36458 136.000
38.38453 147.000
38.40447 162.000
38.42442 159.000
38.44437 158.000
38.46431 154.000
38.48426 189.000
38.50421 159.000
38.52416 164.000
38.54410 184.000
38.56405 178.000
38.58400 186.000
38.60394 188.000
38.62389 226.000
38.64384 226.000
38.66378 211.000
38.68373 223.000
38.70368 248.000
38.72362 270.000
38.74357 230.000
38.76352 262.000
38.78347 239.000
38.80341 251.000
38.82336 231.000
38.84331 258.000
38.86325 243.000
38.88320 234.000
38.90315 234.000
38.92309 246.000
38.94304 262.000
38.96299 238.000
38.98294 265.000
39.00288 242.000
39.02283 262.000
39.04278 309.000
39.06272 292.000
39.08267 352.000
39.10262 412.000
39.12256 465.000
39.14251 557.000
39.16246 599.000
39.18241 741.000
39.20235 793.000
39.22230 933.000
39.24225 926.000
39.26219 984.000
39.28214 950.000
39.30209 910.000
39.32203 881.000
39.34198 769.000
39.36193 720.000
39.38187 680.000
39.40182 589.000
39.42177 511.000
39.44172 430.000
39.46166 378.000
39.48161 331.000
39.50156 300.000
39.52150 258.000
39.54145 270.000
39.56140 229.000
39.58134 212.000
39.60129 204.000
39.62124 177.000
39.64119 195.000
39.66113 154.000
39.68108 176.000
39.70103 161.000
39.72097 194.000
39.74092 148.000
39.76087 160.000
39.78081 155.000
39.80076 162.000
39.82071 180.000
39.84065 153.000
39.86060 157.000
39.88055 159.000
39.90050 152.000
39.92044 130.000
39.94039 143.000
39.96034 136.000
39.98028 157.000
40.00023 160.000
40.02018 154.000
40.04012 167.000
40.06007 143.000
40.08002 142.000
40.09997 146.000
40.11991 139.000
40.13986 145.000
40.15981 153.000
40.17975 176.000
40.19970 116.000
40.21965 126.000
40.23959 149.000
40.25954 149.000
40.27949 131.000
40.29943 146.000
40.31938 119.000
40.33933 137.000
40.35928 153.000
40.37922 176.000
40.39917 147.000
40.41912 151.000
40.43906 134.000
40.45901 126.000
40.47896 139.000
40.49890 139.000
40.51885 151.000
40.53880 128.000
40.55875 140.000
40.57869 134.000
40.59864 159.000
40.61859 129.000
40.63853 124.000
40.65848 164.000
40.67843 171.000
40.69837 122.000
40.71832 141.000
40.73827 148.000
40.75822 132.000
40.77816 144.000
40.79811 172.000
40.81806 120.000
40.83800 132.000
40.85795 151.000
40.87790 120.000
40.89784 148.000
40.91779 123.000
40.93774 143.000
40.95768 132.000
40.97763 141.000
40.99758 160.000
41.01753 136.000
41.03747 154.000
41.05742 145.000
41.07737 141.000
41.09731 132.000
41.11726 146.000
41.13721 143.000
41.15715 148.000
41.17710 157.000
41.19705 147.000
41.21700 164.000
41.23694 139.000
41.25689 159.000
41.27684 153.000
41.29678 163.000
41.31673 147.000
41.33668 146.000
41.35662 147.000
41.37657 170.000
41.39652 170.000
41.41646 157.000
41.43641 163.000
41.45636 160.000
41.47631 168.000
41.49625 193.000
41.51620 171.000
41.53615 174.000
41.55609 225.000
41.57604 217.000
41.59599 277.000
41.61593 368.000
41.63588 391.000
41.65583 470.000
41.67578 514.000
41.69572 501.000
41.71567 529.000
41.73562 492.000
41.75556 456.000
41.77551 419.000
41.79546 390.000
41.81540 385.000
41.83535 327.000
41.85530 258.000
41.87524 230.000
41.89519 205.000
41.91514 177.000
41.93509 184.000
41.95503 176.000
41.97498 184.000
41.99493 190.000
42.01487 181.000
42.03482 159.000
42.05477 183.000
42.07471 139.000
42.09466 168.000
42.11461 164.000
42.13456 153.000
42.15450 175.000
42.17445 147.000
42.19440 156.000
42.21434 155.000
42.23429 151.000
42.25424 168.000
42.27418 158.000
42.29413 152.000
42.31408 152.000
42.33403 135.000
42.35397 157.000
42.37392 162.000
42.39387 181.000
42.41381 174.000
42.43376 158.000
42.45371 148.000
42.47365 168.000
42.49360 160.000
42.51355 153.000
42.53349 167.000
42.55344 174.000
42.57339 178.000
42.59334 177.000
42.61328 186.000
42.63323 196.000
42.65318 184.000
42.67312 178.000
42.69307 192.000
42.71302 199.000
42.73296 215.000
42.75291 185.000
42.77286 209.000
42.79281 232.000
42.81275 255.000
42.83270 241.000
42.85265 276.000
42.87259 271.000
42.89254 296.000
42.91249 335.000
42.93243 322.000
42.95238 345.000
42.97233 357.000
42.99227 400.000
43.01222 418.000
43.03217 457.000
43.05212 518.000
43.07206 500.000
43.09201 592.000
43.11196 649.000
43.13190 652.000
43.15185 675.000
43.17180 716.000
43.19174 776.000
43.21169 750.000
43.23164 803.000
43.25159 796.000
43.27153 868.000
43.29148 787.000
43.31143 864.000
43.33137 960.000
43.35132 1002.000
43.37127 1059.000
43.39121 1006.000
43.41116 967.000
43.43111 816.000
43.45105 782.000
43.47100 738.000
43.49095 709.000
43.51090 637.000
43.53084 550.000
43.55079 456.000
43.57074 360.000
43.59068 356.000
43.61063 302.000
43.63058 249.000
43.65052 249.000
43.67047 198.000
43.69042 205.000
43.71037 199.000
43.73031 210.000
43.75026 192.000
43.77021 175.000
43.79015 155.000
43.81010 141.000
43.83005 140.000
43.84999 148.000
43.86994 159.000
43.88989 147.000
43.90984 159.000
43.92978 161.000
43.94973 145.000
43.96968 161.000
43.98962 154.000
44.00957 171.000
44.02952 149.000
44.04946 184.000
44.06941 124.000
44.08936 137.000
44.10930 161.000
44.12925 129.000
44.14920 153.000
44.16915 132.000
44.18909 133.000
44.20904 146.000
44.22899 129.000
44.24893 161.000
44.26888 135.000
44.28883 116.000
44.30877 170.000
44.32872 133.000
44.34867 155.000
44.36862 154.000
44.38856 131.000
44.40851 127.000
44.42846 135.000
44.44840 142.000
44.46835 148.000
44.48830 157.000
44.50824 160.000
44.52819 131.000
44.54814 144.000
44.56808 120.000
44.58803 120.000
44.60798 137.000
44.62793 139.000
44.64787 138.000
44.66782 150.000
44.68777 145.000
44.70771 159.000
44.72766 125.000
44.74761 159.000
44.76755 139.000
44.78750 110.000
44.80745 138.000
44.82740 121.000
44.84734 168.000
44.86729 129.000
44.88724 157.000
44.90718 145.000
44.92713 166.000
44.94708 141.000
44.96702 132.000
44.98697 159.000
45.00692 153.000
45.02686 131.000
45.04681 149.000
45.06676 154.000
45.08671 146.000
45.10665 137.000
45.12660 157.000
45.14655 151.000
45.16649 161.000
45.18644 151.000
45.20639 152.000
45.22633 144.000
45.24628 133.000
45.26623 142.000
45.28618 132.000
45.30612 167.000
45.32607 133.000
45.34602 134.000
45.36596 131.000
45.38591 154.000
45.40586 145.000
45.42580 155.000
45.44575 134.000
45.46570 143.000
45.48565 131.000
45.50559 123.000
45.52554 130.000
45.54549 163.000
45.56543 150.000
45.58538 148.000
45.60533 120.000
45.62527 146.000
45.64522 140.000
45.66517 144.000
45.68511 132.000
45.70506 148.000
45.72501 129.000
45.74496 147.000
45.76490 123.000
45.78485 138.000
45.80480 137.000
45.82474 140.000
45.84469 137.000
45.86464 128.000
45.88458 126.000
45.90453 127.000
45.92448 130.000
45.94443 144.000
45.96437 141.000
45.98432 129.000
46.00427 156.000
46.02421 147.000
46.04416 134.000
46.06411 129.000
46.08405 138.000
46.10400 108.000
46.12395 137.000
46.14389 121.000
46.16384 154.000
46.18379 142.000
46.20374 126.000
46.22368 126.000
46.24363 124.000
46.26358 119.000
46.28352 132.000
46.30347 129.000
46.32342 147.000
46.34336 126.000
46.36331 118.000
46.38326 134.000
46.40321 130.000
46.42315 157.000
46.44310 133.000
46.46305 136.000
46.48299 125.000
46.50294 133.000
46.52289 141.000
46.54283 127.000
46.56278 139.000
46.58273 136.000
46.60267 124.000
46.62262 125.000
46.64257 149.000
46.66252 127.000
46.68246 117.000
46.70241 119.000
46.72236 134.000
46.74230 138.000
46.76225 146.000
46.78220 133.000
46.80214 120.000
46.82209 127.000
46.84204 141.000
46.86199 138.000
46.88193 126.000
46.90188 153.000
46.92183 141.000
46.94177 142.000
46.96172 134.000
46.98167 126.000
47.00161 142.000
47.02156 115.000
47.04151 133.000
47.06146 144.000
47.08140 139.000
47.10135 140.000
47.12130 139.000
47.14124 123.000
47.16119 154.000
47.18114 111.000
47.20108 169.000
47.22103 146.000
47.24098 150.000
47.26092 134.000
47.28087 156.000
47.30082 135.000
47.32077 130.000
47.34071 142.000
47.36066 144.000
47.38061 140.000
47.40055 135.000
47.42050 150.000
47.44045 129.000
47.46039 138.000
47.48034 145.000
47.50029 148.000
47.52024 130.000
47.54018 126.000
47.56013 132.000
47.58008 128.000
47.60002 143.000
47.61997 145.000
47.63992 140.000
47.65986 124.000
47.67981 148.000
47.69976 134.000
47.71970 161.000
47.73965 157.000
47.75960 134.000
47.77955 134.000
47.79949 136.000
47.81944 156.000
47.83939 136.000
47.85933 138.000
47.87928 147.000
47.89923 147.000
47.91917 157.000
47.93912 152.000
47.95907 142.000
47.97902 131.000
47.99896 167.000
48.01891 162.000
48.03886 154.000
48.05880 161.000
48.07875 167.000
48.09870 158.000
48.11864 159.000
48.13859 172.000
48.15854 168.000
48.17848 150.000
48.19843 196.000
48.21838 175.000
48.23833 169.000
48.25827 191.000
48.27822 172.000
48.29817 178.000
48.31811 163.000
48.33806 180.000
48.35801 171.000
48.37795 189.000
48.39790 178.000
48.41785 179.000
48.43780 211.000
48.45774 195.000
48.47769 212.000
48.49764 235.000
48.51758 259.000
48.53753 268.000
48.55748 312.000
48.57742 359.000
48.59737 409.000
48.61732 512.000
48.63726 638.000
48.65721 670.000
48.67716 769.000
48.69711 879.000
48.71705 765.000
48.73700 805.000
48.75695 767.000
48.77689 741.000
48.79684 772.000
48.81679 705.000
48.83673 662.000
48.85668 575.000
48.87663 587.000
48.89658 484.000
48.91652 408.000
48.93647 370.000
48.95642 359.000
48.97636 311.000
48.99631 270.000
49.01626 239.000
49.03620 215.000
49.05615 223.000
49.07610 203.000
49.09605 171.000
49.11599 192.000
49.13594 190.000
49.15589 176.000
49.17583 184.000
49.19578 176.000
49.21573 162.000
49.23567 166.000
49.25562 183.000
49.27557 158.000
49.29551 173.000
49.31546 178.000
49.33541 158.000
49.35536 151.000
49.37530 152.000
49.39525 165.000
49.41520 150.000
49.43514 143.000
49.45509 165.000
49.47504 158.000
49.49498 168.000
49.51493 153.000
49.53488 146.000
49.55483 143.000
49.57477 170.000
49.59472 141.000
49.61467 156.000
49.63461 144.000
49.65456 179.000
49.67451 155.000
49.69445 146.000
49.71440 145.000
49.73435 145.000
49.75429 149.000
49.77424 135.000
49.79419 144.000
49.81414 146.000
49.83408 160.000
49.85403 145.000
49.87398 151.000
49.89392 146.000
49.91387 146.000
49.93382 130.000
49.95376 142.000
49.97371 141.000
49.99366 168.000
50.01361 130.000
50.03355 132.000
50.05350 174.000
50.07345 137.000
50.09339 151.000
50.11334 130.000
50.13329 140.000
50.15323 145.000
50.17318 143.000
50.19313 143.000
50.21307 157.000
50.23302 127.000
50.25297 126.000
50.27292 114.000
50.29286 153.000
50.31281 114.000
50.33276 148.000
50.35270 144.000
50.37265 123.000
50.39260 149.000
50.41254 141.000
50.43249 113.000
50.45244 162.000
50.47239 144.000
50.49233 117.000
50.51228 134.000
50.53223 120.000
50.55217 152.000
50.57212 128.000
50.59207 155.000
50.61201 130.000
50.63196 142.000
50.65191 133.000
50.67186 123.000
50.69180 114.000
50.71175 122.000
50.73170 135.000
50.75164 155.000
50.77159 125.000
50.79154 122.000
50.81148 131.000
50.83143 143.000
50.85138 131.000
50.87132 116.000
50.89127 130.000
50.91122 134.000
50.93117 141.000
50.95111 125.000
50.97106 144.000
50.99101 117.000
51.01095 141.000
51.03090 136.000
51.05085 121.000
51.07079 122.000
51.09074 143.000
51.11069 123.000
51.13064 141.000
51.15058 129.000
51.17053 119.000
51.19048 116.000
51.21042 140.000
51.23037 132.000
51.25032 142.000
51.27026 114.000
51.29021 137.000
51.31016 114.000
51.33010 112.000
51.35005 126.000
51.37000 135.000
51.38995 124.000
51.40989 115.000
51.42984 142.000
51.44979 120.000
51.46973 129.000
51.48968 128.000
51.50963 118.000
51.52957 123.000
51.54952 135.000
51.56947 133.000
51.58942 125.000
51.60936 128.000
51.62931 122.000
51.64926 166.000
51.66920 132.000
51.68915 126.000
51.70910 129.000
51.72904 121.000
51.74899 139.000
51.76894 126.000
51.78888 128.000
51.80883 147.000
51.82878 129.000
51.84873 146.000
51.86867 123.000
51.88862 142.000
51.90857 123.000
51.92851 167.000
51.94846 123.000
51.96841 145.000
51.98835 132.000
52.00830 147.000
52.02825 139.000
52.04820 149.000
52.06814 159.000
52.08809 137.000
52.10804 148.000
52.12798 132.000
52.14793 125.000
52.16788 136.000
52.18782 133.000
52.20777 144.000
52.22772 144.000
52.24767 145.000
52.26761 158.000
52.28756 123.000
52.30751 136.000
52.32745 139.000
52.34740 118.000
52.36735 132.000
52.38729 147.000
52.40724 137.000
52.42719 150.000
52.44713 119.000
52.46708 137.000
52.48703 121.000
52.50698 133.000
52.52692 139.000
52.54687 109.000
52.56682 150.000
52.58676 124.000
52.60671 114.000
52.62666 157.000
52.64660 133.000
52.66655 137.000
52.68650 138.000
52.70645 137.000
52.72639 133.000
52.74634 140.000
52.76629 127.000
52.78623 135.000
52.80618 117.000
52.82613 138.000
52.84607 125.000
52.86602 133.000
52.88597 140.000
52.90591 136.000
52.92586 151.000
52.94581 136.000
52.96576 155.000
52.98570 161.000
53.00565 162.000
53.02560 178.000
53.04554 188.000
53.06549 190.000
53.08544 179.000
53.10538 178.000
53.12533 165.000
53.14528 165.000
53.16523 169.000
53.18517 181.000
53.20512 165.000
53.22507 155.000
53.24501 148.000
53.26496 147.000
53.28491 162.000
53.30485 141.000
53.32480 157.000
53.34475 133.000
53.36469 126.000
53.38464 108.000
53.40459 124.000
53.42454 149.000
53.44448 165.000
53.46443 146.000
53.48438 130.000
53.50432 138.000
53.52427 128.000
53.54422 137.000
53.56416 124.000
53.58411 183.000
53.60406 141.000
53.62401 145.000
53.64395 153.000
53.66390 146.000
53.68385 136.000
53.70379 154.000
53.72374 170.000
53.74369 173.000
53.76363 195.000
53.78358 219.000
53.80353 236.000
53.82348 246.000
53.84342 213.000
53.86337 179.000
53.88332 212.000
53.90326 186.000
53.92321 209.000
53.94316 198.000
53.96310 234.000
53.98305 200.000
54.00300 173.000
54.02294 170.000
54.04289 142.000
54.06284 157.000
54.08279 158.000
54.10273 144.000
54.12268 127.000
54.14263 153.000
54.16257 140.000
54.18252 147.000
54.20247 158.000
54.22241 146.000
54.24236 136.000
54.26231 123.000
54.28226 126.000
54.30220 139.000
54.32215 114.000
54.34210 129.000
54.36204 148.000
54.38199 135.000
54.40194 130.000
54.42188 144.000
54.44183 146.000
54.46178 117.000
54.48172 141.000
54.50167 155.000
54.52162 132.000
54.54157 146.000
54.56151 122.000
54.58146 133.000
54.60141 141.000
54.62135 115.000
54.64130 136.000
54.66125 147.000
54.68119 128.000
54.70114 132.000
54.72109 112.000
54.74104 139.000
54.76098 128.000
54.78093 151.000
54.80088 147.000
54.82082 137.000
54.84077 139.000
54.86072 120.000
54.88066 142.000
54.90061 145.000
54.92056 144.000
54.94050 133.000
54.96045 147.000
54.98040 122.000
55.00035 155.000
55.02029 133.000
55.04024 135.000
55.06019 106.000
55.08013 139.000
55.10008 134.000
55.12003 115.000
55.13997 148.000
55.15992 151.000
55.17987 129.000
55.19982 141.000
55.21976 106.000
55.23971 123.000
55.25966 125.000
55.27960 120.000
55.29955 142.000
55.31950 118.000
55.33944 116.000
55.35939 132.000
55.37934 127.000
55.39929 135.000
55.41923 136.000
55.43918 140.000
55.45913 158.000
55.47907 144.000
55.49902 141.000
55.51897 124.000
55.53891 128.000
55.55886 121.000
55.57881 126.000
55.59875 148.000
55.61870 131.000
55.63865 133.000
55.65860 142.000
55.67854 153.000
55.69849 130.000
55.71844 153.000
55.73838 138.000
55.75833 149.000
55.77828 130.000
55.79822 134.000
55.81817 148.000
55.83812 129.000
55.85807 120.000
55.87801 125.000
55.89796 143.000
55.91791 135.000
55.93785 118.000
55.95780 123.000
55.97775 156.000
55.99769 119.000
56.01764 135.000
56.03759 138.000
56.05753 137.000
56.07748 129.000
56.09743 139.000
56.11738 140.000
56.13732 119.000
56.15727 145.000
56.17722 133.000
56.19716 114.000
56.21711 144.000
56.23706 137.000
56.25700 123.000
56.27695 156.000
56.29690 143.000
56.31685 113.000
56.33679 131.000
56.35674 120.000
56.37669 143.000
56.39663 131.000
56.41658 120.000
56.43653 136.000
56.45647 120.000
56.47642 142.000
56.49637 138.000
56.51631 129.000
56.53626 128.000
56.55621 149.000
56.57616 133.000
56.59610 98.000
56.61605 140.000
56.63600 155.000
56.65594 144.000
56.67589 123.000
56.69584 137.000
56.71578 144.000
56.73573 140.000
56.75568 138.000
56.77563 120.000
56.79557 138.000
56.81552 129.000
56.83547 127.000
56.85541 152.000
56.87536 143.000
56.89531 128.000
56.91525 119.000
56.93520 141.000
56.95515 164.000
56.97510 144.000
56.99504 137.000
57.01499 155.000
57.03494 137.000
57.05488 181.000
57.07483 138.000
57.09478 146.000
57.11472 149.000
57.13467 149.000
57.15462 162.000
57.17456 159.000
57.19451 187.000
57.21446 190.000
57.23441 183.000
57.25435 187.000
57.27430 267.000
57.29425 244.000
57.31419 313.000
57.33414 377.000
57.35409 462.000
57.37403 551.000
57.39398 483.000
57.41393 426.000
57.43388 362.000
57.45382 334.000
57.47377 334.000
57.49372 329.000
57.51366 336.000
57.53361 377.000
57.55356 401.000
57.57350 310.000
57.59345 274.000
57.61340 244.000
57.63334 241.000
57.65329 238.000
57.67324 216.000
57.69319 227.000
57.71313 192.000
57.73308 213.000
57.75303 231.000
57.77297 181.000
57.79292 209.000
57.81287 197.000
57.83281 169.000
57.85276 209.000
57.87271 175.000
57.89266 189.000
57.91260 172.000
57.93255 196.000
57.95250 131.000
57.97244 147.000
57.99239 140.000
58.01234 130.000
58.03228 144.000
58.05223 166.000
58.07218 146.000
58.09212 135.000
58.11207 130.000
58.13202 133.000
58.15197 158.000
58.17191 142.000
58.19186 141.000
58.21181 148.000
58.23175 136.000
58.25170 146.000
58.27165 149.000
58.29159 146.000
58.31154 138.000
58.33149 138.000
58.35144 149.000
58.37138 140.000
58.39133 145.000
58.41128 145.000
58.43122 145.000
58.45117 127.000
58.47112 142.000
58.49106 149.000
58.51101 129.000
58.53096 127.000
58.55090 147.000
58.57085 135.000
58.59080 137.000
58.61075 138.000
58.63069 143.000
58.65064 140.000
58.67059 145.000
58.69053 135.000
58.71048 127.000
58.73043 126.000
58.75037 140.000
58.77032 141.000
58.79027 126.000
58.81022 136.000
58.83016 150.000
58.85011 144.000
58.87006 119.000
58.89000 134.000
58.90995 128.000
58.92990 140.000
58.94984 160.000
58.96979 140.000
58.98974 128.000
59.00969 140.000
59.02963 149.000
59.04958 129.000
59.06953 145.000
59.08947 126.000
59.10942 134.000
59.12937 106.000
59.14931 134.000
59.16926 139.000
59.18921 128.000
59.20915 137.000
59.22910 131.000
59.24905 142.000
59.26900 135.000
59.28894 150.000
59.30889 130.000
59.32884 132.000
59.34878 148.000
59.36873 145.000
59.38868 122.000
59.40862 146.000
59.42857 135.000
59.44852 119.000
59.46847 152.000
59.48841 124.000
59.50836 152.000
59.52831 101.000
59.54825 139.000
59.56820 117.000
59.58815 123.000
59.60809 142.000
59.62804 132.000
59.64799 154.000
59.66793 135.000
59.68788 138.000
59.70783 133.000
59.72778 132.000
59.74772 137.000
59.76767 129.000
59.78762 121.000
59.80756 134.000
59.82751 134.000
59.84746 133.000
59.86740 127.000
59.88735 157.000
59.90730 138.000
59.92725 147.000
59.94719 150.000
59.96714 166.000
59.98709 123.000
60.00703 144.000
60.02698 150.000
60.04693 127.000
60.06687 147.000
60.08682 127.000
60.10677 156.000
60.12671 149.000
60.14666 118.000
60.16661 120.000
60.18656 137.000
60.20650 152.000
60.22645 124.000
60.24640 137.000
60.26634 142.000
60.28629 130.000
60.30624 126.000
60.32618 141.000
60.34613 139.000
60.36608 152.000
60.38603 153.000
60.40597 135.000
60.42592 145.000
60.44587 134.000
60.46581 122.000
60.48576 133.000
60.50571 127.000
60.52565 142.000
60.54560 133.000
60.56555 132.000
60.58550 140.000
60.60544 143.000
60.62539 154.000
60.64534 132.000
60.66528 136.000
60.68523 156.000
60.70518 151.000
60.72512 122.000
60.74507 134.000
60.76502 131.000
60.78496 153.000
60.80491 168.000
60.82486 138.000
60.84481 137.000
60.86475 135.000
60.88470 134.000
60.90465 149.000
60.92459 157.000
60.94454 148.000
60.96449 154.000
60.98443 137.000
61.00438 143.000
61.02433 138.000
61.04428 149.000
61.06422 144.000
61.08417 127.000
61.10412 132.000
61.12406 150.000
61.14401 136.000
61.16396 154.000
61.18390 162.000
61.20385 158.000
61.22380 140.000
61.24374 158.000
61.26369 147.000
61.28364 146.000
61.30359 152.000
61.32353 176.000
61.34348 149.000
61.36343 130.000
61.38337 168.000
61.40332 134.000
61.42327 152.000
61.44321 163.000
61.46316 169.000
61.48311 168.000
61.50306 206.000
61.52300 188.000
61.54295 160.000
61.56290 181.000
61.58284 206.000
61.60279 199.000
61.62274 210.000
61.64268 210.000
61.66263 204.000
61.68258 195.000
61.70252 228.000
61.72247 189.000
61.74242 193.000
61.76237 262.000
61.78231 222.000
61.80226 233.000
61.82221 231.000
61.84215 248.000
61.86210 265.000
61.88205 292.000
61.90199 295.000
61.92194 335.000
61.94189 374.000
61.96184 400.000
61.98178 413.000
62.00173 463.000
62.02168 512.000
62.04162 488.000
62.06157 467.000
62.08152 469.000
62.10146 433.000
62.12141 416.000
62.14136 400.000
62.16131 408.000
62.18125 396.000
62.20120 407.000
62.22115 387.000
62.24109 339.000
62.26104 327.000
62.28099 318.000
62.30093 264.000
62.32088 284.000
62.34083 274.000
62.36077 251.000
62.38072 222.000
62.40067 278.000
62.42062 291.000
62.44056 285.000
62.46051 302.000
62.48046 287.000
62.50040 273.000
62.52035 309.000
62.54030 340.000
62.56024 330.000
62.58019 324.000
62.60014 374.000
62.62009 395.000
62.64003 414.000
62.65998 431.000
62.67993 381.000
62.69987 402.000
62.71982 421.000
62.73977 414.000
62.75971 410.000
62.77966 382.000
62.79961 380.000
62.81955 396.000
62.83950 399.000
62.85945 345.000
62.87940 400.000
62.89934 465.000
62.91929 431.000
62.93924 548.000
62.95918 572.000
62.97913 724.000
62.99908 850.000
63.01902 861.000
63.03897 737.000
63.05892 634.000
63.07887 506.000
63.09881 462.000
63.11876 418.000
63.13871 432.000
63.15865 464.000
63.17860 545.000
63.19855 467.000
63.21849 426.000
63.23844 371.000
63.25839 331.000
63.27833 272.000
63.29828 255.000
63.31823 231.000
63.33818 214.000
63.35812 212.000
63.37807 183.000
63.39802 189.000
63.41796 189.000
63.43791 191.000
63.45786 165.000
63.47780 188.000
63.49775 157.000
63.51770 165.000
63.53765 164.000
63.55759 158.000
63.57754 159.000
63.59749 153.000
63.61743 151.000
63.63738 172.000
63.65733 194.000
63.67727 167.000
63.69722 163.000
63.71717 179.000
63.73712 198.000
63.75706 182.000
63.77701 167.000
63.79696 186.000
63.81690 218.000
63.83685 222.000
63.85680 226.000
63.87674 194.000
63.89669 232.000
63.91664 233.000
63.93658 273.000
63.95653 284.000
63.97648 238.000
63.99643 257.000
64.01637 289.000
64.03632 265.000
64.05627 282.000
64.07621 309.000
64.09616 264.000
64.11611 289.000
64.13605 276.000
64.15600 256.000
64.17595 257.000
64.19590 246.000
64.21584 242.000
64.23579 213.000
64.25574 217.000
64.27568 226.000
64.29563 225.000
64.31558 231.000
64.33552 239.000
64.35547 219.000
64.37542 196.000
64.39536 193.000
64.41531 191.000
64.43526 172.000
64.45521 184.000
64.47515 152.000
64.49510 175.000
64.51505 171.000
64.53499 206.000
64.55494 158.000
64.57489 158.000
64.59483 156.000
64.61478 151.000
64.63473 180.000
64.65468 151.000
64.67462 169.000
64.69457 120.000
64.71452 142.000
64.73446 137.000
64.75441 159.000
64.77436 152.000
64.79430 120.000
64.81425 147.000
64.83420 155.000
64.85414 156.000
64.87409 155.000
64.89404 151.000
64.91399 134.000
64.93393 133.000
64.95388 130.000
64.97383 150.000
64.99377 126.000
65.01372 148.000
65.03367 147.000
65.05361 132.000
65.07356 153.000
65.09351 149.000
65.11346 156.000
65.13340 140.000
65.15335 136.000
65.17330 130.000
65.19324 167.000
65.21319 138.000
65.23314 143.000
65.25308 167.000
65.27303 156.000
65.29298 149.000
65.31293 149.000
65.33287 162.000
65.35282 139.000
65.37277 161.000
65.39271 141.000
65.41266 150.000
65.43261 144.000
65.45255 153.000
65.47250 143.000
65.49245 153.000
65.51239 193.000
65.53234 156.000
65.55229 152.000
65.57224 163.000
65.59218 179.000
65.61213 186.000
65.63208 162.000
65.65202 180.000
65.67197 162.000
65.69192 185.000
65.71186 176.000
65.73181 194.000
65.75176 179.000
65.77171 176.000
65.79165 169.000
65.81160 182.000
65.83155 166.000
65.85149 189.000
65.87144 163.000
65.89139 166.000
65.91133 178.000
65.93128 183.000
65.95123 174.000
65.97117 183.000
65.99112 176.000
66.01107 169.000
66.03102 170.000
66.05096 145.000
66.07091 180.000
66.09086 186.000
66.11080 161.000
66.13075 189.000
66.15070 151.000
66.17064 198.000
66.19059 159.000
66.21054 219.000
66.23049 210.000
66.25043 221.000
66.27038 199.000
66.29033 224.000
66.31027 202.000
66.33022 241.000
66.35017 240.000
66.37011 248.000
66.39006 240.000
66.41001 242.000
66.42995 262.000
66.44990 252.000
66.46985 246.000
66.48980 235.000
66.50974 253.000
66.52969 233.000
66.54964 233.000
66.56958 250.000
66.58953 237.000
66.60948 241.000
66.62942 218.000
66.64937 227.000
66.66932 207.000
66.68927 198.000
66.70921 178.000
66.72916 200.000
66.74911 214.000
66.76905 171.000
66.78900 172.000
66.80895 197.000
66.82889 168.000
66.84884 169.000
66.86879 179.000
66.88874 185.000
66.90868 189.000
66.92863 174.000
66.94858 183.000
66.96852 183.000
66.98847 211.000
67.00842 184.000
67.02836 195.000
67.04831 220.000
67.06826 206.000
67.08820 206.000
67.10815 179.000
67.12810 193.000
67.14805 178.000
67.16799 203.000
67.18794 167.000
67.20789 207.000
67.22783 179.000
67.24778 187.000
67.26773 192.000
67.28767 200.000
67.30762 171.000
67.32757 164.000
67.34752 170.000
67.36746 160.000
67.38741 145.000
67.40736 162.000
67.42730 143.000
67.44725 145.000
67.46720 150.000
67.48714 136.000
67.50709 138.000
67.52704 161.000
67.54698 139.000
67.56693 131.000
67.58688 118.000
67.60683 133.000
67.62677 146.000
67.64672 148.000
67.66667 147.000
67.68661 153.000
67.70656 157.000
67.72651 129.000
67.74645 141.000
67.76640 128.000
67.78635 136.000
67.80630 154.000
67.82624 136.000
67.84619 148.000
67.86614 171.000
67.88608 133.000
67.90603 160.000
67.92598 143.000
67.94592 156.000
67.96587 139.000
67.98582 155.000
68.00576 161.000
68.02571 164.000
68.04566 128.000
68.06561 158.000
68.08555 164.000
68.10550 165.000
68.12545 143.000
68.14539 174.000
68.16534 163.000
68.18529 154.000
68.20523 163.000
68.22518 162.000
68.24513 132.000
68.26508 168.000
68.28502 142.000
68.30497 143.000
68.32492 120.000
68.34486 146.000
68.36481 140.000
68.38476 135.000
68.40470 156.000
68.42465 122.000
68.44460 134.000
68.46455 128.000
68.48449 126.000
68.50444 127.000
68.52439 121.000
68.54433 142.000
68.56428 135.000
68.58423 138.000
68.60417 141.000
68.62412 125.000
68.64407 136.000
68.66401 138.000
68.68396 118.000
68.70391 151.000
68.72386 150.000
68.74380 130.000
68.76375 136.000
68.78370 135.000
68.80364 152.000
68.82359 123.000
68.84354 153.000
68.86348 139.000
68.88343 124.000
68.90338 133.000
68.92333 120.000
68.94327 118.000
68.96322 123.000
68.98317 123.000
69.00311 133.000
69.02306 144.000
69.04301 142.000
69.06295 125.000
69.08290 141.000
69.10285 116.000
69.12279 136.000
69.14274 118.000
69.16269 123.000
69.18264 112.000
69.20258 106.000
69.22253 134.000
69.24248 130.000
69.26242 121.000
69.28237 137.000
69.30232 141.000
69.32226 126.000
69.34221 116.000
69.36216 122.000
69.38211 146.000
69.40205 130.000
69.42200 127.000
69.44195 143.000
69.46189 131.000
69.48184 119.000
69.50179 120.000
69.52173 136.000
69.54168 107.000
69.56163 132.000
69.58157 125.000
69.60152 128.000
69.62147 123.000
69.64142 111.000
69.66136 126.000
69.68131 127.000
69.70126 124.000
69.72120 130.000
69.74115 130.000
69.76110 139.000
69.78104 102.000
69.80099 131.000
69.82094 123.000
69.84089 134.000
69.86083 124.000
69.88078 138.000
69.90073 117.000
69.92067 123.000
69.94062 149.000
69.96057 134.000
69.98051 135.000
70.00046 132.000
70.02041 144.000
70.04035 116.000
70.06030 131.000
70.08025 104.000
70.10020 133.000
70.12014 127.000
70.14009 122.000
70.16004 124.000
70.17998 140.000
70.19993 115.000
70.21988 126.000
70.23982 144.000
70.25977 115.000
70.27972 120.000
70.29967 141.000
70.31961 141.000
70.33956 122.000
70.35951 126.000
70.37945 129.000
70.39940 126.000
70.41935 109.000
70.43929 117.000
70.45924 128.000
70.47919 129.000
70.49914 125.000
70.51908 133.000
70.53903 133.000
70.55898 144.000
70.57892 134.000
70.59887 132.000
70.61882 123.000
70.63876 124.000
70.65871 126.000
70.67866 106.000
70.69860 120.000
70.71855 143.000
70.73850 120.000
70.75845 114.000
70.77839 136.000
70.79834 144.000
70.81829 122.000
70.83823 123.000
70.85818 145.000
70.87813 120.000
70.89807 132.000
70.91802 123.000
70.93797 119.000
70.95792 146.000
70.97786 126.000
70.99781 125.000
71.01776 129.000
71.03770 150.000
71.05765 107.000
71.07760 142.000
71.09754 123.000
71.11749 142.000
71.13744 132.000
71.15738 135.000
71.17733 142.000
71.19728 147.000
71.21723 143.000
71.23717 158.000
71.25712 139.000
71.27707 125.000
71.29701 126.000
71.31696 143.000
71.33691 121.000
71.35685 137.000
71.37680 161.000
71.39675 150.000
71.41670 125.000
71.43664 166.000
71.45659 168.000
71.47654 155.000
71.49648 160.000
71.51643 182.000
71.53638 163.000
71.55632 150.000
71.57627 146.000
71.59622 140.000
71.61616 141.000
71.63611 151.000
71.65606 156.000
71.67601 148.000
71.69595 142.000
71.71590 127.000
71.73585 149.000
71.75579 135.000
71.77574 156.000
71.79569 132.000
71.81563 123.000
71.83558 141.000
71.85553 135.000
71.87548 152.000
71.89542 126.000
71.91537 138.000
71.93532 141.000
71.95526 127.000
71.97521 115.000
71.99516 144.000
72.01510 112.000
72.03505 134.000
72.05500 128.000
72.07495 125.000
72.09489 118.000
72.11484 125.000
72.13479 139.000
72.15473 133.000
72.17468 108.000
72.19463 127.000
72.21457 141.000
72.23452 140.000
72.25447 138.000
72.27441 126.000
72.29436 132.000
72.31431 143.000
72.33426 151.000
72.35420 122.000
72.37415 143.000
72.39410 150.000
72.41404 136.000
72.43399 133.000
72.45394 127.000
72.47388 152.000
72.49383 146.000
72.51378 109.000
72.53373 133.000
72.55367 149.000
72.57362 154.000
72.59357 158.000
72.61351 136.000
72.63346 166.000
72.65341 147.000
72.67335 126.000
72.69330 137.000
72.71325 137.000
72.73319 145.000
72.75314 152.000
72.77309 150.000
72.79304 137.000
72.81298 158.000
72.83293 133.000
72.85288 152.000
72.87282 137.000
72.89277 141.000
72.91272 169.000
72.93266 136.000
72.95261 180.000
72.97256 125.000
72.99251 159.000
73.01245 183.000
73.03240 152.000
73.05235 139.000
73.07229 155.000
73.09224 144.000
73.11219 179.000
73.13213 157.000
73.15208 157.000
73.17203 161.000
73.19197 141.000
73.21192 151.000
73.23187 179.000
73.25182 144.000
73.27176 173.000
73.29171 166.000
73.31166 193.000
73.33160 188.000
73.35155 165.000
73.37150 186.000
73.39144 199.000
73.41139 195.000
73.43134 151.000
73.45129 183.000
73.47123 173.000
73.49118 181.000
73.51113 207.000
73.53107 184.000
73.55102 181.000
73.57097 186.000
73.59091 182.000
73.61086 164.000
73.63081 171.000
73.65076 197.000
73.67070 148.000
73.69065 138.000
73.71060 178.000
73.73054 167.000
73.75049 174.000
73.77044 159.000
73.79038 179.000
73.81033 142.000
73.83028 128.000
73.85022 122.000
73.87017 165.000
73.89012 165.000
73.91007 145.000
73.93001 149.000
73.94996 146.000
73.96991 131.000
73.98985 148.000
74.00980 153.000
74.02975 150.000
74.04969 141.000
74.06964 137.000
74.08959 138.000
74.10954 146.000
74.12948 139.000
74.14943 124.000
74.16938 133.000
74.18932 130.000
74.20927 143.000
74.22922 134.000
74.24916 132.000
74.26911 123.000
74.28906 146.000
74.30900 149.000
74.32895 137.000
74.34890 150.000
74.36885 136.000
74.38879 124.000
74.40874 138.000
74.42869 162.000
74.44863 192.000
74.46858 164.000
74.48853 178.000
74.50847 209.000
74.52842 227.000
74.54837 241.000
74.56832 205.000
74.58826 214.000
74.60821 218.000
74.62816 189.000
74.64810 203.000
74.66805 164.000
74.68800 188.000
74.70794 200.000
74.72789 172.000
74.74784 195.000
74.76778 227.000
74.78773 220.000
74.80768 214.000
74.82763 187.000
74.84757 163.000
74.86752 206.000
74.88747 185.000
74.90741 172.000
74.92736 197.000
74.94731 207.000
74.96725 179.000
74.98720 183.000
75.00715 205.000
75.02710 221.000
75.04704 188.000
75.06699 206.000
75.08694 194.000
75.10688 177.000
75.12683 218.000
75.14678 188.000
75.16672 187.000
75.18667 224.000
75.20662 204.000
75.22657 222.000
75.24651 238.000
75.26646 224.000
75.28641 207.000
75.30635 217.000
75.32630 226.000
75.34625 196.000
75.36619 223.000
75.38614 203.000
75.40609 224.000
75.42603 218.000
75.44598 198.000
75.46593 207.000
75.48588 218.000
75.50582 210.000
75.52577 197.000
75.54572 192.000
75.56566 200.000
75.58561 223.000
75.60556 204.000
75.62550 182.000
75.64545 208.000
75.66540 171.000
75.68535 166.000
75.70529 172.000
75.72524 139.000
75.74519 162.000
75.76513 164.000
75.78508 183.000
75.80503 170.000
75.82497 161.000
75.84492 142.000
75.86487 163.000
75.88481 137.000
75.90476 163.000
75.92471 151.000
75.94466 120.000
75.96460 130.000
75.98455 125.000
76.00450 111.000
76.02444 125.000
76.04439 128.000
76.06434 133.000
76.08428 120.000
76.10423 154.000
76.12418 123.000
76.14413 145.000
76.16407 128.000
76.18402 126.000
76.20397 148.000
76.22391 133.000
76.24386 146.000
76.26381 122.000
76.28375 147.000
76.30370 146.000
76.32365 122.000
76.34359 123.000
76.36354 133.000
76.38349 143.000
76.40344 109.000
76.42338 142.000
76.44333 138.000
76.46328 127.000
76.48322 124.000
76.50317 156.000
76.52312 123.000
76.54306 135.000
76.56301 138.000
76.58296 121.000
76.60291 126.000
76.62285 122.000
76.64280 130.000
76.66275 115.000
76.68269 128.000
76.70264 139.000
76.72259 114.000
76.74253 123.000
76.76248 156.000
76.78243 122.000
76.80238 128.000
76.82232 138.000
76.84227 105.000
76.86222 137.000
76.88216 124.000
76.90211 130.000
76.92206 147.000
76.94200 148.000
76.96195 144.000
76.98190 137.000
77.00184 139.000
77.02179 110.000
77.04174 112.000
77.06169 143.000
77.08163 133.000
77.10158 157.000
77.12153 127.000
77.14147 118.000
77.16142 140.000
77.18137 122.000
77.20131 134.000
77.22126 132.000
77.24121 150.000
77.26116 127.000
77.28110 138.000
77.30105 135.000
77.32100 146.000
77.34094 131.000
77.36089 146.000
77.38084 129.000
77.40078 135.000
77.42073 151.000
77.44068 146.000
77.46062 157.000
77.48057 121.000
77.50052 139.000
77.52047 150.000
77.54041 151.000
77.56036 181.000
77.58031 165.000
77.60025 185.000
77.62020 176.000
77.64015 157.000
77.66009 172.000
77.68004 169.000
77.69999 157.000
77.71994 178.000
77.73988 185.000
77.75983 167.000
77.77978 195.000
77.79972 175.000
77.81967 166.000
77.83962 182.000
77.85956 157.000
77.87951 171.000
77.89946 173.000
77.91940 174.000
77.93935 174.000
77.95930 147.000
77.97925 177.000
77.99919 192.000
78.01914 168.000
78.03909 150.000
78.05903 172.000
78.07898 172.000
78.09893 179.000
78.11887 174.000
78.13882 163.000
78.15877 184.000
78.17872 153.000
78.19866 197.000
78.21861 195.000
78.23856 184.000
78.25850 213.000
78.27845 180.000
78.29840 234.000
78.31834 217.000
78.33829 233.000
78.35824 217.000
78.37819 225.000
78.39813 235.000
78.41808 238.000
78.43803 201.000
78.45797 203.000
78.47792 228.000
78.49787 194.000
78.51781 176.000
78.53776 187.000
78.55771 205.000
78.57765 214.000
78.59760 191.000
78.61755 208.000
78.63750 197.000
78.65744 193.000
78.67739 165.000
78.69734 161.000
78.71728 173.000
78.73723 171.000
78.75718 184.000
78.77712 166.000
78.79707 143.000
78.81702 168.000
78.83697 148.000
78.85691 176.000
78.87686 177.000
78.89681 167.000
78.91675 166.000
78.93670 158.000
78.95665 169.000
78.97659 157.000
78.99654 178.000
79.01649 162.000
79.03643 188.000
79.05638 184.000
79.07633 181.000
79.09628 170.000
79.11622 175.000
79.13617 174.000
79.15612 164.000
79.17606 193.000
79.19601 186.000
79.21596 174.000
79.23590 158.000
79.25585 170.000
79.27580 184.000
79.29575 186.000
79.31569 175.000
79.33564 187.000
79.35559 175.000
79.37553 166.000
79.39548 172.000
79.41543 165.000
79.43537 155.000
79.45532 161.000
79.47527 137.000
79.49521 164.000
79.51516 164.000
79.53511 151.000
79.55506 172.000
79.57500 158.000
79.59495 164.000
79.61490 156.000
79.63484 136.000
79.65479 153.000
79.67474 156.000
79.69468 158.000
79.71463 166.000
79.73458 152.000
79.75453 134.000
79.77447 139.000
79.79442 131.000
79.81437 154.000
79.83431 142.000
79.85426 156.000
79.87421 124.000
79.89415 113.000
79.91410 135.000
79.93405 145.000
79.95399 138.000
79.97394 115.000
79.99389 119.000
80.01384 134.000
80.03378 130.000
80.05373 137.000
80.07368 120.000
80.09362 127.000
80.11357 125.000
80.13352 128.000
80.15346 107.000
80.17341 146.000
80.19336 126.000
80.21331 133.000
80.23325 137.000
80.25320 128.000
80.27315 135.000
80.29309 137.000
80.31304 139.000
80.33299 125.000
80.35293 146.000
80.37288 127.000
80.39283 133.000
80.41278 127.000
80.43272 133.000
80.45267 133.000
80.47262 129.000
80.49256 129.000
80.51251 135.000
80.53246 153.000
80.55240 157.000
80.57235 132.000
80.59230 145.000
80.61224 133.000
80.63219 128.000
80.65214 121.000
80.67209 138.000
80.69203 131.000
80.71198 148.000
80.73193 124.000
80.75187 138.000
80.77182 148.000
80.79177 140.000
80.81171 130.000
80.83166 136.000
80.85161 137.000
80.87156 137.000
80.89150 123.000
80.91145 136.000
80.93140 129.000
80.95134 143.000
80.97129 132.000
80.99124 121.000
81.01118 130.000
81.03113 137.000
81.05108 114.000
81.07102 139.000
81.09097 138.000
81.11092 115.000
81.13087 131.000
81.15081 108.000
81.17076 126.000
81.19071 139.000
81.21065 144.000
81.23060 131.000
81.25055 127.000
81.27049 116.000
81.29044 121.000
81.31039 121.000
81.33034 134.000
81.35028 100.000
81.37023 120.000
81.39018 135.000
81.41012 124.000
81.43007 128.000
81.45002 125.000
81.46996 126.000
81.48991 135.000
81.50986 103.000
81.52980 134.000
81.54975 123.000
81.56970 131.000
81.58965 127.000
81.60959 135.000
81.62954 117.000
81.64949 149.000
81.66943 139.000
81.68938 137.000
81.70933 144.000
81.72927 111.000
81.74922 102.000
81.76917 142.000
81.78912 112.000
81.80906 134.000
81.82901 116.000
81.84896 135.000
81.86890 130.000
81.88885 126.000
81.90880 135.000
81.92874 155.000
81.94869 119.000
81.96864 125.000
81.98859 138.000
82.00853 119.000
82.02848 131.000
82.04843 123.000
82.06837 138.000
82.08832 118.000
82.10827 150.000
82.12821 115.000
82.14816 119.000
82.16811 124.000
82.18805 117.000
82.20800 140.000
82.22795 127.000
82.24790 128.000
82.26784 129.000
82.28779 149.000
82.30774 115.000
82.32768 133.000
82.34763 141.000
82.36758 118.000
82.38752 150.000
82.40747 141.000
82.42742 150.000
82.44737 144.000
82.46731 130.000
82.48726 133.000
82.50721 131.000
82.52715 130.000
82.54710 117.000
82.56705 126.000
82.58699 111.000
82.60694 143.000
82.62689 141.000
82.64683 125.000
82.66678 147.000
82.68673 120.000
82.70668 125.000
82.72662 143.000
82.74657 138.000
82.76652 132.000
82.78646 150.000
82.80641 134.000
82.82636 145.000
82.84630 128.000
82.86625 142.000
82.88620 136.000
82.90615 138.000
82.92609 139.000
82.94604 137.000
82.96599 130.000
82.98593 124.000
83.00588 116.000
83.02583 121.000
83.04577 125.000
83.06572 150.000
83.08567 111.000
83.10561 146.000
83.12556 150.000
83.14551 125.000
83.16546 127.000
83.18540 127.000
83.20535 133.000
83.22530 113.000
83.24524 119.000
83.26519 118.000
83.28514 111.000
83.30508 127.000
83.32503 116.000
83.34498 122.000
83.36493 134.000
83.38487 123.000
83.40482 131.000
83.42477 153.000
83.44471 130.000
83.46466 113.000
83.48461 127.000
83.50455 118.000
83.52450 145.000
83.54445 130.000
83.56440 123.000
83.58434 126.000
83.60429 127.000
83.62424 120.000
83.64418 123.000
83.66413 153.000
83.68408 123.000
83.70402 137.000
83.72397 106.000
83.74392 135.000
83.76386 137.000
83.78381 130.000
83.80376 140.000
83.82371 164.000
83.84365 131.000
83.86360 157.000
83.88355 135.000
83.90349 141.000
83.92344 140.000
83.94339 143.000
83.96333 108.000
83.98328 145.000
84.00323 146.000
84.02318 130.000
84.04312 147.000
84.06307 154.000
84.08302 138.000
84.10296 159.000
84.12291 156.000
84.14286 152.000
84.16280 136.000
84.18275 164.000
84.20270 151.000
84.22264 145.000
84.24259 161.000
84.26254 153.000
84.28249 185.000
84.30243 160.000
84.32238 178.000
84.34233 170.000
84.36227 207.000
84.38222 171.000
84.40217 192.000
84.42211 196.000
84.44206 166.000
84.46201 193.000
84.48196 189.000
84.50190 170.000
84.52185 166.000
84.54180 184.000
84.56174 173.000
84.58169 181.000
84.60164 162.000
84.62158 193.000
84.64153 151.000
84.66148 168.000
84.68142 163.000
84.70137 164.000
84.72132 150.000
84.74127 169.000
84.76121 149.000
84.78116 170.000
84.80111 171.000
84.82105 160.000
84.84100 149.000
84.86095 120.000
84.88089 157.000
84.90084 136.000
84.92079 142.000
84.94074 133.000
84.96068 136.000
84.98063 122.000
85.00058 122.000
85.02052 131.000
85.04047 128.000
85.06042 131.000
85.08036 114.000
85.10031 126.000
85.12026 137.000
85.14021 133.000
85.16015 118.000
85.18010 136.000
85.20005 134.000
85.21999 158.000
85.23994 128.000
85.25989 125.000
85.27983 126.000
85.29978 138.000
85.31973 122.000
85.33967 117.000
85.35962 113.000
85.37957 120.000
85.39952 117.000
85.41946 140.000
85.43941 118.000
85.45936 125.000
85.47930 127.000
85.49925 128.000
85.51920 139.000
85.53914 106.000
85.55909 113.000
85.57904 136.000
85.59899 135.000
85.61893 128.000
85.63888 135.000
85.65883 117.000
85.67877 125.000
85.69872 135.000
85.71867 136.000
85.73861 131.000
85.75856 131.000
85.77851 109.000
85.79845 116.000
85.81840 151.000
85.83835 138.000
85.85830 107.000
85.87824 139.000
85.89819 129.000
85.91814 114.000
85.93808 116.000
85.95803 126.000
85.97798 138.000
85.99792 143.000
86.01787 107.000
86.03782 124.000
86.05777 129.000
86.07771 123.000
86.09766 118.000
86.11761 124.000
86.13755 124.000
86.15750 117.000
86.17745 132.000
86.19739 118.000
86.21734 135.000
86.23729 143.000
86.25723 123.000
86.27718 127.000
86.29713 135.000
86.31708 118.000
86.33702 116.000
86.35697 135.000
86.37692 109.000
86.39686 137.000
86.41681 118.000
86.43676 133.000
86.45670 119.000
86.47665 128.000
86.49660 138.000
86.51655 145.000
86.53649 121.000
86.55644 121.000
86.57639 114.000
86.59633 123.000
86.61628 145.000
86.63623 129.000
86.65617 156.000
86.67612 118.000
86.69607 120.000
86.71602 112.000
86.73596 109.000
86.75591 148.000
86.77586 129.000
86.79580 122.000
86.81575 145.000
86.83570 120.000
86.85564 142.000
86.87559 143.000
86.89554 137.000
86.91548 142.000
86.93543 144.000
86.95538 120.000
86.97533 145.000
86.99527 145.000
87.01522 137.000
87.03517 120.000
87.05511 144.000
87.07506 143.000
87.09501 131.000
87.11495 150.000
87.13490 132.000
87.15485 143.000
87.17480 157.000
87.19474 136.000
87.21469 156.000
87.23464 129.000
87.25458 146.000
87.27453 164.000
87.29448 146.000
87.31442 151.000
87.33437 172.000
87.35432 149.000
87.37426 174.000
87.39421 153.000
87.41416 176.000
87.43411 176.000
87.45405 163.000
87.47400 174.000
87.49395 177.000
87.51389 179.000
87.53384 186.000
87.55379 146.000
87.57373 163.000
87.59368 130.000
87.61363 154.000
87.63358 131.000
87.65352 159.000
87.67347 147.000
87.69342 176.000
87.71336 156.000
87.73331 149.000
87.75326 141.000
87.77320 156.000
87.79315 141.000
87.81310 178.000
87.83304 155.000
87.85299 151.000
87.87294 134.000
87.89289 169.000
87.91283 144.000
87.93278 149.000
87.95273 147.000
87.97267 130.000
87.99262 152.000
88.01257 140.000
88.03251 140.000
88.05246 127.000
88.07241 138.000
88.09236 150.000
88.11230 112.000
88.13225 134.000
88.15220 131.000
88.17214 120.000
88.19209 142.000
88.21204 108.000
88.23198 109.000
88.25193 135.000
88.27188 118.000
88.29183 128.000
88.31177 125.000
88.33172 129.000
88.35167 145.000
88.37161 132.000
88.39156 134.000
88.41151 132.000
88.43145 128.000
88.45140 142.000
88.47135 133.000
88.49129 126.000
88.51124 116.000
88.53119 127.000
88.55114 124.000
88.57108 130.000
88.59103 137.000
88.61098 122.000
88.63092 129.000
88.65087 123.000
88.67082 135.000
88.69076 120.000
88.71071 143.000
88.73066 127.000
88.75061 133.000
88.77055 118.000
88.79050 109.000
88.81045 117.000
88.83039 123.000
88.85034 133.000
88.87029 117.000
88.89023 118.000
88.91018 133.000
88.93013 118.000
88.95007 130.000
88.97002 120.000
88.98997 139.000
89.00992 127.000
89.02986 133.000
89.04981 115.000
89.06976 123.000
89.08970 138.000
89.10965 135.000
89.12960 127.000
89.14954 127.000
89.16949 125.000
89.18944 136.000
89.20939 141.000
89.22933 121.000
89.24928 137.000
89.26923 124.000
89.28917 127.000
89.30912 136.000
89.32907 136.000
89.34901 120.000
89.36896 125.000
89.38891 125.000
89.40885 144.000
89.42880 143.000
89.44875 137.000
89.46870 133.000
89.48864 125.000
89.50859 127.000
89.52854 135.000
89.54848 129.000
89.56843 128.000
89.58838 126.000
89.60832 140.000
89.62827 131.000
89.64822 141.000
89.66817 118.000
89.68811 125.000
89.70806 131.000
89.72801 125.000
89.74795 116.000
89.76790 110.000
89.78785 135.000
89.80779 138.000
89.82774 143.000
89.84769 118.000
89.86764 144.000
89.88758 145.000
89.90753 123.000
89.92748 136.000
89.94742 127.000
89.96737 128.000
89.98732 116.000
90.00726 128.000
