10.00000 167.000
10.01995 172.000
10.03989 163.000
10.05984 185.000
10.07979 176.000
10.09973 141.000
10.11968 155.000
10.13963 161.000
10.15958 168.000
10.17952 182.000
10.19947 178.000
10.21942 168.000
10.23936 153.000
10.25931 152.000
10.27926 181.000
10.29920 160.000
10.31915 185.000
10.33910 164.000
10.35905 182.000
10.37899 207.000
10.39894 172.000
10.41889 190.000
10.43883 165.000
10.45878 181.000
10.47873 182.000
10.49867 169.000
10.51862 164.000
10.53857 170.000
10.55851 171.000
10.57846 153.000
10.59841 167.000
10.61836 171.000
10.63830 166.000
10.65825 163.000
10.67820 158.000
10.69814 182.000
10.71809 169.000
10.73804 173.000
10.75798 155.000
10.77793 185.000
10.79788 189.000
10.81783 154.000
10.83777 150.000
10.85772 174.000
10.87767 192.000
10.89761 181.000
10.91756 162.000
10.93751 172.000
10.95745 184.000
10.97740 188.000
10.99735 179.000
11.01730 172.000
11.03724 171.000
11.05719 178.000
11.07714 195.000
11.09708 178.000
11.11703 148.000
11.13698 192.000
11.15692 180.000
11.17687 169.000
11.19682 190.000
11.21676 198.000
11.23671 169.000
11.25666 170.000
11.27661 167.000
11.29655 157.000
11.31650 184.000
11.33645 185.000
11.35639 175.000
11.37634 164.000
11.39629 192.000
11.41623 174.000
11.43618 155.000
11.45613 192.000
11.47608 170.000
11.49602 201.000
11.51597 202.000
11.53592 172.000
11.55586 180.000
11.57581 184.000
11.59576 191.000
11.61570 188.000
11.63565 173.000
11.65560 165.000
11.67554 155.000
11.69549 184.000
11.71544 175.000
11.73539 195.000
11.75533 178.000
11.77528 183.000
11.79523 181.000
11.81517 166.000
11.83512 176.000
11.85507 171.000
11.87501 189.000
11.89496 176.000
11.91491 192.000
11.93486 160.000
11.95480 176.000
11.97475 194.000
11.99470 166.000
12.01464 186.000
12.03459 162.000
12.05454 195.000
12.07448 187.000
12.09443 190.000
12.11438 180.000
12.13432 156.000
12.15427 171.000
12.17422 174.000
12.19417 202.000
12.21411 180.000
12.23406 207.000
12.25401 179.000
12.27395 223.000
12.29390 181.000
12.31385 192.000
12.33379 180.000
12.35374 186.000
12.37369 191.000
12.39364 200.000
12.41358 192.000
12.43353 190.000
12.45348 175.000
12.47342 204.000
12.49337 187.000
12.51332 175.000
12.53326 156.000
12.55321 181.000
12.57316 145.000
12.59311 199.000
12.61305 165.000
12.63300 177.000
12.65295 184.000
12.67289 170.000
12.69284 179.000
12.71279 183.000
12.73273 187.000
12.75268 180.000
12.77263 164.000
12.79257 188.000
12.81252 202.000
12.83247 201.000
12.85242 192.000
12.87236 198.000
12.89231 184.000
12.91226 168.000
12.93220 196.000
12.95215 186.000
12.97210 189.000
12.99204 188.000
13.01199 218.000
13.03194 181.000
13.05189 206.000
13.07183 202.000
13.09178 173.000
13.11173 193.000
13.13167 178.000
13.15162 177.000
13.17157 190.000
13.19151 193.000
13.21146 205.000
13.23141 195.000
13.25135 202.000
13.27130 223.000
13.29125 196.000
13.31120 172.000
13.33114 197.000
13.35109 216.000
13.37104 190.000
13.39098 197.000
13.41093 221.000
13.43088 213.000
13.45082 220.000
13.47077 198.000
13.49072 193.000
13.51067 200.000
13.53061 187.000
13.55056 160.000
13.57051 213.000
13.59045 183.000
13.61040 192.000
13.63035 182.000
13.65029 178.000
13.67024 203.000
13.69019 178.000
13.71013 209.000
13.73008 201.000
13.75003 187.000
13.76998 217.000
13.78992 217.000
13.80987 191.000
13.82982 209.000
13.84976 205.000
13.86971 187.000
13.88966 196.000
13.90960 207.000
13.92955 199.000
13.94950 205.000
13.96945 207.000
13.98939 187.000
14.00934 200.000
14.02929 205.000
14.04923 196.000
14.06918 191.000
14.08913 219.000
14.10907 195.000
14.12902 213.000
14.14897 196.000
14.16892 199.000
14.18886 182.000
14.20881 204.000
14.22876 183.000
14.24870 207.000
14.26865 194.000
14.28860 211.000
14.30854 196.000
14.32849 197.000
14.34844 180.000
14.36838 195.000
14.38833 206.000
14.40828 200.000
14.42823 219.000
14.44817 196.000
14.46812 233.000
14.48807 207.000
14.50801 185.000
14.52796 192.000
14.54791 233.000
14.56785 206.000
14.58780 201.000
14.60775 207.000
14.62770 205.000
14.64764 226.000
14.66759 209.000
14.68754 210.000
14.70748 188.000
14.72743 208.000
14.74738 212.000
14.76732 193.000
14.78727 193.000
14.80722 202.000
14.82716 225.000
14.84711 205.000
14.86706 251.000
14.88701 217.000
14.90695 219.000
14.92690 196.000
14.94685 213.000
14.96679 201.000
14.98674 222.000
15.00669 229.000
15.02663 185.000
15.04658 200.000
15.06653 205.000
15.08648 224.000
15.10642 224.000
15.12637 218.000
15.14632 226.000
15.16626 189.000
15.18621 226.000
15.20616 193.000
15.22610 205.000
15.24605 200.000
15.26600 208.000
15.28594 215.000
15.30589 229.000
15.32584 252.000
15.34579 203.000
15.36573 232.000
15.38568 256.000
15.40563 216.000
15.42557 222.000
15.44552 227.000
15.46547 252.000
15.48541 235.000
15.50536 257.000
15.52531 236.000
15.54526 251.000
15.56520 246.000
15.58515 275.000
15.60510 301.000
15.62504 334.000
15.64499 342.000
15.66494 449.000
15.68488 475.000
15.70483 574.000
15.72478 603.000
15.74472 668.000
15.76467 692.000
15.78462 687.000
15.80457 673.000
15.82451 503.000
15.84446 444.000
15.86441 337.000
15.88435 284.000
15.90430 274.000
15.92425 256.000
15.94419 275.000
15.96414 235.000
15.98409 236.000
16.00404 263.000
16.02398 247.000
16.04393 234.000
16.06388 262.000
16.08382 232.000
16.10377 251.000
16.12372 227.000
16.14366 222.000
16.16361 229.000
16.18356 243.000
16.20351 210.000
16.22345 204.000
16.24340 232.000
16.26335 207.000
16.28329 250.000
16.30324 224.000
16.32319 217.000
16.34313 205.000
16.36308 206.000
16.38303 227.000
16.40297 230.000
16.42292 213.000
16.44287 199.000
16.46282 215.000
16.48276 218.000
16.50271 236.000
16.52266 202.000
16.54260 206.000
16.56255 191.000
16.58250 213.000
16.60244 212.000
16.62239 235.000
16.64234 208.000
16.66229 205.000
16.68223 240.000
16.70218 212.000
16.72213 207.000
16.74207 214.000
16.76202 207.000
16.78197 256.000
16.80191 240.000
16.82186 257.000
16.84181 249.000
16.86175 220.000
16.88170 274.000
16.90165 210.000
16.92160 253.000
16.94154 232.000
16.96149 218.000
16.98144 222.000
17.00138 216.000
17.02133 214.000
17.04128 217.000
17.06122 208.000
17.08117 237.000
17.10112 246.000
17.12107 216.000
17.14101 222.000
17.16096 214.000
17.18091 207.000
17.20085 235.000
17.22080 213.000
17.24075 220.000
17.26069 217.000
17.28064 239.000
17.30059 237.000
17.32053 221.000
17.34048 211.000
17.36043 235.000
17.38038 235.000
17.40032 207.000
17.42027 213.000
17.44022 220.000
17.46016 214.000
17.48011 247.000
17.50006 227.000
17.52000 223.000
17.53995 231.000
17.55990 219.000
17.57985 209.000
17.59979 245.000
17.61974 205.000
17.63969 241.000
17.65963 239.000
17.67958 212.000
17.69953 235.000
17.71947 229.000
17.73942 213.000
17.75937 242.000
17.77932 220.000
17.79926 209.000
17.81921 254.000
17.83916 222.000
17.85910 243.000
17.87905 222.000
17.89900 214.000
17.91894 253.000
17.93889 241.000
17.95884 221.000
17.97878 251.000
17.99873 234.000
18.01868 254.000
18.03863 224.000
18.05857 232.000
18.07852 203.000
18.09847 235.000
18.11841 255.000
18.13836 251.000
18.15831 232.000
18.17825 270.000
18.19820 232.000
18.21815 244.000
18.23810 256.000
18.25804 265.000
18.27799 293.000
18.29794 285.000
18.31788 363.000
18.33783 442.000
18.35778 584.000
18.37772 581.000
18.39767 500.000
18.41762 419.000
18.43756 379.000
18.45751 301.000
18.47746 235.000
18.49741 257.000
18.51735 233.000
18.53730 218.000
18.55725 232.000
18.57719 213.000
18.59714 252.000
18.61709 248.000
18.63703 226.000
18.65698 227.000
18.67693 252.000
18.69688 224.000
18.71682 269.000
18.73677 242.000
18.75672 238.000
18.77666 236.000
18.79661 225.000
18.81656 247.000
18.83650 240.000
18.85645 237.000
18.87640 229.000
18.89634 237.000
18.91629 206.000
18.93624 210.000
18.95619 236.000
18.97613 223.000
18.99608 208.000
19.01603 238.000
19.03597 258.000
19.05592 242.000
19.07587 252.000
19.09581 227.000
19.11576 254.000
19.13571 221.000
19.15566 229.000
19.17560 258.000
19.19555 223.000
19.21550 215.000
19.23544 245.000
19.25539 258.000
19.27534 249.000
19.29528 221.000
19.31523 265.000
19.33518 214.000
19.35513 231.000
19.37507 232.000
19.39502 232.000
19.41497 240.000
19.43491 235.000
19.45486 271.000
19.47481 265.000
19.49475 262.000
19.51470 234.000
19.53465 247.000
19.55459 241.000
19.57454 233.000
19.59449 244.000
19.61444 244.000
19.63438 229.000
19.65433 250.000
19.67428 254.000
19.69422 232.000
19.71417 249.000
19.73412 249.000
19.75406 275.000
19.77401 235.000
19.79396 249.000
19.81391 259.000
19.83385 230.000
19.85380 273.000
19.87375 229.000
19.89369 258.000
19.91364 245.000
19.93359 249.000
19.95353 294.000
19.97348 245.000
19.99343 274.000
20.01337 228.000
20.03332 245.000
20.05327 257.000
20.07322 243.000
20.09316 243.000
20.11311 266.000
20.13306 240.000
20.15300 277.000
20.17295 260.000
20.19290 250.000
20.21284 250.000
20.23279 249.000
20.25274 260.000
20.27269 249.000
20.29263 258.000
20.31258 265.000
20.33253 241.000
20.35247 264.000
20.37242 259.000
20.39237 287.000
20.41231 269.000
20.43226 246.000
20.45221 276.000
20.47215 261.000
20.49210 273.000
20.51205 247.000
20.53200 252.000
20.55194 262.000
20.57189 268.000
20.59184 250.000
20.61178 232.000
20.63173 299.000
20.65168 266.000
20.67162 285.000
20.69157 279.000
20.71152 287.000
20.73147 233.000
20.75141 287.000
20.77136 294.000
20.79131 290.000
20.81125 294.000
20.83120 276.000
20.85115 324.000
20.87109 324.000
20.89104 356.000
20.91099 340.000
20.93094 367.000
20.95088 429.000
20.97083 405.000
20.99078 478.000
21.01072 547.000
21.03067 658.000
21.05062 699.000
21.07056 596.000
21.09051 608.000
21.11046 541.000
21.13040 432.000
21.15035 358.000
21.17030 314.000
21.19025 299.000
21.21019 286.000
21.23014 280.000
21.25009 281.000
21.27003 280.000
21.28998 272.000
21.30993 260.000
21.32987 248.000
21.34982 289.000
21.36977 252.000
21.38972 266.000
21.40966 272.000
21.42961 284.000
21.44956 299.000
21.46950 263.000
21.48945 284.000
21.50940 260.000
21.52934 273.000
21.54929 279.000
21.56924 277.000
21.58918 283.000
21.60913 263.000
21.62908 261.000
21.64903 290.000
21.66897 283.000
21.68892 268.000
21.70887 287.000
21.72881 281.000
21.74876 250.000
21.76871 284.000
21.78865 279.000
21.80860 290.000
21.82855 270.000
21.84850 258.000
21.86844 255.000
21.88839 254.000
21.90834 268.000
21.92828 261.000
21.94823 279.000
21.96818 277.000
21.98812 288.000
22.00807 274.000
22.02802 255.000
22.04796 276.000
22.06791 277.000
22.08786 271.000
22.10781 285.000
22.12775 286.000
22.14770 291.000
22.16765 266.000
22.18759 241.000
22.20754 279.000
22.22749 278.000
22.24743 238.000
22.26738 281.000
22.28733 273.000
22.30728 271.000
22.32722 287.000
22.34717 273.000
22.36712 282.000
22.38706 299.000
22.40701 275.000
22.42696 280.000
22.44690 279.000
22.46685 279.000
22.48680 270.000
22.50675 269.000
22.52669 296.000
22.54664 267.000
22.56659 295.000
22.58653 290.000
22.60648 291.000
22.62643 274.000
22.64637 280.000
22.66632 270.000
22.68627 319.000
22.70621 273.000
22.72616 273.000
22.74611 292.000
22.76606 279.000
22.78600 289.000
22.80595 294.000
22.82590 294.000
22.84584 307.000
22.86579 285.000
22.88574 298.000
22.90568 278.000
22.92563 327.000
22.94558 267.000
22.96553 258.000
22.98547 302.000
23.00542 276.000
23.02537 293.000
23.04531 301.000
23.06526 288.000
23.08521 279.000
23.10515 318.000
23.12510 287.000
23.14505 276.000
23.16499 272.000
23.18494 288.000
23.20489 292.000
23.22484 248.000
23.24478 296.000
23.26473 324.000
23.28468 285.000
23.30462 280.000
23.32457 328.000
23.34452 302.000
23.36446 298.000
23.38441 268.000
23.40436 294.000
23.42431 320.000
23.44425 318.000
23.46420 281.000
23.48415 307.000
23.50409 294.000
23.52404 279.000
23.54399 306.000
23.56393 317.000
23.58388 286.000
23.60383 317.000
23.62377 302.000
23.64372 286.000
23.66367 318.000
23.68362 282.000
23.70356 309.000
23.72351 290.000
23.74346 310.000
23.76340 298.000
23.78335 291.000
23.80330 269.000
23.82324 289.000
23.84319 306.000
23.86314 283.000
23.88309 288.000
23.90303 287.000
23.92298 306.000
23.94293 325.000
23.96287 311.000
23.98282 294.000
24.00277 319.000
24.02271 313.000
24.04266 317.000
24.06261 311.000
24.08256 322.000
24.10250 277.000
24.12245 326.000
24.14240 340.000
24.16234 316.000
24.18229 302.000
24.20224 317.000
24.22218 335.000
24.24213 318.000
24.26208 318.000
24.28202 337.000
24.30197 325.000
24.32192 295.000
24.34187 317.000
24.36181 348.000
24.38176 319.000
24.40171 326.000
24.42165 339.000
24.44160 293.000
24.46155 311.000
24.48149 310.000
24.50144 340.000
24.52139 330.000
24.54134 313.000
24.56128 343.000
24.58123 319.000
24.60118 324.000
24.62112 288.000
24.64107 318.000
24.66102 261.000
24.68096 341.000
24.70091 299.000
24.72086 308.000
24.74080 306.000
24.76075 327.000
24.78070 303.000
24.80065 339.000
24.82059 314.000
24.84054 308.000
24.86049 333.000
24.88043 319.000
24.90038 330.000
24.92033 377.000
24.94027 345.000
24.96022 317.000
24.98017 348.000
25.00012 334.000
25.02006 385.000
25.04001 338.000
25.05996 341.000
25.07990 334.000
25.09985 355.000
25.11980 348.000
25.13974 316.000
25.15969 340.000
25.17964 322.000
25.19958 360.000
25.21953 329.000
25.23948 318.000
25.25943 348.000
25.27937 312.000
25.29932 331.000
25.31927 338.000
25.33921 342.000
25.35916 361.000
25.37911 342.000
25.39905 364.000
25.41900 333.000
25.43895 337.000
25.45890 336.000
25.47884 309.000
25.49879 301.000
25.51874 319.000
25.53868 351.000
25.55863 341.000
25.57858 358.000
25.59852 355.000
25.61847 316.000
25.63842 325.000
25.65837 347.000
25.67831 322.000
25.69826 394.000
25.71821 342.000
25.73815 297.000
25.75810 329.000
25.77805 353.000
25.79799 346.000
25.81794 331.000
25.83789 321.000
25.85783 391.000
25.87778 355.000
25.89773 345.000
25.91768 327.000
25.93762 355.000
25.95757 353.000
25.97752 346.000
25.99746 336.000
26.01741 373.000
26.03736 367.000
26.05730 330.000
26.07725 353.000
26.09720 349.000
26.11715 368.000
26.13709 345.000
26.15704 330.000
26.17699 346.000
26.19693 337.000
26.21688 385.000
26.23683 333.000
26.25677 319.000
26.27672 350.000
26.29667 357.000
26.31661 371.000
26.33656 384.000
26.35651 346.000
26.37646 362.000
26.39640 342.000
26.41635 341.000
26.43630 409.000
26.45624 377.000
26.47619 350.000
26.49614 376.000
26.51608 341.000
26.53603 395.000
26.55598 373.000
26.57593 382.000
26.59587 391.000
26.61582 387.000
26.63577 394.000
26.65571 396.000
26.67566 367.000
26.69561 408.000
26.71555 379.000
26.73550 342.000
26.75545 405.000
26.77539 398.000
26.79534 394.000
26.81529 371.000
26.83524 353.000
26.85518 385.000
26.87513 365.000
26.89508 367.000
26.91502 428.000
26.93497 395.000
26.95492 379.000
26.97486 365.000
26.99481 355.000
27.01476 370.000
27.03471 384.000
27.05465 411.000
27.07460 418.000
27.09455 394.000
27.11449 420.000
27.13444 410.000
27.15439 377.000
27.17433 409.000
27.19428 398.000
27.21423 378.000
27.23417 391.000
27.25412 381.000
27.27407 388.000
27.29402 425.000
27.31396 400.000
27.33391 383.000
27.35386 409.000
27.37380 418.000
27.39375 398.000
27.41370 385.000
27.43364 366.000
27.45359 396.000
27.47354 398.000
27.49349 407.000
27.51343 392.000
27.53338 419.000
27.55333 391.000
27.57327 393.000
27.59322 406.000
27.61317 413.000
27.63311 382.000
27.65306 444.000
27.67301 392.000
27.69296 403.000
27.71290 402.000
27.73285 416.000
27.75280 399.000
27.77274 388.000
27.79269 397.000
27.81264 400.000
27.83258 430.000
27.85253 426.000
27.87248 409.000
27.89242 410.000
27.91237 453.000
27.93232 417.000
27.95227 389.000
27.97221 427.000
27.99216 388.000
28.01211 428.000
28.03205 407.000
28.05200 414.000
28.07195 442.000
28.09189 434.000
28.11184 426.000
28.13179 429.000
28.15174 446.000
28.17168 377.000
28.19163 437.000
28.21158 412.000
28.23152 415.000
28.25147 449.000
28.27142 429.000
28.29136 383.000
28.31131 429.000
28.33126 408.000
28.35120 446.000
28.37115 404.000
28.39110 433.000
28.41105 427.000
28.43099 419.000
28.45094 421.000
28.47089 403.000
28.49083 429.000
28.51078 413.000
28.53073 415.000
28.55067 448.000
28.57062 427.000
28.59057 424.000
28.61052 457.000
28.63046 429.000
28.65041 427.000
28.67036 377.000
28.69030 430.000
28.71025 410.000
28.73020 414.000
28.75014 393.000
28.77009 404.000
28.79004 428.000
28.80998 422.000
28.82993 450.000
28.84988 442.000
28.86983 398.000
28.88977 428.000
28.90972 449.000
28.92967 457.000
28.94961 441.000
28.96956 433.000
28.98951 423.000
29.00945 445.000
29.02940 436.000
29.04935 433.000
29.06930 436.000
29.08924 424.000
29.10919 449.000
29.12914 446.000
29.14908 452.000
29.16903 461.000
29.18898 434.000
29.20892 434.000
29.22887 458.000
29.24882 436.000
29.26877 484.000
29.28871 484.000
29.30866 459.000
29.32861 533.000
29.34855 444.000
29.36850 469.000
29.38845 530.000
29.40839 511.000
29.42834 515.000
29.44829 458.000
29.46823 455.000
29.48818 508.000
29.50813 468.000
29.52808 490.000
29.54802 488.000
29.56797 477.000
29.58792 456.000
29.60786 438.000
29.62781 453.000
29.64776 491.000
29.66770 456.000
29.68765 471.000
29.70760 444.000
29.72755 467.000
29.74749 464.000
29.76744 500.000
29.78739 508.000
29.80733 517.000
29.82728 490.000
29.84723 492.000
29.86717 484.000
29.88712 509.000
29.90707 506.000
29.92701 518.000
29.94696 476.000
29.96691 488.000
29.98686 535.000
30.00680 471.000
30.02675 480.000
30.04670 482.000
30.06664 491.000
30.08659 523.000
30.10654 508.000
30.12648 540.000
30.14643 596.000
30.16638 656.000
30.18633 812.000
30.20627 1004.000
30.22622 1310.000
30.24617 1363.000
30.26611 1109.000
30.28606 940.000
30.30601 1035.000
30.32595 927.000
30.34590 761.000
30.36585 557.000
30.38579 525.000
30.40574 511.000
30.42569 482.000
30.44564 469.000
30.46558 484.000
30.48553 477.000
30.50548 482.000
30.52542 482.000
30.54537 457.000
30.56532 440.000
30.58526 452.000
30.60521 446.000
30.62516 450.000
30.64511 459.000
30.66505 448.000
30.68500 427.000
30.70495 442.000
30.72489 424.000
30.74484 488.000
30.76479 423.000
30.78473 442.000
30.80468 476.000
30.82463 441.000
30.84458 452.000
30.86452 452.000
30.88447 469.000
30.90442 462.000
30.92436 458.000
30.94431 408.000
30.96426 440.000
30.98420 479.000
31.00415 445.000
31.02410 438.000
31.04404 442.000
31.06399 451.000
31.08394 476.000
31.10389 460.000
31.12383 405.000
31.14378 453.000
31.16373 486.000
31.18367 466.000
31.20362 441.000
31.22357 447.000
31.24351 462.000
31.26346 424.000
31.28341 459.000
31.30336 422.000
31.32330 464.000
31.34325 462.000
31.36320 469.000
31.38314 460.000
31.40309 470.000
31.42304 451.000
31.44298 461.000
31.46293 424.000
31.48288 492.000
31.50282 429.000
31.52277 448.000
31.54272 411.000
31.56267 460.000
31.58261 439.000
31.60256 450.000
31.62251 434.000
31.64245 446.000
31.66240 466.000
31.68235 454.000
31.70229 453.000
31.72224 437.000
31.74219 452.000
31.76214 438.000
31.78208 424.000
31.80203 431.000
31.82198 485.000
31.84192 457.000
31.86187 447.000
31.88182 475.000
31.90176 483.000
31.92171 492.000
31.94166 448.000
31.96160 489.000
31.98155 490.000
32.00150 495.000
32.02145 434.000
32.04139 449.000
32.06134 422.000
32.08129 468.000
32.10123 470.000
32.12118 456.000
32.14113 473.000
32.16107 460.000
32.18102 475.000
32.20097 453.000
32.22092 433.000
32.24086 425.000
32.26081 443.000
32.28076 460.000
32.30070 451.000
32.32065 442.000
32.34060 495.000
32.36054 457.000
32.38049 465.000
32.40044 517.000
32.42039 478.000
32.44033 451.000
32.46028 489.000
32.48023 461.000
32.50017 477.000
32.52012 445.000
32.54007 458.000
32.56001 467.000
32.57996 402.000
32.59991 414.000
32.61985 418.000
32.63980 457.000
32.65975 449.000
32.67970 451.000
32.69964 444.000
32.71959 377.000
32.73954 453.000
32.75948 423.000
32.77943 410.000
32.79938 433.000
32.81932 418.000
32.83927 382.000
32.85922 456.000
32.87917 416.000
32.89911 452.000
32.91906 449.000
32.93901 403.000
32.95895 422.000
32.97890 405.000
32.99885 440.000
33.01879 400.000
33.03874 470.000
33.05869 440.000
33.07863 455.000
33.09858 408.000
33.11853 448.000
33.13848 395.000
33.15842 371.000
33.17837 442.000
33.19832 391.000
33.21826 456.000
33.23821 398.000
33.25816 409.000
33.27810 448.000
33.29805 407.000
33.31800 410.000
33.33795 425.000
33.35789 412.000
33.37784 442.000
33.39779 413.000
33.41773 428.000
33.43768 389.000
33.45763 371.000
33.47757 401.000
33.49752 419.000
33.51747 458.000
33.53741 430.000
33.55736 436.000
33.57731 427.000
33.59726 394.000
33.61720 441.000
33.63715 426.000
33.65710 410.000
33.67704 415.000
33.69699 426.000
33.71694 422.000
33.73688 391.000
33.75683 406.000
33.77678 441.000
33.79673 431.000
33.81667 440.000
33.83662 427.000
33.85657 431.000
33.87651 444.000
33.89646 427.000
33.91641 415.000
33.93635 427.000
33.95630 437.000
33.97625 395.000
33.99620 389.000
34.01614 395.000
34.03609 404.000
34.05604 392.000
34.07598 411.000
34.09593 435.000
34.11588 407.000
34.13582 426.000
34.15577 423.000
34.17572 426.000
34.19566 423.000
34.21561 463.000
34.23556 448.000
34.25551 443.000
34.27545 430.000
34.29540 450.000
34.31535 505.000
34.33529 428.000
34.35524 456.000
34.37519 452.000
34.39513 463.000
34.41508 475.000
34.43503 491.000
34.45498 476.000
34.47492 479.000
34.49487 482.000
34.51482 510.000
34.53476 527.000
34.55471 504.000
34.57466 562.000
34.59460 601.000
34.61455 599.000
34.63450 624.000
34.65444 638.000
34.67439 675.000
34.69434 710.000
34.71429 669.000
34.73423 720.000
34.75418 626.000
34.77413 654.000
34.79407 668.000
34.81402 599.000
34.83397 596.000
34.85391 617.000
34.87386 574.000
34.89381 614.000
34.91376 578.000
34.93370 577.000
34.95365 524.000
34.97360 540.000
34.99354 543.000
35.01349 585.000
35.03344 534.000
35.05338 558.000
35.07333 585.000
35.09328 608.000
35.11322 663.000
35.13317 653.000
35.15312 627.000
35.17307 750.000
35.19301 690.000
35.21296 748.000
35.23291 811.000
35.25285 754.000
35.27280 735.000
35.29275 730.000
35.31269 708.000
35.33264 778.000
35.35259 845.000
35.37254 912.000
35.39248 1014.000
35.41243 1017.000
35.43238 1113.000
35.45232 1218.000
35.47227 1452.000
35.49222 1532.000
35.51216 1510.000
35.53211 1592.000
35.55206 1779.000
35.57201 2094.000
35.59195 2665.000
35.61190 3345.000
35.63185 3628.000
35.65179 3036.000
35.67174 2241.000
35.69169 2105.000
35.71163 2197.000
35.73158 2077.000
35.75153 1501.000
35.77147 1048.000
35.79142 848.000
35.81137 734.000
35.83132 688.000
35.85126 590.000
35.87121 574.000
35.89116 548.000
35.91110 498.000
35.93105 479.000
35.95100 518.000
35.97094 467.000
35.99089 451.000
36.01084 457.000
36.03079 417.000
36.05073 404.000
36.07068 427.000
36.09063 372.000
36.11057 477.000
36.13052 400.000
36.15047 429.000
36.17041 472.000
36.19036 405.000
36.21031 422.000
36.23025 466.000
36.25020 425.000
36.27015 429.000
36.29010 445.000
36.31004 446.000
36.32999 425.000
36.34994 451.000
36.36988 451.000
36.38983 452.000
36.40978 468.000
36.42972 457.000
36.44967 442.000
36.46962 452.000
36.48957 428.000
36.50951 443.000
36.52946 426.000
36.54941 507.000
36.56935 418.000
36.58930 466.000
36.60925 478.000
36.62919 392.000
36.64914 417.000
36.66909 441.000
36.68903 460.000
36.70898 412.000
36.72893 448.000
36.74888 444.000
36.76882 474.000
36.78877 465.000
36.80872 435.000
36.82866 449.000
36.84861 517.000
36.86856 468.000
36.88850 458.000
36.90845 464.000
36.92840 468.000
36.94835 478.000
36.96829 538.000
36.98824 521.000
37.00819 599.000
37.02813 650.000
37.04808 752.000
37.06803 818.000
37.08797 902.000
37.10792 854.000
37.12787 898.000
37.14781 850.000
37.16776 813.000
37.18771 817.000
37.20766 770.000
37.22760 777.000
37.24755 707.000
37.26750 723.000
37.28744 696.000
37.30739 581.000
37.32734 545.000
37.34728 550.000
37.36723 512.000
37.38718 489.000
37.40713 460.000
37.42707 449.000
37.44702 430.000
37.46697 449.000
37.48691 410.000
37.50686 465.000
37.52681 443.000
37.54675 394.000
37.56670 408.000
37.58665 425.000
37.60660 387.000
37.62654 405.000
37.64649 403.000
37.66644 403.000
37.68638 400.000
37.70633 388.000
37.72628 408.000
37.74622 376.000
37.76617 418.000
37.78612 432.000
37.80606 438.000
37.82601 389.000
37.84596 423.000
37.86591 399.000
37.88585 420.000
37.90580 431.000
37.92575 434.000
37.94569 407.000
37.96564 384.000
37.98559 389.000
38.00553 395.000
38.02548 397.000
38.04543 426.000
38.06538 431.000
38.08532 437.000
38.10527 426.000
38.12522 446.000
38.14516 486.000
38.16511 427.000
38.18506 421.000
38.20500 481.000
38.22495 459.000
38.24490 493.000
38.26484 501.000
38.28479 472.000
38.30474 457.000
38.32469 510.000
38.34463 487.000
38.36458 454.000
38.38453 494.000
38.40447 524.000
38.42442 536.000
38.44437 532.000
38.46431 542.000
38.48426 581.000
38.50421 619.000
38.52416 665.000
38.54410 677.000
38.56405 743.000
38.58400 807.000
38.60394 865.000
38.62389 888.000
38.64384 846.000
38.66378 915.000
38.68373 829.000
38.70368 795.000
38.72362 724.000
38.74357 724.000
38.76352 706.000
38.78347 667.000
38.80341 564.000
38.82336 545.000
38.84331 549.000
38.86325 554.000
38.88320 525.000
38.90315 536.000
38.92309 549.000
38.94304 530.000
38.96299 546.000
38.98294 509.000
39.00288 547.000
39.02283 480.000
39.04278 494.000
39.06272 471.000
39.08267 479.000
39.10262 426.000
39.12256 448.000
39.14251 456.000
39.16246 443.000
39.18241 413.000
39.20235 420.000
39.22230 464.000
39.24225 416.000
39.26219 451.000
39.28214 457.000
39.30209 455.000
39.32203 470.000
39.34198 423.000
39.36193 467.000
39.38187 465.000
39.40182 424.000
39.42177 444.000
39.44172 427.000
39.46166 423.000
39.48161 412.000
39.50156 394.000
39.52150 414.000
39.54145 403.000
39.56140 386.000
39.58134 407.000
39.60129 387.000
39.62124 357.000
39.64119 391.000
39.66113 376.000
39.68108 374.000
39.70103 386.000
39.72097 349.000
39.74092 397.000
39.76087 388.000
39.78081 377.000
39.80076 395.000
39.82071 392.000
39.84065 369.000
39.86060 396.000
39.88055 398.000
39.90050 389.000
39.92044 360.000
39.94039 402.000
39.96034 355.000
39.98028 383.000
40.00023 396.000
40.02018 368.000
40.04012 392.000
40.06007 381.000
40.08002 397.000
40.09997 400.000
40.11991 366.000
40.13986 375.000
40.15981 385.000
40.17975 395.000
40.19970 346.000
40.21965 354.000
40.23959 355.000
40.25954 392.000
40.27949 346.000
40.29943 352.000
40.31938 366.000
40.33933 384.000
40.35928 413.000
40.37922 385.000
40.39917 354.000
40.41912 366.000
40.43906 376.000
40.45901 377.000
40.47896 356.000
40.49890 338.000
40.51885 359.000
40.53880 371.000
40.55875 388.000
40.57869 411.000
40.59864 355.000
40.61859 394.000
40.63853 350.000
40.65848 359.000
40.67843 374.000
40.69837 352.000
40.71832 345.000
40.73827 371.000
40.75822 398.000
40.77816 389.000
40.79811 383.000
40.81806 342.000
40.83800 348.000
40.85795 376.000
40.87790 363.000
40.89784 411.000
40.91779 404.000
40.93774 367.000
40.95768 358.000
40.97763 380.000
40.99758 391.000
41.01753 351.000
41.03747 352.000
41.05742 337.000
41.07737 357.000
41.09731 362.000
41.11726 385.000
41.13721 352.000
41.15715 357.000
41.17710 363.000
41.19705 360.000
41.21700 395.000
41.23694 368.000
41.25689 373.000
41.27684 394.000
41.29678 347.000
41.31673 361.000
41.33668 332.000
41.35662 360.000
41.37657 372.000
41.39652 373.000
41.41646 373.000
41.43641 366.000
41.45636 375.000
41.47631 344.000
41.49625 409.000
41.51620 379.000
41.53615 410.000
41.55609 372.000
41.57604 384.000
41.59599 380.000
41.61593 357.000
41.63588 356.000
41.65583 394.000
41.67578 347.000
41.69572 355.000
41.71567 355.000
41.73562 384.000
41.75556 378.000
41.77551 391.000
41.79546 371.000
41.81540 368.000
41.83535 356.000
41.85530 358.000
41.87524 345.000
41.89519 375.000
41.91514 389.000
41.93509 373.000
41.95503 352.000
41.97498 352.000
41.99493 365.000
42.01487 363.000
42.03482 390.000
42.05477 359.000
42.07471 357.000
42.09466 411.000
42.11461 372.000
42.13456 372.000
42.15450 372.000
42.17445 402.000
42.19440 404.000
42.21434 361.000
42.23429 368.000
42.25424 391.000
42.27418 351.000
42.29413 354.000
42.31408 370.000
42.33403 401.000
42.35397 400.000
42.37392 395.000
42.39387 386.000
42.41381 376.000
42.43376 393.000
42.45371 386.000
42.47365 392.000
42.49360 407.000
42.51355 391.000
42.53349 399.000
42.55344 410.000
42.57339 426.000
42.59334 449.000
42.61328 438.000
42.63323 443.000
42.65318 463.000
42.67312 459.000
42.69307 442.000
42.71302 455.000
42.73296 461.000
42.75291 449.000
42.77286 516.000
42.79281 517.000
42.81275 526.000
42.83270 602.000
42.85265 577.000
42.87259 585.000
42.89254 601.000
42.91249 607.000
42.93243 574.000
42.95238 665.000
42.97233 687.000
42.99227 721.000
43.01222 737.000
43.03217 786.000
43.05212 851.000
43.07206 887.000
43.09201 885.000
43.11196 924.000
43.13190 952.000
43.15185 915.000
43.17180 948.000
43.19174 903.000
43.21169 968.000
43.23164 961.000
43.25159 1030.000
43.27153 1149.000
43.29148 1217.000
43.31143 1184.000
43.33137 1062.000
43.35132 863.000
43.37127 826.000
43.39121 782.000
43.41116 798.000
43.43111 745.000
43.45105 694.000
43.47100 578.000
43.49095 500.000
43.51090 481.000
43.53084 469.000
43.55079 455.000
43.57074 372.000
43.59068 396.000
43.61063 386.000
43.63058 395.000
43.65052 414.000
43.67047 384.000
43.69042 414.000
43.71037 382.000
43.73031 382.000
43.75026 328.000
43.77021 384.000
43.79015 344.000
43.81010 345.000
43.83005 375.000
43.84999 374.000
43.86994 366.000
43.88989 375.000
43.90984 342.000
43.92978 392.000
43.94973 347.000
43.96968 342.000
43.98962 388.000
44.00957 347.000
44.02952 346.000
44.04946 362.000
44.06941 363.000
44.08936 396.000
44.10930 353.000
44.12925 335.000
44.14920 340.000
44.16915 378.000
44.18909 340.000
44.20904 318.000
44.22899 351.000
44.24893 384.000
44.26888 333.000
44.28883 355.000
44.30877 340.000
44.32872 345.000
44.34867 366.000
44.36862 382.000
44.38856 321.000
44.40851 354.000
44.42846 347.000
44.44840 319.000
44.46835 311.000
44.48830 346.000
44.50824 361.000
44.52819 355.000
44.54814 363.000
44.56808 327.000
44.58803 360.000
44.60798 323.000
44.62793 363.000
44.64787 340.000
44.66782 360.000
44.68777 333.000
44.70771 346.000
44.72766 325.000
44.74761 324.000
44.76755 308.000
44.78750 351.000
44.80745 354.000
44.82740 320.000
44.84734 378.000
44.86729 305.000
44.88724 328.000
44.90718 333.000
44.92713 330.000
44.94708 366.000
44.96702 350.000
44.98697 378.000
45.00692 333.000
45.02686 369.000
45.04681 351.000
45.06676 376.000
45.08671 348.000
45.10665 333.000
45.12660 316.000
45.14655 355.000
45.16649 331.000
45.18644 350.000
45.20639 356.000
45.22633 350.000
45.24628 361.000
45.26623 348.000
45.28618 355.000
45.30612 336.000
45.32607 342.000
45.34602 332.000
45.36596 306.000
45.38591 325.000
45.40586 316.000
45.42580 318.000
45.44575 351.000
45.46570 335.000
45.48565 313.000
45.50559 315.000
45.52554 355.000
45.54549 347.000
45.56543 331.000
45.58538 356.000
45.60533 348.000
45.62527 307.000
45.64522 356.000
45.66517 314.000
45.68511 336.000
45.70506 324.000
45.72501 327.000
45.74496 338.000
45.76490 340.000
45.78485 316.000
45.80480 315.000
45.82474 303.000
45.84469 300.000
45.86464 317.000
45.88458 310.000
45.90453 343.000
45.92448 293.000
45.94443 319.000
45.96437 322.000
45.98432 271.000
46.00427 328.000
46.02421 315.000
46.04416 301.000
46.06411 317.000
46.08405 325.000
46.10400 317.000
46.12395 334.000
46.14389 337.000
46.16384 366.000
46.18379 352.000
46.20374 360.000
46.22368 337.000
46.24363 339.000
46.26358 337.000
46.28352 357.000
46.30347 322.000
46.32342 333.000
46.34336 329.000
46.36331 319.000
46.38326 318.000
46.40321 345.000
46.42315 333.000
46.44310 336.000
46.46305 329.000
46.48299 351.000
46.50294 294.000
46.52289 342.000
46.54283 320.000
46.56278 328.000
46.58273 290.000
46.60267 340.000
46.62262 294.000
46.64257 339.000
46.66252 318.000
46.68246 344.000
46.70241 332.000
46.72236 320.000
46.74230 330.000
46.76225 315.000
46.78220 322.000
46.80214 292.000
46.82209 294.000
46.84204 344.000
46.86199 310.000
46.88193 315.000
46.90188 297.000
46.92183 340.000
46.94177 290.000
46.96172 340.000
46.98167 352.000
47.00161 311.000
47.02156 312.000
47.04151 311.000
47.06146 344.000
47.08140 322.000
47.10135 325.000
47.12130 293.000
47.14124 331.000
47.16119 318.000
47.18114 322.000
47.20108 303.000
47.22103 323.000
47.24098 352.000
47.26092 321.000
47.28087 294.000
47.30082 316.000
47.32077 286.000
47.34071 283.000
47.36066 341.000
47.38061 322.000
47.40055 290.000
47.42050 310.000
47.44045 334.000
47.46039 307.000
47.48034 333.000
47.50029 304.000
47.52024 350.000
47.54018 309.000
47.56013 326.000
47.58008 320.000
47.60002 312.000
47.61997 338.000
47.63992 298.000
47.65986 344.000
47.67981 290.000
47.69976 317.000
47.71970 310.000
47.73965 270.000
47.75960 292.000
47.77955 325.000
47.79949 304.000
47.81944 303.000
47.83939 305.000
47.85933 322.000
47.87928 292.000
47.89923 340.000
47.91917 284.000
47.93912 362.000
47.95907 345.000
47.97902 315.000
47.99896 331.000
48.01891 333.000
48.03886 316.000
48.05880 311.000
48.07875 319.000
48.09870 316.000
48.11864 367.000
48.13859 345.000
48.15854 317.000
48.17848 373.000
48.19843 345.000
48.21838 361.000
48.23833 345.000
48.25827 340.000
48.27822 411.000
48.29817 360.000
48.31811 351.000
48.33806 352.000
48.35801 347.000
48.37795 344.000
48.39790 347.000
48.41785 304.000
48.43780 377.000
48.45774 325.000
48.47769 376.000
48.49764 332.000
48.51758 334.000
48.53753 401.000
48.55748 419.000
48.57742 379.000
48.59737 400.000
48.61732 367.000
48.63726 382.000
48.65721 429.000
48.67716 426.000
48.69711 455.000
48.71705 409.000
48.73700 478.000
48.75695 471.000
48.77689 527.000
48.79684 528.000
48.81679 589.000
48.83673 538.000
48.85668 556.000
48.87663 534.000
48.89658 542.000
48.91652 533.000
48.93647 500.000
48.95642 541.000
48.97636 452.000
48.99631 438.000
49.01626 410.000
49.03620 374.000
49.05615 377.000
49.07610 353.000
49.09605 342.000
49.11599 359.000
49.13594 359.000
49.15589 333.000
49.17583 328.000
49.19578 362.000
49.21573 331.000
49.23567 322.000
49.25562 273.000
49.27557 327.000
49.29551 302.000
49.31546 299.000
49.33541 337.000
49.35536 306.000
49.37530 325.000
49.39525 336.000
49.41520 284.000
49.43514 326.000
49.45509 323.000
49.47504 311.000
49.49498 340.000
49.51493 318.000
49.53488 302.000
49.55483 319.000
49.57477 294.000
49.59472 285.000
49.61467 323.000
49.63461 334.000
49.65456 301.000
49.67451 307.000
49.69445 331.000
49.71440 306.000
49.73435 306.000
49.75429 326.000
49.77424 330.000
49.79419 305.000
49.81414 317.000
49.83408 332.000
49.85403 333.000
49.87398 335.000
49.89392 305.000
49.91387 301.000
49.93382 294.000
49.95376 320.000
49.97371 313.000
49.99366 315.000
50.01361 336.000
50.03355 320.000
50.05350 289.000
50.07345 309.000
50.09339 318.000
50.11334 270.000
50.13329 289.000
50.15323 312.000
50.17318 300.000
50.19313 294.000
50.21307 289.000
50.23302 301.000
50.25297 293.000
50.27292 318.000
50.29286 336.000
50.31281 311.000
50.33276 290.000
50.35270 287.000
50.37265 294.000
50.39260 290.000
50.41254 276.000
50.43249 347.000
50.45244 297.000
50.47239 306.000
50.49233 264.000
50.51228 281.000
50.53223 307.000
50.55217 319.000
50.57212 281.000
50.59207 304.000
50.61201 320.000
50.63196 295.000
50.65191 286.000
50.67186 318.000
50.69180 301.000
50.71175 323.000
50.73170 298.000
50.75164 307.000
50.77159 299.000
50.79154 301.000
50.81148 283.000
50.83143 302.000
50.85138 333.000
50.87132 283.000
50.89127 307.000
50.91122 269.000
50.93117 302.000
50.95111 305.000
50.97106 302.000
50.99101 295.000
51.01095 272.000
51.03090 312.000
51.05085 281.000
51.07079 284.000
51.09074 308.000
51.11069 306.000
51.13064 298.000
51.15058 298.000
51.17053 299.000
51.19048 320.000
51.21042 315.000
51.23037 322.000
51.25032 281.000
51.27026 300.000
51.29021 324.000
51.31016 325.000
51.33010 279.000
51.35005 286.000
51.37000 300.000
51.38995 298.000
51.40989 296.000
51.42984 304.000
51.44979 315.000
51.46973 304.000
51.48968 313.000
51.50963 305.000
51.52957 299.000
51.54952 302.000
51.56947 274.000
51.58942 328.000
51.60936 276.000
51.62931 283.000
51.64926 288.000
51.66920 313.000
51.68915 283.000
51.70910 324.000
51.72904 323.000
51.74899 322.000
51.76894 268.000
51.78888 301.000
51.80883 335.000
51.82878 293.000
51.84873 312.000
51.86867 326.000
51.88862 308.000
51.90857 272.000
51.92851 306.000
51.94846 291.000
51.96841 290.000
51.98835 298.000
52.00830 302.000
52.02825 313.000
52.04820 300.000
52.06814 301.000
52.08809 336.000
52.10804 323.000
52.12798 328.000
52.14793 298.000
52.16788 335.000
52.18782 318.000
52.20777 311.000
52.22772 317.000
52.24767 273.000
52.26761 308.000
52.28756 277.000
52.30751 291.000
52.32745 350.000
52.34740 259.000
52.36735 270.000
52.38729 299.000
52.40724 311.000
52.42719 294.000
52.44713 320.000
52.46708 285.000
52.48703 311.000
52.50698 321.000
52.52692 305.000
52.54687 325.000
52.56682 315.000
52.58676 347.000
52.60671 292.000
52.62666 288.000
52.64660 300.000
52.66655 294.000
52.68650 317.000
52.70645 297.000
52.72639 315.000
52.74634 303.000
52.76629 311.000
52.78623 302.000
52.80618 283.000
52.82613 308.000
52.84607 340.000
52.86602 302.000
52.88597 281.000
52.90591 333.000
52.92586 332.000
52.94581 307.000
52.96576 301.000
52.98570 303.000
53.00565 320.000
53.02560 325.000
53.04554 301.000
53.06549 304.000
53.08544 321.000
53.10538 323.000
53.12533 334.000
53.14528 304.000
53.16523 336.000
53.18517 322.000
53.20512 311.000
53.22507 338.000
53.24501 320.000
53.26496 336.000
53.28491 313.000
53.30485 348.000
53.32480 328.000
53.34475 317.000
53.36469 360.000
53.38464 289.000
53.40459 340.000
53.42454 328.000
53.44448 370.000
53.46443 343.000
53.48438 337.000
53.50432 342.000
53.52427 304.000
53.54422 333.000
53.56416 352.000
53.58411 341.000
53.60406 350.000
53.62401 322.000
53.64395 377.000
53.66390 401.000
53.68385 375.000
53.70379 430.000
53.72374 494.000
53.74369 522.000
53.76363 485.000
53.78358 455.000
53.80353 409.000
53.82348 418.000
53.84342 378.000
53.86337 382.000
53.88332 404.000
53.90326 415.000
53.92321 378.000
53.94316 322.000
53.96310 305.000
53.98305 309.000
54.00300 273.000
54.02294 292.000
54.04289 301.000
54.06284 315.000
54.08279 290.000
54.10273 327.000
54.12268 267.000
54.14263 302.000
54.16257 299.000
54.18252 315.000
54.20247 300.000
54.22241 285.000
54.24236 291.000
54.26231 286.000
54.28226 315.000
54.30220 299.000
54.32215 309.000
54.34210 298.000
54.36204 278.000
54.38199 319.000
54.40194 344.000
54.42188 289.000
54.44183 281.000
54.46178 269.000
54.48172 315.000
54.50167 293.000
54.52162 299.000
54.54157 302.000
54.56151 294.000
54.58146 306.000
54.60141 304.000
54.62135 316.000
54.64130 310.000
54.66125 285.000
54.68119 313.000
54.70114 327.000
54.72109 290.000
54.74104 323.000
54.76098 313.000
54.78093 342.000
54.80088 277.000
54.82082 288.000
54.84077 302.000
54.86072 300.000
54.88066 300.000
54.90061 266.000
54.92056 248.000
54.94050 299.000
54.96045 282.000
54.98040 279.000
55.00035 285.000
55.02029 313.000
55.04024 299.000
55.06019 306.000
55.08013 269.000
55.10008 299.000
55.12003 283.000
55.13997 304.000
55.15992 253.000
55.17987 268.000
55.19982 313.000
55.21976 282.000
55.23971 293.000
55.25966 261.000
55.27960 305.000
55.29955 298.000
55.31950 287.000
55.33944 304.000
55.35939 275.000
55.37934 270.000
55.39929 309.000
55.41923 296.000
55.43918 265.000
55.45913 281.000
55.47907 267.000
55.49902 302.000
55.51897 284.000
55.53891 287.000
55.55886 288.000
55.57881 288.000
55.59875 304.000
55.61870 272.000
55.63865 319.000
55.65860 284.000
55.67854 267.000
55.69849 301.000
55.71844 293.000
55.73838 289.000
55.75833 296.000
55.77828 306.000
55.79822 302.000
55.81817 294.000
55.83812 299.000
55.85807 323.000
55.87801 310.000
55.89796 299.000
55.91791 279.000
55.93785 297.000
55.95780 315.000
55.97775 282.000
55.99769 291.000
56.01764 309.000
56.03759 262.000
56.05753 307.000
56.07748 285.000
56.09743 280.000
56.11738 295.000
56.13732 304.000
56.15727 311.000
56.17722 286.000
56.19716 307.000
56.21711 272.000
56.23706 259.000
56.25700 319.000
56.27695 319.000
56.29690 294.000
56.31685 292.000
56.33679 286.000
56.35674 277.000
56.37669 283.000
56.39663 293.000
56.41658 333.000
56.43653 301.000
56.45647 285.000
56.47642 287.000
56.49637 296.000
56.51631 290.000
56.53626 310.000
56.55621 303.000
56.57616 307.000
56.59610 280.000
56.61605 319.000
56.63600 301.000
56.65594 306.000
56.67589 342.000
56.69584 295.000
56.71578 298.000
56.73573 344.000
56.75568 318.000
56.77563 306.000
56.79557 354.000
56.81552 351.000
56.83547 328.000
56.85541 385.000
56.87536 364.000
56.89531 346.000
56.91525 360.000
56.93520 386.000
56.95515 348.000
56.97510 362.000
56.99504 350.000
57.01499 398.000
57.03494 376.000
57.05488 370.000
57.07483 376.000
57.09478 399.000
57.11472 380.000
57.13467 421.000
57.15462 416.000
57.17456 447.000
57.19451 481.000
57.21446 513.000
57.23441 623.000
57.25435 722.000
57.27430 849.000
57.29425 904.000
57.31419 903.000
57.33414 709.000
57.35409 671.000
57.37403 587.000
57.39398 594.000
57.41393 591.000
57.43388 617.000
57.45382 668.000
57.47377 597.000
57.49372 507.000
57.51366 451.000
57.53361 374.000
57.55356 399.000
57.57350 381.000
57.59345 363.000
57.61340 326.000
57.63334 330.000
57.65329 327.000
57.67324 349.000
57.69319 293.000
57.71313 296.000
57.73308 310.000
57.75303 331.000
57.77297 326.000
57.79292 331.000
57.81287 327.000
57.83281 316.000
57.85276 313.000
57.87271 330.000
57.89266 374.000
57.91260 320.000
57.93255 266.000
57.95250 334.000
57.97244 326.000
57.99239 310.000
58.01234 298.000
58.03228 313.000
58.05223 324.000
58.07218 309.000
58.09212 333.000
58.11207 346.000
58.13202 334.000
58.15197 345.000
58.17191 318.000
58.19186 333.000
58.21181 346.000
58.23175 331.000
58.25170 322.000
58.27165 363.000
58.29159 349.000
58.31154 329.000
58.33149 312.000
58.35144 303.000
58.37138 309.000
58.39133 314.000
58.41128 317.000
58.43122 312.000
58.45117 308.000
58.47112 272.000
58.49106 281.000
58.51101 315.000
58.53096 332.000
58.55090 305.000
58.57085 295.000
58.59080 309.000
58.61075 265.000
58.63069 322.000
58.65064 282.000
58.67059 282.000
58.69053 289.000
58.71048 280.000
58.73043 287.000
58.75037 263.000
58.77032 298.000
58.79027 302.000
58.81022 261.000
58.83016 292.000
58.85011 270.000
58.87006 268.000
58.89000 286.000
58.90995 259.000
58.92990 292.000
58.94984 307.000
58.96979 277.000
58.98974 289.000
59.00969 277.000
59.02963 278.000
59.04958 297.000
59.06953 274.000
59.08947 288.000
59.10942 322.000
59.12937 288.000
59.14931 263.000
59.16926 301.000
59.18921 288.000
59.20915 273.000
59.22910 282.000
59.24905 291.000
59.26900 266.000
59.28894 296.000
59.30889 269.000
59.32884 268.000
59.34878 297.000
59.36873 320.000
59.38868 297.000
59.40862 291.000
59.42857 294.000
59.44852 315.000
59.46847 280.000
59.48841 283.000
59.50836 318.000
59.52831 275.000
59.54825 290.000
59.56820 306.000
59.58815 286.000
59.60809 314.000
59.62804 289.000
59.64799 293.000
59.66793 293.000
59.68788 289.000
59.70783 285.000
59.72778 317.000
59.74772 292.000
59.76767 304.000
59.78762 293.000
59.80756 294.000
59.82751 279.000
59.84746 271.000
59.86740 318.000
59.88735 284.000
59.90730 303.000
59.92725 299.000
59.94719 296.000
59.96714 292.000
59.98709 285.000
60.00703 267.000
60.02698 265.000
60.04693 305.000
60.06687 265.000
60.08682 326.000
60.10677 298.000
60.12671 260.000
60.14666 283.000
60.16661 323.000
60.18656 277.000
60.20650 280.000
60.22645 253.000
60.24640 315.000
60.26634 267.000
60.28629 293.000
60.30624 250.000
60.32618 277.000
60.34613 286.000
60.36608 285.000
60.38603 259.000
60.40597 285.000
60.42592 263.000
60.44587 290.000
60.46581 260.000
60.48576 321.000
60.50571 296.000
60.52565 288.000
60.54560 280.000
60.56555 265.000
60.58550 283.000
60.60544 290.000
60.62539 276.000
60.64534 312.000
60.66528 322.000
60.68523 302.000
60.70518 290.000
60.72512 293.000
60.74507 276.000
60.76502 286.000
60.78496 266.000
60.80491 281.000
60.82486 268.000
60.84481 308.000
60.86475 265.000
60.88470 308.000
60.90465 288.000
60.92459 287.000
60.94454 323.000
60.96449 303.000
60.98443 279.000
61.00438 309.000
61.02433 285.000
61.04428 276.000
61.06422 297.000
61.08417 311.000
61.10412 297.000
61.12406 313.000
61.14401 291.000
61.16396 294.000
61.18390 307.000
61.20385 271.000
61.22380 292.000
61.24374 334.000
61.26369 292.000
61.28364 309.000
61.30359 325.000
61.32353 318.000
61.34348 310.000
61.36343 319.000
61.38337 348.000
61.40332 351.000
61.42327 342.000
61.44321 345.000
61.46316 375.000
61.48311 382.000
61.50306 360.000
61.52300 373.000
61.54295 384.000
61.56290 361.000
61.58284 341.000
61.60279 337.000
61.62274 400.000
61.64268 363.000
61.66263 345.000
61.68258 350.000
61.70252 344.000
61.72247 352.000
61.74242 354.000
61.76237 368.000
61.78231 347.000
61.80226 316.000
61.82221 329.000
61.84215 332.000
61.86210 324.000
61.88205 346.000
61.90199 342.000
61.92194 303.000
61.94189 341.000
61.96184 352.000
61.98178 339.000
62.00173 332.000
62.02168 361.000
62.04162 336.000
62.06157 329.000
62.08152 336.000
62.10146 329.000
62.12141 358.000
62.14136 367.000
62.16131 399.000
62.18125 409.000
62.20120 426.000
62.22115 439.000
62.24109 398.000
62.26104 405.000
62.28099 376.000
62.30093 412.000
62.32088 381.000
62.34083 435.000
62.36077 439.000
62.38072 415.000
62.40067 442.000
62.42062 480.000
62.44056 466.000
62.46051 479.000
62.48046 520.000
62.50040 551.000
62.52035 540.000
62.54030 569.000
62.56024 619.000
62.58019 616.000
62.60014 577.000
62.62009 608.000
62.64003 574.000
62.65998 613.000
62.67993 616.000
62.69987 639.000
62.71982 667.000
62.73977 661.000
62.75971 643.000
62.77966 562.000
62.79961 663.000
62.81955 687.000
62.83950 664.000
62.85945 775.000
62.87940 970.000
62.89934 1140.000
62.91929 1249.000
62.93924 1266.000
62.95918 1065.000
62.97913 857.000
62.99908 743.000
63.01902 691.000
63.03897 673.000
63.05892 702.000
63.07887 739.000
63.09881 812.000
63.11876 727.000
63.13871 665.000
63.15865 533.000
63.17860 475.000
63.19855 430.000
63.21849 379.000
63.23844 413.000
63.25839 356.000
63.27833 348.000
63.29828 344.000
63.31823 341.000
63.33818 336.000
63.35812 341.000
63.37807 281.000
63.39802 352.000
63.41796 325.000
63.43791 309.000
63.45786 345.000
63.47780 280.000
63.49775 307.000
63.51770 331.000
63.53765 306.000
63.55759 292.000
63.57754 282.000
63.59749 298.000
63.61743 304.000
63.63738 275.000
63.65733 297.000
63.67727 299.000
63.69722 279.000
63.71717 289.000
63.73712 274.000
63.75706 300.000
63.77701 310.000
63.79696 293.000
63.81690 298.000
63.83685 306.000
63.85680 317.000
63.87674 321.000
63.89669 290.000
63.91664 328.000
63.93658 289.000
63.95653 293.000
63.97648 282.000
63.99643 306.000
64.01637 282.000
64.03632 285.000
64.05627 311.000
64.07621 284.000
64.09616 286.000
64.11611 302.000
64.13605 306.000
64.15600 316.000
64.17595 294.000
64.19590 296.000
64.21584 293.000
64.23579 286.000
64.25574 317.000
64.27568 318.000
64.29563 285.000
64.31558 308.000
64.33552 293.000
64.35547 338.000
64.37542 287.000
64.39536 322.000
64.41531 271.000
64.43526 321.000
64.45521 319.000
64.47515 304.000
64.49510 316.000
64.51505 295.000
64.53499 332.000
64.55494 307.000
64.57489 294.000
64.59483 276.000
64.61478 290.000
64.63473 289.000
64.65468 268.000
64.67462 272.000
64.69457 280.000
64.71452 272.000
64.73446 276.000
64.75441 296.000
64.77436 269.000
64.79430 285.000
64.81425 311.000
64.83420 305.000
64.85414 305.000
64.87409 260.000
64.89404 261.000
64.91399 311.000
64.93393 277.000
64.95388 291.000
64.97383 331.000
64.99377 279.000
65.01372 289.000
65.03367 336.000
65.05361 324.000
65.07356 316.000
65.09351 292.000
65.11346 294.000
65.13340 292.000
65.15335 291.000
65.17330 320.000
65.19324 297.000
65.21319 310.000
65.23314 312.000
65.25308 311.000
65.27303 293.000
65.29298 296.000
65.31293 300.000
65.33287 301.000
65.35282 304.000
65.37277 330.000
65.39271 328.000
65.41266 308.000
65.43261 318.000
65.45255 315.000
65.47250 315.000
65.49245 339.000
65.51239 360.000
65.53234 321.000
65.55229 316.000
65.57224 359.000
65.59218 371.000
65.61213 328.000
65.63208 325.000
65.65202 342.000
65.67197 333.000
65.69192 331.000
65.71186 376.000
65.73181 360.000
65.75176 333.000
65.77171 355.000
65.79165 327.000
65.81160 325.000
65.83155 343.000
65.85149 340.000
65.87144 287.000
65.89139 309.000
65.91133 323.000
65.93128 304.000
65.95123 348.000
65.97117 304.000
65.99112 334.000
66.01107 317.000
66.03102 312.000
66.05096 323.000
66.07091 323.000
66.09086 329.000
66.11080 354.000
66.13075 356.000
66.15070 363.000
66.17064 320.000
66.19059 345.000
66.21054 329.000
66.23049 351.000
66.25043 353.000
66.27038 345.000
66.29033 375.000
66.31027 366.000
66.33022 353.000
66.35017 371.000
66.37011 377.000
66.39006 360.000
66.41001 358.000
66.42995 336.000
66.44990 330.000
66.46985 325.000
66.48980 318.000
66.50974 345.000
66.52969 337.000
66.54964 381.000
66.56958 315.000
66.58953 320.000
66.60948 304.000
66.62942 343.000
66.64937 336.000
66.66932 297.000
66.68927 299.000
66.70921 315.000
66.72916 325.000
66.74911 317.000
66.76905 308.000
66.78900 327.000
66.80895 293.000
66.82889 314.000
66.84884 302.000
66.86879 299.000
66.88874 275.000
66.90868 330.000
66.92863 321.000
66.94858 321.000
66.96852 271.000
66.98847 272.000
67.00842 306.000
67.02836 290.000
67.04831 283.000
67.06826 265.000
67.08820 286.000
67.10815 320.000
67.12810 285.000
67.14805 290.000
67.16799 273.000
67.18794 257.000
67.20789 308.000
67.22783 271.000
67.24778 339.000
67.26773 276.000
67.28767 283.000
67.30762 270.000
67.32757 297.000
67.34752 284.000
67.36746 274.000
67.38741 310.000
67.40736 302.000
67.42730 309.000
67.44725 296.000
67.46720 313.000
67.48714 295.000
67.50709 296.000
67.52704 326.000
67.54698 282.000
67.56693 292.000
67.58688 349.000
67.60683 305.000
67.62677 308.000
67.64672 283.000
67.66667 331.000
67.68661 338.000
67.70656 334.000
67.72651 320.000
67.74645 340.000
67.76640 339.000
67.78635 346.000
67.80630 323.000
67.82624 353.000
67.84619 312.000
67.86614 363.000
67.88608 332.000
67.90603 329.000
67.92598 333.000
67.94592 343.000
67.96587 347.000
67.98582 332.000
68.00576 363.000
68.02571 350.000
68.04566 319.000
68.06561 303.000
68.08555 323.000
68.10550 334.000
68.12545 333.000
68.14539 316.000
68.16534 325.000
68.18529 300.000
68.20523 314.000
68.22518 326.000
68.24513 280.000
68.26508 290.000
68.28502 279.000
68.30497 269.000
68.32492 294.000
68.34486 303.000
68.36481 261.000
68.38476 261.000
68.40470 270.000
68.42465 319.000
68.44460 283.000
68.46455 302.000
68.48449 291.000
68.50444 282.000
68.52439 247.000
68.54433 283.000
68.56428 274.000
68.58423 294.000
68.60417 294.000
68.62412 253.000
68.64407 281.000
68.66401 277.000
68.68396 275.000
68.70391 294.000
68.72386 275.000
68.74380 238.000
68.76375 266.000
68.78370 306.000
68.80364 277.000
68.82359 287.000
68.84354 298.000
68.86348 273.000
68.88343 285.000
68.90338 267.000
68.92333 284.000
68.94327 267.000
68.96322 267.000
68.98317 264.000
69.00311 258.000
69.02306 266.000
69.04301 266.000
69.06295 288.000
69.08290 240.000
69.10285 288.000
69.12279 258.000
69.14274 253.000
69.16269 305.000
69.18264 231.000
69.20258 241.000
69.22253 264.000
69.24248 272.000
69.26242 228.000
69.28237 273.000
69.30232 277.000
69.32226 244.000
69.34221 258.000
69.36216 275.000
69.38211 263.000
69.40205 269.000
69.42200 261.000
69.44195 287.000
69.46189 277.000
69.48184 262.000
69.50179 268.000
69.52173 258.000
69.54168 261.000
69.56163 263.000
69.58157 272.000
69.60152 270.000
69.62147 277.000
69.64142 278.000
69.66136 284.000
69.68131 270.000
69.70126 247.000
69.72120 286.000
69.74115 258.000
69.76110 267.000
69.78104 252.000
69.80099 269.000
69.82094 250.000
69.84089 258.000
69.86083 301.000
69.88078 268.000
69.90073 279.000
69.92067 252.000
69.94062 269.000
69.96057 287.000
69.98051 264.000
70.00046 247.000
70.02041 235.000
70.04035 282.000
70.06030 240.000
70.08025 240.000
70.10020 241.000
70.12014 253.000
70.14009 234.000
70.16004 264.000
70.17998 279.000
70.19993 269.000
70.21988 263.000
70.23982 278.000
70.25977 278.000
70.27972 242.000
70.29967 255.000
70.31961 264.000
70.33956 279.000
70.35951 267.000
70.37945 275.000
70.39940 272.000
70.41935 258.000
70.43929 222.000
70.45924 277.000
70.47919 274.000
70.49914 269.000
70.51908 280.000
70.53903 269.000
70.55898 281.000
70.57892 261.000
70.59887 255.000
70.61882 268.000
70.63876 289.000
70.65871 298.000
70.67866 273.000
70.69860 264.000
70.71855 251.000
70.73850 260.000
70.75845 242.000
70.77839 276.000
70.79834 285.000
70.81829 263.000
70.83823 295.000
70.85818 265.000
70.87813 292.000
70.89807 277.000
70.91802 287.000
70.93797 285.000
70.95792 303.000
70.97786 286.000
70.99781 258.000
71.01776 247.000
71.03770 260.000
71.05765 288.000
71.07760 267.000
71.09754 274.000
71.11749 281.000
71.13744 250.000
71.15738 314.000
71.17733 292.000
71.19728 276.000
71.21723 286.000
71.23717 259.000
71.25712 271.000
71.27707 281.000
71.29701 241.000
71.31696 279.000
71.33691 288.000
71.35685 329.000
71.37680 314.000
71.39675 343.000
71.41670 332.000
71.43664 307.000
71.45659 301.000
71.47654 311.000
71.49648 272.000
71.51643 304.000
71.53638 267.000
71.55632 295.000
71.57627 277.000
71.59622 312.000
71.61616 305.000
71.63611 280.000
71.65606 299.000
71.67601 288.000
71.69595 276.000
71.71590 253.000
71.73585 270.000
71.75579 299.000
71.77574 280.000
71.79569 284.000
71.81563 249.000
71.83558 299.000
71.85553 282.000
71.87548 294.000
71.89542 268.000
71.91537 294.000
71.93532 265.000
71.95526 263.000
71.97521 279.000
71.99516 274.000
72.01510 265.000
72.03505 271.000
72.05500 289.000
72.07495 269.000
72.09489 272.000
72.11484 260.000
72.13479 271.000
72.15473 274.000
72.17468 280.000
72.19463 289.000
72.21457 281.000
72.23452 288.000
72.25447 273.000
72.27441 283.000
72.29436 295.000
72.31431 278.000
72.33426 286.000
72.35420 301.000
72.37415 262.000
72.39410 254.000
72.41404 289.000
72.43399 285.000
72.45394 270.000
72.47388 290.000
72.49383 254.000
72.51378 273.000
72.53373 278.000
72.55367 269.000
72.57362 294.000
72.59357 298.000
72.61351 270.000
72.63346 265.000
72.65341 308.000
72.67335 309.000
72.69330 264.000
72.71325 262.000
72.73319 265.000
72.75314 245.000
72.77309 295.000
72.79304 260.000
72.81298 236.000
72.83293 287.000
72.85288 253.000
72.87282 253.000
72.89277 273.000
72.91272 265.000
72.93266 265.000
72.95261 297.000
72.97256 243.000
72.99251 262.000
73.01245 294.000
73.03240 263.000
73.05235 275.000
73.07229 279.000
73.09224 260.000
73.11219 249.000
73.13213 267.000
73.15208 284.000
73.17203 236.000
73.19197 269.000
73.21192 281.000
73.23187 269.000
73.25182 272.000
73.27176 300.000
73.29171 293.000
73.31166 286.000
73.33160 294.000
73.35155 270.000
73.37150 291.000
73.39144 259.000
73.41139 291.000
73.43134 261.000
73.45129 265.000
73.47123 260.000
73.49118 269.000
73.51113 287.000
73.53107 255.000
73.55102 298.000
73.57097 296.000
73.59091 263.000
73.61086 258.000
73.63081 277.000
73.65076 250.000
73.67070 256.000
73.69065 255.000
73.71060 262.000
73.73054 247.000
73.75049 275.000
73.77044 282.000
73.79038 276.000
73.81033 268.000
73.83028 310.000
73.85022 273.000
73.87017 299.000
73.89012 244.000
73.91007 263.000
73.93001 245.000
73.94996 259.000
73.96991 239.000
73.98985 253.000
74.00980 279.000
74.02975 291.000
74.04969 270.000
74.06964 304.000
74.08959 278.000
74.10954 284.000
74.12948 300.000
74.14943 319.000
74.16938 280.000
74.18932 291.000
74.20927 299.000
74.22922 323.000
74.24916 289.000
74.26911 306.000
74.28906 292.000
74.30900 292.000
74.32895 287.000
74.34890 328.000
74.36885 326.000
74.38879 328.000
74.40874 355.000
74.42869 381.000
74.44863 396.000
74.46858 425.000
74.48853 415.000
74.50847 401.000
74.52842 360.000
74.54837 335.000
74.56832 327.000
74.58826 307.000
74.60821 322.000
74.62816 327.000
74.64810 341.000
74.66805 327.000
74.68800 332.000
74.70794 314.000
74.72789 343.000
74.74784 324.000
74.76778 326.000
74.78773 359.000
74.80768 307.000
74.82763 333.000
74.84757 296.000
74.86752 350.000
74.88747 339.000
74.90741 348.000
74.92736 347.000
74.94731 343.000
74.96725 318.000
74.98720 341.000
75.00715 368.000
75.02710 315.000
75.04704 380.000
75.06699 404.000
75.08694 374.000
75.10688 385.000
75.12683 363.000
75.14678 414.000
75.16672 351.000
75.18667 367.000
75.20662 371.000
75.22657 387.000
75.24651 376.000
75.26646 364.000
75.28641 394.000
75.30635 347.000
75.32630 347.000
75.34625 349.000
75.36619 335.000
75.38614 374.000
75.40609 344.000
75.42603 358.000
75.44598 344.000
75.46593 378.000
75.48588 364.000
75.50582 372.000
75.52577 316.000
75.54572 328.000
75.56566 343.000
75.58561 326.000
75.60556 327.000
75.62550 331.000
75.64545 317.000
75.66540 306.000
75.68535 293.000
75.70529 300.000
75.72524 332.000
75.74519 298.000
75.76513 291.000
75.78508 305.000
75.80503 246.000
75.82497 248.000
75.84492 257.000
75.86487 269.000
75.88481 299.000
75.90476 262.000
75.92471 250.000
75.94466 256.000
75.96460 258.000
75.98455 259.000
76.00450 247.000
76.02444 269.000
76.04439 277.000
76.06434 255.000
76.08428 228.000
76.10423 263.000
76.12418 265.000
76.14413 267.000
76.16407 254.000
76.18402 241.000
76.20397 255.000
76.22391 265.000
76.24386 260.000
76.26381 255.000
76.28375 260.000
76.30370 268.000
76.32365 273.000
76.34359 250.000
76.36354 257.000
76.38349 271.000
76.40344 254.000
76.42338 254.000
76.44333 240.000
76.46328 277.000
76.48322 258.000
76.50317 261.000
76.52312 276.000
76.54306 250.000
76.56301 246.000
76.58296 264.000
76.60291 295.000
76.62285 276.000
76.64280 272.000
76.66275 281.000
76.68269 237.000
76.70264 236.000
76.72259 259.000
76.74253 244.000
76.76248 256.000
76.78243 301.000
76.80238 270.000
76.82232 258.000
76.84227 271.000
76.86222 255.000
76.88216 266.000
76.90211 269.000
76.92206 245.000
76.94200 270.000
76.96195 275.000
76.98190 247.000
77.00184 275.000
77.02179 257.000
77.04174 242.000
77.06169 268.000
77.08163 264.000
77.10158 282.000
77.12153 268.000
77.14147 269.000
77.16142 296.000
77.18137 269.000
77.20131 309.000
77.22126 245.000
77.24121 256.000
77.26116 268.000
77.28110 244.000
77.30105 278.000
77.32100 251.000
77.34094 227.000
77.36089 267.000
77.38084 270.000
77.40078 270.000
77.42073 248.000
77.44068 264.000
77.46062 266.000
77.48057 290.000
77.50052 232.000
77.52047 263.000
77.54041 253.000
77.56036 248.000
77.58031 254.000
77.60025 272.000
77.62020 275.000
77.64015 245.000
77.66009 264.000
77.68004 238.000
77.69999 270.000
77.71994 273.000
77.73988 268.000
77.75983 287.000
77.77978 251.000
77.79972 259.000
77.81967 272.000
77.83962 259.000
77.85956 274.000
77.87951 280.000
77.89946 280.000
77.91940 244.000
77.93935 279.000
77.95930 248.000
77.97925 254.000
77.99919 282.000
78.01914 242.000
78.03909 288.000
78.05903 269.000
78.07898 248.000
78.09893 251.000
78.11887 253.000
78.13882 273.000
78.15877 240.000
78.17872 267.000
78.19866 243.000
78.21861 241.000
78.23856 270.000
78.25850 265.000
78.27845 267.000
78.29840 269.000
78.31834 256.000
78.33829 260.000
78.35824 255.000
78.37819 269.000
78.39813 249.000
78.41808 258.000
78.43803 261.000
78.45797 277.000
78.47792 255.000
78.49787 253.000
78.51781 278.000
78.53776 236.000
78.55771 273.000
78.57765 248.000
78.59760 242.000
78.61755 258.000
78.63750 256.000
78.65744 294.000
78.67739 287.000
78.69734 270.000
78.71728 239.000
78.73723 292.000
78.75718 312.000
78.77712 320.000
78.79707 310.000
78.81702 259.000
78.83697 299.000
78.85691 269.000
78.87686 300.000
78.89681 306.000
78.91675 289.000
78.93670 308.000
78.95665 301.000
78.97659 314.000
78.99654 301.000
79.01649 288.000
79.03643 299.000
79.05638 271.000
79.07633 305.000
79.09628 327.000
79.11622 326.000
79.13617 317.000
79.15612 305.000
79.17606 306.000
79.19601 301.000
79.21596 291.000
79.23590 296.000
79.25585 292.000
79.27580 305.000
79.29575 313.000
79.31569 317.000
79.33564 313.000
79.35559 326.000
79.37553 301.000
79.39548 315.000
79.41543 272.000
79.43537 303.000
79.45532 316.000
79.47527 340.000
79.49521 311.000
79.51516 316.000
79.53511 283.000
79.55506 309.000
79.57500 295.000
79.59495 303.000
79.61490 260.000
79.63484 281.000
79.65479 268.000
79.67474 289.000
79.69468 292.000
79.71463 274.000
79.73458 276.000
79.75453 263.000
79.77447 277.000
79.79442 256.000
79.81437 242.000
79.83431 249.000
79.85426 254.000
79.87421 277.000
79.89415 287.000
79.91410 247.000
79.93405 275.000
79.95399 236.000
79.97394 253.000
79.99389 249.000
80.01384 234.000
80.03378 247.000
80.05373 258.000
80.07368 244.000
80.09362 266.000
80.11357 253.000
80.13352 279.000
80.15346 243.000
80.17341 234.000
80.19336 264.000
80.21331 264.000
80.23325 272.000
80.25320 258.000
80.27315 255.000
80.29309 259.000
80.31304 246.000
80.33299 257.000
80.35293 269.000
80.37288 270.000
80.39283 260.000
80.41278 272.000
80.43272 233.000
80.45267 246.000
80.47262 278.000
80.49256 273.000
80.51251 272.000
80.53246 271.000
80.55240 232.000
80.57235 256.000
80.59230 280.000
80.61224 289.000
80.63219 241.000
80.65214 221.000
80.67209 269.000
80.69203 280.000
80.71198 264.000
80.73193 265.000
80.75187 233.000
80.77182 251.000
80.79177 258.000
80.81171 244.000
80.83166 274.000
80.85161 259.000
80.87156 263.000
80.89150 249.000
80.91145 267.000
80.93140 245.000
80.95134 223.000
80.97129 251.000
80.99124 256.000
81.01118 258.000
81.03113 243.000
81.05108 282.000
81.07102 240.000
81.09097 251.000
81.11092 274.000
81.13087 245.000
81.15081 239.000
81.17076 256.000
81.19071 214.000
81.21065 250.000
81.23060 235.000
81.25055 256.000
81.27049 283.000
81.29044 244.000
81.31039 256.000
81.33034 242.000
81.35028 247.000
81.37023 246.000
81.39018 235.000
81.41012 214.000
81.43007 254.000
81.45002 237.000
81.46996 303.000
81.48991 255.000
81.50986 281.000
81.52980 237.000
81.54975 285.000
81.56970 273.000
81.58965 286.000
81.60959 248.000
81.62954 247.000
81.64949 244.000
81.66943 272.000
81.68938 238.000
81.70933 235.000
81.72927 254.000
81.74922 236.000
81.76917 259.000
81.78912 275.000
81.80906 233.000
81.82901 222.000
81.84896 271.000
81.86890 241.000
81.88885 255.000
81.90880 264.000
81.92874 250.000
81.94869 221.000
81.96864 255.000
81.98859 235.000
82.00853 255.000
82.02848 229.000
82.04843 243.000
82.06837 250.000
82.08832 253.000
82.10827 251.000
82.12821 239.000
82.14816 272.000
82.16811 264.000
82.18805 250.000
82.20800 264.000
82.22795 278.000
82.24790 232.000
82.26784 286.000
82.28779 289.000
82.30774 250.000
82.32768 269.000
82.34763 244.000
82.36758 258.000
82.38752 281.000
82.40747 281.000
82.42742 279.000
82.44737 278.000
82.46731 291.000
82.48726 305.000
82.50721 306.000
82.52715 278.000
82.54710 279.000
82.56705 274.000
82.58699 258.000
82.60694 296.000
82.62689 277.000
82.64683 296.000
82.66678 287.000
82.68673 245.000
82.70668 261.000
82.72662 260.000
82.74657 271.000
82.76652 254.000
82.78646 309.000
82.80641 265.000
82.82636 271.000
82.84630 264.000
82.86625 269.000
82.88620 267.000
82.90615 283.000
82.92609 269.000
82.94604 230.000
82.96599 304.000
82.98593 239.000
83.00588 288.000
83.02583 266.000
83.04577 253.000
83.06572 263.000
83.08567 267.000
83.10561 253.000
83.12556 260.000
83.14551 293.000
83.16546 259.000
83.18540 284.000
83.20535 251.000
83.22530 289.000
83.24524 278.000
83.26519 270.000
83.28514 265.000
83.30508 266.000
83.32503 266.000
83.34498 286.000
83.36493 282.000
83.38487 286.000
83.40482 270.000
83.42477 265.000
83.44471 282.000
83.46466 263.000
83.48461 239.000
83.50455 279.000
83.52450 264.000
83.54445 259.000
83.56440 271.000
83.58434 265.000
83.60429 255.000
83.62424 253.000
83.64418 288.000
83.66413 281.000
83.68408 275.000
83.70402 284.000
83.72397 272.000
83.74392 256.000
83.76386 276.000
83.78381 236.000
83.80376 261.000
83.82371 270.000
83.84365 284.000
83.86360 260.000
83.88355 269.000
83.90349 274.000
83.92344 256.000
83.94339 259.000
83.96333 272.000
83.98328 284.000
84.00323 293.000
84.02318 263.000
84.04312 243.000
84.06307 278.000
84.08302 259.000
84.10296 261.000
84.12291 249.000
84.14286 237.000
84.16280 252.000
84.18275 229.000
84.20270 257.000
84.22264 280.000
84.24259 269.000
84.26254 275.000
84.28249 268.000
84.30243 248.000
84.32238 257.000
84.34233 269.000
84.36227 262.000
84.38222 276.000
84.40217 251.000
84.42211 243.000
84.44206 291.000
84.46201 255.000
84.48196 254.000
84.50190 285.000
84.52185 250.000
84.54180 276.000
84.56174 276.000
84.58169 255.000
84.60164 255.000
84.62158 255.000
84.64153 291.000
84.66148 256.000
84.68142 253.000
84.70137 256.000
84.72132 260.000
84.74127 232.000
84.76121 273.000
84.78116 267.000
84.80111 250.000
84.82105 265.000
84.84100 265.000
84.86095 287.000
84.88089 276.000
84.90084 271.000
84.92079 236.000
84.94074 238.000
84.96068 261.000
84.98063 254.000
85.00058 277.000
85.02052 274.000
85.04047 277.000
85.06042 230.000
85.08036 243.000
85.10031 253.000
85.12026 246.000
85.14021 262.000
85.16015 234.000
85.18010 263.000
85.20005 276.000
85.21999 246.000
85.23994 258.000
85.25989 246.000
85.27983 253.000
85.29978 251.000
85.31973 241.000
85.33967 261.000
85.35962 271.000
85.37957 270.000
85.39952 252.000
85.41946 238.000
85.43941 252.000
85.45936 272.000
85.47930 247.000
85.49925 236.000
85.51920 253.000
85.53914 246.000
85.55909 260.000
85.57904 270.000
85.59899 251.000
85.61893 268.000
85.63888 254.000
85.65883 266.000
85.67877 281.000
85.69872 263.000
85.71867 271.000
85.73861 261.000
85.75856 264.000
85.77851 250.000
85.79845 239.000
85.81840 253.000
85.83835 262.000
85.85830 243.000
85.87824 229.000
85.89819 224.000
85.91814 227.000
85.93808 263.000
85.95803 228.000
85.97798 268.000
85.99792 257.000
86.01787 263.000
86.03782 262.000
86.05777 261.000
86.07771 234.000
86.09766 246.000
86.11761 227.000
86.13755 271.000
86.15750 257.000
86.17745 231.000
86.19739 232.000
86.21734 255.000
86.23729 263.000
86.25723 253.000
86.27718 247.000
86.29713 261.000
86.31708 254.000
86.33702 245.000
86.35697 262.000
86.37692 266.000
86.39686 268.000
86.41681 279.000
86.43676 280.000
86.45670 227.000
86.47665 233.000
86.49660 253.000
86.51655 241.000
86.53649 247.000
86.55644 267.000
86.57639 264.000
86.59633 263.000
86.61628 243.000
86.63623 228.000
86.65617 261.000
86.67612 221.000
86.69607 253.000
86.71602 287.000
86.73596 254.000
86.75591 258.000
86.77586 255.000
86.79580 274.000
86.81575 265.000
86.83570 250.000
86.85564 279.000
86.87559 266.000
86.89554 277.000
86.91548 266.000
86.93543 238.000
86.95538 266.000
86.97533 263.000
86.99527 286.000
87.01522 265.000
87.03517 272.000
87.05511 275.000
87.07506 285.000
87.09501 257.000
87.11495 268.000
87.13490 288.000
87.15485 273.000
87.17480 247.000
87.19474 281.000
87.21469 272.000
87.23464 263.000
87.25458 264.000
87.27453 264.000
87.29448 311.000
87.31442 297.000
87.33437 327.000
87.35432 332.000
87.37426 291.000
87.39421 318.000
87.41416 280.000
87.43411 308.000
87.45405 281.000
87.47400 273.000
87.49395 297.000
87.51389 263.000
87.53384 250.000
87.55379 281.000
87.57373 265.000
87.59368 262.000
87.61363 280.000
87.63358 289.000
87.65352 261.000
87.67347 317.000
87.69342 257.000
87.71336 284.000
87.73331 258.000
87.75326 244.000
87.77320 259.000
87.79315 254.000
87.81310 258.000
87.83304 283.000
87.85299 215.000
87.87294 264.000
87.89289 248.000
87.91283 245.000
87.93278 294.000
87.95273 287.000
87.97267 261.000
87.99262 228.000
88.01257 281.000
88.03251 253.000
88.05246 259.000
88.07241 231.000
88.09236 239.000
88.11230 257.000
88.13225 270.000
88.15220 235.000
88.17214 284.000
88.19209 259.000
88.21204 246.000
88.23198 236.000
88.25193 233.000
88.27188 220.000
88.29183 252.000
88.31177 288.000
88.33172 298.000
88.35167 265.000
88.37161 249.000
88.39156 276.000
88.41151 252.000
88.43145 261.000
88.45140 246.000
88.47135 244.000
88.49129 246.000
88.51124 232.000
88.53119 248.000
88.55114 250.000
88.57108 249.000
88.59103 255.000
88.61098 233.000
88.63092 231.000
88.65087 245.000
88.67082 247.000
88.69076 236.000
88.71071 251.000
88.73066 253.000
88.75061 247.000
88.77055 267.000
88.79050 255.000
88.81045 260.000
88.83039 237.000
88.85034 215.000
88.87029 230.000
88.89023 261.000
88.91018 286.000
88.93013 264.000
88.95007 260.000
88.97002 249.000
88.98997 258.000
89.00992 266.000
89.02986 257.000
89.04981 235.000
89.06976 270.000
89.08970 275.000
89.10965 249.000
89.12960 273.000
89.14954 265.000
89.16949 250.000
89.18944 281.000
89.20939 265.000
89.22933 273.000
89.24928 254.000
89.26923 253.000
89.28917 242.000
89.30912 265.000
89.32907 271.000
89.34901 282.000
89.36896 248.000
89.38891 244.000
89.40885 254.000
89.42880 269.000
89.44875 243.000
89.46870 269.000
89.48864 270.000
89.50859 272.000
89.52854 278.000
89.54848 283.000
89.56843 276.000
89.58838 270.000
89.60832 254.000
89.62827 271.000
89.64822 270.000
89.66817 283.000
89.68811 290.000
89.70806 272.000
89.72801 277.000
89.74795 272.000
89.76790 245.000
89.78785 250.000
89.80779 271.000
89.82774 289.000
89.84769 273.000
89.86764 278.000
89.88758 259.000
89.90753 278.000
89.92748 270.000
89.94742 285.000
89.96737 298.000
89.98732 279.000
90.00726 289.000
