10.00000 231.000
10.01995 236.000
10.03989 196.000
10.05984 249.000
10.07979 198.000
10.09973 198.000
10.11968 216.000
10.13963 210.000
10.15958 203.000
10.17952 215.000
10.19947 209.000
10.21942 242.000
10.23936 257.000
10.25931 202.000
10.27926 196.000
10.29920 186.000
10.31915 234.000
10.33910 219.000
10.35905 202.000
10.37899 206.000
10.39894 208.000
10.41889 220.000
10.43883 203.000
10.45878 220.000
10.47873 219.000
10.49867 235.000
10.51862 195.000
10.53857 206.000
10.55851 222.000
10.57846 222.000
10.59841 234.000
10.61836 213.000
10.63830 220.000
10.65825 210.000
10.67820 200.000
10.69814 232.000
10.71809 203.000
10.73804 195.000
10.75798 210.000
10.77793 216.000
10.79788 217.000
10.81783 223.000
10.83777 180.000
10.85772 209.000
10.87767 203.000
10.89761 220.000
10.91756 198.000
10.93751 190.000
10.95745 215.000
10.97740 222.000
10.99735 217.000
11.01730 222.000
11.03724 242.000
11.05719 223.000
11.07714 232.000
11.09708 209.000
11.11703 216.000
11.13698 216.000
11.15692 206.000
11.17687 218.000
11.19682 225.000
11.21676 238.000
11.23671 231.000
11.25666 211.000
11.27661 200.000
11.29655 215.000
11.31650 224.000
11.33645 208.000
11.35639 220.000
11.37634 225.000
11.39629 198.000
11.41623 199.000
11.43618 212.000
11.45613 210.000
11.47608 222.000
11.49602 191.000
11.51597 233.000
11.53592 209.000
11.55586 224.000
11.57581 230.000
11.59576 231.000
11.61570 229.000
11.63565 188.000
11.65560 209.000
11.67554 220.000
11.69549 223.000
11.71544 219.000
11.73539 232.000
11.75533 216.000
11.77528 242.000
11.79523 248.000
11.81517 257.000
11.83512 212.000
11.85507 220.000
11.87501 222.000
11.89496 233.000
11.91491 226.000
11.93486 199.000
11.95480 214.000
11.97475 230.000
11.99470 201.000
12.01464 222.000
12.03459 195.000
12.05454 201.000
12.07448 245.000
12.09443 225.000
12.11438 221.000
12.13432 227.000
12.15427 194.000
12.17422 228.000
12.19417 213.000
12.21411 209.000
12.23406 240.000
12.25401 221.000
12.27395 256.000
12.29390 206.000
12.31385 203.000
12.33379 218.000
12.35374 213.000
12.37369 215.000
12.39364 230.000
12.41358 212.000
12.43353 217.000
12.45348 217.000
12.47342 206.000
12.49337 222.000
12.51332 241.000
12.53326 221.000
12.55321 228.000
12.57316 226.000
12.59311 227.000
12.61305 248.000
12.63300 205.000
12.65295 245.000
12.67289 236.000
12.69284 222.000
12.71279 208.000
12.73273 226.000
12.75268 240.000
12.77263 224.000
12.79257 201.000
12.81252 241.000
12.83247 184.000
12.85242 216.000
12.87236 241.000
12.89231 242.000
12.91226 249.000
12.93220 233.000
12.95215 217.000
12.97210 198.000
12.99204 225.000
13.01199 222.000
13.03194 241.000
13.05189 229.000
13.07183 235.000
13.09178 233.000
13.11173 193.000
13.13167 247.000
13.15162 229.000
13.17157 230.000
13.19151 208.000
13.21146 254.000
13.23141 223.000
13.25135 242.000
13.27130 233.000
13.29125 226.000
13.31120 221.000
13.33114 238.000
13.35109 213.000
13.37104 201.000
13.39098 211.000
13.41093 228.000
13.43088 243.000
13.45082 245.000
13.47077 189.000
13.49072 233.000
13.51067 197.000
13.53061 229.000
13.55056 242.000
13.57051 228.000
13.59045 202.000
13.61040 205.000
13.63035 250.000
13.65029 211.000
13.67024 250.000
13.69019 241.000
13.71013 223.000
13.73008 230.000
13.75003 229.000
13.76998 242.000
13.78992 235.000
13.80987 199.000
13.82982 199.000
13.84976 216.000
13.86971 238.000
13.88966 202.000
13.90960 214.000
13.92955 234.000
13.94950 242.000
13.96945 196.000
13.98939 220.000
14.00934 226.000
14.02929 214.000
14.04923 217.000
14.06918 223.000
14.08913 233.000
14.10907 235.000
14.12902 234.000
14.14897 214.000
14.16892 221.000
14.18886 217.000
14.20881 246.000
14.22876 224.000
14.24870 239.000
14.26865 196.000
14.28860 251.000
14.30854 215.000
14.32849 221.000
14.34844 226.000
14.36838 213.000
14.38833 230.000
14.40828 211.000
14.42823 237.000
14.44817 229.000
14.46812 242.000
14.48807 223.000
14.50801 235.000
14.52796 250.000
14.54791 204.000
14.56785 220.000
14.58780 228.000
14.60775 199.000
14.62770 246.000
14.64764 222.000
14.66759 229.000
14.68754 224.000
14.70748 255.000
14.72743 227.000
14.74738 233.000
14.76732 223.000
14.78727 265.000
14.80722 234.000
14.82716 217.000
14.84711 221.000
14.86706 241.000
14.88701 250.000
14.90695 246.000
14.92690 221.000
14.94685 240.000
14.96679 240.000
14.98674 249.000
15.00669 249.000
15.02663 210.000
15.04658 260.000
15.06653 235.000
15.08648 246.000
15.10642 232.000
15.12637 247.000
15.14632 269.000
15.16626 254.000
15.18621 266.000
15.20616 213.000
15.22610 235.000
15.24605 274.000
15.26600 277.000
15.28594 248.000
15.30589 247.000
15.32584 236.000
15.34579 268.000
15.36573 266.000
15.38568 262.000
15.40563 281.000
15.42557 302.000
15.44552 300.000
15.46547 284.000
15.48541 308.000
15.50536 316.000
15.52531 320.000
15.54526 340.000
15.56520 357.000
15.58515 359.000
15.60510 326.000
15.62504 399.000
15.64499 413.000
15.66494 446.000
15.68488 520.000
15.70483 632.000
15.72478 737.000
15.74472 952.000
15.76467 1342.000
15.78462 2053.000
15.80457 3028.000
15.82451 4416.000
15.84446 5886.000
15.86441 6762.000
15.88435 6742.000
15.90430 6064.000
15.92425 4916.000
15.94419 3612.000
15.96414 2350.000
15.98409 1412.000
16.00404 859.000
16.02398 599.000
16.04393 447.000
16.06388 396.000
16.08382 373.000
16.10377 406.000
16.12372 355.000
16.14366 354.000
16.16361 344.000
16.18356 357.000
16.20351 361.000
16.22345 329.000
16.24340 303.000
16.26335 331.000
16.28329 310.000
16.30324 353.000
16.32319 315.000
16.34313 288.000
16.36308 295.000
16.38303 274.000
16.40297 255.000
16.42292 288.000
16.44287 284.000
16.46282 264.000
16.48276 274.000
16.50271 233.000
16.52266 264.000
16.54260 276.000
16.56255 263.000
16.58250 262.000
16.60244 208.000
16.62239 252.000
16.64234 266.000
16.66229 248.000
16.68223 257.000
16.70218 251.000
16.72213 246.000
16.74207 255.000
16.76202 256.000
16.78197 238.000
16.80191 228.000
16.82186 251.000
16.84181 268.000
16.86175 287.000
16.88170 277.000
16.90165 278.000
16.92160 257.000
16.94154 250.000
16.96149 210.000
16.98144 244.000
17.00138 251.000
17.02133 238.000
17.04128 242.000
17.06122 257.000
17.08117 258.000
17.10112 252.000
17.12107 207.000
17.14101 225.000
17.16096 222.000
17.18091 252.000
17.20085 255.000
17.22080 242.000
17.24075 246.000
17.26069 237.000
17.28064 234.000
17.30059 243.000
17.32053 218.000
17.34048 250.000
17.36043 251.000
17.38038 222.000
17.40032 236.000
17.42027 241.000
17.44022 241.000
17.46016 239.000
17.48011 252.000
17.50006 244.000
17.52000 225.000
17.53995 223.000
17.55990 222.000
17.57985 236.000
17.59979 224.000
17.61974 242.000
17.63969 221.000
17.65963 233.000
17.67958 240.000
17.69953 239.000
17.71947 262.000
17.73942 223.000
17.75937 242.000
17.77932 225.000
17.79926 223.000
17.81921 247.000
17.83916 221.000
17.85910 194.000
17.87905 223.000
17.89900 268.000
17.91894 220.000
17.93889 225.000
17.95884 265.000
17.97878 221.000
17.99873 251.000
18.01868 231.000
18.03863 240.000
18.05857 236.000
18.07852 220.000
18.09847 218.000
18.11841 225.000
18.13836 260.000
18.15831 220.000
18.17825 240.000
18.19820 229.000
18.21815 245.000
18.23810 233.000
18.25804 230.000
18.27799 229.000
18.29794 246.000
18.31788 245.000
18.33783 262.000
18.35778 240.000
18.37772 251.000
18.39767 251.000
18.41762 288.000
18.43756 303.000
18.45751 281.000
18.47746 283.000
18.49741 256.000
18.51735 226.000
18.53730 232.000
18.55725 240.000
18.57719 232.000
18.59714 213.000
18.61709 239.000
18.63703 221.000
18.65698 248.000
18.67693 226.000
18.69688 258.000
18.71682 231.000
18.73677 244.000
18.75672 239.000
18.77666 238.000
18.79661 255.000
18.81656 217.000
18.83650 252.000
18.85645 219.000
18.87640 220.000
18.89634 217.000
18.91629 226.000
18.93624 238.000
18.95619 229.000
18.97613 211.000
18.99608 230.000
19.01603 242.000
19.03597 243.000
19.05592 222.000
19.07587 243.000
19.09581 250.000
19.11576 250.000
19.13571 220.000
19.15566 224.000
19.17560 236.000
19.19555 246.000
19.21550 242.000
19.23544 227.000
19.25539 217.000
19.27534 234.000
19.29528 225.000
19.31523 225.000
19.33518 241.000
19.35513 253.000
19.37507 234.000
19.39502 254.000
19.41497 234.000
19.43491 222.000
19.45486 196.000
19.47481 247.000
19.49475 239.000
19.51470 235.000
19.53465 258.000
19.55459 238.000
19.57454 259.000
19.59449 240.000
19.61444 223.000
19.63438 253.000
19.65433 225.000
19.67428 238.000
19.69422 265.000
19.71417 210.000
19.73412 235.000
19.75406 221.000
19.77401 240.000
19.79396 238.000
19.81391 249.000
19.83385 226.000
19.85380 234.000
19.87375 250.000
19.89369 251.000
19.91364 247.000
19.93359 234.000
19.95353 228.000
19.97348 246.000
19.99343 247.000
20.01337 235.000
20.03332 242.000
20.05327 259.000
20.07322 229.000
20.09316 247.000
20.11311 234.000
20.13306 258.000
20.15300 240.000
20.17295 234.000
20.19290 263.000
20.21284 252.000
20.23279 236.000
20.25274 238.000
20.27269 232.000
20.29263 237.000
20.31258 235.000
20.33253 232.000
20.35247 260.000
20.37242 255.000
20.39237 228.000
20.41231 269.000
20.43226 249.000
20.45221 232.000
20.47215 248.000
20.49210 238.000
20.51205 247.000
20.53200 246.000
20.55194 230.000
20.57189 278.000
20.59184 222.000
20.61178 251.000
20.63173 226.000
20.65168 258.000
20.67162 251.000
20.69157 239.000
20.71152 257.000
20.73147 263.000
20.75141 274.000
20.77136 260.000
20.79131 299.000
20.81125 299.000
20.83120 281.000
20.85115 315.000
20.87109 289.000
20.89104 291.000
20.91099 283.000
20.93094 361.000
20.95088 348.000
20.97083 357.000
20.99078 390.000
21.01072 420.000
21.03067 472.000
21.05062 523.000
21.07056 614.000
21.09051 699.000
21.11046 665.000
21.13040 585.000
21.15035 470.000
21.17030 386.000
21.19025 345.000
21.21019 293.000
21.23014 256.000
21.25009 279.000
21.27003 255.000
21.28998 250.000
21.30993 236.000
21.32987 249.000
21.34982 231.000
21.36977 255.000
21.38972 249.000
21.40966 246.000
21.42961 217.000
21.44956 258.000
21.46950 245.000
21.48945 229.000
21.50940 231.000
21.52934 239.000
21.54929 256.000
21.56924 271.000
21.58918 245.000
21.60913 257.000
21.62908 211.000
21.64903 268.000
21.66897 270.000
21.68892 241.000
21.70887 236.000
21.72881 240.000
21.74876 251.000
21.76871 240.000
21.78865 228.000
21.80860 229.000
21.82855 229.000
21.84850 248.000
21.86844 227.000
21.88839 275.000
21.90834 258.000
21.92828 242.000
21.94823 256.000
21.96818 267.000
21.98812 239.000
22.00807 234.000
22.02802 225.000
22.04796 235.000
22.06791 264.000
22.08786 241.000
22.10781 225.000
22.12775 262.000
22.14770 279.000
22.16765 267.000
22.18759 208.000
22.20754 280.000
22.22749 229.000
22.24743 261.000
22.26738 241.000
22.28733 236.000
22.30728 253.000
22.32722 258.000
22.34717 244.000
22.36712 237.000
22.38706 266.000
22.40701 233.000
22.42696 245.000
22.44690 195.000
22.46685 186.000
22.48680 234.000
22.50675 264.000
22.52669 232.000
22.54664 257.000
22.56659 254.000
22.58653 228.000
22.60648 236.000
22.62643 258.000
22.64637 252.000
22.66632 251.000
22.68627 250.000
22.70621 267.000
22.72616 236.000
22.74611 252.000
22.76606 227.000
22.78600 252.000
22.80595 246.000
22.82590 260.000
22.84584 244.000
22.86579 209.000
22.88574 239.000
22.90568 271.000
22.92563 261.000
22.94558 237.000
22.96553 254.000
22.98547 253.000
23.00542 220.000
23.02537 258.000
23.04531 250.000
23.06526 241.000
23.08521 219.000
23.10515 218.000
23.12510 233.000
23.14505 251.000
23.16499 260.000
23.18494 242.000
23.20489 245.000
23.22484 243.000
23.24478 242.000
23.26473 248.000
23.28468 214.000
23.30462 262.000
23.32457 249.000
23.34452 249.000
23.36446 233.000
23.38441 252.000
23.40436 241.000
23.42431 255.000
23.44425 266.000
23.46420 225.000
23.48415 254.000
23.50409 247.000
23.52404 222.000
23.54399 276.000
23.56393 239.000
23.58388 237.000
23.60383 269.000
23.62377 236.000
23.64372 258.000
23.66367 265.000
23.68362 247.000
23.70356 282.000
23.72351 222.000
23.74346 249.000
23.76340 252.000
23.78335 243.000
23.80330 239.000
23.82324 244.000
23.84319 234.000
23.86314 232.000
23.88309 248.000
23.90303 247.000
23.92298 231.000
23.94293 264.000
23.96287 251.000
23.98282 245.000
24.00277 252.000
24.02271 254.000
24.04266 266.000
24.06261 223.000
24.08256 252.000
24.10250 256.000
24.12245 259.000
24.14240 241.000
24.16234 271.000
24.18229 256.000
24.20224 235.000
24.22218 266.000
24.24213 256.000
24.26208 243.000
24.28202 231.000
24.30197 257.000
24.32192 244.000
24.34187 231.000
24.36181 242.000
24.38176 277.000
24.40171 229.000
24.42165 262.000
24.44160 240.000
24.46155 222.000
24.48149 267.000
24.50144 235.000
24.52139 263.000
24.54134 245.000
24.56128 275.000
24.58123 268.000
24.60118 235.000
24.62112 279.000
24.64107 253.000
24.66102 234.000
24.68096 232.000
24.70091 245.000
24.72086 248.000
24.74080 255.000
24.76075 242.000
24.78070 248.000
24.80065 249.000
24.82059 276.000
24.84054 232.000
24.86049 267.000
24.88043 241.000
24.90038 255.000
24.92033 276.000
24.94027 268.000
24.96022 255.000
24.98017 287.000
25.00012 315.000
25.02006 254.000
25.04001 274.000
25.05996 262.000
25.07990 233.000
25.09985 296.000
25.11980 274.000
25.13974 240.000
25.15969 258.000
25.17964 246.000
25.19958 218.000
25.21953 261.000
25.23948 254.000
25.25943 231.000
25.27937 277.000
25.29932 264.000
25.31927 247.000
25.33921 274.000
25.35916 266.000
25.37911 254.000
25.39905 265.000
25.41900 273.000
25.43895 276.000
25.45890 250.000
25.47884 271.000
25.49879 229.000
25.51874 249.000
25.53868 252.000
25.55863 255.000
25.57858 249.000
25.59852 246.000
25.61847 263.000
25.63842 261.000
25.65837 264.000
25.67831 238.000
25.69826 236.000
25.71821 253.000
25.73815 252.000
25.75810 260.000
25.77805 219.000
25.79799 257.000
25.81794 242.000
25.83789 228.000
25.85783 265.000
25.87778 258.000
25.89773 247.000
25.91768 220.000
25.93762 274.000
25.95757 257.000
25.97752 248.000
25.99746 245.000
26.01741 240.000
26.03736 275.000
26.05730 253.000
26.07725 268.000
26.09720 258.000
26.11715 253.000
26.13709 243.000
26.15704 273.000
26.17699 246.000
26.19693 287.000
26.21688 285.000
26.23683 257.000
26.25677 277.000
26.27672 274.000
26.29667 235.000
26.31661 282.000
26.33656 253.000
26.35651 275.000
26.37646 253.000
26.39640 225.000
26.41635 233.000
26.43630 261.000
26.45624 259.000
26.47619 268.000
26.49614 285.000
26.51608 251.000
26.53603 253.000
26.55598 272.000
26.57593 278.000
26.59587 294.000
26.61582 232.000
26.63577 283.000
26.65571 273.000
26.67566 275.000
26.69561 286.000
26.71555 261.000
26.73550 292.000
26.75545 243.000
26.77539 227.000
26.79534 283.000
26.81529 229.000
26.83524 273.000
26.85518 247.000
26.87513 248.000
26.89508 238.000
26.91502 271.000
26.93497 230.000
26.95492 260.000
26.97486 268.000
26.99481 221.000
27.01476 239.000
27.03471 262.000
27.05465 238.000
27.07460 257.000
27.09455 257.000
27.11449 265.000
27.13444 263.000
27.15439 252.000
27.17433 268.000
27.19428 269.000
27.21423 254.000
27.23417 241.000
27.25412 270.000
27.27407 267.000
27.29402 250.000
27.31396 242.000
27.33391 291.000
27.35386 266.000
27.37380 246.000
27.39375 279.000
27.41370 257.000
27.43364 240.000
27.45359 260.000
27.47354 269.000
27.49349 231.000
27.51343 261.000
27.53338 249.000
27.55333 247.000
27.57327 281.000
27.59322 301.000
27.61317 245.000
27.63311 260.000
27.65306 264.000
27.67301 260.000
27.69296 279.000
27.71290 279.000
27.73285 254.000
27.75280 251.000
27.77274 263.000
27.79269 255.000
27.81264 250.000
27.83258 237.000
27.85253 286.000
27.87248 238.000
27.89242 257.000
27.91237 273.000
27.93232 269.000
27.95227 273.000
27.97221 258.000
27.99216 234.000
28.01211 283.000
28.03205 251.000
28.05200 269.000
28.07195 293.000
28.09189 248.000
28.11184 259.000
28.13179 248.000
28.15174 281.000
28.17168 236.000
28.19163 249.000
28.21158 277.000
28.23152 267.000
28.25147 245.000
28.27142 256.000
28.29136 274.000
28.31131 259.000
28.33126 245.000
28.35120 275.000
28.37115 260.000
28.39110 300.000
28.41105 266.000
28.43099 291.000
28.45094 277.000
28.47089 299.000
28.49083 286.000
28.51078 284.000
28.53073 280.000
28.55067 259.000
28.57062 259.000
28.59057 267.000
28.61052 230.000
28.63046 263.000
28.65041 268.000
28.67036 292.000
28.69030 263.000
28.71025 250.000
28.73020 274.000
28.75014 252.000
28.77009 269.000
28.79004 264.000
28.80998 256.000
28.82993 250.000
28.84988 232.000
28.86983 253.000
28.88977 255.000
28.90972 258.000
28.92967 290.000
28.94961 266.000
28.96956 273.000
28.98951 288.000
29.00945 245.000
29.02940 263.000
29.04935 250.000
29.06930 259.000
29.08924 290.000
29.10919 258.000
29.12914 268.000
29.14908 293.000
29.16903 257.000
29.18898 296.000
29.20892 279.000
29.22887 281.000
29.24882 279.000
29.26877 321.000
29.28871 269.000
29.30866 312.000
29.32861 316.000
29.34855 346.000
29.36850 322.000
29.38845 321.000
29.40839 371.000
29.42834 290.000
29.44829 338.000
29.46823 317.000
29.48818 309.000
29.50813 284.000
29.52808 295.000
29.54802 294.000
29.56797 284.000
29.58792 305.000
29.60786 254.000
29.62781 252.000
29.64776 277.000
29.66770 270.000
29.68765 271.000
29.70760 252.000
29.72755 243.000
29.74749 276.000
29.76744 284.000
29.78739 255.000
29.80733 256.000
29.82728 275.000
29.84723 286.000
29.86717 268.000
29.88712 271.000
29.90707 297.000
29.92701 276.000
29.94696 309.000
29.96691 282.000
29.98686 287.000
30.00680 258.000
30.02675 303.000
30.04670 299.000
30.06664 275.000
30.08659 301.000
30.10654 288.000
30.12648 282.000
30.14643 308.000
30.16638 342.000
30.18633 323.000
30.20627 349.000
30.22622 312.000
30.24617 338.000
30.26611 344.000
30.28606 337.000
30.30601 372.000
30.32595 349.000
30.34590 321.000
30.36585 321.000
30.38579 321.000
30.40574 313.000
30.42569 318.000
30.44564 317.000
30.46558 290.000
30.48553 281.000
30.50548 278.000
30.52542 269.000
30.54537 288.000
30.56532 309.000
30.58526 264.000
30.60521 294.000
30.62516 260.000
30.64511 283.000
30.66505 259.000
30.68500 278.000
30.70495 304.000
30.72489 293.000
30.74484 305.000
30.76479 270.000
30.78473 264.000
30.80468 245.000
30.82463 259.000
30.84458 268.000
30.86452 261.000
30.88447 286.000
30.90442 277.000
30.92436 282.000
30.94431 324.000
30.96426 240.000
30.98420 281.000
31.00415 275.000
31.02410 258.000
31.04404 262.000
31.06399 290.000
31.08394 267.000
31.10389 281.000
31.12383 272.000
31.14378 273.000
31.16373 278.000
31.18367 295.000
31.20362 257.000
31.22357 284.000
31.24351 299.000
31.26346 265.000
31.28341 259.000
31.30336 320.000
31.32330 279.000
31.34325 259.000
31.36320 273.000
31.38314 287.000
31.40309 294.000
31.42304 291.000
31.44298 291.000
31.46293 282.000
31.48288 267.000
31.50282 311.000
31.52277 275.000
31.54272 261.000
31.56267 271.000
31.58261 294.000
31.60256 299.000
31.62251 264.000
31.64245 326.000
31.66240 307.000
31.68235 315.000
31.70229 267.000
31.72224 259.000
31.74219 254.000
31.76214 294.000
31.78208 325.000
31.80203 286.000
31.82198 305.000
31.84192 295.000
31.86187 326.000
31.88182 369.000
31.90176 386.000
31.92171 472.000
31.94166 513.000
31.96160 523.000
31.98155 653.000
32.00150 681.000
32.02145 746.000
32.04139 729.000
32.06134 712.000
32.08129 644.000
32.10123 698.000
32.12118 672.000
32.14113 641.000
32.16107 580.000
32.18102 538.000
32.20097 489.000
32.22092 410.000
32.24086 410.000
32.26081 383.000
32.28076 330.000
32.30070 306.000
32.32065 302.000
32.34060 320.000
32.36054 298.000
32.38049 310.000
32.40044 281.000
32.42039 299.000
32.44033 345.000
32.46028 338.000
32.48023 363.000
32.50017 396.000
32.52012 360.000
32.54007 325.000
32.56001 374.000
32.57996 346.000
32.59991 349.000
32.61985 314.000
32.63980 299.000
32.65975 303.000
32.67970 332.000
32.69964 306.000
32.71959 303.000
32.73954 300.000
32.75948 274.000
32.77943 287.000
32.79938 264.000
32.81932 279.000
32.83927 263.000
32.85922 303.000
32.87917 308.000
32.89911 240.000
32.91906 273.000
32.93901 257.000
32.95895 289.000
32.97890 271.000
32.99885 276.000
33.01879 283.000
33.03874 296.000
33.05869 278.000
33.07863 264.000
33.09858 286.000
33.11853 276.000
33.13848 253.000
33.15842 248.000
33.17837 298.000
33.19832 287.000
33.21826 281.000
33.23821 284.000
33.25816 262.000
33.27810 280.000
33.29805 278.000
33.31800 269.000
33.33795 271.000
33.35789 294.000
33.37784 271.000
33.39779 293.000
33.41773 260.000
33.43768 285.000
33.45763 304.000
33.47757 274.000
33.49752 262.000
33.51747 262.000
33.53741 253.000
33.55736 268.000
33.57731 264.000
33.59726 272.000
33.61720 317.000
33.63715 286.000
33.65710 291.000
33.67704 288.000
33.69699 294.000
33.71694 300.000
33.73688 283.000
33.75683 298.000
33.77678 298.000
33.79673 307.000
33.81667 280.000
33.83662 277.000
33.85657 262.000
33.87651 295.000
33.89646 228.000
33.91641 288.000
33.93635 277.000
33.95630 287.000
33.97625 279.000
33.99620 321.000
34.01614 265.000
34.03609 284.000
34.05604 258.000
34.07598 281.000
34.09593 281.000
34.11588 300.000
34.13582 282.000
34.15577 307.000
34.17572 288.000
34.19566 305.000
34.21561 315.000
34.23556 310.000
34.25551 289.000
34.27545 320.000
34.29540 282.000
34.31535 300.000
34.33529 300.000
34.35524 300.000
34.37519 315.000
34.39513 319.000
34.41508 373.000
34.43503 336.000
34.45498 354.000
34.47492 346.000
34.49487 382.000
34.51482 352.000
34.53476 389.000
34.55471 357.000
34.57466 435.000
34.59460 427.000
34.61455 459.000
34.63450 478.000
34.65444 472.000
34.67439 531.000
34.69434 572.000
34.71429 559.000
34.73423 528.000
34.75418 597.000
34.77413 516.000
34.79407 506.000
34.81402 522.000
34.83397 563.000
34.85391 526.000
34.87386 463.000
34.89381 413.000
34.91376 410.000
34.93370 388.000
34.95365 380.000
34.97360 375.000
34.99354 354.000
35.01349 354.000
35.03344 308.000
35.05338 332.000
35.07333 316.000
35.09328 333.000
35.11322 363.000
35.13317 304.000
35.15312 347.000
35.17307 372.000
35.19301 354.000
35.21296 384.000
35.23291 424.000
35.25285 355.000
35.27280 452.000
35.29275 456.000
35.31269 463.000
35.33264 517.000
35.35259 505.000
35.37254 559.000
35.39248 658.000
35.41243 715.000
35.43238 887.000
35.45232 960.000
35.47227 989.000
35.49222 1147.000
35.51216 1253.000
35.53211 1352.000
35.55206 1344.000
35.57201 1365.000
35.59195 1357.000
35.61190 1386.000
35.63185 1323.000
35.65179 1226.000
35.67174 1198.000
35.69169 1155.000
35.71163 1087.000
35.73158 1079.000
35.75153 992.000
35.77147 1041.000
35.79142 1033.000
35.81137 936.000
35.83132 876.000
35.85126 802.000
35.87121 754.000
35.89116 686.000
35.91110 659.000
35.93105 573.000
35.95100 483.000
35.97094 472.000
35.99089 425.000
36.01084 386.000
36.03079 396.000
36.05073 390.000
36.07068 371.000
36.09063 315.000
36.11057 303.000
36.13052 317.000
36.15047 299.000
36.17041 308.000
36.19036 323.000
36.21031 341.000
36.23025 292.000
36.25020 320.000
36.27015 326.000
36.29010 306.000
36.31004 310.000
36.32999 329.000
36.34994 346.000
36.36988 342.000
36.38983 346.000
36.40978 345.000
36.42972 314.000
36.44967 325.000
36.46962 336.000
36.48957 318.000
36.50951 324.000
36.52946 311.000
36.54941 339.000
36.56935 357.000
36.58930 344.000
36.60925 341.000
36.62919 351.000
36.64914 364.000
36.66909 317.000
36.68903 315.000
36.70898 352.000
36.72893 387.000
36.74888 346.000
36.76882 368.000
36.78877 368.000
36.80872 405.000
36.82866 375.000
36.84861 380.000
36.86856 389.000
36.88850 432.000
36.90845 411.000
36.92840 435.000
36.94835 486.000
36.96829 479.000
36.98824 544.000
37.00819 617.000
37.02813 689.000
37.04808 764.000
37.06803 842.000
37.08797 1003.000
37.10792 1120.000
37.12787 1185.000
37.14781 1155.000
37.16776 1164.000
37.18771 1025.000
37.20766 979.000
37.22760 894.000
37.24755 800.000
37.26750 705.000
37.28744 546.000
37.30739 594.000
37.32734 437.000
37.34728 399.000
37.36723 371.000
37.38718 372.000
37.40713 395.000
37.42707 337.000
37.44702 344.000
37.46697 351.000
37.48691 322.000
37.50686 316.000
37.52681 344.000
37.54675 293.000
37.56670 313.000
37.58665 294.000
37.60660 319.000
37.62654 328.000
37.64649 293.000
37.66644 295.000
37.68638 291.000
37.70633 297.000
37.72628 282.000
37.74622 278.000
37.76617 274.000
37.78612 299.000
37.80606 335.000
37.82601 263.000
37.84596 271.000
37.86591 287.000
37.88585 297.000
37.90580 311.000
37.92575 327.000
37.94569 294.000
37.96564 327.000
37.98559 314.000
38.00553 308.000
38.02548 288.000
38.04543 285.000
38.06538 302.000
38.08532 325.000
38.10527 305.000
38.12522 308.000
38.14516 322.000
38.16511 330.000
38.18506 337.000
38.20500 309.000
38.22495 339.000
38.24490 330.000
38.26484 353.000
38.28479 314.000
38.30474 350.000
38.32469 379.000
38.34463 371.000
38.36458 363.000
38.38453 418.000
38.40447 382.000
38.42442 378.000
38.44437 407.000
38.46431 441.000
38.48426 452.000
38.50421 472.000
38.52416 502.000
38.54410 560.000
38.56405 615.000
38.58400 668.000
38.60394 812.000
38.62389 886.000
38.64384 958.000
38.66378 1070.000
38.68373 1143.000
38.70368 1123.000
38.72362 1171.000
38.74357 1133.000
38.76352 1048.000
38.78347 988.000
38.80341 909.000
38.82336 857.000
38.84331 828.000
38.86325 743.000
38.88320 723.000
38.90315 709.000
38.92309 682.000
38.94304 629.000
38.96299 639.000
38.98294 614.000
39.00288 584.000
39.02283 610.000
39.04278 580.000
39.06272 556.000
39.08267 568.000
39.10262 530.000
39.12256 520.000
39.14251 570.000
39.16246 571.000
39.18241 608.000
39.20235 604.000
39.22230 664.000
39.24225 766.000
39.26219 848.000
39.28214 974.000
39.30209 994.000
39.32203 1147.000
39.34198 1297.000
39.36193 1347.000
39.38187 1247.000
39.40182 1169.000
39.42177 1128.000
39.44172 1038.000
39.46166 980.000
39.48161 918.000
39.50156 775.000
39.52150 659.000
39.54145 529.000
39.56140 508.000
39.58134 483.000
39.60129 446.000
39.62124 374.000
39.64119 382.000
39.66113 345.000
39.68108 347.000
39.70103 340.000
39.72097 313.000
39.74092 317.000
39.76087 342.000
39.78081 330.000
39.80076 312.000
39.82071 265.000
39.84065 284.000
39.86060 315.000
39.88055 285.000
39.90050 299.000
39.92044 305.000
39.94039 319.000
39.96034 294.000
39.98028 305.000
40.00023 297.000
40.02018 309.000
40.04012 286.000
40.06007 304.000
40.08002 288.000
40.09997 272.000
40.11991 266.000
40.13986 273.000
40.15981 247.000
40.17975 260.000
40.19970 272.000
40.21965 253.000
40.23959 279.000
40.25954 252.000
40.27949 275.000
40.29943 219.000
40.31938 313.000
40.33933 257.000
40.35928 257.000
40.37922 241.000
40.39917 241.000
40.41912 273.000
40.43906 274.000
40.45901 268.000
40.47896 261.000
40.49890 287.000
40.51885 228.000
40.53880 271.000
40.55875 288.000
40.57869 257.000
40.59864 253.000
40.61859 291.000
40.63853 274.000
40.65848 240.000
40.67843 269.000
40.69837 270.000
40.71832 270.000
40.73827 294.000
40.75822 300.000
40.77816 258.000
40.79811 288.000
40.81806 275.000
40.83800 283.000
40.85795 269.000
40.87790 266.000
40.89784 257.000
40.91779 283.000
40.93774 263.000
40.95768 260.000
40.97763 274.000
40.99758 286.000
41.01753 240.000
41.03747 279.000
41.05742 221.000
41.07737 284.000
41.09731 256.000
41.11726 260.000
41.13721 268.000
41.15715 255.000
41.17710 264.000
41.19705 275.000
41.21700 267.000
41.23694 270.000
41.25689 282.000
41.27684 269.000
41.29678 281.000
41.31673 265.000
41.33668 272.000
41.35662 285.000
41.37657 271.000
41.39652 260.000
41.41646 289.000
41.43641 311.000
41.45636 287.000
41.47631 257.000
41.49625 290.000
41.51620 279.000
41.53615 312.000
41.55609 298.000
41.57604 271.000
41.59599 263.000
41.61593 281.000
41.63588 307.000
41.65583 285.000
41.67578 302.000
41.69572 272.000
41.71567 309.000
41.73562 281.000
41.75556 291.000
41.77551 272.000
41.79546 292.000
41.81540 285.000
41.83535 278.000
41.85530 292.000
41.87524 265.000
41.89519 271.000
41.91514 286.000
41.93509 265.000
41.95503 287.000
41.97498 252.000
41.99493 235.000
42.01487 295.000
42.03482 229.000
42.05477 289.000
42.07471 278.000
42.09466 256.000
42.11461 280.000
42.13456 281.000
42.15450 254.000
42.17445 265.000
42.19440 275.000
42.21434 291.000
42.23429 272.000
42.25424 275.000
42.27418 289.000
42.29413 289.000
42.31408 281.000
42.33403 322.000
42.35397 296.000
42.37392 288.000
42.39387 281.000
42.41381 298.000
42.43376 279.000
42.45371 319.000
42.47365 278.000
42.49360 274.000
42.51355 266.000
42.53349 336.000
42.55344 268.000
42.57339 330.000
42.59334 322.000
42.61328 316.000
42.63323 301.000
42.65318 317.000
42.67312 319.000
42.69307 362.000
42.71302 391.000
42.73296 307.000
42.75291 381.000
42.77286 384.000
42.79281 383.000
42.81275 401.000
42.83270 429.000
42.85265 443.000
42.87259 460.000
42.89254 531.000
42.91249 556.000
42.93243 625.000
42.95238 638.000
42.97233 660.000
42.99227 785.000
43.01222 859.000
43.03217 856.000
43.05212 990.000
43.07206 1005.000
43.09201 1125.000
43.11196 1127.000
43.13190 1223.000
43.15185 1221.000
43.17180 1183.000
43.19174 1240.000
43.21169 1131.000
43.23164 1109.000
43.25159 1042.000
43.27153 1055.000
43.29148 966.000
43.31143 979.000
43.33137 905.000
43.35132 933.000
43.37127 846.000
43.39121 809.000
43.41116 827.000
43.43111 811.000
43.45105 825.000
43.47100 852.000
43.49095 835.000
43.51090 747.000
43.53084 744.000
43.55079 640.000
43.57074 630.000
43.59068 603.000
43.61063 545.000
43.63058 502.000
43.65052 451.000
43.67047 440.000
43.69042 378.000
43.71037 347.000
43.73031 340.000
43.75026 334.000
43.77021 306.000
43.79015 350.000
43.81010 314.000
43.83005 310.000
43.84999 308.000
43.86994 313.000
43.88989 268.000
43.90984 290.000
43.92978 282.000
43.94973 277.000
43.96968 291.000
43.98962 317.000
44.00957 265.000
44.02952 252.000
44.04946 270.000
44.06941 267.000
44.08936 269.000
44.10930 284.000
44.12925 281.000
44.14920 266.000
44.16915 279.000
44.18909 263.000
44.20904 271.000
44.22899 264.000
44.24893 252.000
44.26888 277.000
44.28883 248.000
44.30877 270.000
44.32872 260.000
44.34867 287.000
44.36862 260.000
44.38856 280.000
44.40851 255.000
44.42846 289.000
44.44840 249.000
44.46835 305.000
44.48830 271.000
44.50824 272.000
44.52819 294.000
44.54814 284.000
44.56808 268.000
44.58803 258.000
44.60798 274.000
44.62793 291.000
44.64787 248.000
44.66782 240.000
44.68777 290.000
44.70771 258.000
44.72766 251.000
44.74761 263.000
44.76755 265.000
44.78750 313.000
44.80745 249.000
44.82740 259.000
44.84734 263.000
44.86729 285.000
44.88724 229.000
44.90718 255.000
44.92713 263.000
44.94708 275.000
44.96702 257.000
44.98697 263.000
45.00692 259.000
45.02686 258.000
45.04681 263.000
45.06676 267.000
45.08671 239.000
45.10665 265.000
45.12660 280.000
45.14655 296.000
45.16649 265.000
45.18644 243.000
45.20639 280.000
45.22633 283.000
45.24628 252.000
45.26623 261.000
45.28618 252.000
45.30612 252.000
45.32607 266.000
45.34602 256.000
45.36596 267.000
45.38591 270.000
45.40586 247.000
45.42580 270.000
45.44575 238.000
45.46570 290.000
45.48565 258.000
45.50559 269.000
45.52554 248.000
45.54549 286.000
45.56543 240.000
45.58538 251.000
45.60533 281.000
45.62527 243.000
45.64522 255.000
45.66517 274.000
45.68511 249.000
45.70506 225.000
45.72501 251.000
45.74496 265.000
45.76490 246.000
45.78485 258.000
45.80480 224.000
45.82474 254.000
45.84469 237.000
45.86464 256.000
45.88458 262.000
45.90453 250.000
45.92448 267.000
45.94443 245.000
45.96437 257.000
45.98432 269.000
46.00427 261.000
46.02421 230.000
46.04416 254.000
46.06411 240.000
46.08405 280.000
46.10400 241.000
46.12395 247.000
46.14389 267.000
46.16384 243.000
46.18379 262.000
46.20374 260.000
46.22368 258.000
46.24363 267.000
46.26358 279.000
46.28352 256.000
46.30347 274.000
46.32342 304.000
46.34336 291.000
46.36331 276.000
46.38326 256.000
46.40321 272.000
46.42315 275.000
46.44310 264.000
46.46305 254.000
46.48299 245.000
46.50294 279.000
46.52289 284.000
46.54283 264.000
46.56278 267.000
46.58273 263.000
46.60267 251.000
46.62262 259.000
46.64257 262.000
46.66252 256.000
46.68246 256.000
46.70241 248.000
46.72236 244.000
46.74230 247.000
46.76225 259.000
46.78220 254.000
46.80214 285.000
46.82209 271.000
46.84204 272.000
46.86199 260.000
46.88193 251.000
46.90188 238.000
46.92183 238.000
46.94177 266.000
46.96172 243.000
46.98167 250.000
47.00161 265.000
47.02156 231.000
47.04151 251.000
47.06146 293.000
47.08140 261.000
47.10135 272.000
47.12130 238.000
47.14124 270.000
47.16119 262.000
47.18114 267.000
47.20108 257.000
47.22103 260.000
47.24098 285.000
47.26092 273.000
47.28087 269.000
47.30082 254.000
47.32077 250.000
47.34071 247.000
47.36066 247.000
47.38061 258.000
47.40055 254.000
47.42050 250.000
47.44045 230.000
47.46039 265.000
47.48034 256.000
47.50029 257.000
47.52024 252.000
47.54018 279.000
47.56013 266.000
47.58008 274.000
47.60002 258.000
47.61997 282.000
47.63992 295.000
47.65986 264.000
47.67981 272.000
47.69976 229.000
47.71970 274.000
47.73965 288.000
47.75960 278.000
47.77955 279.000
47.79949 268.000
47.81944 290.000
47.83939 254.000
47.85933 266.000
47.87928 273.000
47.89923 287.000
47.91917 282.000
47.93912 291.000
47.95907 277.000
47.97902 279.000
47.99896 291.000
48.01891 303.000
48.03886 289.000
48.05880 274.000
48.07875 268.000
48.09870 321.000
48.11864 325.000
48.13859 311.000
48.15854 310.000
48.17848 292.000
48.19843 265.000
48.21838 293.000
48.23833 332.000
48.25827 357.000
48.27822 320.000
48.29817 300.000
48.31811 307.000
48.33806 310.000
48.35801 316.000
48.37795 325.000
48.39790 337.000
48.41785 367.000
48.43780 358.000
48.45774 356.000
48.47769 409.000
48.49764 399.000
48.51758 409.000
48.53753 458.000
48.55748 432.000
48.57742 490.000
48.59737 490.000
48.61732 582.000
48.63726 608.000
48.65721 710.000
48.67716 801.000
48.69711 876.000
48.71705 1115.000
48.73700 1261.000
48.75695 1345.000
48.77689 1316.000
48.79684 1311.000
48.81679 1208.000
48.83673 1177.000
48.85668 1230.000
48.87663 1165.000
48.89658 1129.000
48.91652 1019.000
48.93647 874.000
48.95642 822.000
48.97636 708.000
48.99631 636.000
49.01626 543.000
49.03620 507.000
49.05615 486.000
49.07610 431.000
49.09605 410.000
49.11599 363.000
49.13594 354.000
49.15589 357.000
49.17583 370.000
49.19578 309.000
49.21573 359.000
49.23567 265.000
49.25562 285.000
49.27557 290.000
49.29551 276.000
49.31546 288.000
49.33541 299.000
49.35536 283.000
49.37530 292.000
49.39525 320.000
49.41520 265.000
49.43514 296.000
49.45509 269.000
49.47504 274.000
49.49498 275.000
49.51493 296.000
49.53488 262.000
49.55483 305.000
49.57477 265.000
49.59472 288.000
49.61467 282.000
49.63461 279.000
49.65456 254.000
49.67451 263.000
49.69445 311.000
49.71440 254.000
49.73435 290.000
49.75429 265.000
49.77424 265.000
49.79419 268.000
49.81414 291.000
49.83408 269.000
49.85403 274.000
49.87398 291.000
49.89392 273.000
49.91387 269.000
49.93382 291.000
49.95376 289.000
49.97371 276.000
49.99366 272.000
50.01361 256.000
50.03355 293.000
50.05350 282.000
50.07345 255.000
50.09339 271.000
50.11334 266.000
50.13329 299.000
50.15323 295.000
50.17318 277.000
50.19313 268.000
50.21307 263.000
50.23302 276.000
50.25297 290.000
50.27292 246.000
50.29286 260.000
50.31281 243.000
50.33276 266.000
50.35270 283.000
50.37265 261.000
50.39260 275.000
50.41254 254.000
50.43249 275.000
50.45244 257.000
50.47239 260.000
50.49233 240.000
50.51228 257.000
50.53223 236.000
50.55217 268.000
50.57212 251.000
50.59207 273.000
50.61201 236.000
50.63196 247.000
50.65191 254.000
50.67186 248.000
50.69180 276.000
50.71175 254.000
50.73170 275.000
50.75164 247.000
50.77159 258.000
50.79154 253.000
50.81148 253.000
50.83143 251.000
50.85138 245.000
50.87132 280.000
50.89127 241.000
50.91122 266.000
50.93117 259.000
50.95111 236.000
50.97106 266.000
50.99101 234.000
51.01095 236.000
51.03090 277.000
51.05085 256.000
51.07079 256.000
51.09074 258.000
51.11069 230.000
51.13064 243.000
51.15058 245.000
51.17053 255.000
51.19048 264.000
51.21042 251.000
51.23037 237.000
51.25032 269.000
51.27026 296.000
51.29021 247.000
51.31016 248.000
51.33010 305.000
51.35005 276.000
51.37000 265.000
51.38995 254.000
51.40989 265.000
51.42984 260.000
51.44979 239.000
51.46973 229.000
51.48968 265.000
51.50963 244.000
51.52957 257.000
51.54952 255.000
51.56947 280.000
51.58942 271.000
51.60936 230.000
51.62931 254.000
51.64926 274.000
51.66920 241.000
51.68915 248.000
51.70910 230.000
51.72904 238.000
51.74899 246.000
51.76894 284.000
51.78888 258.000
51.80883 271.000
51.82878 243.000
51.84873 277.000
51.86867 259.000
51.88862 248.000
51.90857 255.000
51.92851 287.000
51.94846 261.000
51.96841 255.000
51.98835 256.000
52.00830 270.000
52.02825 243.000
52.04820 288.000
52.06814 274.000
52.08809 264.000
52.10804 251.000
52.12798 267.000
52.14793 249.000
52.16788 292.000
52.18782 270.000
52.20777 308.000
52.22772 273.000
52.24767 290.000
52.26761 250.000
52.28756 263.000
52.30751 280.000
52.32745 262.000
52.34740 272.000
52.36735 258.000
52.38729 270.000
52.40724 259.000
52.42719 240.000
52.44713 259.000
52.46708 244.000
52.48703 243.000
52.50698 237.000
52.52692 263.000
52.54687 236.000
52.56682 275.000
52.58676 235.000
52.60671 278.000
52.62666 262.000
52.64660 240.000
52.66655 259.000
52.68650 273.000
52.70645 272.000
52.72639 250.000
52.74634 277.000
52.76629 242.000
52.78623 273.000
52.80618 243.000
52.82613 266.000
52.84607 263.000
52.86602 252.000
52.88597 256.000
52.90591 238.000
52.92586 245.000
52.94581 249.000
52.96576 245.000
52.98570 268.000
53.00565 274.000
53.02560 249.000
53.04554 276.000
53.06549 284.000
53.08544 269.000
53.10538 297.000
53.12533 266.000
53.14528 306.000
53.16523 276.000
53.18517 290.000
53.20512 282.000
53.22507 281.000
53.24501 303.000
53.26496 282.000
53.28491 296.000
53.30485 276.000
53.32480 324.000
53.34475 322.000
53.36469 324.000
53.38464 325.000
53.40459 296.000
53.42454 335.000
53.44448 345.000
53.46443 320.000
53.48438 333.000
53.50432 311.000
53.52427 304.000
53.54422 323.000
53.56416 312.000
53.58411 299.000
53.60406 286.000
53.62401 317.000
53.64395 262.000
53.66390 287.000
53.68385 298.000
53.70379 263.000
53.72374 264.000
53.74369 278.000
53.76363 271.000
53.78358 264.000
53.80353 275.000
53.82348 297.000
53.84342 278.000
53.86337 286.000
53.88332 271.000
53.90326 268.000
53.92321 287.000
53.94316 277.000
53.96310 292.000
53.98305 292.000
54.00300 314.000
54.02294 271.000
54.04289 305.000
54.06284 243.000
54.08279 234.000
54.10273 279.000
54.12268 277.000
54.14263 242.000
54.16257 263.000
54.18252 245.000
54.20247 259.000
54.22241 262.000
54.24236 255.000
54.26231 260.000
54.28226 288.000
54.30220 279.000
54.32215 248.000
54.34210 248.000
54.36204 264.000
54.38199 265.000
54.40194 265.000
54.42188 226.000
54.44183 267.000
54.46178 261.000
54.48172 250.000
54.50167 222.000
54.52162 269.000
54.54157 293.000
54.56151 239.000
54.58146 290.000
54.60141 259.000
54.62135 230.000
54.64130 261.000
54.66125 263.000
54.68119 272.000
54.70114 276.000
54.72109 258.000
54.74104 264.000
54.76098 297.000
54.78093 241.000
54.80088 255.000
54.82082 241.000
54.84077 258.000
54.86072 237.000
54.88066 240.000
54.90061 235.000
54.92056 222.000
54.94050 272.000
54.96045 234.000
54.98040 276.000
55.00035 253.000
55.02029 255.000
55.04024 275.000
55.06019 263.000
55.08013 245.000
55.10008 250.000
55.12003 267.000
55.13997 236.000
55.15992 233.000
55.17987 230.000
55.19982 239.000
55.21976 248.000
55.23971 265.000
55.25966 255.000
55.27960 248.000
55.29955 270.000
55.31950 268.000
55.33944 255.000
55.35939 230.000
55.37934 276.000
55.39929 259.000
55.41923 281.000
55.43918 273.000
55.45913 228.000
55.47907 259.000
55.49902 230.000
55.51897 252.000
55.53891 227.000
55.55886 269.000
55.57881 276.000
55.59875 247.000
55.61870 261.000
55.63865 262.000
55.65860 247.000
55.67854 267.000
55.69849 241.000
55.71844 243.000
55.73838 251.000
55.75833 248.000
55.77828 261.000
55.79822 266.000
55.81817 261.000
55.83812 215.000
55.85807 251.000
55.87801 263.000
55.89796 250.000
55.91791 242.000
55.93785 237.000
55.95780 235.000
55.97775 227.000
55.99769 237.000
56.01764 234.000
56.03759 238.000
56.05753 250.000
56.07748 238.000
56.09743 290.000
56.11738 258.000
56.13732 277.000
56.15727 197.000
56.17722 259.000
56.19716 264.000
56.21711 230.000
56.23706 236.000
56.25700 273.000
56.27695 247.000
56.29690 292.000
56.31685 221.000
56.33679 260.000
56.35674 277.000
56.37669 249.000
56.39663 282.000
56.41658 237.000
56.43653 278.000
56.45647 262.000
56.47642 241.000
56.49637 262.000
56.51631 304.000
56.53626 247.000
56.55621 245.000
56.57616 259.000
56.59610 239.000
56.61605 217.000
56.63600 282.000
56.65594 268.000
56.67589 258.000
56.69584 284.000
56.71578 268.000
56.73573 278.000
56.75568 243.000
56.77563 254.000
56.79557 253.000
56.81552 257.000
56.83547 260.000
56.85541 245.000
56.87536 282.000
56.89531 272.000
56.91525 292.000
56.93520 254.000
56.95515 257.000
56.97510 256.000
56.99504 266.000
57.01499 269.000
57.03494 269.000
57.05488 269.000
57.07483 275.000
57.09478 288.000
57.11472 281.000
57.13467 266.000
57.15462 260.000
57.17456 298.000
57.19451 256.000
57.21446 280.000
57.23441 328.000
57.25435 297.000
57.27430 293.000
57.29425 281.000
57.31419 326.000
57.33414 304.000
57.35409 319.000
57.37403 290.000
57.39398 293.000
57.41393 297.000
57.43388 346.000
57.45382 324.000
57.47377 310.000
57.49372 293.000
57.51366 324.000
57.53361 288.000
57.55356 272.000
57.57350 297.000
57.59345 281.000
57.61340 281.000
57.63334 280.000
57.65329 258.000
57.67324 278.000
57.69319 285.000
57.71313 288.000
57.73308 289.000
57.75303 296.000
57.77297 261.000
57.79292 311.000
57.81287 263.000
57.83281 259.000
57.85276 261.000
57.87271 243.000
57.89266 297.000
57.91260 281.000
57.93255 285.000
57.95250 280.000
57.97244 279.000
57.99239 300.000
58.01234 282.000
58.03228 293.000
58.05223 293.000
58.07218 307.000
58.09212 271.000
58.11207 297.000
58.13202 356.000
58.15197 304.000
58.17191 321.000
58.19186 322.000
58.21181 354.000
58.23175 361.000
58.25170 332.000
58.27165 385.000
58.29159 327.000
58.31154 354.000
58.33149 348.000
58.35144 338.000
58.37138 390.000
58.39133 329.000
58.41128 315.000
58.43122 342.000
58.45117 344.000
58.47112 316.000
58.49106 287.000
58.51101 307.000
58.53096 327.000
58.55090 266.000
58.57085 267.000
58.59080 269.000
58.61075 304.000
58.63069 251.000
58.65064 298.000
58.67059 285.000
58.69053 276.000
58.71048 260.000
58.73043 272.000
58.75037 277.000
58.77032 265.000
58.79027 277.000
58.81022 276.000
58.83016 255.000
58.85011 236.000
58.87006 262.000
58.89000 263.000
58.90995 249.000
58.92990 262.000
58.94984 277.000
58.96979 277.000
58.98974 238.000
59.00969 265.000
59.02963 242.000
59.04958 252.000
59.06953 260.000
59.08947 298.000
59.10942 254.000
59.12937 252.000
59.14931 267.000
59.16926 273.000
59.18921 255.000
59.20915 259.000
59.22910 250.000
59.24905 266.000
59.26900 268.000
59.28894 257.000
59.30889 246.000
59.32884 261.000
59.34878 247.000
59.36873 262.000
59.38868 273.000
59.40862 275.000
59.42857 232.000
59.44852 292.000
59.46847 240.000
59.48841 250.000
59.50836 253.000
59.52831 265.000
59.54825 243.000
59.56820 245.000
59.58815 236.000
59.60809 267.000
59.62804 250.000
59.64799 286.000
59.66793 271.000
59.68788 252.000
59.70783 271.000
59.72778 285.000
59.74772 249.000
59.76767 274.000
59.78762 249.000
59.80756 275.000
59.82751 273.000
59.84746 273.000
59.86740 247.000
59.88735 254.000
59.90730 299.000
59.92725 270.000
59.94719 274.000
59.96714 267.000
59.98709 277.000
60.00703 283.000
60.02698 248.000
60.04693 219.000
60.06687 274.000
60.08682 227.000
60.10677 271.000
60.12671 277.000
60.14666 265.000
60.16661 251.000
60.18656 250.000
60.20650 251.000
60.22645 274.000
60.24640 278.000
60.26634 303.000
60.28629 276.000
60.30624 257.000
60.32618 260.000
60.34613 292.000
60.36608 278.000
60.38603 260.000
60.40597 250.000
60.42592 269.000
60.44587 233.000
60.46581 269.000
60.48576 276.000
60.50571 246.000
60.52565 246.000
60.54560 257.000
60.56555 272.000
60.58550 274.000
60.60544 257.000
60.62539 249.000
60.64534 276.000
60.66528 254.000
60.68523 254.000
60.70518 267.000
60.72512 298.000
60.74507 259.000
60.76502 272.000
60.78496 234.000
60.80491 258.000
60.82486 271.000
60.84481 276.000
60.86475 252.000
60.88470 263.000
60.90465 290.000
60.92459 260.000
60.94454 260.000
60.96449 267.000
60.98443 290.000
61.00438 257.000
61.02433 282.000
61.04428 277.000
61.06422 290.000
61.08417 284.000
61.10412 295.000
61.12406 279.000
61.14401 254.000
61.16396 269.000
61.18390 303.000
61.20385 278.000
61.22380 294.000
61.24374 288.000
61.26369 302.000
61.28364 320.000
61.30359 304.000
61.32353 317.000
61.34348 289.000
61.36343 314.000
61.38337 318.000
61.40332 339.000
61.42327 348.000
61.44321 344.000
61.46316 364.000
61.48311 370.000
61.50306 387.000
61.52300 414.000
61.54295 395.000
61.56290 417.000
61.58284 423.000
61.60279 425.000
61.62274 430.000
61.64268 400.000
61.66263 446.000
61.68258 435.000
61.70252 420.000
61.72247 421.000
61.74242 407.000
61.76237 405.000
61.78231 411.000
61.80226 385.000
61.82221 425.000
61.84215 409.000
61.86210 425.000
61.88205 449.000
61.90199 462.000
61.92194 467.000
61.94189 537.000
61.96184 564.000
61.98178 584.000
62.00173 599.000
62.02168 676.000
62.04162 634.000
62.06157 648.000
62.08152 614.000
62.10146 636.000
62.12141 615.000
62.14136 598.000
62.16131 578.000
62.18125 634.000
62.20120 560.000
62.22115 570.000
62.24109 553.000
62.26104 529.000
62.28099 541.000
62.30093 497.000
62.32088 510.000
62.34083 488.000
62.36077 484.000
62.38072 478.000
62.40067 468.000
62.42062 458.000
62.44056 505.000
62.46051 552.000
62.48046 535.000
62.50040 597.000
62.52035 574.000
62.54030 571.000
62.56024 661.000
62.58019 657.000
62.60014 706.000
62.62009 709.000
62.64003 655.000
62.65998 713.000
62.67993 684.000
62.69987 690.000
62.71982 699.000
62.73977 688.000
62.75971 633.000
62.77966 655.000
62.79961 657.000
62.81955 600.000
62.83950 560.000
62.85945 576.000
62.87940 540.000
62.89934 471.000
62.91929 501.000
62.93924 467.000
62.95918 437.000
62.97913 453.000
62.99908 469.000
63.01902 419.000
63.03897 419.000
63.05892 408.000
63.07887 374.000
63.09881 370.000
63.11876 400.000
63.13871 321.000
63.15865 349.000
63.17860 359.000
63.19855 326.000
63.21849 345.000
63.23844 319.000
63.25839 334.000
63.27833 302.000
63.29828 301.000
63.31823 291.000
63.33818 322.000
63.35812 293.000
63.37807 306.000
63.39802 288.000
63.41796 294.000
63.43791 284.000
63.45786 305.000
63.47780 262.000
63.49775 290.000
63.51770 285.000
63.53765 315.000
63.55759 304.000
63.57754 277.000
63.59749 258.000
63.61743 272.000
63.63738 274.000
63.65733 302.000
63.67727 277.000
63.69722 283.000
63.71717 260.000
63.73712 286.000
63.75706 281.000
63.77701 266.000
63.79696 281.000
63.81690 288.000
63.83685 287.000
63.85680 292.000
63.87674 301.000
63.89669 326.000
63.91664 314.000
63.93658 345.000
63.95653 329.000
63.97648 356.000
63.99643 346.000
64.01637 337.000
64.03632 332.000
64.05627 345.000
64.07621 350.000
64.09616 380.000
64.11611 388.000
64.13605 396.000
64.15600 366.000
64.17595 409.000
64.19590 428.000
64.21584 423.000
64.23579 443.000
64.25574 460.000
64.27568 460.000
64.29563 446.000
64.31558 476.000
64.33552 447.000
64.35547 450.000
64.37542 475.000
64.39536 501.000
64.41531 423.000
64.43526 449.000
64.45521 443.000
64.47515 386.000
64.49510 421.000
64.51505 357.000
64.53499 404.000
64.55494 387.000
64.57489 367.000
64.59483 324.000
64.61478 349.000
64.63473 320.000
64.65468 317.000
64.67462 311.000
64.69457 305.000
64.71452 325.000
64.73446 293.000
64.75441 317.000
64.77436 327.000
64.79430 284.000
64.81425 269.000
64.83420 289.000
64.85414 276.000
64.87409 256.000
64.89404 286.000
64.91399 261.000
64.93393 277.000
64.95388 274.000
64.97383 263.000
64.99377 286.000
65.01372 310.000
65.03367 273.000
65.05361 280.000
65.07356 253.000
65.09351 282.000
65.11346 260.000
65.13340 287.000
65.15335 268.000
65.17330 287.000
65.19324 302.000
65.21319 263.000
65.23314 273.000
65.25308 253.000
65.27303 276.000
65.29298 277.000
65.31293 285.000
65.33287 291.000
65.35282 277.000
65.37277 313.000
65.39271 308.000
65.41266 262.000
65.43261 313.000
65.45255 324.000
65.47250 327.000
65.49245 281.000
65.51239 316.000
65.53234 303.000
65.55229 319.000
65.57224 345.000
65.59218 338.000
65.61213 350.000
65.63208 335.000
65.65202 366.000
65.67197 347.000
65.69192 358.000
65.71186 342.000
65.73181 354.000
65.75176 341.000
65.77171 344.000
65.79165 330.000
65.81160 349.000
65.83155 366.000
65.85149 367.000
65.87144 326.000
65.89139 340.000
65.91133 345.000
65.93128 326.000
65.95123 354.000
65.97117 313.000
65.99112 322.000
66.01107 349.000
66.03102 319.000
66.05096 377.000
66.07091 352.000
66.09086 339.000
66.11080 329.000
66.13075 337.000
66.15070 353.000
66.17064 353.000
66.19059 346.000
66.21054 343.000
66.23049 366.000
66.25043 379.000
66.27038 384.000
66.29033 381.000
66.31027 380.000
66.33022 421.000
66.35017 455.000
66.37011 445.000
66.39006 454.000
66.41001 453.000
66.42995 392.000
66.44990 421.000
66.46985 442.000
66.48980 406.000
66.50974 393.000
66.52969 416.000
66.54964 452.000
66.56958 421.000
66.58953 472.000
66.60948 451.000
66.62942 433.000
66.64937 435.000
66.66932 438.000
66.68927 467.000
66.70921 477.000
66.72916 467.000
66.74911 415.000
66.76905 425.000
66.78900 422.000
66.80895 435.000
66.82889 423.000
66.84884 399.000
66.86879 402.000
66.88874 405.000
66.90868 392.000
66.92863 398.000
66.94858 399.000
66.96852 403.000
66.98847 354.000
67.00842 341.000
67.02836 352.000
67.04831 368.000
67.06826 369.000
67.08820 312.000
67.10815 312.000
67.12810 353.000
67.14805 308.000
67.16799 312.000
67.18794 303.000
67.20789 339.000
67.22783 281.000
67.24778 293.000
67.26773 306.000
67.28767 297.000
67.30762 318.000
67.32757 305.000
67.34752 301.000
67.36746 322.000
67.38741 328.000
67.40736 291.000
67.42730 270.000
67.44725 280.000
67.46720 281.000
67.48714 289.000
67.50709 299.000
67.52704 268.000
67.54698 287.000
67.56693 273.000
67.58688 317.000
67.60683 291.000
67.62677 307.000
67.64672 284.000
67.66667 327.000
67.68661 287.000
67.70656 327.000
67.72651 307.000
67.74645 280.000
67.76640 313.000
67.78635 328.000
67.80630 303.000
67.82624 342.000
67.84619 323.000
67.86614 338.000
67.88608 323.000
67.90603 344.000
67.92598 379.000
67.94592 372.000
67.96587 388.000
67.98582 384.000
68.00576 389.000
68.02571 425.000
68.04566 380.000
68.06561 347.000
68.08555 378.000
68.10550 382.000
68.12545 358.000
68.14539 360.000
68.16534 360.000
68.18529 333.000
68.20523 356.000
68.22518 368.000
68.24513 362.000
68.26508 345.000
68.28502 319.000
68.30497 328.000
68.32492 308.000
68.34486 276.000
68.36481 299.000
68.38476 310.000
68.40470 309.000
68.42465 274.000
68.44460 285.000
68.46455 260.000
68.48449 271.000
68.50444 285.000
68.52439 269.000
68.54433 278.000
68.56428 256.000
68.58423 309.000
68.60417 291.000
68.62412 253.000
68.64407 246.000
68.66401 275.000
68.68396 286.000
68.70391 268.000
68.72386 251.000
68.74380 231.000
68.76375 259.000
68.78370 265.000
68.80364 258.000
68.82359 265.000
68.84354 285.000
68.86348 227.000
68.88343 248.000
68.90338 236.000
68.92333 269.000
68.94327 251.000
68.96322 259.000
68.98317 247.000
69.00311 283.000
69.02306 263.000
69.04301 252.000
69.06295 266.000
69.08290 228.000
69.10285 236.000
69.12279 260.000
69.14274 266.000
69.16269 246.000
69.18264 249.000
69.20258 245.000
69.22253 256.000
69.24248 253.000
69.26242 271.000
69.28237 276.000
69.30232 262.000
69.32226 240.000
69.34221 217.000
69.36216 227.000
69.38211 259.000
69.40205 234.000
69.42200 252.000
69.44195 251.000
69.46189 261.000
69.48184 254.000
69.50179 240.000
69.52173 263.000
69.54168 228.000
69.56163 230.000
69.58157 255.000
69.60152 249.000
69.62147 265.000
69.64142 273.000
69.66136 283.000
69.68131 245.000
69.70126 275.000
69.72120 255.000
69.74115 256.000
69.76110 291.000
69.78104 269.000
69.80099 250.000
69.82094 253.000
69.84089 244.000
69.86083 241.000
69.88078 283.000
69.90073 255.000
69.92067 250.000
69.94062 285.000
69.96057 236.000
69.98051 243.000
70.00046 253.000
70.02041 231.000
70.04035 251.000
70.06030 234.000
70.08025 241.000
70.10020 232.000
70.12014 256.000
70.14009 259.000
70.16004 261.000
70.17998 251.000
70.19993 255.000
70.21988 266.000
70.23982 236.000
70.25977 216.000
70.27972 236.000
70.29967 223.000
70.31961 246.000
70.33956 259.000
70.35951 251.000
70.37945 261.000
70.39940 247.000
70.41935 247.000
70.43929 227.000
70.45924 247.000
70.47919 254.000
70.49914 253.000
70.51908 254.000
70.53903 247.000
70.55898 251.000
70.57892 253.000
70.59887 248.000
70.61882 264.000
70.63876 256.000
70.65871 231.000
70.67866 231.000
70.69860 300.000
70.71855 274.000
70.73850 278.000
70.75845 261.000
70.77839 251.000
70.79834 247.000
70.81829 262.000
70.83823 291.000
70.85818 246.000
70.87813 287.000
70.89807 242.000
70.91802 267.000
70.93797 272.000
70.95792 261.000
70.97786 274.000
70.99781 252.000
71.01776 227.000
71.03770 225.000
71.05765 268.000
71.07760 242.000
71.09754 232.000
71.11749 246.000
71.13744 285.000
71.15738 268.000
71.17733 284.000
71.19728 281.000
71.21723 257.000
71.23717 226.000
71.25712 253.000
71.27707 275.000
71.29701 243.000
71.31696 287.000
71.33691 255.000
71.35685 315.000
71.37680 279.000
71.39675 257.000
71.41670 253.000
71.43664 272.000
71.45659 277.000
71.47654 261.000
71.49648 230.000
71.51643 246.000
71.53638 280.000
71.55632 274.000
71.57627 256.000
71.59622 250.000
71.61616 268.000
71.63611 260.000
71.65606 262.000
71.67601 246.000
71.69595 267.000
71.71590 259.000
71.73585 244.000
71.75579 245.000
71.77574 257.000
71.79569 245.000
71.81563 244.000
71.83558 243.000
71.85553 252.000
71.87548 254.000
71.89542 228.000
71.91537 240.000
71.93532 273.000
71.95526 270.000
71.97521 287.000
71.99516 278.000
72.01510 238.000
72.03505 272.000
72.05500 268.000
72.07495 242.000
72.09489 268.000
72.11484 247.000
72.13479 259.000
72.15473 263.000
72.17468 269.000
72.19463 273.000
72.21457 283.000
72.23452 255.000
72.25447 270.000
72.27441 266.000
72.29436 273.000
72.31431 289.000
72.33426 279.000
72.35420 275.000
72.37415 287.000
72.39410 307.000
72.41404 282.000
72.43399 296.000
72.45394 291.000
72.47388 313.000
72.49383 315.000
72.51378 324.000
72.53373 306.000
72.55367 259.000
72.57362 315.000
72.59357 310.000
72.61351 280.000
72.63346 272.000
72.65341 304.000
72.67335 287.000
72.69330 297.000
72.71325 275.000
72.73319 304.000
72.75314 295.000
72.77309 268.000
72.79304 234.000
72.81298 294.000
72.83293 240.000
72.85288 298.000
72.87282 287.000
72.89277 264.000
72.91272 301.000
72.93266 229.000
72.95261 258.000
72.97256 248.000
72.99251 257.000
73.01245 262.000
73.03240 264.000
73.05235 252.000
73.07229 274.000
73.09224 257.000
73.11219 256.000
73.13213 249.000
73.15208 262.000
73.17203 267.000
73.19197 275.000
73.21192 254.000
73.23187 254.000
73.25182 305.000
73.27176 275.000
73.29171 279.000
73.31166 245.000
73.33160 262.000
73.35155 290.000
73.37150 279.000
73.39144 282.000
73.41139 294.000
73.43134 314.000
73.45129 319.000
73.47123 307.000
73.49118 333.000
73.51113 331.000
73.53107 316.000
73.55102 304.000
73.57097 325.000
73.59091 338.000
73.61086 289.000
73.63081 345.000
73.65076 302.000
73.67070 311.000
73.69065 332.000
73.71060 296.000
73.73054 293.000
73.75049 336.000
73.77044 328.000
73.79038 318.000
73.81033 293.000
73.83028 297.000
73.85022 326.000
73.87017 297.000
73.89012 291.000
73.91007 319.000
73.93001 297.000
73.94996 273.000
73.96991 274.000
73.98985 258.000
74.00980 251.000
74.02975 278.000
74.04969 253.000
74.06964 262.000
74.08959 288.000
74.10954 265.000
74.12948 236.000
74.14943 254.000
74.16938 282.000
74.18932 272.000
74.20927 274.000
74.22922 246.000
74.24916 247.000
74.26911 271.000
74.28906 283.000
74.30900 248.000
74.32895 291.000
74.34890 283.000
74.36885 270.000
74.38879 278.000
74.40874 267.000
74.42869 280.000
74.44863 277.000
74.46858 246.000
74.48853 282.000
74.50847 270.000
74.52842 288.000
74.54837 275.000
74.56832 251.000
74.58826 268.000
74.60821 289.000
74.62816 276.000
74.64810 295.000
74.66805 309.000
74.68800 330.000
74.70794 301.000
74.72789 291.000
74.74784 353.000
74.76778 305.000
74.78773 297.000
74.80768 324.000
74.82763 337.000
74.84757 315.000
74.86752 313.000
74.88747 362.000
74.90741 356.000
74.92736 371.000
74.94731 417.000
74.96725 390.000
74.98720 390.000
75.00715 411.000
75.02710 365.000
75.04704 421.000
75.06699 419.000
75.08694 414.000
75.10688 400.000
75.12683 442.000
75.14678 418.000
75.16672 406.000
75.18667 448.000
75.20662 411.000
75.22657 399.000
75.24651 416.000
75.26646 420.000
75.28641 411.000
75.30635 409.000
75.32630 400.000
75.34625 425.000
75.36619 350.000
75.38614 357.000
75.40609 394.000
75.42603 354.000
75.44598 367.000
75.46593 337.000
75.48588 365.000
75.50582 337.000
75.52577 343.000
75.54572 316.000
75.56566 318.000
75.58561 309.000
75.60556 301.000
75.62550 315.000
75.64545 320.000
75.66540 306.000
75.68535 291.000
75.70529 290.000
75.72524 297.000
75.74519 272.000
75.76513 299.000
75.78508 278.000
75.80503 304.000
75.82497 283.000
75.84492 271.000
75.86487 265.000
75.88481 273.000
75.90476 311.000
75.92471 294.000
75.94466 276.000
75.96460 270.000
75.98455 268.000
76.00450 291.000
76.02444 274.000
76.04439 310.000
76.06434 260.000
76.08428 252.000
76.10423 294.000
76.12418 244.000
76.14413 280.000
76.16407 255.000
76.18402 278.000
76.20397 268.000
76.22391 291.000
76.24386 266.000
76.26381 275.000
76.28375 242.000
76.30370 240.000
76.32365 242.000
76.34359 271.000
76.36354 294.000
76.38349 265.000
76.40344 260.000
76.42338 240.000
76.44333 266.000
76.46328 242.000
76.48322 285.000
76.50317 277.000
76.52312 255.000
76.54306 262.000
76.56301 249.000
76.58296 282.000
76.60291 235.000
76.62285 231.000
76.64280 261.000
76.66275 239.000
76.68269 266.000
76.70264 257.000
76.72259 274.000
76.74253 260.000
76.76248 252.000
76.78243 245.000
76.80238 226.000
76.82232 256.000
76.84227 246.000
76.86222 265.000
76.88216 260.000
76.90211 283.000
76.92206 241.000
76.94200 244.000
76.96195 247.000
76.98190 248.000
77.00184 224.000
77.02179 259.000
77.04174 250.000
77.06169 239.000
77.08163 243.000
77.10158 252.000
77.12153 233.000
77.14147 242.000
77.16142 246.000
77.18137 254.000
77.20131 240.000
77.22126 252.000
77.24121 276.000
77.26116 241.000
77.28110 289.000
77.30105 263.000
77.32100 235.000
77.34094 237.000
77.36089 276.000
77.38084 272.000
77.40078 229.000
77.42073 292.000
77.44068 252.000
77.46062 253.000
77.48057 238.000
77.50052 266.000
77.52047 289.000
77.54041 248.000
77.56036 267.000
77.58031 266.000
77.60025 317.000
77.62020 253.000
77.64015 300.000
77.66009 245.000
77.68004 272.000
77.69999 268.000
77.71994 269.000
77.73988 256.000
77.75983 269.000
77.77978 297.000
77.79972 284.000
77.81967 273.000
77.83962 280.000
77.85956 320.000
77.87951 296.000
77.89946 286.000
77.91940 293.000
77.93935 307.000
77.95930 333.000
77.97925 303.000
77.99919 328.000
78.01914 311.000
78.03909 324.000
78.05903 333.000
78.07898 338.000
78.09893 338.000
78.11887 393.000
78.13882 341.000
78.15877 368.000
78.17872 362.000
78.19866 407.000
78.21861 365.000
78.23856 342.000
78.25850 350.000
78.27845 370.000
78.29840 358.000
78.31834 380.000
78.33829 359.000
78.35824 362.000
78.37819 389.000
78.39813 356.000
78.41808 329.000
78.43803 328.000
78.45797 344.000
78.47792 352.000
78.49787 326.000
78.51781 329.000
78.53776 364.000
78.55771 310.000
78.57765 322.000
78.59760 307.000
78.61755 306.000
78.63750 273.000
78.65744 314.000
78.67739 287.000
78.69734 330.000
78.71728 323.000
78.73723 309.000
78.75718 283.000
78.77712 270.000
78.79707 301.000
78.81702 280.000
78.83697 271.000
78.85691 331.000
78.87686 314.000
78.89681 329.000
78.91675 323.000
78.93670 300.000
78.95665 339.000
78.97659 329.000
78.99654 384.000
79.01649 313.000
79.03643 323.000
79.05638 329.000
79.07633 332.000
79.09628 365.000
79.11622 373.000
79.13617 354.000
79.15612 342.000
79.17606 351.000
79.19601 344.000
79.21596 359.000
79.23590 343.000
79.25585 343.000
79.27580 332.000
79.29575 283.000
79.31569 337.000
79.33564 319.000
79.35559 308.000
79.37553 310.000
79.39548 283.000
79.41543 325.000
79.43537 290.000
79.45532 302.000
79.47527 264.000
79.49521 266.000
79.51516 279.000
79.53511 291.000
79.55506 277.000
79.57500 305.000
79.59495 284.000
79.61490 278.000
79.63484 262.000
79.65479 281.000
79.67474 265.000
79.69468 262.000
79.71463 251.000
79.73458 265.000
79.75453 280.000
79.77447 252.000
79.79442 249.000
79.81437 268.000
79.83431 283.000
79.85426 261.000
79.87421 254.000
79.89415 254.000
79.91410 263.000
79.93405 267.000
79.95399 253.000
79.97394 247.000
79.99389 247.000
80.01384 246.000
80.03378 258.000
80.05373 249.000
80.07368 277.000
80.09362 254.000
80.11357 266.000
80.13352 293.000
80.15346 245.000
80.17341 261.000
80.19336 276.000
80.21331 281.000
80.23325 279.000
80.25320 269.000
80.27315 256.000
80.29309 281.000
80.31304 262.000
80.33299 266.000
80.35293 288.000
80.37288 312.000
80.39283 246.000
80.41278 269.000
80.43272 268.000
80.45267 268.000
80.47262 265.000
80.49256 268.000
80.51251 254.000
80.53246 263.000
80.55240 282.000
80.57235 274.000
80.59230 256.000
80.61224 244.000
80.63219 269.000
80.65214 253.000
80.67209 250.000
80.69203 289.000
80.71198 283.000
80.73193 251.000
80.75187 278.000
80.77182 273.000
80.79177 267.000
80.81171 258.000
80.83166 264.000
80.85161 286.000
80.87156 242.000
80.89150 240.000
80.91145 258.000
80.93140 253.000
80.95134 281.000
80.97129 243.000
80.99124 262.000
81.01118 274.000
81.03113 278.000
81.05108 249.000
81.07102 266.000
81.09097 256.000
81.11092 246.000
81.13087 259.000
81.15081 261.000
81.17076 254.000
81.19071 258.000
81.21065 234.000
81.23060 239.000
81.25055 232.000
81.27049 263.000
81.29044 250.000
81.31039 264.000
81.33034 265.000
81.35028 262.000
81.37023 248.000
81.39018 229.000
81.41012 253.000
81.43007 255.000
81.45002 270.000
81.46996 230.000
81.48991 253.000
81.50986 223.000
81.52980 240.000
81.54975 267.000
81.56970 273.000
81.58965 251.000
81.60959 235.000
81.62954 275.000
81.64949 260.000
81.66943 228.000
81.68938 248.000
81.70933 234.000
81.72927 237.000
81.74922 266.000
81.76917 259.000
81.78912 285.000
81.80906 249.000
81.82901 278.000
81.84896 248.000
81.86890 258.000
81.88885 240.000
81.90880 247.000
81.92874 247.000
81.94869 217.000
81.96864 245.000
81.98859 247.000
82.00853 266.000
82.02848 242.000
82.04843 271.000
82.06837 274.000
82.08832 254.000
82.10827 279.000
82.12821 289.000
82.14816 260.000
82.16811 237.000
82.18805 278.000
82.20800 260.000
82.22795 245.000
82.24790 261.000
82.26784 260.000
82.28779 256.000
82.30774 281.000
82.32768 273.000
82.34763 255.000
82.36758 278.000
82.38752 259.000
82.40747 261.000
82.42742 294.000
82.44737 260.000
82.46731 280.000
82.48726 242.000
82.50721 253.000
82.52715 268.000
82.54710 295.000
82.56705 272.000
82.58699 270.000
82.60694 306.000
82.62689 299.000
82.64683 279.000
82.66678 287.000
82.68673 268.000
82.70668 305.000
82.72662 299.000
82.74657 273.000
82.76652 266.000
82.78646 268.000
82.80641 229.000
82.82636 280.000
82.84630 273.000
82.86625 253.000
82.88620 300.000
82.90615 269.000
82.92609 279.000
82.94604 327.000
82.96599 277.000
82.98593 277.000
83.00588 246.000
83.02583 256.000
83.04577 293.000
83.06572 284.000
83.08567 238.000
83.10561 260.000
83.12556 241.000
83.14551 276.000
83.16546 268.000
83.18540 257.000
83.20535 280.000
83.22530 270.000
83.24524 274.000
83.26519 279.000
83.28514 267.000
83.30508 249.000
83.32503 269.000
83.34498 291.000
83.36493 273.000
83.38487 265.000
83.40482 247.000
83.42477 234.000
83.44471 293.000
83.46466 267.000
83.48461 287.000
83.50455 251.000
83.52450 305.000
83.54445 272.000
83.56440 265.000
83.58434 278.000
83.60429 262.000
83.62424 286.000
83.64418 295.000
83.66413 253.000
83.68408 249.000
83.70402 291.000
83.72397 252.000
83.74392 269.000
83.76386 282.000
83.78381 285.000
83.80376 255.000
83.82371 269.000
83.84365 261.000
83.86360 296.000
83.88355 247.000
83.90349 262.000
83.92344 237.000
83.94339 256.000
83.96333 279.000
83.98328 273.000
84.00323 273.000
84.02318 274.000
84.04312 243.000
84.06307 280.000
84.08302 268.000
84.10296 244.000
84.12291 244.000
84.14286 286.000
84.16280 265.000
84.18275 276.000
84.20270 274.000
84.22264 283.000
84.24259 272.000
84.26254 306.000
84.28249 268.000
84.30243 275.000
84.32238 279.000
84.34233 256.000
84.36227 294.000
84.38222 287.000
84.40217 287.000
84.42211 282.000
84.44206 278.000
84.46201 272.000
84.48196 293.000
84.50190 276.000
84.52185 314.000
84.54180 318.000
84.56174 348.000
84.58169 316.000
84.60164 330.000
84.62158 331.000
84.64153 343.000
84.66148 313.000
84.68142 331.000
84.70137 343.000
84.72132 301.000
84.74127 304.000
84.76121 305.000
84.78116 262.000
84.80111 304.000
84.82105 304.000
84.84100 310.000
84.86095 313.000
84.88089 302.000
84.90084 290.000
84.92079 320.000
84.94074 277.000
84.96068 292.000
84.98063 296.000
85.00058 279.000
85.02052 267.000
85.04047 306.000
85.06042 275.000
85.08036 285.000
85.10031 290.000
85.12026 263.000
85.14021 252.000
85.16015 254.000
85.18010 264.000
85.20005 281.000
85.21999 241.000
85.23994 250.000
85.25989 251.000
85.27983 269.000
85.29978 246.000
85.31973 244.000
85.33967 265.000
85.35962 251.000
85.37957 235.000
85.39952 264.000
85.41946 252.000
85.43941 229.000
85.45936 227.000
85.47930 231.000
85.49925 245.000
85.51920 277.000
85.53914 246.000
85.55909 262.000
85.57904 249.000
85.59899 261.000
85.61893 235.000
85.63888 243.000
85.65883 268.000
85.67877 244.000
85.69872 236.000
85.71867 255.000
85.73861 214.000
85.75856 245.000
85.77851 232.000
85.79845 242.000
85.81840 220.000
85.83835 255.000
85.85830 241.000
85.87824 229.000
85.89819 243.000
85.91814 259.000
85.93808 244.000
85.95803 236.000
85.97798 240.000
85.99792 256.000
86.01787 243.000
86.03782 265.000
86.05777 242.000
86.07771 272.000
86.09766 221.000
86.11761 250.000
86.13755 234.000
86.15750 255.000
86.17745 276.000
86.19739 258.000
86.21734 224.000
86.23729 242.000
86.25723 271.000
86.27718 255.000
86.29713 249.000
86.31708 240.000
86.33702 225.000
86.35697 243.000
86.37692 259.000
86.39686 254.000
86.41681 243.000
86.43676 241.000
86.45670 256.000
86.47665 261.000
86.49660 264.000
86.51655 225.000
86.53649 273.000
86.55644 243.000
86.57639 247.000
86.59633 281.000
86.61628 243.000
86.63623 295.000
86.65617 266.000
86.67612 241.000
86.69607 286.000
86.71602 276.000
86.73596 253.000
86.75591 261.000
86.77586 246.000
86.79580 272.000
86.81575 252.000
86.83570 266.000
86.85564 254.000
86.87559 257.000
86.89554 294.000
86.91548 256.000
86.93543 270.000
86.95538 278.000
86.97533 268.000
86.99527 260.000
87.01522 267.000
87.03517 254.000
87.05511 267.000
87.07506 267.000
87.09501 276.000
87.11495 246.000
87.13490 228.000
87.15485 241.000
87.17480 280.000
87.19474 268.000
87.21469 306.000
87.23464 266.000
87.25458 276.000
87.27453 253.000
87.29448 254.000
87.31442 284.000
87.33437 248.000
87.35432 265.000
87.37426 262.000
87.39421 282.000
87.41416 260.000
87.43411 252.000
87.45405 269.000
87.47400 262.000
87.49395 295.000
87.51389 268.000
87.53384 264.000
87.55379 263.000
87.57373 265.000
87.59368 310.000
87.61363 272.000
87.63358 264.000
87.65352 256.000
87.67347 258.000
87.69342 279.000
87.71336 241.000
87.73331 234.000
87.75326 277.000
87.77320 259.000
87.79315 257.000
87.81310 252.000
87.83304 261.000
87.85299 262.000
87.87294 234.000
87.89289 277.000
87.91283 280.000
87.93278 261.000
87.95273 266.000
87.97267 283.000
87.99262 251.000
88.01257 302.000
88.03251 239.000
88.05246 293.000
88.07241 266.000
88.09236 262.000
88.11230 237.000
88.13225 228.000
88.15220 245.000
88.17214 251.000
88.19209 242.000
88.21204 243.000
88.23198 238.000
88.25193 274.000
88.27188 270.000
88.29183 227.000
88.31177 227.000
88.33172 263.000
88.35167 237.000
88.37161 247.000
88.39156 266.000
88.41151 267.000
88.43145 260.000
88.45140 234.000
88.47135 249.000
88.49129 247.000
88.51124 251.000
88.53119 273.000
88.55114 249.000
88.57108 235.000
88.59103 248.000
88.61098 251.000
88.63092 244.000
88.65087 259.000
88.67082 256.000
88.69076 249.000
88.71071 259.000
88.73066 263.000
88.75061 218.000
88.77055 266.000
88.79050 274.000
88.81045 248.000
88.83039 255.000
88.85034 265.000
88.87029 251.000
88.89023 245.000
88.91018 264.000
88.93013 256.000
88.95007 265.000
88.97002 253.000
88.98997 263.000
89.00992 234.000
89.02986 212.000
89.04981 273.000
89.06976 232.000
89.08970 254.000
89.10965 236.000
89.12960 257.000
89.14954 241.000
89.16949 245.000
89.18944 250.000
89.20939 280.000
89.22933 250.000
89.24928 252.000
89.26923 250.000
89.28917 237.000
89.30912 288.000
89.32907 250.000
89.34901 279.000
89.36896 232.000
89.38891 242.000
89.40885 286.000
89.42880 282.000
89.44875 262.000
89.46870 285.000
89.48864 279.000
89.50859 285.000
89.52854 280.000
89.54848 235.000
89.56843 272.000
89.58838 301.000
89.60832 275.000
89.62827 282.000
89.64822 267.000
89.66817 269.000
89.68811 295.000
89.70806 292.000
89.72801 245.000
89.74795 272.000
89.76790 280.000
89.78785 291.000
89.80779 285.000
89.82774 257.000
89.84769 276.000
89.86764 293.000
89.88758 274.000
89.90753 242.000
89.92748 253.000
89.94742 288.000
89.96737 235.000
89.98732 268.000
90.00726 290.000
