10.00000 143.000
10.01995 129.000
10.03989 138.000
10.05984 149.000
10.07979 132.000
10.09973 135.000
10.11968 125.000
10.13963 150.000
10.15958 139.000
10.17952 125.000
10.19947 143.000
10.21942 136.000
10.23936 134.000
10.25931 143.000
10.27926 136.000
10.29920 137.000
10.31915 153.000
10.33910 141.000
10.35905 139.000
10.37899 135.000
10.39894 153.000
10.41889 151.000
10.43883 151.000
10.45878 151.000
10.47873 135.000
10.49867 141.000
10.51862 119.000
10.53857 148.000
10.55851 150.000
10.57846 160.000
10.59841 152.000
10.61836 144.000
10.63830 131.000
10.65825 149.000
10.67820 129.000
10.69814 139.000
10.71809 140.000
10.73804 142.000
10.75798 127.000
10.77793 153.000
10.79788 129.000
10.81783 145.000
10.83777 133.000
10.85772 118.000
10.87767 159.000
10.89761 178.000
10.91756 146.000
10.93751 120.000
10.95745 133.000
10.97740 121.000
10.99735 119.000
11.01730 147.000
11.03724 136.000
11.05719 132.000
11.07714 153.000
11.09708 113.000
11.11703 142.000
11.13698 144.000
11.15692 130.000
11.17687 140.000
11.19682 145.000
11.21676 136.000
11.23671 138.000
11.25666 133.000
11.27661 140.000
11.29655 122.000
11.31650 127.000
11.33645 143.000
11.35639 150.000
11.37634 129.000
11.39629 141.000
11.41623 153.000
11.43618 154.000
11.45613 128.000
11.47608 140.000
11.49602 118.000
11.51597 137.000
11.53592 141.000
11.55586 150.000
11.57581 145.000
11.59576 152.000
11.61570 133.000
11.63565 166.000
11.65560 150.000
11.67554 131.000
11.69549 138.000
11.71544 131.000
11.73539 166.000
11.75533 142.000
11.77528 132.000
11.79523 129.000
11.81517 158.000
11.83512 147.000
11.85507 139.000
11.87501 133.000
11.89496 122.000
11.91491 135.000
11.93486 131.000
11.95480 129.000
11.97475 152.000
11.99470 129.000
12.01464 135.000
12.03459 133.000
12.05454 147.000
12.07448 130.000
12.09443 142.000
12.11438 162.000
12.13432 155.000
12.15427 167.000
12.17422 159.000
12.19417 138.000
12.21411 142.000
12.23406 131.000
12.25401 107.000
12.27395 131.000
12.29390 137.000
12.31385 155.000
12.33379 147.000
12.35374 140.000
12.37369 141.000
12.39364 161.000
12.41358 158.000
12.43353 139.000
12.45348 119.000
12.47342 126.000
12.49337 154.000
12.51332 136.000
12.53326 126.000
12.55321 131.000
12.57316 149.000
12.59311 112.000
12.61305 116.000
12.63300 136.000
12.65295 142.000
12.67289 145.000
12.69284 155.000
12.71279 137.000
12.73273 142.000
12.75268 145.000
12.77263 131.000
12.79257 143.000
12.81252 135.000
12.83247 123.000
12.85242 127.000
12.87236 135.000
12.89231 126.000
12.91226 134.000
12.93220 135.000
12.95215 114.000
12.97210 134.000
12.99204 134.000
13.01199 132.000
13.03194 146.000
13.05189 156.000
13.07183 135.000
13.09178 134.000
13.11173 126.000
13.13167 133.000
13.15162 141.000
13.17157 160.000
13.19151 130.000
13.21146 122.000
13.23141 155.000
13.25135 155.000
13.27130 128.000
13.29125 144.000
13.31120 134.000
13.33114 122.000
13.35109 152.000
13.37104 142.000
13.39098 131.000
13.41093 160.000
13.43088 152.000
13.45082 159.000
13.47077 148.000
13.49072 138.000
13.51067 144.000
13.53061 143.000
13.55056 155.000
13.57051 166.000
13.59045 149.000
13.61040 134.000
13.63035 135.000
13.65029 128.000
13.67024 152.000
13.69019 127.000
13.71013 141.000
13.73008 118.000
13.75003 150.000
13.76998 150.000
13.78992 154.000
13.80987 127.000
13.82982 119.000
13.84976 143.000
13.86971 128.000
13.88966 146.000
13.90960 158.000
13.92955 135.000
13.94950 132.000
13.96945 144.000
13.98939 155.000
14.00934 144.000
14.02929 121.000
14.04923 129.000
14.06918 140.000
14.08913 126.000
14.10907 123.000
14.12902 159.000
14.14897 141.000
14.16892 117.000
14.18886 144.000
14.20881 129.000
14.22876 153.000
14.24870 137.000
14.26865 134.000
14.28860 142.000
14.30854 153.000
14.32849 144.000
14.34844 152.000
14.36838 163.000
14.38833 135.000
14.40828 122.000
14.42823 140.000
14.44817 128.000
14.46812 120.000
14.48807 140.000
14.50801 160.000
14.52796 134.000
14.54791 154.000
14.56785 148.000
14.58780 126.000
14.60775 139.000
14.62770 153.000
14.64764 118.000
14.66759 129.000
14.68754 138.000
14.70748 125.000
14.72743 126.000
14.74738 125.000
14.76732 149.000
14.78727 153.000
14.80722 157.000
14.82716 147.000
14.84711 136.000
14.86706 141.000
14.88701 123.000
14.90695 163.000
14.92690 143.000
14.94685 152.000
14.96679 131.000
14.98674 153.000
15.00669 162.000
15.02663 140.000
15.04658 141.000
15.06653 151.000
15.08648 141.000
15.10642 135.000
15.12637 141.000
15.14632 151.000
15.16626 158.000
15.18621 129.000
15.20616 142.000
15.22610 162.000
15.24605 170.000
15.26600 151.000
15.28594 159.000
15.30589 166.000
15.32584 175.000
15.34579 141.000
15.36573 149.000
15.38568 142.000
15.40563 171.000
15.42557 159.000
15.44552 166.000
15.46547 151.000
15.48541 167.000
15.50536 179.000
15.52531 193.000
15.54526 209.000
15.56520 178.000
15.58515 190.000
15.60510 212.000
15.62504 216.000
15.64499 220.000
15.66494 255.000
15.68488 328.000
15.70483 390.000
15.72478 549.000
15.74472 738.000
15.76467 1044.000
15.78462 1366.000
15.80457 1817.000
15.82451 2337.000
15.84446 2462.000
15.86441 2408.000
15.88435 1798.000
15.90430 1227.000
15.92425 762.000
15.94419 418.000
15.96414 327.000
15.98409 258.000
16.00404 229.000
16.02398 204.000
16.04393 231.000
16.06388 197.000
16.08382 212.000
16.10377 196.000
16.12372 207.000
16.14366 206.000
16.16361 190.000
16.18356 185.000
16.20351 183.000
16.22345 168.000
16.24340 162.000
16.26335 172.000
16.28329 153.000
16.30324 166.000
16.32319 143.000
16.34313 182.000
16.36308 155.000
16.38303 151.000
16.40297 158.000
16.42292 160.000
16.44287 161.000
16.46282 163.000
16.48276 160.000
16.50271 180.000
16.52266 141.000
16.54260 167.000
16.56255 151.000
16.58250 169.000
16.60244 159.000
16.62239 149.000
16.64234 164.000
16.66229 140.000
16.68223 142.000
16.70218 141.000
16.72213 140.000
16.74207 154.000
16.76202 145.000
16.78197 156.000
16.80191 172.000
16.82186 166.000
16.84181 166.000
16.86175 182.000
16.88170 154.000
16.90165 158.000
16.92160 175.000
16.94154 157.000
16.96149 168.000
16.98144 163.000
17.00138 145.000
17.02133 141.000
17.04128 159.000
17.06122 135.000
17.08117 147.000
17.10112 143.000
17.12107 143.000
17.14101 160.000
17.16096 142.000
17.18091 152.000
17.20085 161.000
17.22080 142.000
17.24075 153.000
17.26069 137.000
17.28064 160.000
17.30059 146.000
17.32053 142.000
17.34048 157.000
17.36043 151.000
17.38038 157.000
17.40032 131.000
17.42027 135.000
17.44022 143.000
17.46016 154.000
17.48011 150.000
17.50006 153.000
17.52000 163.000
17.53995 138.000
17.55990 147.000
17.57985 149.000
17.59979 142.000
17.61974 146.000
17.63969 144.000
17.65963 143.000
17.67958 144.000
17.69953 144.000
17.71947 139.000
17.73942 154.000
17.75937 146.000
17.77932 160.000
17.79926 130.000
17.81921 147.000
17.83916 162.000
17.85910 141.000
17.87905 132.000
17.89900 127.000
17.91894 160.000
17.93889 144.000
17.95884 153.000
17.97878 145.000
17.99873 152.000
18.01868 156.000
18.03863 152.000
18.05857 170.000
18.07852 130.000
18.09847 177.000
18.11841 145.000
18.13836 160.000
18.15831 154.000
18.17825 144.000
18.19820 149.000
18.21815 140.000
18.23810 156.000
18.25804 177.000
18.27799 167.000
18.29794 190.000
18.31788 219.000
18.33783 269.000
18.35778 335.000
18.37772 420.000
18.39767 441.000
18.41762 444.000
18.43756 362.000
18.45751 320.000
18.47746 212.000
18.49741 180.000
18.51735 174.000
18.53730 191.000
18.55725 152.000
18.57719 162.000
18.59714 152.000
18.61709 148.000
18.63703 166.000
18.65698 152.000
18.67693 177.000
18.69688 150.000
18.71682 155.000
18.73677 162.000
18.75672 122.000
18.77666 151.000
18.79661 146.000
18.81656 157.000
18.83650 163.000
18.85645 163.000
18.87640 154.000
18.89634 166.000
18.91629 142.000
18.93624 141.000
18.95619 150.000
18.97613 131.000
18.99608 142.000
19.01603 152.000
19.03597 150.000
19.05592 131.000
19.07587 147.000
19.09581 145.000
19.11576 141.000
19.13571 141.000
19.15566 158.000
19.17560 171.000
19.19555 167.000
19.21550 143.000
19.23544 130.000
19.25539 131.000
19.27534 155.000
19.29528 144.000
19.31523 146.000
19.33518 135.000
19.35513 141.000
19.37507 158.000
19.39502 149.000
19.41497 135.000
19.43491 149.000
19.45486 149.000
19.47481 157.000
19.49475 155.000
19.51470 115.000
19.53465 164.000
19.55459 132.000
19.57454 151.000
19.59449 158.000
19.61444 152.000
19.63438 127.000
19.65433 157.000
19.67428 134.000
19.69422 148.000
19.71417 136.000
19.73412 135.000
19.75406 138.000
19.77401 161.000
19.79396 138.000
19.81391 158.000
19.83385 164.000
19.85380 160.000
19.87375 146.000
19.89369 144.000
19.91364 155.000
19.93359 139.000
19.95353 150.000
19.97348 135.000
19.99343 179.000
20.01337 147.000
20.03332 155.000
20.05327 157.000
20.07322 168.000
20.09316 147.000
20.11311 153.000
20.13306 154.000
20.15300 160.000
20.17295 146.000
20.19290 137.000
20.21284 161.000
20.23279 145.000
20.25274 141.000
20.27269 141.000
20.29263 145.000
20.31258 150.000
20.33253 151.000
20.35247 137.000
20.37242 159.000
20.39237 156.000
20.41231 175.000
20.43226 145.000
20.45221 145.000
20.47215 152.000
20.49210 152.000
20.51205 131.000
20.53200 163.000
20.55194 143.000
20.57189 170.000
20.59184 169.000
20.61178 136.000
20.63173 164.000
20.65168 160.000
20.67162 155.000
20.69157 146.000
20.71152 188.000
20.73147 157.000
20.75141 165.000
20.77136 212.000
20.79131 202.000
20.81125 229.000
20.83120 186.000
20.85115 219.000
20.87109 241.000
20.89104 234.000
20.91099 233.000
20.93094 244.000
20.95088 231.000
20.97083 244.000
20.99078 206.000
21.01072 224.000
21.03067 228.000
21.05062 242.000
21.07056 234.000
21.09051 252.000
21.11046 218.000
21.13040 210.000
21.15035 201.000
21.17030 154.000
21.19025 175.000
21.21019 167.000
21.23014 194.000
21.25009 141.000
21.27003 154.000
21.28998 140.000
21.30993 162.000
21.32987 149.000
21.34982 136.000
21.36977 151.000
21.38972 147.000
21.40966 141.000
21.42961 155.000
21.44956 159.000
21.46950 160.000
21.48945 140.000
21.50940 154.000
21.52934 151.000
21.54929 159.000
21.56924 138.000
21.58918 130.000
21.60913 164.000
21.62908 177.000
21.64903 140.000
21.66897 160.000
21.68892 140.000
21.70887 172.000
21.72881 170.000
21.74876 169.000
21.76871 174.000
21.78865 153.000
21.80860 179.000
21.82855 168.000
21.84850 163.000
21.86844 127.000
21.88839 140.000
21.90834 165.000
21.92828 165.000
21.94823 164.000
21.96818 130.000
21.98812 167.000
22.00807 151.000
22.02802 164.000
22.04796 167.000
22.06791 146.000
22.08786 145.000
22.10781 146.000
22.12775 160.000
22.14770 162.000
22.16765 139.000
22.18759 129.000
22.20754 163.000
22.22749 164.000
22.24743 164.000
22.26738 152.000
22.28733 155.000
22.30728 130.000
22.32722 160.000
22.34717 173.000
22.36712 172.000
22.38706 153.000
22.40701 184.000
22.42696 162.000
22.44690 137.000
22.46685 152.000
22.48680 138.000
22.50675 143.000
22.52669 141.000
22.54664 152.000
22.56659 157.000
22.58653 142.000
22.60648 125.000
22.62643 159.000
22.64637 163.000
22.66632 160.000
22.68627 144.000
22.70621 145.000
22.72616 133.000
22.74611 145.000
22.76606 155.000
22.78600 155.000
22.80595 144.000
22.82590 159.000
22.84584 178.000
22.86579 148.000
22.88574 158.000
22.90568 160.000
22.92563 140.000
22.94558 152.000
22.96553 160.000
22.98547 150.000
23.00542 154.000
23.02537 163.000
23.04531 148.000
23.06526 166.000
23.08521 148.000
23.10515 156.000
23.12510 153.000
23.14505 157.000
23.16499 150.000
23.18494 147.000
23.20489 174.000
23.22484 138.000
23.24478 145.000
23.26473 152.000
23.28468 171.000
23.30462 158.000
23.32457 160.000
23.34452 148.000
23.36446 177.000
23.38441 150.000
23.40436 138.000
23.42431 160.000
23.44425 178.000
23.46420 166.000
23.48415 174.000
23.50409 146.000
23.52404 168.000
23.54399 151.000
23.56393 148.000
23.58388 150.000
23.60383 138.000
23.62377 161.000
23.64372 157.000
23.66367 159.000
23.68362 160.000
23.70356 175.000
23.72351 163.000
23.74346 167.000
23.76340 154.000
23.78335 151.000
23.80330 158.000
23.82324 165.000
23.84319 152.000
23.86314 159.000
23.88309 145.000
23.90303 181.000
23.92298 159.000
23.94293 151.000
23.96287 159.000
23.98282 149.000
24.00277 163.000
24.02271 146.000
24.04266 137.000
24.06261 160.000
24.08256 143.000
24.10250 165.000
24.12245 168.000
24.14240 129.000
24.16234 145.000
24.18229 156.000
24.20224 161.000
24.22218 153.000
24.24213 147.000
24.26208 162.000
24.28202 171.000
24.30197 148.000
24.32192 155.000
24.34187 157.000
24.36181 184.000
24.38176 175.000
24.40171 177.000
24.42165 158.000
24.44160 152.000
24.46155 153.000
24.48149 174.000
24.50144 153.000
24.52139 180.000
24.54134 145.000
24.56128 153.000
24.58123 175.000
24.60118 147.000
24.62112 171.000
24.64107 166.000
24.66102 141.000
24.68096 150.000
24.70091 186.000
24.72086 189.000
24.74080 151.000
24.76075 162.000
24.78070 174.000
24.80065 146.000
24.82059 160.000
24.84054 180.000
24.86049 144.000
24.88043 157.000
24.90038 176.000
24.92033 168.000
24.94027 161.000
24.96022 177.000
24.98017 176.000
25.00012 187.000
25.02006 186.000
25.04001 166.000
25.05996 166.000
25.07990 155.000
25.09985 174.000
25.11980 161.000
25.13974 149.000
25.15969 155.000
25.17964 150.000
25.19958 140.000
25.21953 166.000
25.23948 178.000
25.25943 160.000
25.27937 164.000
25.29932 163.000
25.31927 141.000
25.33921 140.000
25.35916 161.000
25.37911 196.000
25.39905 182.000
25.41900 163.000
25.43895 184.000
25.45890 169.000
25.47884 174.000
25.49879 149.000
25.51874 153.000
25.53868 182.000
25.55863 177.000
25.57858 150.000
25.59852 160.000
25.61847 174.000
25.63842 166.000
25.65837 170.000
25.67831 163.000
25.69826 149.000
25.71821 135.000
25.73815 150.000
25.75810 146.000
25.77805 161.000
25.79799 151.000
25.81794 194.000
25.83789 147.000
25.85783 162.000
25.87778 152.000
25.89773 168.000
25.91768 172.000
25.93762 148.000
25.95757 154.000
25.97752 172.000
25.99746 163.000
26.01741 166.000
26.03736 151.000
26.05730 176.000
26.07725 179.000
26.09720 179.000
26.11715 146.000
26.13709 170.000
26.15704 179.000
26.17699 151.000
26.19693 167.000
26.21688 172.000
26.23683 185.000
26.25677 168.000
26.27672 188.000
26.29667 191.000
26.31661 183.000
26.33656 172.000
26.35651 148.000
26.37646 168.000
26.39640 156.000
26.41635 156.000
26.43630 168.000
26.45624 159.000
26.47619 162.000
26.49614 173.000
26.51608 155.000
26.53603 150.000
26.55598 162.000
26.57593 164.000
26.59587 172.000
26.61582 161.000
26.63577 169.000
26.65571 160.000
26.67566 171.000
26.69561 164.000
26.71555 167.000
26.73550 169.000
26.75545 184.000
26.77539 182.000
26.79534 175.000
26.81529 168.000
26.83524 168.000
26.85518 185.000
26.87513 180.000
26.89508 179.000
26.91502 163.000
26.93497 177.000
26.95492 171.000
26.97486 163.000
26.99481 172.000
27.01476 186.000
27.03471 175.000
27.05465 167.000
27.07460 160.000
27.09455 156.000
27.11449 183.000
27.13444 164.000
27.15439 181.000
27.17433 167.000
27.19428 167.000
27.21423 197.000
27.23417 183.000
27.25412 161.000
27.27407 175.000
27.29402 183.000
27.31396 166.000
27.33391 167.000
27.35386 182.000
27.37380 188.000
27.39375 188.000
27.41370 187.000
27.43364 169.000
27.45359 170.000
27.47354 184.000
27.49349 154.000
27.51343 175.000
27.53338 165.000
27.55333 155.000
27.57327 186.000
27.59322 156.000
27.61317 171.000
27.63311 156.000
27.65306 182.000
27.67301 185.000
27.69296 168.000
27.71290 158.000
27.73285 165.000
27.75280 194.000
27.77274 170.000
27.79269 157.000
27.81264 173.000
27.83258 170.000
27.85253 161.000
27.87248 173.000
27.89242 190.000
27.91237 165.000
27.93232 201.000
27.95227 175.000
27.97221 182.000
27.99216 184.000
28.01211 177.000
28.03205 175.000
28.05200 177.000
28.07195 187.000
28.09189 162.000
28.11184 162.000
28.13179 170.000
28.15174 170.000
28.17168 200.000
28.19163 186.000
28.21158 194.000
28.23152 180.000
28.25147 185.000
28.27142 196.000
28.29136 164.000
28.31131 168.000
28.33126 178.000
28.35120 199.000
28.37115 169.000
28.39110 171.000
28.41105 164.000
28.43099 171.000
28.45094 168.000
28.47089 161.000
28.49083 179.000
28.51078 199.000
28.53073 185.000
28.55067 184.000
28.57062 169.000
28.59057 188.000
28.61052 177.000
28.63046 167.000
28.65041 172.000
28.67036 181.000
28.69030 174.000
28.71025 169.000
28.73020 156.000
28.75014 185.000
28.77009 184.000
28.79004 175.000
28.80998 181.000
28.82993 163.000
28.84988 182.000
28.86983 194.000
28.88977 186.000
28.90972 199.000
28.92967 180.000
28.94961 189.000
28.96956 206.000
28.98951 194.000
29.00945 177.000
29.02940 166.000
29.04935 194.000
29.06930 164.000
29.08924 196.000
29.10919 203.000
29.12914 196.000
29.14908 208.000
29.16903 160.000
29.18898 182.000
29.20892 189.000
29.22887 168.000
29.24882 200.000
29.26877 202.000
29.28871 231.000
29.30866 271.000
29.32861 224.000
29.34855 224.000
29.36850 225.000
29.38845 242.000
29.40839 227.000
29.42834 221.000
29.44829 209.000
29.46823 188.000
29.48818 208.000
29.50813 207.000
29.52808 204.000
29.54802 210.000
29.56797 214.000
29.58792 216.000
29.60786 192.000
29.62781 188.000
29.64776 203.000
29.66770 156.000
29.68765 224.000
29.70760 199.000
29.72755 163.000
29.74749 191.000
29.76744 169.000
29.78739 173.000
29.80733 195.000
29.82728 182.000
29.84723 169.000
29.86717 182.000
29.88712 182.000
29.90707 171.000
29.92701 184.000
29.94696 187.000
29.96691 208.000
29.98686 213.000
30.00680 204.000
30.02675 182.000
30.04670 165.000
30.06664 224.000
30.08659 220.000
30.10654 221.000
30.12648 254.000
30.14643 259.000
30.16638 337.000
30.18633 370.000
30.20627 469.000
30.22622 604.000
30.24617 690.000
30.26611 787.000
30.28606 819.000
30.30601 777.000
30.32595 647.000
30.34590 603.000
30.36585 468.000
30.38579 421.000
30.40574 316.000
30.42569 288.000
30.44564 245.000
30.46558 215.000
30.48553 222.000
30.50548 202.000
30.52542 208.000
30.54537 174.000
30.56532 221.000
30.58526 198.000
30.60521 221.000
30.62516 191.000
30.64511 176.000
30.66505 178.000
30.68500 179.000
30.70495 185.000
30.72489 168.000
30.74484 186.000
30.76479 189.000
30.78473 168.000
30.80468 179.000
30.82463 194.000
30.84458 186.000
30.86452 202.000
30.88447 184.000
30.90442 195.000
30.92436 208.000
30.94431 168.000
30.96426 173.000
30.98420 196.000
31.00415 203.000
31.02410 209.000
31.04404 214.000
31.06399 159.000
31.08394 206.000
31.10389 196.000
31.12383 198.000
31.14378 196.000
31.16373 190.000
31.18367 187.000
31.20362 184.000
31.22357 200.000
31.24351 160.000
31.26346 182.000
31.28341 202.000
31.30336 178.000
31.32330 159.000
31.34325 161.000
31.36320 190.000
31.38314 192.000
31.40309 176.000
31.42304 186.000
31.44298 190.000
31.46293 184.000
31.48288 178.000
31.50282 212.000
31.52277 194.000
31.54272 191.000
31.56267 190.000
31.58261 167.000
31.60256 164.000
31.62251 178.000
31.64245 163.000
31.66240 183.000
31.68235 172.000
31.70229 193.000
31.72224 165.000
31.74219 190.000
31.76214 182.000
31.78208 185.000
31.80203 198.000
31.82198 187.000
31.84192 224.000
31.86187 205.000
31.88182 219.000
31.90176 217.000
31.92171 237.000
31.94166 274.000
31.96160 299.000
31.98155 303.000
32.00150 323.000
32.02145 368.000
32.04139 326.000
32.06134 345.000
32.08129 353.000
32.10123 307.000
32.12118 299.000
32.14113 263.000
32.16107 256.000
32.18102 216.000
32.20097 221.000
32.22092 185.000
32.24086 204.000
32.26081 181.000
32.28076 187.000
32.30070 200.000
32.32065 186.000
32.34060 176.000
32.36054 181.000
32.38049 165.000
32.40044 197.000
32.42039 190.000
32.44033 173.000
32.46028 178.000
32.48023 186.000
32.50017 209.000
32.52012 176.000
32.54007 188.000
32.56001 163.000
32.57996 179.000
32.59991 175.000
32.61985 191.000
32.63980 198.000
32.65975 177.000
32.67970 182.000
32.69964 176.000
32.71959 161.000
32.73954 197.000
32.75948 184.000
32.77943 185.000
32.79938 180.000
32.81932 193.000
32.83927 176.000
32.85922 158.000
32.87917 169.000
32.89911 173.000
32.91906 169.000
32.93901 196.000
32.95895 184.000
32.97890 194.000
32.99885 162.000
33.01879 186.000
33.03874 185.000
33.05869 197.000
33.07863 166.000
33.09858 164.000
33.11853 204.000
33.13848 196.000
33.15842 186.000
33.17837 182.000
33.19832 172.000
33.21826 196.000
33.23821 160.000
33.25816 190.000
33.27810 197.000
33.29805 151.000
33.31800 170.000
33.33795 152.000
33.35789 170.000
33.37784 172.000
33.39779 158.000
33.41773 190.000
33.43768 189.000
33.45763 169.000
33.47757 148.000
33.49752 227.000
33.51747 166.000
33.53741 185.000
33.55736 172.000
33.57731 188.000
33.59726 141.000
33.61720 180.000
33.63715 177.000
33.65710 176.000
33.67704 173.000
33.69699 167.000
33.71694 192.000
33.73688 188.000
33.75683 187.000
33.77678 191.000
33.79673 179.000
33.81667 155.000
33.83662 174.000
33.85657 178.000
33.87651 170.000
33.89646 162.000
33.91641 184.000
33.93635 187.000
33.95630 167.000
33.97625 174.000
33.99620 181.000
34.01614 198.000
34.03609 169.000
34.05604 198.000
34.07598 194.000
34.09593 168.000
34.11588 177.000
34.13582 201.000
34.15577 213.000
34.17572 191.000
34.19566 188.000
34.21561 195.000
34.23556 187.000
34.25551 202.000
34.27545 209.000
34.29540 240.000
34.31535 205.000
34.33529 234.000
34.35524 204.000
34.37519 219.000
34.39513 234.000
34.41508 205.000
34.43503 209.000
34.45498 229.000
34.47492 210.000
34.49487 228.000
34.51482 225.000
34.53476 238.000
34.55471 226.000
34.57466 261.000
34.59460 235.000
34.61455 231.000
34.63450 243.000
34.65444 239.000
34.67439 254.000
34.69434 268.000
34.71429 254.000
34.73423 258.000
34.75418 262.000
34.77413 264.000
34.79407 218.000
34.81402 270.000
34.83397 249.000
34.85391 258.000
34.87386 255.000
34.89381 228.000
34.91376 249.000
34.93370 192.000
34.95365 218.000
34.97360 234.000
34.99354 223.000
35.01349 206.000
35.03344 216.000
35.05338 236.000
35.07333 195.000
35.09328 209.000
35.11322 192.000
35.13317 206.000
35.15312 199.000
35.17307 201.000
35.19301 199.000
35.21296 221.000
35.23291 226.000
35.25285 213.000
35.27280 191.000
35.29275 228.000
35.31269 223.000
35.33264 215.000
35.35259 213.000
35.37254 231.000
35.39248 253.000
35.41243 289.000
35.43238 279.000
35.45232 342.000
35.47227 350.000
35.49222 382.000
35.51216 469.000
35.53211 594.000
35.55206 747.000
35.57201 1026.000
35.59195 1259.000
35.61190 1555.000
35.63185 1866.000
35.65179 2053.000
35.67174 2170.000
35.69169 2051.000
35.71163 1864.000
35.73158 1669.000
35.75153 1437.000
35.77147 1264.000
35.79142 1047.000
35.81137 866.000
35.83132 721.000
35.85126 609.000
35.87121 518.000
35.89116 432.000
35.91110 370.000
35.93105 349.000
35.95100 313.000
35.97094 305.000
35.99089 267.000
36.01084 249.000
36.03079 211.000
36.05073 230.000
36.07068 206.000
36.09063 207.000
36.11057 227.000
36.13052 211.000
36.15047 206.000
36.17041 228.000
36.19036 208.000
36.21031 219.000
36.23025 215.000
36.25020 228.000
36.27015 218.000
36.29010 218.000
36.31004 200.000
36.32999 197.000
36.34994 212.000
36.36988 245.000
36.38983 217.000
36.40978 201.000
36.42972 231.000
36.44967 207.000
36.46962 196.000
36.48957 214.000
36.50951 221.000
36.52946 223.000
36.54941 212.000
36.56935 246.000
36.58930 209.000
36.60925 188.000
36.62919 217.000
36.64914 220.000
36.66909 221.000
36.68903 224.000
36.70898 203.000
36.72893 253.000
36.74888 225.000
36.76882 224.000
36.78877 229.000
36.80872 213.000
36.82866 231.000
36.84861 221.000
36.86856 264.000
36.88850 271.000
36.90845 268.000
36.92840 262.000
36.94835 257.000
36.96829 297.000
36.98824 315.000
37.00819 341.000
37.02813 410.000
37.04808 442.000
37.06803 494.000
37.08797 571.000
37.10792 776.000
37.12787 1101.000
37.14781 1573.000
37.16776 2232.000
37.18771 3006.000
37.20766 3490.000
37.22760 3420.000
37.24755 3086.000
37.26750 2835.000
37.28744 2519.000
37.30739 2308.000
37.32734 1950.000
37.34728 1511.000
37.36723 1113.000
37.38718 787.000
37.40713 604.000
37.42707 461.000
37.44702 383.000
37.46697 297.000
37.48691 320.000
37.50686 277.000
37.52681 271.000
37.54675 248.000
37.56670 216.000
37.58665 226.000
37.60660 215.000
37.62654 204.000
37.64649 208.000
37.66644 226.000
37.68638 208.000
37.70633 207.000
37.72628 176.000
37.74622 223.000
37.76617 201.000
37.78612 177.000
37.80606 217.000
37.82601 201.000
37.84596 195.000
37.86591 207.000
37.88585 178.000
37.90580 181.000
37.92575 205.000
37.94569 185.000
37.96564 194.000
37.98559 184.000
38.00553 190.000
38.02548 172.000
38.04543 178.000
38.06538 186.000
38.08532 176.000
38.10527 165.000
38.12522 166.000
38.14516 195.000
38.16511 173.000
38.18506 208.000
38.20500 179.000
38.22495 199.000
38.24490 175.000
38.26484 163.000
38.28479 175.000
38.30474 183.000
38.32469 171.000
38.34463 178.000
38.36458 176.000
38.38453 187.000
38.40447 195.000
38.42442 166.000
38.44437 186.000
38.46431 171.000
38.48426 168.000
38.50421 172.000
38.52416 169.000
38.54410 129.000
38.56405 178.000
38.58400 172.000
38.60394 192.000
38.62389 183.000
38.64384 178.000
38.66378 192.000
38.68373 174.000
38.70368 173.000
38.72362 194.000
38.74357 156.000
38.76352 175.000
38.78347 198.000
38.80341 180.000
38.82336 190.000
38.84331 186.000
38.86325 187.000
38.88320 151.000
38.90315 198.000
38.92309 204.000
38.94304 185.000
38.96299 195.000
38.98294 180.000
39.00288 186.000
39.02283 202.000
39.04278 231.000
39.06272 214.000
39.08267 220.000
39.10262 241.000
39.12256 264.000
39.14251 295.000
39.16246 342.000
39.18241 416.000
39.20235 447.000
39.22230 444.000
39.24225 511.000
39.26219 520.000
39.28214 492.000
39.30209 510.000
39.32203 531.000
39.34198 545.000
39.36193 534.000
39.38187 526.000
39.40182 527.000
39.42177 484.000
39.44172 470.000
39.46166 416.000
39.48161 395.000
39.50156 366.000
39.52150 341.000
39.54145 292.000
39.56140 273.000
39.58134 274.000
39.60129 195.000
39.62124 213.000
39.64119 193.000
39.66113 180.000
39.68108 147.000
39.70103 154.000
39.72097 162.000
39.74092 162.000
39.76087 170.000
39.78081 186.000
39.80076 177.000
39.82071 168.000
39.84065 154.000
39.86060 155.000
39.88055 173.000
39.90050 181.000
39.92044 158.000
39.94039 152.000
39.96034 164.000
39.98028 158.000
40.00023 169.000
40.02018 168.000
40.04012 188.000
40.06007 171.000
40.08002 186.000
40.09997 172.000
40.11991 142.000
40.13986 160.000
40.15981 148.000
40.17975 180.000
40.19970 161.000
40.21965 165.000
40.23959 165.000
40.25954 171.000
40.27949 158.000
40.29943 171.000
40.31938 175.000
40.33933 158.000
40.35928 137.000
40.37922 171.000
40.39917 168.000
40.41912 172.000
40.43906 154.000
40.45901 168.000
40.47896 157.000
40.49890 175.000
40.51885 175.000
40.53880 147.000
40.55875 148.000
40.57869 177.000
40.59864 178.000
40.61859 165.000
40.63853 181.000
40.65848 139.000
40.67843 196.000
40.69837 177.000
40.71832 168.000
40.73827 186.000
40.75822 152.000
40.77816 158.000
40.79811 144.000
40.81806 150.000
40.83800 146.000
40.85795 165.000
40.87790 168.000
40.89784 183.000
40.91779 156.000
40.93774 175.000
40.95768 169.000
40.97763 132.000
40.99758 181.000
41.01753 153.000
41.03747 193.000
41.05742 160.000
41.07737 142.000
41.09731 176.000
41.11726 159.000
41.13721 170.000
41.15715 167.000
41.17710 179.000
41.19705 172.000
41.21700 193.000
41.23694 162.000
41.25689 161.000
41.27684 184.000
41.29678 178.000
41.31673 178.000
41.33668 178.000
41.35662 155.000
41.37657 166.000
41.39652 141.000
41.41646 170.000
41.43641 164.000
41.45636 183.000
41.47631 193.000
41.49625 174.000
41.51620 148.000
41.53615 178.000
41.55609 166.000
41.57604 166.000
41.59599 168.000
41.61593 198.000
41.63588 175.000
41.65583 171.000
41.67578 169.000
41.69572 189.000
41.71567 198.000
41.73562 197.000
41.75556 186.000
41.77551 185.000
41.79546 201.000
41.81540 164.000
41.83535 185.000
41.85530 184.000
41.87524 182.000
41.89519 179.000
41.91514 177.000
41.93509 188.000
41.95503 165.000
41.97498 191.000
41.99493 187.000
42.01487 196.000
42.03482 179.000
42.05477 168.000
42.07471 169.000
42.09466 203.000
42.11461 177.000
42.13456 187.000
42.15450 170.000
42.17445 204.000
42.19440 186.000
42.21434 183.000
42.23429 186.000
42.25424 173.000
42.27418 156.000
42.29413 172.000
42.31408 197.000
42.33403 204.000
42.35397 193.000
42.37392 218.000
42.39387 176.000
42.41381 170.000
42.43376 204.000
42.45371 244.000
42.47365 240.000
42.49360 232.000
42.51355 187.000
42.53349 189.000
42.55344 200.000
42.57339 212.000
42.59334 242.000
42.61328 222.000
42.63323 219.000
42.65318 232.000
42.67312 226.000
42.69307 209.000
42.71302 197.000
42.73296 220.000
42.75291 210.000
42.77286 221.000
42.79281 245.000
42.81275 250.000
42.83270 268.000
42.85265 259.000
42.87259 227.000
42.89254 235.000
42.91249 282.000
42.93243 292.000
42.95238 336.000
42.97233 327.000
42.99227 375.000
43.01222 442.000
43.03217 456.000
43.05212 515.000
43.07206 605.000
43.09201 673.000
43.11196 792.000
43.13190 1026.000
43.15185 1547.000
43.17180 2243.000
43.19174 3380.000
43.21169 4688.000
43.23164 5634.000
43.25159 6031.000
43.27153 5254.000
43.29148 4323.000
43.31143 3640.000
43.33137 3490.000
43.35132 3841.000
43.37127 3314.000
43.39121 2745.000
43.41116 1907.000
43.43111 1406.000
43.45105 1082.000
43.47100 835.000
43.49095 757.000
43.51090 636.000
43.53084 571.000
43.55079 516.000
43.57074 461.000
43.59068 429.000
43.61063 357.000
43.63058 319.000
43.65052 301.000
43.67047 283.000
43.69042 298.000
43.71037 271.000
43.73031 266.000
43.75026 236.000
43.77021 217.000
43.79015 200.000
43.81010 193.000
43.83005 187.000
43.84999 208.000
43.86994 212.000
43.88989 198.000
43.90984 190.000
43.92978 206.000
43.94973 204.000
43.96968 186.000
43.98962 202.000
44.00957 205.000
44.02952 202.000
44.04946 198.000
44.06941 187.000
44.08936 196.000
44.10930 211.000
44.12925 194.000
44.14920 180.000
44.16915 168.000
44.18909 200.000
44.20904 189.000
44.22899 185.000
44.24893 183.000
44.26888 181.000
44.28883 201.000
44.30877 177.000
44.32872 176.000
44.34867 188.000
44.36862 140.000
44.38856 182.000
44.40851 158.000
44.42846 178.000
44.44840 163.000
44.46835 157.000
44.48830 201.000
44.50824 164.000
44.52819 171.000
44.54814 173.000
44.56808 157.000
44.58803 147.000
44.60798 175.000
44.62793 187.000
44.64787 184.000
44.66782 167.000
44.68777 168.000
44.70771 146.000
44.72766 189.000
44.74761 182.000
44.76755 160.000
44.78750 189.000
44.80745 174.000
44.82740 156.000
44.84734 178.000
44.86729 147.000
44.88724 183.000
44.90718 172.000
44.92713 187.000
44.94708 174.000
44.96702 164.000
44.98697 174.000
45.00692 162.000
45.02686 199.000
45.04681 188.000
45.06676 185.000
45.08671 160.000
45.10665 177.000
45.12660 172.000
45.14655 188.000
45.16649 156.000
45.18644 186.000
45.20639 174.000
45.22633 154.000
45.24628 197.000
45.26623 193.000
45.28618 174.000
45.30612 175.000
45.32607 181.000
45.34602 173.000
45.36596 154.000
45.38591 183.000
45.40586 178.000
45.42580 166.000
45.44575 168.000
45.46570 164.000
45.48565 184.000
45.50559 169.000
45.52554 169.000
45.54549 173.000
45.56543 167.000
45.58538 183.000
45.60533 179.000
45.62527 164.000
45.64522 149.000
45.66517 178.000
45.68511 166.000
45.70506 165.000
45.72501 158.000
45.74496 166.000
45.76490 169.000
45.78485 168.000
45.80480 154.000
45.82474 146.000
45.84469 173.000
45.86464 164.000
45.88458 153.000
45.90453 167.000
45.92448 183.000
45.94443 157.000
45.96437 154.000
45.98432 158.000
46.00427 169.000
46.02421 168.000
46.04416 183.000
46.06411 169.000
46.08405 156.000
46.10400 169.000
46.12395 162.000
46.14389 156.000
46.16384 146.000
46.18379 154.000
46.20374 159.000
46.22368 151.000
46.24363 171.000
46.26358 148.000
46.28352 174.000
46.30347 177.000
46.32342 175.000
46.34336 154.000
46.36331 144.000
46.38326 160.000
46.40321 170.000
46.42315 143.000
46.44310 153.000
46.46305 151.000
46.48299 162.000
46.50294 165.000
46.52289 158.000
46.54283 175.000
46.56278 181.000
46.58273 171.000
46.60267 143.000
46.62262 160.000
46.64257 150.000
46.66252 176.000
46.68246 142.000
46.70241 149.000
46.72236 164.000
46.74230 133.000
46.76225 156.000
46.78220 167.000
46.80214 143.000
46.82209 148.000
46.84204 184.000
46.86199 172.000
46.88193 170.000
46.90188 174.000
46.92183 177.000
46.94177 159.000
46.96172 153.000
46.98167 151.000
47.00161 175.000
47.02156 166.000
47.04151 146.000
47.06146 152.000
47.08140 140.000
47.10135 163.000
47.12130 154.000
47.14124 176.000
47.16119 198.000
47.18114 149.000
47.20108 159.000
47.22103 168.000
47.24098 167.000
47.26092 162.000
47.28087 165.000
47.30082 147.000
47.32077 177.000
47.34071 141.000
47.36066 186.000
47.38061 154.000
47.40055 175.000
47.42050 192.000
47.44045 175.000
47.46039 166.000
47.48034 167.000
47.50029 159.000
47.52024 179.000
47.54018 172.000
47.56013 168.000
47.58008 157.000
47.60002 192.000
47.61997 166.000
47.63992 160.000
47.65986 176.000
47.67981 161.000
47.69976 176.000
47.71970 171.000
47.73965 164.000
47.75960 164.000
47.77955 168.000
47.79949 164.000
47.81944 173.000
47.83939 158.000
47.85933 165.000
47.87928 146.000
47.89923 180.000
47.91917 170.000
47.93912 148.000
47.95907 143.000
47.97902 182.000
47.99896 147.000
48.01891 163.000
48.03886 177.000
48.05880 170.000
48.07875 160.000
48.09870 164.000
48.11864 177.000
48.13859 183.000
48.15854 184.000
48.17848 180.000
48.19843 167.000
48.21838 172.000
48.23833 181.000
48.25827 164.000
48.27822 184.000
48.29817 185.000
48.31811 174.000
48.33806 176.000
48.35801 183.000
48.37795 194.000
48.39790 169.000
48.41785 179.000
48.43780 185.000
48.45774 214.000
48.47769 207.000
48.49764 200.000
48.51758 215.000
48.53753 201.000
48.55748 228.000
48.57742 269.000
48.59737 295.000
48.61732 324.000
48.63726 361.000
48.65721 430.000
48.67716 496.000
48.69711 518.000
48.71705 506.000
48.73700 516.000
48.75695 557.000
48.77689 587.000
48.79684 528.000
48.81679 504.000
48.83673 446.000
48.85668 428.000
48.87663 375.000
48.89658 383.000
48.91652 349.000
48.93647 383.000
48.95642 296.000
48.97636 273.000
48.99631 244.000
49.01626 219.000
49.03620 223.000
49.05615 206.000
49.07610 190.000
49.09605 168.000
49.11599 189.000
49.13594 165.000
49.15589 197.000
49.17583 168.000
49.19578 180.000
49.21573 174.000
49.23567 181.000
49.25562 166.000
49.27557 177.000
49.29551 174.000
49.31546 182.000
49.33541 171.000
49.35536 183.000
49.37530 152.000
49.39525 178.000
49.41520 165.000
49.43514 173.000
49.45509 174.000
49.47504 171.000
49.49498 177.000
49.51493 154.000
49.53488 178.000
49.55483 172.000
49.57477 168.000
49.59472 148.000
49.61467 164.000
49.63461 180.000
49.65456 149.000
49.67451 162.000
49.69445 167.000
49.71440 176.000
49.73435 158.000
49.75429 162.000
49.77424 166.000
49.79419 172.000
49.81414 177.000
49.83408 153.000
49.85403 158.000
49.87398 154.000
49.89392 167.000
49.91387 141.000
49.93382 148.000
49.95376 172.000
49.97371 152.000
49.99366 178.000
50.01361 167.000
50.03355 167.000
50.05350 172.000
50.07345 175.000
50.09339 138.000
50.11334 155.000
50.13329 162.000
50.15323 150.000
50.17318 160.000
50.19313 181.000
50.21307 137.000
50.23302 155.000
50.25297 153.000
50.27292 158.000
50.29286 159.000
50.31281 159.000
50.33276 153.000
50.35270 156.000
50.37265 154.000
50.39260 160.000
50.41254 141.000
50.43249 138.000
50.45244 165.000
50.47239 185.000
50.49233 168.000
50.51228 154.000
50.53223 181.000
50.55217 181.000
50.57212 181.000
50.59207 175.000
50.61201 149.000
50.63196 158.000
50.65191 153.000
50.67186 173.000
50.69180 165.000
50.71175 138.000
50.73170 163.000
50.75164 159.000
50.77159 173.000
50.79154 151.000
50.81148 158.000
50.83143 153.000
50.85138 169.000
50.87132 153.000
50.89127 164.000
50.91122 158.000
50.93117 154.000
50.95111 146.000
50.97106 175.000
50.99101 157.000
51.01095 153.000
51.03090 173.000
51.05085 146.000
51.07079 161.000
51.09074 168.000
51.11069 151.000
51.13064 125.000
51.15058 152.000
51.17053 150.000
51.19048 136.000
51.21042 151.000
51.23037 166.000
51.25032 174.000
51.27026 155.000
51.29021 149.000
51.31016 172.000
51.33010 148.000
51.35005 168.000
51.37000 148.000
51.38995 173.000
51.40989 169.000
51.42984 148.000
51.44979 131.000
51.46973 168.000
51.48968 145.000
51.50963 152.000
51.52957 156.000
51.54952 160.000
51.56947 168.000
51.58942 163.000
51.60936 153.000
51.62931 157.000
51.64926 147.000
51.66920 143.000
51.68915 148.000
51.70910 147.000
51.72904 136.000
51.74899 151.000
51.76894 160.000
51.78888 160.000
51.80883 182.000
51.82878 169.000
51.84873 167.000
51.86867 162.000
51.88862 164.000
51.90857 155.000
51.92851 170.000
51.94846 167.000
51.96841 154.000
51.98835 145.000
52.00830 156.000
52.02825 156.000
52.04820 167.000
52.06814 172.000
52.08809 154.000
52.10804 171.000
52.12798 162.000
52.14793 152.000
52.16788 165.000
52.18782 161.000
52.20777 162.000
52.22772 169.000
52.24767 165.000
52.26761 169.000
52.28756 163.000
52.30751 158.000
52.32745 159.000
52.34740 153.000
52.36735 149.000
52.38729 155.000
52.40724 156.000
52.42719 162.000
52.44713 178.000
52.46708 141.000
52.48703 163.000
52.50698 155.000
52.52692 136.000
52.54687 173.000
52.56682 150.000
52.58676 168.000
52.60671 156.000
52.62666 164.000
52.64660 156.000
52.66655 167.000
52.68650 178.000
52.70645 164.000
52.72639 144.000
52.74634 175.000
52.76629 182.000
52.78623 158.000
52.80618 166.000
52.82613 167.000
52.84607 168.000
52.86602 149.000
52.88597 170.000
52.90591 177.000
52.92586 151.000
52.94581 159.000
52.96576 173.000
52.98570 134.000
53.00565 153.000
53.02560 178.000
53.04554 165.000
53.06549 155.000
53.08544 164.000
53.10538 168.000
53.12533 162.000
53.14528 143.000
53.16523 154.000
53.18517 161.000
53.20512 141.000
53.22507 153.000
53.24501 151.000
53.26496 164.000
53.28491 140.000
53.30485 160.000
53.32480 177.000
53.34475 160.000
53.36469 140.000
53.38464 163.000
53.40459 164.000
53.42454 151.000
53.44448 151.000
53.46443 156.000
53.48438 173.000
53.50432 161.000
53.52427 159.000
53.54422 161.000
53.56416 162.000
53.58411 182.000
53.60406 159.000
53.62401 174.000
53.64395 177.000
53.66390 207.000
53.68385 222.000
53.70379 248.000
53.72374 231.000
53.74369 242.000
53.76363 253.000
53.78358 246.000
53.80353 283.000
53.82348 303.000
53.84342 296.000
53.86337 270.000
53.88332 281.000
53.90326 238.000
53.92321 242.000
53.94316 220.000
53.96310 213.000
53.98305 187.000
54.00300 209.000
54.02294 190.000
54.04289 190.000
54.06284 185.000
54.08279 173.000
54.10273 153.000
54.12268 155.000
54.14263 150.000
54.16257 181.000
54.18252 167.000
54.20247 148.000
54.22241 177.000
54.24236 158.000
54.26231 148.000
54.28226 146.000
54.30220 167.000
54.32215 175.000
54.34210 149.000
54.36204 159.000
54.38199 163.000
54.40194 162.000
54.42188 146.000
54.44183 165.000
54.46178 152.000
54.48172 157.000
54.50167 157.000
54.52162 164.000
54.54157 160.000
54.56151 173.000
54.58146 164.000
54.60141 151.000
54.62135 157.000
54.64130 155.000
54.66125 174.000
54.68119 148.000
54.70114 141.000
54.72109 160.000
54.74104 160.000
54.76098 178.000
54.78093 147.000
54.80088 154.000
54.82082 139.000
54.84077 151.000
54.86072 156.000
54.88066 166.000
54.90061 156.000
54.92056 155.000
54.94050 134.000
54.96045 167.000
54.98040 161.000
55.00035 151.000
55.02029 178.000
55.04024 151.000
55.06019 158.000
55.08013 157.000
55.10008 133.000
55.12003 170.000
55.13997 140.000
55.15992 131.000
55.17987 152.000
55.19982 165.000
55.21976 173.000
55.23971 139.000
55.25966 160.000
55.27960 148.000
55.29955 155.000
55.31950 146.000
55.33944 135.000
55.35939 164.000
55.37934 162.000
55.39929 159.000
55.41923 141.000
55.43918 174.000
55.45913 174.000
55.47907 126.000
55.49902 124.000
55.51897 147.000
55.53891 146.000
55.55886 154.000
55.57881 146.000
55.59875 186.000
55.61870 129.000
55.63865 157.000
55.65860 158.000
55.67854 173.000
55.69849 145.000
55.71844 167.000
55.73838 175.000
55.75833 142.000
55.77828 170.000
55.79822 162.000
55.81817 156.000
55.83812 156.000
55.85807 178.000
55.87801 158.000
55.89796 168.000
55.91791 159.000
55.93785 158.000
55.95780 166.000
55.97775 151.000
55.99769 163.000
56.01764 160.000
56.03759 140.000
56.05753 139.000
56.07748 154.000
56.09743 157.000
56.11738 183.000
56.13732 141.000
56.15727 174.000
56.17722 146.000
56.19716 166.000
56.21711 137.000
56.23706 170.000
56.25700 164.000
56.27695 151.000
56.29690 172.000
56.31685 160.000
56.33679 168.000
56.35674 163.000
56.37669 153.000
56.39663 167.000
56.41658 160.000
56.43653 157.000
56.45647 150.000
56.47642 174.000
56.49637 154.000
56.51631 170.000
56.53626 162.000
56.55621 190.000
56.57616 149.000
56.59610 159.000
56.61605 210.000
56.63600 159.000
56.65594 166.000
56.67589 159.000
56.69584 156.000
56.71578 156.000
56.73573 165.000
56.75568 158.000
56.77563 169.000
56.79557 156.000
56.81552 136.000
56.83547 166.000
56.85541 165.000
56.87536 175.000
56.89531 170.000
56.91525 171.000
56.93520 173.000
56.95515 187.000
56.97510 180.000
56.99504 160.000
57.01499 170.000
57.03494 206.000
57.05488 189.000
57.07483 203.000
57.09478 182.000
57.11472 219.000
57.13467 210.000
57.15462 231.000
57.17456 262.000
57.19451 308.000
57.21446 342.000
57.23441 371.000
57.25435 377.000
57.27430 435.000
57.29425 445.000
57.31419 463.000
57.33414 544.000
57.35409 547.000
57.37403 514.000
57.39398 534.000
57.41393 519.000
57.43388 450.000
57.45382 434.000
57.47377 444.000
57.49372 415.000
57.51366 448.000
57.53361 395.000
57.55356 344.000
57.57350 332.000
57.59345 286.000
57.61340 234.000
57.63334 241.000
57.65329 236.000
57.67324 219.000
57.69319 199.000
57.71313 202.000
57.73308 185.000
57.75303 162.000
57.77297 163.000
57.79292 148.000
57.81287 185.000
57.83281 175.000
57.85276 133.000
57.87271 164.000
57.89266 179.000
57.91260 178.000
57.93255 164.000
57.95250 171.000
57.97244 181.000
57.99239 159.000
58.01234 163.000
58.03228 177.000
58.05223 169.000
58.07218 156.000
58.09212 150.000
58.11207 152.000
58.13202 161.000
58.15197 156.000
58.17191 160.000
58.19186 158.000
58.21181 139.000
58.23175 162.000
58.25170 150.000
58.27165 165.000
58.29159 165.000
58.31154 154.000
58.33149 148.000
58.35144 162.000
58.37138 150.000
58.39133 167.000
58.41128 155.000
58.43122 156.000
58.45117 145.000
58.47112 188.000
58.49106 124.000
58.51101 165.000
58.53096 159.000
58.55090 159.000
58.57085 154.000
58.59080 179.000
58.61075 158.000
58.63069 145.000
58.65064 168.000
58.67059 171.000
58.69053 144.000
58.71048 172.000
58.73043 193.000
58.75037 160.000
58.77032 181.000
58.79027 166.000
58.81022 128.000
58.83016 177.000
58.85011 159.000
58.87006 146.000
58.89000 158.000
58.90995 137.000
58.92990 148.000
58.94984 159.000
58.96979 137.000
58.98974 151.000
59.00969 159.000
59.02963 160.000
59.04958 146.000
59.06953 157.000
59.08947 149.000
59.10942 149.000
59.12937 171.000
59.14931 178.000
59.16926 154.000
59.18921 160.000
59.20915 156.000
59.22910 154.000
59.24905 158.000
59.26900 173.000
59.28894 151.000
59.30889 155.000
59.32884 153.000
59.34878 157.000
59.36873 167.000
59.38868 165.000
59.40862 159.000
59.42857 173.000
59.44852 159.000
59.46847 166.000
59.48841 152.000
59.50836 178.000
59.52831 157.000
59.54825 167.000
59.56820 146.000
59.58815 132.000
59.60809 166.000
59.62804 171.000
59.64799 180.000
59.66793 167.000
59.68788 161.000
59.70783 147.000
59.72778 161.000
59.74772 154.000
59.76767 159.000
59.78762 160.000
59.80756 152.000
59.82751 163.000
59.84746 150.000
59.86740 167.000
59.88735 166.000
59.90730 178.000
59.92725 150.000
59.94719 167.000
59.96714 184.000
59.98709 153.000
60.00703 159.000
60.02698 176.000
60.04693 169.000
60.06687 173.000
60.08682 147.000
60.10677 163.000
60.12671 152.000
60.14666 189.000
60.16661 158.000
60.18656 164.000
60.20650 146.000
60.22645 161.000
60.24640 149.000
60.26634 168.000
60.28629 170.000
60.30624 161.000
60.32618 163.000
60.34613 172.000
60.36608 133.000
60.38603 169.000
60.40597 163.000
60.42592 146.000
60.44587 167.000
60.46581 141.000
60.48576 180.000
60.50571 171.000
60.52565 164.000
60.54560 184.000
60.56555 159.000
60.58550 169.000
60.60544 161.000
60.62539 162.000
60.64534 166.000
60.66528 182.000
60.68523 149.000
60.70518 168.000
60.72512 147.000
60.74507 163.000
60.76502 153.000
60.78496 151.000
60.80491 156.000
60.82486 181.000
60.84481 157.000
60.86475 159.000
60.88470 156.000
60.90465 152.000
60.92459 184.000
60.94454 176.000
60.96449 167.000
60.98443 177.000
61.00438 171.000
61.02433 164.000
61.04428 184.000
61.06422 148.000
61.08417 176.000
61.10412 170.000
61.12406 167.000
61.14401 189.000
61.16396 163.000
61.18390 168.000
61.20385 168.000
61.22380 169.000
61.24374 176.000
61.26369 168.000
61.28364 166.000
61.30359 165.000
61.32353 152.000
61.34348 194.000
61.36343 186.000
61.38337 174.000
61.40332 191.000
61.42327 181.000
61.44321 187.000
61.46316 194.000
61.48311 175.000
61.50306 169.000
61.52300 185.000
61.54295 180.000
61.56290 193.000
61.58284 162.000
61.60279 155.000
61.62274 183.000
61.64268 191.000
61.66263 190.000
61.68258 175.000
61.70252 170.000
61.72247 171.000
61.74242 165.000
61.76237 188.000
61.78231 210.000
61.80226 206.000
61.82221 216.000
61.84215 234.000
61.86210 238.000
61.88205 229.000
61.90199 289.000
61.92194 281.000
61.94189 286.000
61.96184 327.000
61.98178 344.000
62.00173 324.000
62.02168 340.000
62.04162 350.000
62.06157 372.000
62.08152 365.000
62.10146 383.000
62.12141 346.000
62.14136 324.000
62.16131 254.000
62.18125 300.000
62.20120 340.000
62.22115 312.000
62.24109 278.000
62.26104 259.000
62.28099 252.000
62.30093 255.000
62.32088 242.000
62.34083 224.000
62.36077 239.000
62.38072 248.000
62.40067 237.000
62.42062 252.000
62.44056 247.000
62.46051 266.000
62.48046 284.000
62.50040 282.000
62.52035 283.000
62.54030 310.000
62.56024 307.000
62.58019 353.000
62.60014 359.000
62.62009 449.000
62.64003 439.000
62.65998 521.000
62.67993 615.000
62.69987 834.000
62.71982 1021.000
62.73977 1299.000
62.75971 1508.000
62.77966 1795.000
62.79961 2023.000
62.81955 2224.000
62.83950 2200.000
62.85945 2180.000
62.87940 2092.000
62.89934 1911.000
62.91929 1795.000
62.93924 1648.000
62.95918 1732.000
62.97913 1682.000
62.99908 1665.000
63.01902 1580.000
63.03897 1525.000
63.05892 1353.000
63.07887 1146.000
63.09881 948.000
63.11876 759.000
63.13871 687.000
63.15865 610.000
63.17860 575.000
63.19855 525.000
63.21849 452.000
63.23844 423.000
63.25839 377.000
63.27833 367.000
63.29828 325.000
63.31823 304.000
63.33818 246.000
63.35812 261.000
63.37807 231.000
63.39802 228.000
63.41796 218.000
63.43791 229.000
63.45786 216.000
63.47780 213.000
63.49775 188.000
63.51770 226.000
63.53765 170.000
63.55759 203.000
63.57754 209.000
63.59749 197.000
63.61743 212.000
63.63738 190.000
63.65733 192.000
63.67727 201.000
63.69722 171.000
63.71717 172.000
63.73712 201.000
63.75706 207.000
63.77701 168.000
63.79696 189.000
63.81690 189.000
63.83685 203.000
63.85680 173.000
63.87674 209.000
63.89669 209.000
63.91664 223.000
63.93658 241.000
63.95653 203.000
63.97648 215.000
63.99643 255.000
64.01637 234.000
64.03632 258.000
64.05627 245.000
64.07621 248.000
64.09616 245.000
64.11611 220.000
64.13605 247.000
64.15600 233.000
64.17595 254.000
64.19590 251.000
64.21584 260.000
64.23579 243.000
64.25574 238.000
64.27568 246.000
64.29563 223.000
64.31558 220.000
64.33552 266.000
64.35547 226.000
64.37542 239.000
64.39536 228.000
64.41531 245.000
64.43526 242.000
64.45521 240.000
64.47515 233.000
64.49510 246.000
64.51505 226.000
64.53499 267.000
64.55494 214.000
64.57489 223.000
64.59483 203.000
64.61478 211.000
64.63473 214.000
64.65468 185.000
64.67462 202.000
64.69457 212.000
64.71452 231.000
64.73446 187.000
64.75441 176.000
64.77436 177.000
64.79430 181.000
64.81425 160.000
64.83420 155.000
64.85414 150.000
64.87409 177.000
64.89404 191.000
64.91399 157.000
64.93393 164.000
64.95388 166.000
64.97383 148.000
64.99377 174.000
65.01372 187.000
65.03367 152.000
65.05361 165.000
65.07356 122.000
65.09351 150.000
65.11346 169.000
65.13340 166.000
65.15335 166.000
65.17330 148.000
65.19324 163.000
65.21319 171.000
65.23314 151.000
65.25308 158.000
65.27303 165.000
65.29298 171.000
65.31293 170.000
65.33287 150.000
65.35282 159.000
65.37277 165.000
65.39271 183.000
65.41266 169.000
65.43261 159.000
65.45255 167.000
65.47250 171.000
65.49245 169.000
65.51239 173.000
65.53234 166.000
65.55229 163.000
65.57224 188.000
65.59218 159.000
65.61213 148.000
65.63208 177.000
65.65202 156.000
65.67197 169.000
65.69192 189.000
65.71186 184.000
65.73181 171.000
65.75176 180.000
65.77171 172.000
65.79165 158.000
65.81160 168.000
65.83155 181.000
65.85149 188.000
65.87144 208.000
65.89139 156.000
65.91133 165.000
65.93128 185.000
65.95123 160.000
65.97117 144.000
65.99112 166.000
66.01107 166.000
66.03102 180.000
66.05096 178.000
66.07091 183.000
66.09086 171.000
66.11080 179.000
66.13075 161.000
66.15070 142.000
66.17064 175.000
66.19059 174.000
66.21054 188.000
66.23049 189.000
66.25043 199.000
66.27038 181.000
66.29033 207.000
66.31027 205.000
66.33022 218.000
66.35017 180.000
66.37011 184.000
66.39006 204.000
66.41001 196.000
66.42995 214.000
66.44990 226.000
66.46985 227.000
66.48980 208.000
66.50974 222.000
66.52969 231.000
66.54964 177.000
66.56958 223.000
66.58953 188.000
66.60948 205.000
66.62942 204.000
66.64937 230.000
66.66932 195.000
66.68927 212.000
66.70921 209.000
66.72916 212.000
66.74911 199.000
66.76905 219.000
66.78900 207.000
66.80895 191.000
66.82889 222.000
66.84884 247.000
66.86879 226.000
66.88874 221.000
66.90868 230.000
66.92863 220.000
66.94858 199.000
66.96852 200.000
66.98847 204.000
67.00842 230.000
67.02836 234.000
67.04831 177.000
67.06826 148.000
67.08820 228.000
67.10815 193.000
67.12810 216.000
67.14805 193.000
67.16799 196.000
67.18794 167.000
67.20789 176.000
67.22783 173.000
67.24778 165.000
67.26773 152.000
67.28767 175.000
67.30762 163.000
67.32757 181.000
67.34752 174.000
67.36746 169.000
67.38741 162.000
67.40736 175.000
67.42730 161.000
67.44725 171.000
67.46720 168.000
67.48714 156.000
67.50709 154.000
67.52704 141.000
67.54698 161.000
67.56693 158.000
67.58688 151.000
67.60683 147.000
67.62677 175.000
67.64672 134.000
67.66667 116.000
67.68661 146.000
67.70656 164.000
67.72651 142.000
67.74645 178.000
67.76640 158.000
67.78635 168.000
67.80630 165.000
67.82624 151.000
67.84619 148.000
67.86614 120.000
67.88608 152.000
67.90603 165.000
67.92598 138.000
67.94592 162.000
67.96587 142.000
67.98582 142.000
68.00576 135.000
68.02571 161.000
68.04566 155.000
68.06561 141.000
68.08555 146.000
68.10550 175.000
68.12545 154.000
68.14539 151.000
68.16534 152.000
68.18529 152.000
68.20523 171.000
68.22518 176.000
68.24513 168.000
68.26508 148.000
68.28502 161.000
68.30497 165.000
68.32492 153.000
68.34486 166.000
68.36481 146.000
68.38476 151.000
68.40470 147.000
68.42465 139.000
68.44460 142.000
68.46455 140.000
68.48449 170.000
68.50444 154.000
68.52439 140.000
68.54433 149.000
68.56428 157.000
68.58423 138.000
68.60417 147.000
68.62412 178.000
68.64407 171.000
68.66401 159.000
68.68396 145.000
68.70391 144.000
68.72386 180.000
68.74380 130.000
68.76375 160.000
68.78370 175.000
68.80364 150.000
68.82359 167.000
68.84354 143.000
68.86348 163.000
68.88343 155.000
68.90338 173.000
68.92333 151.000
68.94327 131.000
68.96322 166.000
68.98317 156.000
69.00311 140.000
69.02306 142.000
69.04301 145.000
69.06295 139.000
69.08290 167.000
69.10285 138.000
69.12279 149.000
69.14274 130.000
69.16269 146.000
69.18264 157.000
69.20258 147.000
69.22253 158.000
69.24248 168.000
69.26242 143.000
69.28237 168.000
69.30232 151.000
69.32226 142.000
69.34221 152.000
69.36216 151.000
69.38211 136.000
69.40205 156.000
69.42200 141.000
69.44195 145.000
69.46189 137.000
69.48184 158.000
69.50179 161.000
69.52173 170.000
69.54168 158.000
69.56163 156.000
69.58157 130.000
69.60152 138.000
69.62147 161.000
69.64142 172.000
69.66136 168.000
69.68131 154.000
69.70126 164.000
69.72120 147.000
69.74115 166.000
69.76110 169.000
69.78104 156.000
69.80099 153.000
69.82094 155.000
69.84089 140.000
69.86083 142.000
69.88078 143.000
69.90073 147.000
69.92067 149.000
69.94062 165.000
69.96057 169.000
69.98051 150.000
70.00046 161.000
70.02041 148.000
70.04035 130.000
70.06030 143.000
70.08025 167.000
70.10020 137.000
70.12014 157.000
70.14009 157.000
70.16004 151.000
70.17998 172.000
70.19993 150.000
70.21988 162.000
70.23982 150.000
70.25977 153.000
70.27972 166.000
70.29967 132.000
70.31961 153.000
70.33956 157.000
70.35951 153.000
70.37945 132.000
70.39940 150.000
70.41935 152.000
70.43929 142.000
70.45924 153.000
70.47919 149.000
70.49914 162.000
70.51908 176.000
70.53903 154.000
70.55898 164.000
70.57892 157.000
70.59887 159.000
70.61882 148.000
70.63876 162.000
70.65871 173.000
70.67866 164.000
70.69860 156.000
70.71855 140.000
70.73850 141.000
70.75845 168.000
70.77839 161.000
70.79834 131.000
70.81829 173.000
70.83823 134.000
70.85818 165.000
70.87813 149.000
70.89807 142.000
70.91802 144.000
70.93797 157.000
70.95792 160.000
70.97786 161.000
70.99781 132.000
71.01776 156.000
71.03770 152.000
71.05765 181.000
71.07760 165.000
71.09754 166.000
71.11749 147.000
71.13744 151.000
71.15738 153.000
71.17733 168.000
71.19728 154.000
71.21723 132.000
71.23717 169.000
71.25712 147.000
71.27707 151.000
71.29701 178.000
71.31696 145.000
71.33691 182.000
71.35685 169.000
71.37680 172.000
71.39675 206.000
71.41670 171.000
71.43664 170.000
71.45659 186.000
71.47654 183.000
71.49648 197.000
71.51643 178.000
71.53638 197.000
71.55632 194.000
71.57627 202.000
71.59622 159.000
71.61616 169.000
71.63611 162.000
71.65606 159.000
71.67601 167.000
71.69595 211.000
71.71590 160.000
71.73585 181.000
71.75579 167.000
71.77574 174.000
71.79569 158.000
71.81563 155.000
71.83558 162.000
71.85553 178.000
71.87548 147.000
71.89542 163.000
71.91537 160.000
71.93532 142.000
71.95526 174.000
71.97521 167.000
71.99516 172.000
72.01510 162.000
72.03505 144.000
72.05500 178.000
72.07495 164.000
72.09489 150.000
72.11484 155.000
72.13479 172.000
72.15473 160.000
72.17468 156.000
72.19463 134.000
72.21457 153.000
72.23452 153.000
72.25447 162.000
72.27441 135.000
72.29436 143.000
72.31431 168.000
72.33426 158.000
72.35420 175.000
72.37415 147.000
72.39410 137.000
72.41404 157.000
72.43399 160.000
72.45394 142.000
72.47388 130.000
72.49383 147.000
72.51378 162.000
72.53373 166.000
72.55367 147.000
72.57362 154.000
72.59357 168.000
72.61351 156.000
72.63346 154.000
72.65341 159.000
72.67335 185.000
72.69330 129.000
72.71325 154.000
72.73319 153.000
72.75314 147.000
72.77309 159.000
72.79304 157.000
72.81298 150.000
72.83293 159.000
72.85288 136.000
72.87282 160.000
72.89277 155.000
72.91272 177.000
72.93266 157.000
72.95261 159.000
72.97256 179.000
72.99251 140.000
73.01245 156.000
73.03240 161.000
73.05235 157.000
73.07229 165.000
73.09224 161.000
73.11219 159.000
73.13213 138.000
73.15208 160.000
73.17203 155.000
73.19197 163.000
73.21192 162.000
73.23187 188.000
73.25182 168.000
73.27176 156.000
73.29171 159.000
73.31166 166.000
73.33160 157.000
73.35155 167.000
73.37150 194.000
73.39144 170.000
73.41139 174.000
73.43134 193.000
73.45129 174.000
73.47123 172.000
73.49118 195.000
73.51113 189.000
73.53107 158.000
73.55102 149.000
73.57097 143.000
73.59091 196.000
73.61086 192.000
73.63081 185.000
73.65076 195.000
73.67070 184.000
73.69065 187.000
73.71060 162.000
73.73054 177.000
73.75049 162.000
73.77044 207.000
73.79038 194.000
73.81033 179.000
73.83028 182.000
73.85022 170.000
73.87017 160.000
73.89012 178.000
73.91007 159.000
73.93001 160.000
73.94996 179.000
73.96991 181.000
73.98985 161.000
74.00980 165.000
74.02975 172.000
74.04969 178.000
74.06964 162.000
74.08959 180.000
74.10954 182.000
74.12948 182.000
74.14943 181.000
74.16938 169.000
74.18932 174.000
74.20927 152.000
74.22922 188.000
74.24916 166.000
74.26911 173.000
74.28906 160.000
74.30900 168.000
74.32895 195.000
74.34890 187.000
74.36885 178.000
74.38879 191.000
74.40874 212.000
74.42869 210.000
74.44863 198.000
74.46858 242.000
74.48853 227.000
74.50847 231.000
74.52842 238.000
74.54837 215.000
74.56832 262.000
74.58826 239.000
74.60821 244.000
74.62816 221.000
74.64810 248.000
74.66805 217.000
74.68800 237.000
74.70794 212.000
74.72789 214.000
74.74784 199.000
74.76778 208.000
74.78773 186.000
74.80768 213.000
74.82763 178.000
74.84757 206.000
74.86752 194.000
74.88747 193.000
74.90741 202.000
74.92736 187.000
74.94731 179.000
74.96725 190.000
74.98720 178.000
75.00715 195.000
75.02710 180.000
75.04704 216.000
75.06699 211.000
75.08694 217.000
75.10688 227.000
75.12683 231.000
75.14678 252.000
75.16672 285.000
75.18667 302.000
75.20662 361.000
75.22657 405.000
75.24651 523.000
75.26646 525.000
75.28641 620.000
75.30635 682.000
75.32630 731.000
75.34625 779.000
75.36619 777.000
75.38614 743.000
75.40609 674.000
75.42603 642.000
75.44598 561.000
75.46593 536.000
75.48588 505.000
75.50582 537.000
75.52577 530.000
75.54572 543.000
75.56566 525.000
75.58561 544.000
75.60556 519.000
75.62550 414.000
75.64545 414.000
75.66540 336.000
75.68535 316.000
75.70529 262.000
75.72524 254.000
75.74519 221.000
75.76513 229.000
75.78508 217.000
75.80503 225.000
75.82497 198.000
75.84492 205.000
75.86487 177.000
75.88481 203.000
75.90476 194.000
75.92471 212.000
75.94466 174.000
75.96460 193.000
75.98455 186.000
76.00450 177.000
76.02444 209.000
76.04439 177.000
76.06434 180.000
76.08428 174.000
76.10423 173.000
76.12418 151.000
76.14413 202.000
76.16407 182.000
76.18402 168.000
76.20397 189.000
76.22391 154.000
76.24386 147.000
76.26381 185.000
76.28375 147.000
76.30370 167.000
76.32365 158.000
76.34359 150.000
76.36354 179.000
76.38349 153.000
76.40344 183.000
76.42338 165.000
76.44333 185.000
76.46328 144.000
76.48322 167.000
76.50317 169.000
76.52312 144.000
76.54306 171.000
76.56301 167.000
76.58296 136.000
76.60291 152.000
76.62285 164.000
76.64280 169.000
76.66275 158.000
76.68269 160.000
76.70264 148.000
76.72259 147.000
76.74253 141.000
76.76248 147.000
76.78243 149.000
76.80238 162.000
76.82232 159.000
76.84227 154.000
76.86222 162.000
76.88216 135.000
76.90211 137.000
76.92206 157.000
76.94200 179.000
76.96195 127.000
76.98190 143.000
77.00184 147.000
77.02179 149.000
77.04174 181.000
77.06169 151.000
77.08163 155.000
77.10158 156.000
77.12153 145.000
77.14147 131.000
77.16142 145.000
77.18137 174.000
77.20131 171.000
77.22126 148.000
77.24121 162.000
77.26116 170.000
77.28110 143.000
77.30105 160.000
77.32100 161.000
77.34094 151.000
77.36089 161.000
77.38084 150.000
77.40078 160.000
77.42073 175.000
77.44068 152.000
77.46062 137.000
77.48057 153.000
77.50052 146.000
77.52047 154.000
77.54041 172.000
77.56036 176.000
77.58031 156.000
77.60025 166.000
77.62020 172.000
77.64015 157.000
77.66009 153.000
77.68004 158.000
77.69999 173.000
77.71994 180.000
77.73988 179.000
77.75983 179.000
77.77978 172.000
77.79972 149.000
77.81967 172.000
77.83962 208.000
77.85956 185.000
77.87951 148.000
77.89946 174.000
77.91940 164.000
77.93935 170.000
77.95930 164.000
77.97925 179.000
77.99919 198.000
78.01914 180.000
78.03909 186.000
78.05903 191.000
78.07898 175.000
78.09893 206.000
78.11887 182.000
78.13882 174.000
78.15877 175.000
78.17872 203.000
78.19866 206.000
78.21861 175.000
78.23856 210.000
78.25850 215.000
78.27845 205.000
78.29840 206.000
78.31834 199.000
78.33829 200.000
78.35824 205.000
78.37819 193.000
78.39813 213.000
78.41808 186.000
78.43803 209.000
78.45797 199.000
78.47792 210.000
78.49787 201.000
78.51781 172.000
78.53776 192.000
78.55771 140.000
78.57765 175.000
78.59760 166.000
78.61755 183.000
78.63750 213.000
78.65744 180.000
78.67739 163.000
78.69734 172.000
78.71728 189.000
78.73723 171.000
78.75718 168.000
78.77712 158.000
78.79707 186.000
78.81702 157.000
78.83697 174.000
78.85691 157.000
78.87686 176.000
78.89681 190.000
78.91675 165.000
78.93670 179.000
78.95665 161.000
78.97659 178.000
78.99654 204.000
79.01649 217.000
79.03643 202.000
79.05638 226.000
79.07633 210.000
79.09628 183.000
79.11622 237.000
79.13617 218.000
79.15612 238.000
79.17606 265.000
79.19601 306.000
79.21596 372.000
79.23590 424.000
79.25585 486.000
79.27580 488.000
79.29575 530.000
79.31569 612.000
79.33564 620.000
79.35559 535.000
79.37553 541.000
79.39548 521.000
79.41543 482.000
79.43537 500.000
79.45532 463.000
79.47527 460.000
79.49521 432.000
79.51516 449.000
79.53511 412.000
79.55506 432.000
79.57500 432.000
79.59495 411.000
79.61490 404.000
79.63484 379.000
79.65479 327.000
79.67474 311.000
79.69468 255.000
79.71463 289.000
79.73458 285.000
79.75453 240.000
79.77447 213.000
79.79442 190.000
79.81437 196.000
79.83431 198.000
79.85426 185.000
79.87421 172.000
79.89415 168.000
79.91410 194.000
79.93405 172.000
79.95399 161.000
79.97394 163.000
79.99389 152.000
80.01384 154.000
80.03378 176.000
80.05373 163.000
80.07368 168.000
80.09362 176.000
80.11357 171.000
80.13352 144.000
80.15346 164.000
80.17341 155.000
80.19336 139.000
80.21331 170.000
80.23325 177.000
80.25320 160.000
80.27315 163.000
80.29309 150.000
80.31304 160.000
80.33299 155.000
80.35293 144.000
80.37288 149.000
80.39283 153.000
80.41278 146.000
80.43272 144.000
80.45267 165.000
80.47262 167.000
80.49256 145.000
80.51251 154.000
80.53246 142.000
80.55240 157.000
80.57235 135.000
80.59230 145.000
80.61224 144.000
80.63219 158.000
80.65214 174.000
80.67209 152.000
80.69203 144.000
80.71198 129.000
80.73193 150.000
80.75187 167.000
80.77182 154.000
80.79177 169.000
80.81171 152.000
80.83166 160.000
80.85161 160.000
80.87156 171.000
80.89150 146.000
80.91145 118.000
80.93140 151.000
80.95134 173.000
80.97129 160.000
80.99124 180.000
81.01118 161.000
81.03113 167.000
81.05108 140.000
81.07102 165.000
81.09097 153.000
81.11092 136.000
81.13087 130.000
81.15081 154.000
81.17076 151.000
81.19071 137.000
81.21065 149.000
81.23060 137.000
81.25055 133.000
81.27049 151.000
81.29044 144.000
81.31039 135.000
81.33034 142.000
81.35028 124.000
81.37023 155.000
81.39018 153.000
81.41012 136.000
81.43007 187.000
81.45002 149.000
81.46996 151.000
81.48991 160.000
81.50986 161.000
81.52980 177.000
81.54975 154.000
81.56970 141.000
81.58965 143.000
81.60959 153.000
81.62954 140.000
81.64949 145.000
81.66943 157.000
81.68938 142.000
81.70933 129.000
81.72927 147.000
81.74922 151.000
81.76917 143.000
81.78912 139.000
81.80906 146.000
81.82901 142.000
81.84896 138.000
81.86890 165.000
81.88885 133.000
81.90880 161.000
81.92874 123.000
81.94869 138.000
81.96864 176.000
81.98859 143.000
82.00853 151.000
82.02848 170.000
82.04843 143.000
82.06837 160.000
82.08832 161.000
82.10827 137.000
82.12821 153.000
82.14816 179.000
82.16811 170.000
82.18805 117.000
82.20800 146.000
82.22795 145.000
82.24790 171.000
82.26784 154.000
82.28779 129.000
82.30774 151.000
82.32768 142.000
82.34763 144.000
82.36758 166.000
82.38752 168.000
82.40747 168.000
82.42742 169.000
82.44737 161.000
82.46731 140.000
82.48726 169.000
82.50721 158.000
82.52715 174.000
82.54710 141.000
82.56705 161.000
82.58699 158.000
82.60694 179.000
82.62689 147.000
82.64683 158.000
82.66678 147.000
82.68673 153.000
82.70668 137.000
82.72662 148.000
82.74657 160.000
82.76652 142.000
82.78646 156.000
82.80641 154.000
82.82636 137.000
82.84630 149.000
82.86625 185.000
82.88620 159.000
82.90615 143.000
82.92609 163.000
82.94604 152.000
82.96599 183.000
82.98593 161.000
83.00588 144.000
83.02583 158.000
83.04577 152.000
83.06572 117.000
83.08567 157.000
83.10561 149.000
83.12556 156.000
83.14551 154.000
83.16546 153.000
83.18540 148.000
83.20535 142.000
83.22530 149.000
83.24524 148.000
83.26519 158.000
83.28514 153.000
83.30508 140.000
83.32503 148.000
83.34498 173.000
83.36493 150.000
83.38487 144.000
83.40482 128.000
83.42477 145.000
83.44471 124.000
83.46466 168.000
83.48461 153.000
83.50455 147.000
83.52450 158.000
83.54445 139.000
83.56440 136.000
83.58434 150.000
83.60429 138.000
83.62424 150.000
83.64418 172.000
83.66413 152.000
83.68408 128.000
83.70402 129.000
83.72397 141.000
83.74392 152.000
83.76386 144.000
83.78381 166.000
83.80376 143.000
83.82371 171.000
83.84365 151.000
83.86360 159.000
83.88355 140.000
83.90349 159.000
83.92344 140.000
83.94339 143.000
83.96333 160.000
83.98328 152.000
84.00323 172.000
84.02318 169.000
84.04312 147.000
84.06307 141.000
84.08302 176.000
84.10296 162.000
84.12291 137.000
84.14286 137.000
84.16280 149.000
84.18275 157.000
84.20270 179.000
84.22264 136.000
84.24259 177.000
84.26254 174.000
84.28249 165.000
84.30243 173.000
84.32238 158.000
84.34233 159.000
84.36227 186.000
84.38222 173.000
84.40217 168.000
84.42211 162.000
84.44206 165.000
84.46201 171.000
84.48196 169.000
84.50190 168.000
84.52185 162.000
84.54180 185.000
84.56174 152.000
84.58169 171.000
84.60164 168.000
84.62158 184.000
84.64153 147.000
84.66148 167.000
84.68142 175.000
84.70137 175.000
84.72132 156.000
84.74127 172.000
84.76121 172.000
84.78116 161.000
84.80111 187.000
84.82105 167.000
84.84100 178.000
84.86095 203.000
84.88089 161.000
84.90084 174.000
84.92079 178.000
84.94074 176.000
84.96068 181.000
84.98063 175.000
85.00058 170.000
85.02052 145.000
85.04047 147.000
85.06042 171.000
85.08036 169.000
85.10031 185.000
85.12026 175.000
85.14021 172.000
85.16015 167.000
85.18010 167.000
85.20005 143.000
85.21999 164.000
85.23994 155.000
85.25989 151.000
85.27983 161.000
85.29978 140.000
85.31973 160.000
85.33967 171.000
85.35962 158.000
85.37957 162.000
85.39952 162.000
85.41946 137.000
85.43941 153.000
85.45936 160.000
85.47930 145.000
85.49925 133.000
85.51920 151.000
85.53914 137.000
85.55909 156.000
85.57904 144.000
85.59899 141.000
85.61893 150.000
85.63888 142.000
85.65883 162.000
85.67877 146.000
85.69872 151.000
85.71867 148.000
85.73861 153.000
85.75856 155.000
85.77851 155.000
85.79845 157.000
85.81840 147.000
85.83835 144.000
85.85830 141.000
85.87824 127.000
85.89819 178.000
85.91814 178.000
85.93808 163.000
85.95803 155.000
85.97798 138.000
85.99792 162.000
86.01787 154.000
86.03782 167.000
86.05777 140.000
86.07771 145.000
86.09766 155.000
86.11761 148.000
86.13755 144.000
86.15750 155.000
86.17745 143.000
86.19739 128.000
86.21734 145.000
86.23729 179.000
86.25723 141.000
86.27718 150.000
86.29713 161.000
86.31708 162.000
86.33702 155.000
86.35697 158.000
86.37692 139.000
86.39686 150.000
86.41681 137.000
86.43676 144.000
86.45670 155.000
86.47665 140.000
86.49660 150.000
86.51655 142.000
86.53649 139.000
86.55644 155.000
86.57639 119.000
86.59633 140.000
86.61628 160.000
86.63623 143.000
86.65617 149.000
86.67612 169.000
86.69607 152.000
86.71602 172.000
86.73596 126.000
86.75591 163.000
86.77586 147.000
86.79580 170.000
86.81575 146.000
86.83570 134.000
86.85564 147.000
86.87559 141.000
86.89554 142.000
86.91548 146.000
86.93543 134.000
86.95538 143.000
86.97533 160.000
86.99527 169.000
87.01522 146.000
87.03517 179.000
87.05511 158.000
87.07506 156.000
87.09501 149.000
87.11495 148.000
87.13490 172.000
87.15485 168.000
87.17480 172.000
87.19474 158.000
87.21469 157.000
87.23464 188.000
87.25458 167.000
87.27453 152.000
87.29448 198.000
87.31442 180.000
87.33437 176.000
87.35432 169.000
87.37426 193.000
87.39421 177.000
87.41416 175.000
87.43411 173.000
87.45405 223.000
87.47400 166.000
87.49395 187.000
87.51389 180.000
87.53384 178.000
87.55379 182.000
87.57373 198.000
87.59368 181.000
87.61363 182.000
87.63358 219.000
87.65352 190.000
87.67347 160.000
87.69342 169.000
87.71336 172.000
87.73331 182.000
87.75326 158.000
87.77320 166.000
87.79315 143.000
87.81310 158.000
87.83304 148.000
87.85299 160.000
87.87294 171.000
87.89289 177.000
87.91283 151.000
87.93278 151.000
87.95273 132.000
87.97267 154.000
87.99262 161.000
88.01257 156.000
88.03251 174.000
88.05246 171.000
88.07241 142.000
88.09236 158.000
88.11230 139.000
88.13225 153.000
88.15220 156.000
88.17214 160.000
88.19209 145.000
88.21204 175.000
88.23198 157.000
88.25193 157.000
88.27188 161.000
88.29183 136.000
88.31177 169.000
88.33172 165.000
88.35167 148.000
88.37161 160.000
88.39156 145.000
88.41151 137.000
88.43145 155.000
88.45140 147.000
88.47135 148.000
88.49129 157.000
88.51124 135.000
88.53119 153.000
88.55114 138.000
88.57108 145.000
88.59103 123.000
88.61098 144.000
88.63092 154.000
88.65087 142.000
88.67082 129.000
88.69076 150.000
88.71071 152.000
88.73066 147.000
88.75061 159.000
88.77055 155.000
88.79050 139.000
88.81045 148.000
88.83039 162.000
88.85034 153.000
88.87029 172.000
88.89023 148.000
88.91018 169.000
88.93013 135.000
88.95007 145.000
88.97002 151.000
88.98997 162.000
89.00992 149.000
89.02986 128.000
89.04981 159.000
89.06976 130.000
89.08970 130.000
89.10965 140.000
89.12960 166.000
89.14954 177.000
89.16949 176.000
89.18944 142.000
89.20939 160.000
89.22933 148.000
89.24928 131.000
89.26923 170.000
89.28917 135.000
89.30912 147.000
89.32907 170.000
89.34901 146.000
89.36896 159.000
89.38891 138.000
89.40885 147.000
89.42880 154.000
89.44875 158.000
89.46870 140.000
89.48864 160.000
89.50859 155.000
89.52854 170.000
89.54848 155.000
89.56843 140.000
89.58838 145.000
89.60832 140.000
89.62827 139.000
89.64822 133.000
89.66817 199.000
89.68811 172.000
89.70806 143.000
89.72801 136.000
89.74795 147.000
89.76790 136.000
89.78785 131.000
89.80779 171.000
89.82774 139.000
89.84769 145.000
89.86764 152.000
89.88758 130.000
89.90753 156.000
89.92748 141.000
89.94742 167.000
89.96737 154.000
89.98732 153.000
90.00726 152.000
