10.00000 149.000
10.01995 143.000
10.03989 147.000
10.05984 126.000
10.07979 127.000
10.09973 151.000
10.11968 123.000
10.13963 135.000
10.15958 111.000
10.17952 153.000
10.19947 156.000
10.21942 151.000
10.23936 129.000
10.25931 129.000
10.27926 143.000
10.29920 125.000
10.31915 136.000
10.33910 148.000
10.35905 110.000
10.37899 150.000
10.39894 132.000
10.41889 129.000
10.43883 126.000
10.45878 115.000
10.47873 121.000
10.49867 131.000
10.51862 156.000
10.53857 123.000
10.55851 133.000
10.57846 138.000
10.59841 128.000
10.61836 125.000
10.63830 132.000
10.65825 148.000
10.67820 140.000
10.69814 131.000
10.71809 148.000
10.73804 125.000
10.75798 150.000
10.77793 141.000
10.79788 135.000
10.81783 118.000
10.83777 107.000
10.85772 129.000
10.87767 122.000
10.89761 122.000
10.91756 129.000
10.93751 147.000
10.95745 142.000
10.97740 139.000
10.99735 139.000
11.01730 127.000
11.03724 136.000
11.05719 137.000
11.07714 138.000
11.09708 146.000
11.11703 138.000
11.13698 118.000
11.15692 152.000
11.17687 138.000
11.19682 135.000
11.21676 125.000
11.23671 121.000
11.25666 148.000
11.27661 139.000
11.29655 133.000
11.31650 132.000
11.33645 128.000
11.35639 155.000
11.37634 177.000
11.39629 142.000
11.41623 123.000
11.43618 126.000
11.45613 135.000
11.47608 126.000
11.49602 141.000
11.51597 131.000
11.53592 143.000
11.55586 151.000
11.57581 138.000
11.59576 145.000
11.61570 112.000
11.63565 161.000
11.65560 141.000
11.67554 118.000
11.69549 143.000
11.71544 124.000
11.73539 144.000
11.75533 142.000
11.77528 142.000
11.79523 145.000
11.81517 134.000
11.83512 134.000
11.85507 151.000
11.87501 144.000
11.89496 119.000
11.91491 125.000
11.93486 132.000
11.95480 140.000
11.97475 111.000
11.99470 126.000
12.01464 124.000
12.03459 134.000
12.05454 149.000
12.07448 108.000
12.09443 119.000
12.11438 147.000
12.13432 133.000
12.15427 125.000
12.17422 123.000
12.19417 133.000
12.21411 115.000
12.23406 154.000
12.25401 132.000
12.27395 135.000
12.29390 135.000
12.31385 127.000
12.33379 129.000
12.35374 131.000
12.37369 132.000
12.39364 101.000
12.41358 123.000
12.43353 130.000
12.45348 121.000
12.47342 126.000
12.49337 137.000
12.51332 140.000
12.53326 148.000
12.55321 122.000
12.57316 143.000
12.59311 116.000
12.61305 137.000
12.63300 157.000
12.65295 142.000
12.67289 130.000
12.69284 113.000
12.71279 136.000
12.73273 134.000
12.75268 122.000
12.77263 116.000
12.79257 128.000
12.81252 138.000
12.83247 136.000
12.85242 127.000
12.87236 125.000
12.89231 129.000
12.91226 144.000
12.93220 123.000
12.95215 134.000
12.97210 147.000
12.99204 128.000
13.01199 119.000
13.03194 140.000
13.05189 132.000
13.07183 132.000
13.09178 131.000
13.11173 133.000
13.13167 136.000
13.15162 146.000
13.17157 121.000
13.19151 129.000
13.21146 139.000
13.23141 130.000
13.25135 127.000
13.27130 149.000
13.29125 147.000
13.31120 131.000
13.33114 134.000
13.35109 148.000
13.37104 122.000
13.39098 160.000
13.41093 132.000
13.43088 133.000
13.45082 135.000
13.47077 135.000
13.49072 133.000
13.51067 123.000
13.53061 145.000
13.55056 129.000
13.57051 129.000
13.59045 125.000
13.61040 143.000
13.63035 144.000
13.65029 166.000
13.67024 115.000
13.69019 142.000
13.71013 114.000
13.73008 120.000
13.75003 125.000
13.76998 121.000
13.78992 159.000
13.80987 131.000
13.82982 136.000
13.84976 144.000
13.86971 122.000
13.88966 153.000
13.90960 133.000
13.92955 116.000
13.94950 125.000
13.96945 132.000
13.98939 129.000
14.00934 140.000
14.02929 140.000
14.04923 131.000
14.06918 136.000
14.08913 125.000
14.10907 123.000
14.12902 144.000
14.14897 128.000
14.16892 145.000
14.18886 128.000
14.20881 119.000
14.22876 136.000
14.24870 136.000
14.26865 136.000
14.28860 148.000
14.30854 155.000
14.32849 134.000
14.34844 115.000
14.36838 133.000
14.38833 129.000
14.40828 136.000
14.42823 130.000
14.44817 149.000
14.46812 137.000
14.48807 137.000
14.50801 142.000
14.52796 131.000
14.54791 134.000
14.56785 130.000
14.58780 146.000
14.60775 126.000
14.62770 139.000
14.64764 112.000
14.66759 148.000
14.68754 119.000
14.70748 145.000
14.72743 123.000
14.74738 143.000
14.76732 130.000
14.78727 128.000
14.80722 138.000
14.82716 131.000
14.84711 147.000
14.86706 139.000
14.88701 136.000
14.90695 134.000
14.92690 129.000
14.94685 140.000
14.96679 130.000
14.98674 137.000
15.00669 146.000
15.02663 134.000
15.04658 125.000
15.06653 136.000
15.08648 127.000
15.10642 124.000
15.12637 154.000
15.14632 162.000
15.16626 145.000
15.18621 147.000
15.20616 148.000
15.22610 147.000
15.24605 143.000
15.26600 160.000
15.28594 152.000
15.30589 128.000
15.32584 150.000
15.34579 142.000
15.36573 176.000
15.38568 134.000
15.40563 168.000
15.42557 162.000
15.44552 148.000
15.46547 163.000
15.48541 158.000
15.50536 186.000
15.52531 163.000
15.54526 170.000
15.56520 163.000
15.58515 202.000
15.60510 190.000
15.62504 193.000
15.64499 221.000
15.66494 248.000
15.68488 265.000
15.70483 336.000
15.72478 447.000
15.74472 575.000
15.76467 746.000
15.78462 856.000
15.80457 1030.000
15.82451 1091.000
15.84446 1292.000
15.86441 1275.000
15.88435 1053.000
15.90430 795.000
15.92425 574.000
15.94419 395.000
15.96414 322.000
15.98409 357.000
16.00404 347.000
16.02398 389.000
16.04393 467.000
16.06388 538.000
16.08382 578.000
16.10377 664.000
16.12372 629.000
16.14366 612.000
16.16361 498.000
16.18356 403.000
16.20351 335.000
16.22345 284.000
16.24340 209.000
16.26335 187.000
16.28329 177.000
16.30324 154.000
16.32319 167.000
16.34313 161.000
16.36308 148.000
16.38303 140.000
16.40297 179.000
16.42292 151.000
16.44287 162.000
16.46282 160.000
16.48276 159.000
16.50271 140.000
16.52266 164.000
16.54260 154.000
16.56255 141.000
16.58250 143.000
16.60244 150.000
16.62239 144.000
16.64234 155.000
16.66229 134.000
16.68223 124.000
16.70218 140.000
16.72213 131.000
16.74207 145.000
16.76202 149.000
16.78197 157.000
16.80191 145.000
16.82186 135.000
16.84181 150.000
16.86175 132.000
16.88170 136.000
16.90165 129.000
16.92160 153.000
16.94154 153.000
16.96149 134.000
16.98144 135.000
17.00138 141.000
17.02133 123.000
17.04128 122.000
17.06122 136.000
17.08117 134.000
17.10112 133.000
17.12107 143.000
17.14101 121.000
17.16096 112.000
17.18091 128.000
17.20085 134.000
17.22080 130.000
17.24075 146.000
17.26069 115.000
17.28064 133.000
17.30059 135.000
17.32053 143.000
17.34048 145.000
17.36043 127.000
17.38038 143.000
17.40032 159.000
17.42027 148.000
17.44022 129.000
17.46016 151.000
17.48011 133.000
17.50006 157.000
17.52000 128.000
17.53995 130.000
17.55990 148.000
17.57985 137.000
17.59979 138.000
17.61974 145.000
17.63969 135.000
17.65963 116.000
17.67958 128.000
17.69953 142.000
17.71947 143.000
17.73942 139.000
17.75937 111.000
17.77932 149.000
17.79926 162.000
17.81921 131.000
17.83916 155.000
17.85910 134.000
17.87905 158.000
17.89900 137.000
17.91894 161.000
17.93889 126.000
17.95884 134.000
17.97878 155.000
17.99873 152.000
18.01868 157.000
18.03863 150.000
18.05857 132.000
18.07852 135.000
18.09847 157.000
18.11841 132.000
18.13836 152.000
18.15831 170.000
18.17825 149.000
18.19820 161.000
18.21815 169.000
18.23810 156.000
18.25804 159.000
18.27799 200.000
18.29794 189.000
18.31788 269.000
18.33783 370.000
18.35778 436.000
18.37772 481.000
18.39767 470.000
18.41762 376.000
18.43756 350.000
18.45751 237.000
18.47746 227.000
18.49741 161.000
18.51735 166.000
18.53730 175.000
18.55725 131.000
18.57719 150.000
18.59714 142.000
18.61709 141.000
18.63703 139.000
18.65698 140.000
18.67693 136.000
18.69688 161.000
18.71682 129.000
18.73677 124.000
18.75672 133.000
18.77666 143.000
18.79661 151.000
18.81656 131.000
18.83650 156.000
18.85645 136.000
18.87640 122.000
18.89634 129.000
18.91629 132.000
18.93624 138.000
18.95619 131.000
18.97613 129.000
18.99608 122.000
19.01603 148.000
19.03597 146.000
19.05592 177.000
19.07587 129.000
19.09581 133.000
19.11576 141.000
19.13571 128.000
19.15566 158.000
19.17560 143.000
19.19555 154.000
19.21550 143.000
19.23544 159.000
19.25539 141.000
19.27534 111.000
19.29528 142.000
19.31523 124.000
19.33518 138.000
19.35513 119.000
19.37507 124.000
19.39502 134.000
19.41497 140.000
19.43491 125.000
19.45486 129.000
19.47481 126.000
19.49475 112.000
19.51470 135.000
19.53465 121.000
19.55459 117.000
19.57454 134.000
19.59449 135.000
19.61444 136.000
19.63438 143.000
19.65433 146.000
19.67428 165.000
19.69422 137.000
19.71417 120.000
19.73412 143.000
19.75406 153.000
19.77401 126.000
19.79396 141.000
19.81391 131.000
19.83385 149.000
19.85380 150.000
19.87375 132.000
19.89369 147.000
19.91364 137.000
19.93359 144.000
19.95353 145.000
19.97348 167.000
19.99343 145.000
20.01337 162.000
20.03332 173.000
20.05327 136.000
20.07322 143.000
20.09316 133.000
20.11311 143.000
20.13306 139.000
20.15300 140.000
20.17295 145.000
20.19290 154.000
20.21284 129.000
20.23279 124.000
20.25274 159.000
20.27269 129.000
20.29263 149.000
20.31258 162.000
20.33253 149.000
20.35247 124.000
20.37242 157.000
20.39237 122.000
20.41231 148.000
20.43226 143.000
20.45221 129.000
20.47215 137.000
20.49210 120.000
20.51205 138.000
20.53200 117.000
20.55194 144.000
20.57189 142.000
20.59184 135.000
20.61178 117.000
20.63173 155.000
20.65168 150.000
20.67162 116.000
20.69157 134.000
20.71152 141.000
20.73147 144.000
20.75141 158.000
20.77136 140.000
20.79131 138.000
20.81125 135.000
20.83120 127.000
20.85115 131.000
20.87109 174.000
20.89104 156.000
20.91099 133.000
20.93094 135.000
20.95088 152.000
20.97083 128.000
20.99078 159.000
21.01072 153.000
21.03067 161.000
21.05062 165.000
21.07056 178.000
21.09051 150.000
21.11046 178.000
21.13040 180.000
21.15035 150.000
21.17030 165.000
21.19025 146.000
21.21019 156.000
21.23014 167.000
21.25009 149.000
21.27003 148.000
21.28998 155.000
21.30993 137.000
21.32987 134.000
21.34982 146.000
21.36977 142.000
21.38972 150.000
21.40966 121.000
21.42961 159.000
21.44956 126.000
21.46950 140.000
21.48945 148.000
21.50940 149.000
21.52934 140.000
21.54929 154.000
21.56924 151.000
21.58918 123.000
21.60913 126.000
21.62908 125.000
21.64903 167.000
21.66897 156.000
21.68892 142.000
21.70887 132.000
21.72881 150.000
21.74876 126.000
21.76871 137.000
21.78865 131.000
21.80860 131.000
21.82855 152.000
21.84850 138.000
21.86844 126.000
21.88839 152.000
21.90834 132.000
21.92828 136.000
21.94823 155.000
21.96818 142.000
21.98812 131.000
22.00807 142.000
22.02802 133.000
22.04796 160.000
22.06791 138.000
22.08786 131.000
22.10781 155.000
22.12775 141.000
22.14770 134.000
22.16765 153.000
22.18759 136.000
22.20754 139.000
22.22749 131.000
22.24743 148.000
22.26738 150.000
22.28733 149.000
22.30728 139.000
22.32722 142.000
22.34717 145.000
22.36712 165.000
22.38706 155.000
22.40701 152.000
22.42696 150.000
22.44690 140.000
22.46685 148.000
22.48680 153.000
22.50675 147.000
22.52669 150.000
22.54664 139.000
22.56659 148.000
22.58653 167.000
22.60648 124.000
22.62643 135.000
22.64637 143.000
22.66632 152.000
22.68627 151.000
22.70621 150.000
22.72616 133.000
22.74611 148.000
22.76606 144.000
22.78600 133.000
22.80595 143.000
22.82590 141.000
22.84584 138.000
22.86579 117.000
22.88574 147.000
22.90568 176.000
22.92563 135.000
22.94558 151.000
22.96553 145.000
22.98547 135.000
23.00542 152.000
23.02537 148.000
23.04531 150.000
23.06526 144.000
23.08521 155.000
23.10515 134.000
23.12510 154.000
23.14505 148.000
23.16499 130.000
23.18494 146.000
23.20489 139.000
23.22484 152.000
23.24478 154.000
23.26473 139.000
23.28468 139.000
23.30462 122.000
23.32457 135.000
23.34452 122.000
23.36446 151.000
23.38441 126.000
23.40436 148.000
23.42431 162.000
23.44425 140.000
23.46420 136.000
23.48415 146.000
23.50409 154.000
23.52404 146.000
23.54399 145.000
23.56393 176.000
23.58388 136.000
23.60383 137.000
23.62377 140.000
23.64372 111.000
23.66367 131.000
23.68362 135.000
23.70356 161.000
23.72351 145.000
23.74346 152.000
23.76340 144.000
23.78335 131.000
23.80330 146.000
23.82324 155.000
23.84319 139.000
23.86314 117.000
23.88309 159.000
23.90303 158.000
23.92298 146.000
23.94293 136.000
23.96287 157.000
23.98282 142.000
24.00277 133.000
24.02271 155.000
24.04266 139.000
24.06261 145.000
24.08256 155.000
24.10250 158.000
24.12245 133.000
24.14240 148.000
24.16234 147.000
24.18229 159.000
24.20224 163.000
24.22218 142.000
24.24213 150.000
24.26208 129.000
24.28202 145.000
24.30197 137.000
24.32192 136.000
24.34187 173.000
24.36181 149.000
24.38176 154.000
24.40171 137.000
24.42165 132.000
24.44160 155.000
24.46155 156.000
24.48149 160.000
24.50144 170.000
24.52139 144.000
24.54134 184.000
24.56128 166.000
24.58123 179.000
24.60118 142.000
24.62112 114.000
24.64107 141.000
24.66102 158.000
24.68096 142.000
24.70091 155.000
24.72086 163.000
24.74080 143.000
24.76075 132.000
24.78070 139.000
24.80065 129.000
24.82059 157.000
24.84054 164.000
24.86049 154.000
24.88043 170.000
24.90038 134.000
24.92033 146.000
24.94027 145.000
24.96022 134.000
24.98017 146.000
25.00012 161.000
25.02006 127.000
25.04001 159.000
25.05996 163.000
25.07990 159.000
25.09985 147.000
25.11980 120.000
25.13974 147.000
25.15969 164.000
25.17964 148.000
25.19958 144.000
25.21953 151.000
25.23948 171.000
25.25943 142.000
25.27937 177.000
25.29932 141.000
25.31927 155.000
25.33921 150.000
25.35916 151.000
25.37911 128.000
25.39905 153.000
25.41900 140.000
25.43895 148.000
25.45890 155.000
25.47884 152.000
25.49879 154.000
25.51874 153.000
25.53868 136.000
25.55863 174.000
25.57858 155.000
25.59852 158.000
25.61847 157.000
25.63842 160.000
25.65837 161.000
25.67831 152.000
25.69826 131.000
25.71821 164.000
25.73815 157.000
25.75810 172.000
25.77805 160.000
25.79799 150.000
25.81794 161.000
25.83789 147.000
25.85783 151.000
25.87778 157.000
25.89773 154.000
25.91768 145.000
25.93762 154.000
25.95757 172.000
25.97752 144.000
25.99746 147.000
26.01741 151.000
26.03736 133.000
26.05730 173.000
26.07725 182.000
26.09720 128.000
26.11715 129.000
26.13709 163.000
26.15704 162.000
26.17699 165.000
26.19693 170.000
26.21688 152.000
26.23683 159.000
26.25677 143.000
26.27672 158.000
26.29667 161.000
26.31661 131.000
26.33656 146.000
26.35651 160.000
26.37646 158.000
26.39640 181.000
26.41635 141.000
26.43630 160.000
26.45624 176.000
26.47619 169.000
26.49614 172.000
26.51608 165.000
26.53603 162.000
26.55598 149.000
26.57593 166.000
26.59587 166.000
26.61582 163.000
26.63577 159.000
26.65571 145.000
26.67566 185.000
26.69561 176.000
26.71555 159.000
26.73550 152.000
26.75545 159.000
26.77539 166.000
26.79534 170.000
26.81529 151.000
26.83524 151.000
26.85518 156.000
26.87513 133.000
26.89508 155.000
26.91502 185.000
26.93497 144.000
26.95492 170.000
26.97486 150.000
26.99481 173.000
27.01476 170.000
27.03471 139.000
27.05465 177.000
27.07460 150.000
27.09455 170.000
27.11449 166.000
27.13444 169.000
27.15439 170.000
27.17433 152.000
27.19428 169.000
27.21423 173.000
27.23417 180.000
27.25412 149.000
27.27407 172.000
27.29402 142.000
27.31396 163.000
27.33391 166.000
27.35386 163.000
27.37380 199.000
27.39375 161.000
27.41370 164.000
27.43364 159.000
27.45359 164.000
27.47354 175.000
27.49349 181.000
27.51343 156.000
27.53338 159.000
27.55333 130.000
27.57327 166.000
27.59322 184.000
27.61317 142.000
27.63311 165.000
27.65306 168.000
27.67301 157.000
27.69296 155.000
27.71290 157.000
27.73285 152.000
27.75280 165.000
27.77274 149.000
27.79269 146.000
27.81264 150.000
27.83258 163.000
27.85253 162.000
27.87248 169.000
27.89242 184.000
27.91237 163.000
27.93232 162.000
27.95227 155.000
27.97221 166.000
27.99216 146.000
28.01211 163.000
28.03205 180.000
28.05200 174.000
28.07195 168.000
28.09189 180.000
28.11184 162.000
28.13179 176.000
28.15174 162.000
28.17168 180.000
28.19163 139.000
28.21158 182.000
28.23152 190.000
28.25147 167.000
28.27142 167.000
28.29136 150.000
28.31131 160.000
28.33126 158.000
28.35120 153.000
28.37115 150.000
28.39110 181.000
28.41105 149.000
28.43099 158.000
28.45094 196.000
28.47089 174.000
28.49083 156.000
28.51078 174.000
28.53073 146.000
28.55067 168.000
28.57062 169.000
28.59057 170.000
28.61052 148.000
28.63046 165.000
28.65041 187.000
28.67036 170.000
28.69030 135.000
28.71025 182.000
28.73020 179.000
28.75014 188.000
28.77009 162.000
28.79004 161.000
28.80998 160.000
28.82993 170.000
28.84988 188.000
28.86983 147.000
28.88977 173.000
28.90972 155.000
28.92967 163.000
28.94961 163.000
28.96956 166.000
28.98951 167.000
29.00945 147.000
29.02940 176.000
29.04935 152.000
29.06930 182.000
29.08924 168.000
29.10919 190.000
29.12914 168.000
29.14908 209.000
29.16903 174.000
29.18898 174.000
29.20892 168.000
29.22887 191.000
29.24882 185.000
29.26877 192.000
29.28871 179.000
29.30866 172.000
29.32861 183.000
29.34855 172.000
29.36850 204.000
29.38845 190.000
29.40839 177.000
29.42834 183.000
29.44829 178.000
29.46823 188.000
29.48818 186.000
29.50813 178.000
29.52808 191.000
29.54802 193.000
29.56797 182.000
29.58792 166.000
29.60786 185.000
29.62781 186.000
29.64776 162.000
29.66770 193.000
29.68765 190.000
29.70760 172.000
29.72755 179.000
29.74749 197.000
29.76744 191.000
29.78739 176.000
29.80733 191.000
29.82728 199.000
29.84723 183.000
29.86717 165.000
29.88712 189.000
29.90707 183.000
29.92701 195.000
29.94696 171.000
29.96691 213.000
29.98686 213.000
30.00680 214.000
30.02675 196.000
30.04670 218.000
30.06664 235.000
30.08659 223.000
30.10654 255.000
30.12648 281.000
30.14643 299.000
30.16638 386.000
30.18633 503.000
30.20627 631.000
30.22622 746.000
30.24617 829.000
30.26611 911.000
30.28606 809.000
30.30601 688.000
30.32595 644.000
30.34590 540.000
30.36585 418.000
30.38579 330.000
30.40574 321.000
30.42569 253.000
30.44564 220.000
30.46558 208.000
30.48553 205.000
30.50548 195.000
30.52542 203.000
30.54537 198.000
30.56532 175.000
30.58526 197.000
30.60521 196.000
30.62516 178.000
30.64511 172.000
30.66505 174.000
30.68500 143.000
30.70495 166.000
30.72489 183.000
30.74484 184.000
30.76479 170.000
30.78473 158.000
30.80468 183.000
30.82463 173.000
30.84458 176.000
30.86452 181.000
30.88447 170.000
30.90442 156.000
30.92436 173.000
30.94431 188.000
30.96426 162.000
30.98420 196.000
31.00415 178.000
31.02410 200.000
31.04404 173.000
31.06399 173.000
31.08394 150.000
31.10389 181.000
31.12383 174.000
31.14378 154.000
31.16373 186.000
31.18367 154.000
31.20362 175.000
31.22357 156.000
31.24351 179.000
31.26346 168.000
31.28341 187.000
31.30336 161.000
31.32330 159.000
31.34325 174.000
31.36320 174.000
31.38314 161.000
31.40309 166.000
31.42304 188.000
31.44298 182.000
31.46293 182.000
31.48288 155.000
31.50282 167.000
31.52277 172.000
31.54272 163.000
31.56267 167.000
31.58261 170.000
31.60256 189.000
31.62251 167.000
31.64245 160.000
31.66240 156.000
31.68235 183.000
31.70229 193.000
31.72224 174.000
31.74219 200.000
31.76214 165.000
31.78208 197.000
31.80203 189.000
31.82198 175.000
31.84192 178.000
31.86187 206.000
31.88182 215.000
31.90176 201.000
31.92171 243.000
31.94166 224.000
31.96160 219.000
31.98155 216.000
32.00150 268.000
32.02145 270.000
32.04139 239.000
32.06134 295.000
32.08129 233.000
32.10123 252.000
32.12118 205.000
32.14113 235.000
32.16107 202.000
32.18102 216.000
32.20097 201.000
32.22092 204.000
32.24086 169.000
32.26081 177.000
32.28076 172.000
32.30070 187.000
32.32065 167.000
32.34060 174.000
32.36054 184.000
32.38049 180.000
32.40044 165.000
32.42039 184.000
32.44033 192.000
32.46028 191.000
32.48023 191.000
32.50017 182.000
32.52012 183.000
32.54007 211.000
32.56001 203.000
32.57996 198.000
32.59991 197.000
32.61985 223.000
32.63980 203.000
32.65975 180.000
32.67970 186.000
32.69964 208.000
32.71959 193.000
32.73954 186.000
32.75948 148.000
32.77943 168.000
32.79938 190.000
32.81932 177.000
32.83927 172.000
32.85922 174.000
32.87917 166.000
32.89911 179.000
32.91906 186.000
32.93901 166.000
32.95895 182.000
32.97890 165.000
32.99885 178.000
33.01879 157.000
33.03874 177.000
33.05869 169.000
33.07863 181.000
33.09858 193.000
33.11853 136.000
33.13848 136.000
33.15842 170.000
33.17837 166.000
33.19832 141.000
33.21826 160.000
33.23821 185.000
33.25816 180.000
33.27810 185.000
33.29805 187.000
33.31800 166.000
33.33795 177.000
33.35789 146.000
33.37784 160.000
33.39779 157.000
33.41773 168.000
33.43768 132.000
33.45763 138.000
33.47757 188.000
33.49752 161.000
33.51747 161.000
33.53741 166.000
33.55736 158.000
33.57731 176.000
33.59726 165.000
33.61720 164.000
33.63715 176.000
33.65710 167.000
33.67704 147.000
33.69699 152.000
33.71694 165.000
33.73688 163.000
33.75683 178.000
33.77678 143.000
33.79673 166.000
33.81667 174.000
33.83662 148.000
33.85657 157.000
33.87651 172.000
33.89646 172.000
33.91641 169.000
33.93635 155.000
33.95630 179.000
33.97625 150.000
33.99620 179.000
34.01614 185.000
34.03609 177.000
34.05604 157.000
34.07598 152.000
34.09593 178.000
34.11588 164.000
34.13582 148.000
34.15577 180.000
34.17572 190.000
34.19566 179.000
34.21561 167.000
34.23556 175.000
34.25551 166.000
34.27545 170.000
34.29540 199.000
34.31535 170.000
34.33529 167.000
34.35524 167.000
34.37519 147.000
34.39513 186.000
34.41508 192.000
34.43503 160.000
34.45498 170.000
34.47492 166.000
34.49487 161.000
34.51482 169.000
34.53476 165.000
34.55471 193.000
34.57466 183.000
34.59460 172.000
34.61455 185.000
34.63450 141.000
34.65444 162.000
34.67439 168.000
34.69434 212.000
34.71429 162.000
34.73423 207.000
34.75418 168.000
34.77413 181.000
34.79407 182.000
34.81402 193.000
34.83397 197.000
34.85391 179.000
34.87386 180.000
34.89381 163.000
34.91376 205.000
34.93370 192.000
34.95365 199.000
34.97360 191.000
34.99354 211.000
35.01349 226.000
35.03344 192.000
35.05338 199.000
35.07333 205.000
35.09328 225.000
35.11322 214.000
35.13317 211.000
35.15312 237.000
35.17307 235.000
35.19301 232.000
35.21296 219.000
35.23291 229.000
35.25285 234.000
35.27280 252.000
35.29275 258.000
35.31269 268.000
35.33264 229.000
35.35259 288.000
35.37254 312.000
35.39248 359.000
35.41243 320.000
35.43238 377.000
35.45232 414.000
35.47227 382.000
35.49222 540.000
35.51216 677.000
35.53211 799.000
35.55206 1055.000
35.57201 1354.000
35.59195 1706.000
35.61190 2080.000
35.63185 2191.000
35.65179 2323.000
35.67174 2190.000
35.69169 2122.000
35.71163 1809.000
35.73158 1601.000
35.75153 1376.000
35.77147 1155.000
35.79142 833.000
35.81137 723.000
35.83132 578.000
35.85126 451.000
35.87121 390.000
35.89116 395.000
35.91110 369.000
35.93105 312.000
35.95100 259.000
35.97094 254.000
35.99089 262.000
36.01084 226.000
36.03079 203.000
36.05073 238.000
36.07068 188.000
36.09063 227.000
36.11057 201.000
36.13052 221.000
36.15047 200.000
36.17041 214.000
36.19036 187.000
36.21031 220.000
36.23025 178.000
36.25020 241.000
36.27015 208.000
36.29010 197.000
36.31004 192.000
36.32999 213.000
36.34994 185.000
36.36988 213.000
36.38983 200.000
36.40978 186.000
36.42972 207.000
36.44967 217.000
36.46962 202.000
36.48957 219.000
36.50951 214.000
36.52946 206.000
36.54941 242.000
36.56935 221.000
36.58930 221.000
36.60925 220.000
36.62919 218.000
36.64914 231.000
36.66909 239.000
36.68903 231.000
36.70898 222.000
36.72893 251.000
36.74888 239.000
36.76882 263.000
36.78877 274.000
36.80872 287.000
36.82866 272.000
36.84861 298.000
36.86856 291.000
36.88850 328.000
36.90845 332.000
36.92840 342.000
36.94835 372.000
36.96829 437.000
36.98824 418.000
37.00819 472.000
37.02813 494.000
37.04808 552.000
37.06803 670.000
37.08797 794.000
37.10792 1019.000
37.12787 1365.000
37.14781 1886.000
37.16776 2519.000
37.18771 3023.000
37.20766 2899.000
37.22760 2874.000
37.24755 2563.000
37.26750 2329.000
37.28744 2202.000
37.30739 1849.000
37.32734 1475.000
37.34728 1073.000
37.36723 848.000
37.38718 602.000
37.40713 489.000
37.42707 367.000
37.44702 329.000
37.46697 289.000
37.48691 268.000
37.50686 258.000
37.52681 232.000
37.54675 212.000
37.56670 235.000
37.58665 201.000
37.60660 207.000
37.62654 184.000
37.64649 181.000
37.66644 184.000
37.68638 186.000
37.70633 190.000
37.72628 172.000
37.74622 188.000
37.76617 213.000
37.78612 211.000
37.80606 166.000
37.82601 176.000
37.84596 177.000
37.86591 169.000
37.88585 145.000
37.90580 197.000
37.92575 185.000
37.94569 157.000
37.96564 171.000
37.98559 168.000
38.00553 179.000
38.02548 189.000
38.04543 153.000
38.06538 170.000
38.08532 171.000
38.10527 179.000
38.12522 153.000
38.14516 169.000
38.16511 154.000
38.18506 183.000
38.20500 166.000
38.22495 160.000
38.24490 184.000
38.26484 163.000
38.28479 162.000
38.30474 172.000
38.32469 169.000
38.34463 164.000
38.36458 166.000
38.38453 171.000
38.40447 155.000
38.42442 168.000
38.44437 170.000
38.46431 174.000
38.48426 168.000
38.50421 164.000
38.52416 172.000
38.54410 176.000
38.56405 187.000
38.58400 170.000
38.60394 184.000
38.62389 151.000
38.64384 149.000
38.66378 164.000
38.68373 194.000
38.70368 167.000
38.72362 172.000
38.74357 185.000
38.76352 159.000
38.78347 168.000
38.80341 166.000
38.82336 172.000
38.84331 170.000
38.86325 180.000
38.88320 186.000
38.90315 209.000
38.92309 184.000
38.94304 164.000
38.96299 191.000
38.98294 212.000
39.00288 208.000
39.02283 184.000
39.04278 192.000
39.06272 232.000
39.08267 237.000
39.10262 262.000
39.12256 273.000
39.14251 320.000
39.16246 336.000
39.18241 388.000
39.20235 392.000
39.22230 348.000
39.24225 306.000
39.26219 383.000
39.28214 315.000
39.30209 351.000
39.32203 316.000
39.34198 356.000
39.36193 290.000
39.38187 312.000
39.40182 314.000
39.42177 283.000
39.44172 290.000
39.46166 262.000
39.48161 266.000
39.50156 222.000
39.52150 245.000
39.54145 229.000
39.56140 221.000
39.58134 187.000
39.60129 178.000
39.62124 191.000
39.64119 174.000
39.66113 161.000
39.68108 158.000
39.70103 179.000
39.72097 168.000
39.74092 162.000
39.76087 171.000
39.78081 166.000
39.80076 150.000
39.82071 143.000
39.84065 157.000
39.86060 162.000
39.88055 149.000
39.90050 161.000
39.92044 145.000
39.94039 144.000
39.96034 155.000
39.98028 160.000
40.00023 175.000
40.02018 164.000
40.04012 152.000
40.06007 159.000
40.08002 151.000
40.09997 153.000
40.11991 167.000
40.13986 170.000
40.15981 155.000
40.17975 151.000
40.19970 138.000
40.21965 159.000
40.23959 143.000
40.25954 161.000
40.27949 185.000
40.29943 148.000
40.31938 161.000
40.33933 161.000
40.35928 160.000
40.37922 154.000
40.39917 160.000
40.41912 145.000
40.43906 154.000
40.45901 158.000
40.47896 153.000
40.49890 149.000
40.51885 164.000
40.53880 148.000
40.55875 149.000
40.57869 132.000
40.59864 163.000
40.61859 153.000
40.63853 169.000
40.65848 150.000
40.67843 181.000
40.69837 160.000
40.71832 171.000
40.73827 161.000
40.75822 156.000
40.77816 146.000
40.79811 144.000
40.81806 150.000
40.83800 187.000
40.85795 167.000
40.87790 144.000
40.89784 174.000
40.91779 170.000
40.93774 172.000
40.95768 179.000
40.97763 175.000
40.99758 161.000
41.01753 152.000
41.03747 145.000
41.05742 146.000
41.07737 162.000
41.09731 174.000
41.11726 149.000
41.13721 172.000
41.15715 149.000
41.17710 166.000
41.19705 194.000
41.21700 161.000
41.23694 172.000
41.25689 164.000
41.27684 139.000
41.29678 177.000
41.31673 186.000
41.33668 153.000
41.35662 165.000
41.37657 175.000
41.39652 168.000
41.41646 182.000
41.43641 205.000
41.45636 187.000
41.47631 204.000
41.49625 169.000
41.51620 191.000
41.53615 205.000
41.55609 213.000
41.57604 221.000
41.59599 256.000
41.61593 239.000
41.63588 259.000
41.65583 271.000
41.67578 359.000
41.69572 403.000
41.71567 462.000
41.73562 479.000
41.75556 428.000
41.77551 429.000
41.79546 372.000
41.81540 376.000
41.83535 360.000
41.85530 361.000
41.87524 282.000
41.89519 272.000
41.91514 268.000
41.93509 245.000
41.95503 239.000
41.97498 200.000
41.99493 238.000
42.01487 222.000
42.03482 206.000
42.05477 208.000
42.07471 191.000
42.09466 192.000
42.11461 181.000
42.13456 190.000
42.15450 184.000
42.17445 178.000
42.19440 171.000
42.21434 186.000
42.23429 197.000
42.25424 182.000
42.27418 186.000
42.29413 175.000
42.31408 173.000
42.33403 198.000
42.35397 199.000
42.37392 200.000
42.39387 215.000
42.41381 211.000
42.43376 204.000
42.45371 213.000
42.47365 211.000
42.49360 182.000
42.51355 205.000
42.53349 233.000
42.55344 204.000
42.57339 264.000
42.59334 236.000
42.61328 227.000
42.63323 228.000
42.65318 218.000
42.67312 253.000
42.69307 265.000
42.71302 265.000
42.73296 256.000
42.75291 271.000
42.77286 286.000
42.79281 317.000
42.81275 313.000
42.83270 280.000
42.85265 341.000
42.87259 376.000
42.89254 319.000
42.91249 360.000
42.93243 411.000
42.95238 430.000
42.97233 440.000
42.99227 482.000
43.01222 542.000
43.03217 571.000
43.05212 663.000
43.07206 709.000
43.09201 770.000
43.11196 1028.000
43.13190 1382.000
43.15185 1979.000
43.17180 2881.000
43.19174 3877.000
43.21169 4527.000
43.23164 4853.000
43.25159 4830.000
43.27153 4320.000
43.29148 3690.000
43.31143 3336.000
43.33137 3210.000
43.35132 3114.000
43.37127 2796.000
43.39121 2076.000
43.41116 1415.000
43.43111 1029.000
43.45105 888.000
43.47100 692.000
43.49095 611.000
43.51090 539.000
43.53084 445.000
43.55079 370.000
43.57074 364.000
43.59068 364.000
43.61063 304.000
43.63058 267.000
43.65052 255.000
43.67047 246.000
43.69042 249.000
43.71037 232.000
43.73031 219.000
43.75026 194.000
43.77021 232.000
43.79015 210.000
43.81010 195.000
43.83005 199.000
43.84999 194.000
43.86994 183.000
43.88989 168.000
43.90984 191.000
43.92978 197.000
43.94973 198.000
43.96968 177.000
43.98962 181.000
44.00957 176.000
44.02952 157.000
44.04946 208.000
44.06941 179.000
44.08936 182.000
44.10930 173.000
44.12925 172.000
44.14920 186.000
44.16915 194.000
44.18909 178.000
44.20904 165.000
44.22899 157.000
44.24893 145.000
44.26888 130.000
44.28883 172.000
44.30877 173.000
44.32872 190.000
44.34867 155.000
44.36862 149.000
44.38856 187.000
44.40851 190.000
44.42846 171.000
44.44840 185.000
44.46835 180.000
44.48830 155.000
44.50824 168.000
44.52819 174.000
44.54814 155.000
44.56808 198.000
44.58803 154.000
44.60798 165.000
44.62793 164.000
44.64787 162.000
44.66782 176.000
44.68777 176.000
44.70771 156.000
44.72766 163.000
44.74761 167.000
44.76755 149.000
44.78750 129.000
44.80745 169.000
44.82740 156.000
44.84734 137.000
44.86729 161.000
44.88724 185.000
44.90718 167.000
44.92713 171.000
44.94708 148.000
44.96702 163.000
44.98697 168.000
45.00692 166.000
45.02686 159.000
45.04681 177.000
45.06676 168.000
45.08671 199.000
45.10665 163.000
45.12660 173.000
45.14655 181.000
45.16649 173.000
45.18644 144.000
45.20639 164.000
45.22633 160.000
45.24628 159.000
45.26623 162.000
45.28618 162.000
45.30612 173.000
45.32607 161.000
45.34602 162.000
45.36596 154.000
45.38591 148.000
45.40586 137.000
45.42580 156.000
45.44575 154.000
45.46570 160.000
45.48565 168.000
45.50559 151.000
45.52554 146.000
45.54549 153.000
45.56543 156.000
45.58538 154.000
45.60533 183.000
45.62527 151.000
45.64522 145.000
45.66517 152.000
45.68511 163.000
45.70506 147.000
45.72501 136.000
45.74496 150.000
45.76490 162.000
45.78485 163.000
45.80480 177.000
45.82474 155.000
45.84469 156.000
45.86464 145.000
45.88458 142.000
45.90453 143.000
45.92448 159.000
45.94443 133.000
45.96437 150.000
45.98432 137.000
46.00427 167.000
46.02421 139.000
46.04416 133.000
46.06411 132.000
46.08405 121.000
46.10400 145.000
46.12395 147.000
46.14389 164.000
46.16384 137.000
46.18379 151.000
46.20374 138.000
46.22368 147.000
46.24363 163.000
46.26358 143.000
46.28352 130.000
46.30347 149.000
46.32342 134.000
46.34336 161.000
46.36331 137.000
46.38326 151.000
46.40321 147.000
46.42315 163.000
46.44310 151.000
46.46305 149.000
46.48299 155.000
46.50294 157.000
46.52289 151.000
46.54283 145.000
46.56278 128.000
46.58273 138.000
46.60267 143.000
46.62262 143.000
46.64257 158.000
46.66252 134.000
46.68246 137.000
46.70241 157.000
46.72236 155.000
46.74230 141.000
46.76225 142.000
46.78220 149.000
46.80214 162.000
46.82209 153.000
46.84204 157.000
46.86199 152.000
46.88193 140.000
46.90188 145.000
46.92183 151.000
46.94177 162.000
46.96172 132.000
46.98167 125.000
47.00161 156.000
47.02156 156.000
47.04151 157.000
47.06146 147.000
47.08140 166.000
47.10135 144.000
47.12130 139.000
47.14124 164.000
47.16119 129.000
47.18114 162.000
47.20108 131.000
47.22103 138.000
47.24098 127.000
47.26092 116.000
47.28087 140.000
47.30082 158.000
47.32077 179.000
47.34071 147.000
47.36066 174.000
47.38061 149.000
47.40055 163.000
47.42050 131.000
47.44045 176.000
47.46039 155.000
47.48034 135.000
47.50029 179.000
47.52024 139.000
47.54018 119.000
47.56013 135.000
47.58008 147.000
47.60002 162.000
47.61997 150.000
47.63992 148.000
47.65986 161.000
47.67981 147.000
47.69976 144.000
47.71970 149.000
47.73965 159.000
47.75960 143.000
47.77955 134.000
47.79949 142.000
47.81944 139.000
47.83939 158.000
47.85933 168.000
47.87928 148.000
47.89923 143.000
47.91917 166.000
47.93912 160.000
47.95907 158.000
47.97902 141.000
47.99896 162.000
48.01891 143.000
48.03886 155.000
48.05880 154.000
48.07875 175.000
48.09870 141.000
48.11864 156.000
48.13859 155.000
48.15854 151.000
48.17848 188.000
48.19843 133.000
48.21838 146.000
48.23833 155.000
48.25827 187.000
48.27822 159.000
48.29817 152.000
48.31811 154.000
48.33806 161.000
48.35801 136.000
48.37795 173.000
48.39790 182.000
48.41785 182.000
48.43780 184.000
48.45774 205.000
48.47769 189.000
48.49764 181.000
48.51758 193.000
48.53753 212.000
48.55748 219.000
48.57742 219.000
48.59737 241.000
48.61732 269.000
48.63726 322.000
48.65721 322.000
48.67716 345.000
48.69711 327.000
48.71705 314.000
48.73700 382.000
48.75695 328.000
48.77689 346.000
48.79684 308.000
48.81679 300.000
48.83673 302.000
48.85668 305.000
48.87663 246.000
48.89658 258.000
48.91652 230.000
48.93647 210.000
48.95642 221.000
48.97636 170.000
48.99631 189.000
49.01626 179.000
49.03620 155.000
49.05615 164.000
49.07610 164.000
49.09605 128.000
49.11599 177.000
49.13594 153.000
49.15589 166.000
49.17583 160.000
49.19578 162.000
49.21573 150.000
49.23567 156.000
49.25562 138.000
49.27557 146.000
49.29551 141.000
49.31546 155.000
49.33541 169.000
49.35536 129.000
49.37530 161.000
49.39525 154.000
49.41520 139.000
49.43514 154.000
49.45509 158.000
49.47504 129.000
49.49498 127.000
49.51493 154.000
49.53488 140.000
49.55483 171.000
49.57477 159.000
49.59472 154.000
49.61467 147.000
49.63461 165.000
49.65456 149.000
49.67451 166.000
49.69445 136.000
49.71440 157.000
49.73435 154.000
49.75429 165.000
49.77424 152.000
49.79419 142.000
49.81414 163.000
49.83408 146.000
49.85403 168.000
49.87398 135.000
49.89392 172.000
49.91387 149.000
49.93382 151.000
49.95376 163.000
49.97371 147.000
49.99366 133.000
50.01361 145.000
50.03355 130.000
50.05350 138.000
50.07345 147.000
50.09339 159.000
50.11334 137.000
50.13329 136.000
50.15323 147.000
50.17318 147.000
50.19313 140.000
50.21307 139.000
50.23302 154.000
50.25297 164.000
50.27292 136.000
50.29286 141.000
50.31281 154.000
50.33276 148.000
50.35270 153.000
50.37265 135.000
50.39260 162.000
50.41254 129.000
50.43249 139.000
50.45244 155.000
50.47239 123.000
50.49233 138.000
50.51228 155.000
50.53223 149.000
50.55217 147.000
50.57212 170.000
50.59207 132.000
50.61201 143.000
50.63196 127.000
50.65191 151.000
50.67186 124.000
50.69180 147.000
50.71175 150.000
50.73170 169.000
50.75164 135.000
50.77159 151.000
50.79154 145.000
50.81148 135.000
50.83143 133.000
50.85138 154.000
50.87132 121.000
50.89127 145.000
50.91122 126.000
50.93117 153.000
50.95111 142.000
50.97106 140.000
50.99101 142.000
51.01095 137.000
51.03090 151.000
51.05085 145.000
51.07079 131.000
51.09074 161.000
51.11069 138.000
51.13064 144.000
51.15058 153.000
51.17053 166.000
51.19048 163.000
51.21042 155.000
51.23037 140.000
51.25032 149.000
51.27026 134.000
51.29021 156.000
51.31016 149.000
51.33010 140.000
51.35005 158.000
51.37000 157.000
51.38995 151.000
51.40989 172.000
51.42984 142.000
51.44979 128.000
51.46973 129.000
51.48968 155.000
51.50963 151.000
51.52957 154.000
51.54952 158.000
51.56947 153.000
51.58942 140.000
51.60936 146.000
51.62931 155.000
51.64926 171.000
51.66920 159.000
51.68915 146.000
51.70910 132.000
51.72904 148.000
51.74899 146.000
51.76894 142.000
51.78888 149.000
51.80883 147.000
51.82878 153.000
51.84873 138.000
51.86867 142.000
51.88862 142.000
51.90857 157.000
51.92851 143.000
51.94846 162.000
51.96841 129.000
51.98835 151.000
52.00830 144.000
52.02825 116.000
52.04820 141.000
52.06814 138.000
52.08809 157.000
52.10804 165.000
52.12798 161.000
52.14793 142.000
52.16788 169.000
52.18782 152.000
52.20777 143.000
52.22772 161.000
52.24767 165.000
52.26761 158.000
52.28756 143.000
52.30751 125.000
52.32745 128.000
52.34740 153.000
52.36735 144.000
52.38729 155.000
52.40724 157.000
52.42719 142.000
52.44713 147.000
52.46708 128.000
52.48703 143.000
52.50698 150.000
52.52692 136.000
52.54687 141.000
52.56682 163.000
52.58676 135.000
52.60671 149.000
52.62666 140.000
52.64660 157.000
52.66655 134.000
52.68650 157.000
52.70645 156.000
52.72639 169.000
52.74634 156.000
52.76629 138.000
52.78623 155.000
52.80618 151.000
52.82613 146.000
52.84607 154.000
52.86602 158.000
52.88597 183.000
52.90591 166.000
52.92586 178.000
52.94581 198.000
52.96576 192.000
52.98570 172.000
53.00565 184.000
53.02560 230.000
53.04554 174.000
53.06549 186.000
53.08544 190.000
53.10538 152.000
53.12533 185.000
53.14528 162.000
53.16523 180.000
53.18517 152.000
53.20512 155.000
53.22507 161.000
53.24501 174.000
53.26496 150.000
53.28491 180.000
53.30485 147.000
53.32480 148.000
53.34475 145.000
53.36469 159.000
53.38464 127.000
53.40459 159.000
53.42454 179.000
53.44448 170.000
53.46443 165.000
53.48438 183.000
53.50432 151.000
53.52427 176.000
53.54422 160.000
53.56416 182.000
53.58411 158.000
53.60406 173.000
53.62401 161.000
53.64395 188.000
53.66390 214.000
53.68385 234.000
53.70379 241.000
53.72374 246.000
53.74369 258.000
53.76363 279.000
53.78358 275.000
53.80353 255.000
53.82348 299.000
53.84342 263.000
53.86337 269.000
53.88332 233.000
53.90326 223.000
53.92321 207.000
53.94316 201.000
53.96310 198.000
53.98305 193.000
54.00300 180.000
54.02294 160.000
54.04289 172.000
54.06284 156.000
54.08279 144.000
54.10273 136.000
54.12268 153.000
54.14263 150.000
54.16257 168.000
54.18252 153.000
54.20247 152.000
54.22241 104.000
54.24236 151.000
54.26231 165.000
54.28226 154.000
54.30220 140.000
54.32215 154.000
54.34210 148.000
54.36204 157.000
54.38199 140.000
54.40194 145.000
54.42188 163.000
54.44183 164.000
54.46178 157.000
54.48172 140.000
54.50167 158.000
54.52162 147.000
54.54157 165.000
54.56151 156.000
54.58146 121.000
54.60141 136.000
54.62135 159.000
54.64130 142.000
54.66125 131.000
54.68119 148.000
54.70114 139.000
54.72109 132.000
54.74104 154.000
54.76098 151.000
54.78093 142.000
54.80088 146.000
54.82082 132.000
54.84077 147.000
54.86072 142.000
54.88066 143.000
54.90061 164.000
54.92056 151.000
54.94050 144.000
54.96045 134.000
54.98040 161.000
55.00035 124.000
55.02029 161.000
55.04024 139.000
55.06019 161.000
55.08013 126.000
55.10008 120.000
55.12003 150.000
55.13997 184.000
55.15992 153.000
55.17987 152.000
55.19982 136.000
55.21976 167.000
55.23971 146.000
55.25966 125.000
55.27960 147.000
55.29955 158.000
55.31950 154.000
55.33944 149.000
55.35939 147.000
55.37934 148.000
55.39929 142.000
55.41923 161.000
55.43918 141.000
55.45913 148.000
55.47907 152.000
55.49902 132.000
55.51897 157.000
55.53891 154.000
55.55886 124.000
55.57881 156.000
55.59875 150.000
55.61870 147.000
55.63865 127.000
55.65860 139.000
55.67854 163.000
55.69849 158.000
55.71844 139.000
55.73838 135.000
55.75833 131.000
55.77828 164.000
55.79822 142.000
55.81817 177.000
55.83812 151.000
55.85807 150.000
55.87801 139.000
55.89796 138.000
55.91791 157.000
55.93785 148.000
55.95780 123.000
55.97775 145.000
55.99769 139.000
56.01764 137.000
56.03759 114.000
56.05753 129.000
56.07748 146.000
56.09743 138.000
56.11738 162.000
56.13732 142.000
56.15727 162.000
56.17722 139.000
56.19716 148.000
56.21711 142.000
56.23706 139.000
56.25700 162.000
56.27695 168.000
56.29690 158.000
56.31685 134.000
56.33679 131.000
56.35674 148.000
56.37669 156.000
56.39663 136.000
56.41658 142.000
56.43653 147.000
56.45647 163.000
56.47642 162.000
56.49637 173.000
56.51631 134.000
56.53626 143.000
56.55621 163.000
56.57616 153.000
56.59610 148.000
56.61605 149.000
56.63600 135.000
56.65594 150.000
56.67589 155.000
56.69584 151.000
56.71578 134.000
56.73573 145.000
56.75568 152.000
56.77563 150.000
56.79557 172.000
56.81552 179.000
56.83547 170.000
56.85541 186.000
56.87536 156.000
56.89531 157.000
56.91525 156.000
56.93520 186.000
56.95515 181.000
56.97510 186.000
56.99504 190.000
57.01499 197.000
57.03494 190.000
57.05488 194.000
57.07483 219.000
57.09478 208.000
57.11472 235.000
57.13467 254.000
57.15462 290.000
57.17456 300.000
57.19451 320.000
57.21446 357.000
57.23441 408.000
57.25435 527.000
57.27430 519.000
57.29425 575.000
57.31419 554.000
57.33414 575.000
57.35409 524.000
57.37403 574.000
57.39398 575.000
57.41393 533.000
57.43388 480.000
57.45382 451.000
57.47377 446.000
57.49372 436.000
57.51366 370.000
57.53361 331.000
57.55356 370.000
57.57350 333.000
57.59345 281.000
57.61340 283.000
57.63334 235.000
57.65329 254.000
57.67324 217.000
57.69319 196.000
57.71313 211.000
57.73308 182.000
57.75303 207.000
57.77297 212.000
57.79292 208.000
57.81287 181.000
57.83281 189.000
57.85276 167.000
57.87271 178.000
57.89266 143.000
57.91260 172.000
57.93255 143.000
57.95250 168.000
57.97244 166.000
57.99239 162.000
58.01234 140.000
58.03228 155.000
58.05223 156.000
58.07218 140.000
58.09212 179.000
58.11207 152.000
58.13202 129.000
58.15197 157.000
58.17191 146.000
58.19186 165.000
58.21181 158.000
58.23175 164.000
58.25170 156.000
58.27165 147.000
58.29159 138.000
58.31154 153.000
58.33149 138.000
58.35144 158.000
58.37138 131.000
58.39133 168.000
58.41128 144.000
58.43122 152.000
58.45117 147.000
58.47112 167.000
58.49106 140.000
58.51101 150.000
58.53096 153.000
58.55090 160.000
58.57085 143.000
58.59080 155.000
58.61075 136.000
58.63069 147.000
58.65064 165.000
58.67059 160.000
58.69053 146.000
58.71048 129.000
58.73043 135.000
58.75037 153.000
58.77032 142.000
58.79027 166.000
58.81022 142.000
58.83016 139.000
58.85011 147.000
58.87006 138.000
58.89000 153.000
58.90995 149.000
58.92990 146.000
58.94984 134.000
58.96979 147.000
58.98974 154.000
59.00969 153.000
59.02963 130.000
59.04958 141.000
59.06953 145.000
59.08947 140.000
59.10942 153.000
59.12937 149.000
59.14931 189.000
59.16926 148.000
59.18921 138.000
59.20915 150.000
59.22910 135.000
59.24905 142.000
59.26900 132.000
59.28894 158.000
59.30889 154.000
59.32884 151.000
59.34878 138.000
59.36873 155.000
59.38868 132.000
59.40862 145.000
59.42857 143.000
59.44852 157.000
59.46847 152.000
59.48841 170.000
59.50836 149.000
59.52831 143.000
59.54825 137.000
59.56820 153.000
59.58815 153.000
59.60809 155.000
59.62804 126.000
59.64799 128.000
59.66793 142.000
59.68788 148.000
59.70783 158.000
59.72778 136.000
59.74772 144.000
59.76767 118.000
59.78762 158.000
59.80756 141.000
59.82751 166.000
59.84746 140.000
59.86740 169.000
59.88735 162.000
59.90730 142.000
59.92725 160.000
59.94719 134.000
59.96714 155.000
59.98709 170.000
60.00703 141.000
60.02698 147.000
60.04693 144.000
60.06687 132.000
60.08682 153.000
60.10677 145.000
60.12671 139.000
60.14666 160.000
60.16661 147.000
60.18656 144.000
60.20650 158.000
60.22645 145.000
60.24640 145.000
60.26634 145.000
60.28629 144.000
60.30624 144.000
60.32618 141.000
60.34613 143.000
60.36608 164.000
60.38603 154.000
60.40597 146.000
60.42592 157.000
60.44587 163.000
60.46581 165.000
60.48576 158.000
60.50571 122.000
60.52565 150.000
60.54560 130.000
60.56555 162.000
60.58550 180.000
60.60544 159.000
60.62539 168.000
60.64534 125.000
60.66528 144.000
60.68523 173.000
60.70518 164.000
60.72512 132.000
60.74507 153.000
60.76502 134.000
60.78496 151.000
60.80491 154.000
60.82486 157.000
60.84481 138.000
60.86475 136.000
60.88470 165.000
60.90465 150.000
60.92459 166.000
60.94454 161.000
60.96449 149.000
60.98443 142.000
61.00438 185.000
61.02433 179.000
61.04428 167.000
61.06422 164.000
61.08417 143.000
61.10412 164.000
61.12406 133.000
61.14401 141.000
61.16396 149.000
61.18390 154.000
61.20385 147.000
61.22380 149.000
61.24374 146.000
61.26369 159.000
61.28364 180.000
61.30359 160.000
61.32353 168.000
61.34348 164.000
61.36343 155.000
61.38337 167.000
61.40332 152.000
61.42327 150.000
61.44321 139.000
61.46316 151.000
61.48311 177.000
61.50306 158.000
61.52300 163.000
61.54295 148.000
61.56290 156.000
61.58284 175.000
61.60279 163.000
61.62274 163.000
61.64268 180.000
61.66263 152.000
61.68258 158.000
61.70252 172.000
61.72247 186.000
61.74242 154.000
61.76237 174.000
61.78231 178.000
61.80226 168.000
61.82221 183.000
61.84215 154.000
61.86210 176.000
61.88205 233.000
61.90199 219.000
61.92194 217.000
61.94189 236.000
61.96184 229.000
61.98178 279.000
62.00173 257.000
62.02168 241.000
62.04162 236.000
62.06157 235.000
62.08152 221.000
62.10146 210.000
62.12141 229.000
62.14136 237.000
62.16131 230.000
62.18125 269.000
62.20120 246.000
62.22115 245.000
62.24109 225.000
62.26104 240.000
62.28099 228.000
62.30093 220.000
62.32088 248.000
62.34083 255.000
62.36077 247.000
62.38072 267.000
62.40067 274.000
62.42062 271.000
62.44056 283.000
62.46051 309.000
62.48046 302.000
62.50040 297.000
62.52035 325.000
62.54030 376.000
62.56024 369.000
62.58019 448.000
62.60014 479.000
62.62009 459.000
62.64003 603.000
62.65998 695.000
62.67993 882.000
62.69987 1037.000
62.71982 1236.000
62.73977 1451.000
62.75971 1662.000
62.77966 1759.000
62.79961 1831.000
62.81955 1970.000
62.83950 1926.000
62.85945 2001.000
62.87940 1889.000
62.89934 1774.000
62.91929 1754.000
62.93924 1645.000
62.95918 1618.000
62.97913 1586.000
62.99908 1451.000
63.01902 1383.000
63.03897 1301.000
63.05892 1138.000
63.07887 1006.000
63.09881 875.000
63.11876 742.000
63.13871 677.000
63.15865 559.000
63.17860 546.000
63.19855 491.000
63.21849 428.000
63.23844 359.000
63.25839 363.000
63.27833 351.000
63.29828 328.000
63.31823 295.000
63.33818 286.000
63.35812 246.000
63.37807 268.000
63.39802 243.000
63.41796 264.000
63.43791 243.000
63.45786 223.000
63.47780 191.000
63.49775 211.000
63.51770 210.000
63.53765 231.000
63.55759 187.000
63.57754 206.000
63.59749 192.000
63.61743 208.000
63.63738 178.000
63.65733 195.000
63.67727 186.000
63.69722 183.000
63.71717 188.000
63.73712 189.000
63.75706 166.000
63.77701 208.000
63.79696 210.000
63.81690 183.000
63.83685 180.000
63.85680 180.000
63.87674 182.000
63.89669 191.000
63.91664 194.000
63.93658 192.000
63.95653 188.000
63.97648 179.000
63.99643 184.000
64.01637 232.000
64.03632 200.000
64.05627 198.000
64.07621 191.000
64.09616 180.000
64.11611 176.000
64.13605 202.000
64.15600 169.000
64.17595 182.000
64.19590 165.000
64.21584 178.000
64.23579 183.000
64.25574 171.000
64.27568 200.000
64.29563 185.000
64.31558 192.000
64.33552 160.000
64.35547 184.000
64.37542 145.000
64.39536 172.000
64.41531 193.000
64.43526 192.000
64.45521 190.000
64.47515 187.000
64.49510 155.000
64.51505 200.000
64.53499 179.000
64.55494 186.000
64.57489 168.000
64.59483 175.000
64.61478 174.000
64.63473 161.000
64.65468 169.000
64.67462 142.000
64.69457 151.000
64.71452 155.000
64.73446 178.000
64.75441 163.000
64.77436 185.000
64.79430 155.000
64.81425 148.000
64.83420 180.000
64.85414 148.000
64.87409 144.000
64.89404 146.000
64.91399 148.000
64.93393 164.000
64.95388 139.000
64.97383 153.000
64.99377 142.000
65.01372 154.000
65.03367 133.000
65.05361 146.000
65.07356 159.000
65.09351 160.000
65.11346 151.000
65.13340 159.000
65.15335 150.000
65.17330 172.000
65.19324 164.000
65.21319 152.000
65.23314 126.000
65.25308 153.000
65.27303 153.000
65.29298 146.000
65.31293 146.000
65.33287 148.000
65.35282 142.000
65.37277 167.000
65.39271 165.000
65.41266 136.000
65.43261 154.000
65.45255 134.000
65.47250 143.000
65.49245 161.000
65.51239 161.000
65.53234 174.000
65.55229 158.000
65.57224 157.000
65.59218 144.000
65.61213 139.000
65.63208 157.000
65.65202 176.000
65.67197 177.000
65.69192 165.000
65.71186 150.000
65.73181 166.000
65.75176 161.000
65.77171 158.000
65.79165 165.000
65.81160 176.000
65.83155 167.000
65.85149 186.000
65.87144 156.000
65.89139 156.000
65.91133 160.000
65.93128 164.000
65.95123 172.000
65.97117 150.000
65.99112 174.000
66.01107 163.000
66.03102 177.000
66.05096 145.000
66.07091 154.000
66.09086 171.000
66.11080 160.000
66.13075 182.000
66.15070 157.000
66.17064 181.000
66.19059 175.000
66.21054 184.000
66.23049 174.000
66.25043 183.000
66.27038 191.000
66.29033 184.000
66.31027 194.000
66.33022 200.000
66.35017 174.000
66.37011 184.000
66.39006 158.000
66.41001 183.000
66.42995 164.000
66.44990 157.000
66.46985 169.000
66.48980 191.000
66.50974 166.000
66.52969 157.000
66.54964 154.000
66.56958 179.000
66.58953 170.000
66.60948 173.000
66.62942 179.000
66.64937 190.000
66.66932 141.000
66.68927 158.000
66.70921 177.000
66.72916 180.000
66.74911 166.000
66.76905 181.000
66.78900 168.000
66.80895 174.000
66.82889 203.000
66.84884 169.000
66.86879 178.000
66.88874 188.000
66.90868 190.000
66.92863 171.000
66.94858 170.000
66.96852 166.000
66.98847 148.000
67.00842 168.000
67.02836 168.000
67.04831 163.000
67.06826 142.000
67.08820 173.000
67.10815 160.000
67.12810 178.000
67.14805 164.000
67.16799 193.000
67.18794 165.000
67.20789 143.000
67.22783 147.000
67.24778 152.000
67.26773 169.000
67.28767 134.000
67.30762 166.000
67.32757 154.000
67.34752 140.000
67.36746 148.000
67.38741 136.000
67.40736 159.000
67.42730 141.000
67.44725 180.000
67.46720 139.000
67.48714 157.000
67.50709 147.000
67.52704 152.000
67.54698 130.000
67.56693 148.000
67.58688 135.000
67.60683 143.000
67.62677 135.000
67.64672 158.000
67.66667 149.000
67.68661 149.000
67.70656 170.000
67.72651 153.000
67.74645 146.000
67.76640 160.000
67.78635 175.000
67.80630 149.000
67.82624 161.000
67.84619 129.000
67.86614 152.000
67.88608 145.000
67.90603 162.000
67.92598 146.000
67.94592 155.000
67.96587 146.000
67.98582 161.000
68.00576 160.000
68.02571 168.000
68.04566 153.000
68.06561 151.000
68.08555 170.000
68.10550 140.000
68.12545 180.000
68.14539 141.000
68.16534 161.000
68.18529 138.000
68.20523 142.000
68.22518 141.000
68.24513 148.000
68.26508 142.000
68.28502 158.000
68.30497 155.000
68.32492 144.000
68.34486 162.000
68.36481 133.000
68.38476 155.000
68.40470 124.000
68.42465 143.000
68.44460 137.000
68.46455 151.000
68.48449 146.000
68.50444 163.000
68.52439 135.000
68.54433 132.000
68.56428 134.000
68.58423 182.000
68.60417 153.000
68.62412 132.000
68.64407 138.000
68.66401 143.000
68.68396 154.000
68.70391 163.000
68.72386 146.000
68.74380 126.000
68.76375 142.000
68.78370 165.000
68.80364 156.000
68.82359 161.000
68.84354 140.000
68.86348 127.000
68.88343 133.000
68.90338 118.000
68.92333 142.000
68.94327 156.000
68.96322 149.000
68.98317 138.000
69.00311 123.000
69.02306 141.000
69.04301 154.000
69.06295 144.000
69.08290 127.000
69.10285 118.000
69.12279 146.000
69.14274 128.000
69.16269 137.000
69.18264 125.000
69.20258 155.000
69.22253 148.000
69.24248 137.000
69.26242 149.000
69.28237 152.000
69.30232 130.000
69.32226 143.000
69.34221 129.000
69.36216 130.000
69.38211 146.000
69.40205 139.000
69.42200 136.000
69.44195 154.000
69.46189 156.000
69.48184 145.000
69.50179 145.000
69.52173 143.000
69.54168 148.000
69.56163 134.000
69.58157 152.000
69.60152 150.000
69.62147 121.000
69.64142 154.000
69.66136 151.000
69.68131 157.000
69.70126 152.000
69.72120 161.000
69.74115 139.000
69.76110 155.000
69.78104 131.000
69.80099 160.000
69.82094 139.000
69.84089 144.000
69.86083 129.000
69.88078 141.000
69.90073 142.000
69.92067 136.000
69.94062 144.000
69.96057 131.000
69.98051 134.000
70.00046 153.000
70.02041 114.000
70.04035 144.000
70.06030 140.000
70.08025 138.000
70.10020 147.000
70.12014 142.000
70.14009 155.000
70.16004 123.000
70.17998 139.000
70.19993 152.000
70.21988 140.000
70.23982 148.000
70.25977 151.000
70.27972 150.000
70.29967 127.000
70.31961 151.000
70.33956 146.000
70.35951 136.000
70.37945 127.000
70.39940 147.000
70.41935 145.000
70.43929 129.000
70.45924 139.000
70.47919 132.000
70.49914 140.000
70.51908 133.000
70.53903 158.000
70.55898 156.000
70.57892 141.000
70.59887 132.000
70.61882 128.000
70.63876 161.000
70.65871 132.000
70.67866 164.000
70.69860 135.000
70.71855 143.000
70.73850 145.000
70.75845 147.000
70.77839 169.000
70.79834 165.000
70.81829 135.000
70.83823 116.000
70.85818 146.000
70.87813 148.000
70.89807 147.000
70.91802 158.000
70.93797 151.000
70.95792 161.000
70.97786 144.000
70.99781 147.000
71.01776 135.000
71.03770 119.000
71.05765 165.000
71.07760 124.000
71.09754 143.000
71.11749 166.000
71.13744 153.000
71.15738 170.000
71.17733 170.000
71.19728 149.000
71.21723 161.000
71.23717 143.000
71.25712 143.000
71.27707 161.000
71.29701 189.000
71.31696 161.000
71.33691 166.000
71.35685 175.000
71.37680 166.000
71.39675 164.000
71.41670 168.000
71.43664 185.000
71.45659 174.000
71.47654 177.000
71.49648 179.000
71.51643 159.000
71.53638 167.000
71.55632 174.000
71.57627 175.000
71.59622 169.000
71.61616 184.000
71.63611 176.000
71.65606 165.000
71.67601 166.000
71.69595 171.000
71.71590 184.000
71.73585 157.000
71.75579 162.000
71.77574 167.000
71.79569 159.000
71.81563 144.000
71.83558 171.000
71.85553 118.000
71.87548 162.000
71.89542 144.000
71.91537 147.000
71.93532 130.000
71.95526 152.000
71.97521 148.000
71.99516 130.000
72.01510 154.000
72.03505 132.000
72.05500 147.000
72.07495 135.000
72.09489 160.000
72.11484 139.000
72.13479 141.000
72.15473 160.000
72.17468 142.000
72.19463 126.000
72.21457 133.000
72.23452 135.000
72.25447 152.000
72.27441 153.000
72.29436 139.000
72.31431 139.000
72.33426 137.000
72.35420 134.000
72.37415 149.000
72.39410 176.000
72.41404 151.000
72.43399 147.000
72.45394 147.000
72.47388 149.000
72.49383 135.000
72.51378 145.000
72.53373 121.000
72.55367 144.000
72.57362 143.000
72.59357 143.000
72.61351 141.000
72.63346 156.000
72.65341 152.000
72.67335 149.000
72.69330 124.000
72.71325 148.000
72.73319 143.000
72.75314 137.000
72.77309 158.000
72.79304 157.000
72.81298 131.000
72.83293 158.000
72.85288 148.000
72.87282 163.000
72.89277 162.000
72.91272 148.000
72.93266 150.000
72.95261 173.000
72.97256 143.000
72.99251 170.000
73.01245 160.000
73.03240 168.000
73.05235 152.000
73.07229 148.000
73.09224 153.000
73.11219 165.000
73.13213 163.000
73.15208 142.000
73.17203 150.000
73.19197 154.000
73.21192 159.000
73.23187 167.000
73.25182 153.000
73.27176 172.000
73.29171 176.000
73.31166 175.000
73.33160 183.000
73.35155 162.000
73.37150 160.000
73.39144 172.000
73.41139 183.000
73.43134 181.000
73.45129 155.000
73.47123 170.000
73.49118 161.000
73.51113 153.000
73.53107 178.000
73.55102 171.000
73.57097 179.000
73.59091 160.000
73.61086 139.000
73.63081 173.000
73.65076 169.000
73.67070 176.000
73.69065 169.000
73.71060 164.000
73.73054 162.000
73.75049 150.000
73.77044 150.000
73.79038 143.000
73.81033 157.000
73.83028 165.000
73.85022 144.000
73.87017 167.000
73.89012 138.000
73.91007 154.000
73.93001 138.000
73.94996 152.000
73.96991 159.000
73.98985 168.000
74.00980 152.000
74.02975 152.000
74.04969 155.000
74.06964 145.000
74.08959 168.000
74.10954 151.000
74.12948 142.000
74.14943 153.000
74.16938 171.000
74.18932 180.000
74.20927 161.000
74.22922 158.000
74.24916 172.000
74.26911 195.000
74.28906 168.000
74.30900 189.000
74.32895 195.000
74.34890 201.000
74.36885 203.000
74.38879 202.000
74.40874 205.000
74.42869 242.000
74.44863 252.000
74.46858 253.000
74.48853 233.000
74.50847 219.000
74.52842 246.000
74.54837 244.000
74.56832 241.000
74.58826 239.000
74.60821 232.000
74.62816 212.000
74.64810 227.000
74.66805 249.000
74.68800 214.000
74.70794 220.000
74.72789 187.000
74.74784 224.000
74.76778 216.000
74.78773 199.000
74.80768 228.000
74.82763 217.000
74.84757 197.000
74.86752 191.000
74.88747 173.000
74.90741 185.000
74.92736 194.000
74.94731 193.000
74.96725 199.000
74.98720 198.000
75.00715 192.000
75.02710 247.000
75.04704 242.000
75.06699 222.000
75.08694 237.000
75.10688 245.000
75.12683 246.000
75.14678 268.000
75.16672 332.000
75.18667 360.000
75.20662 437.000
75.22657 489.000
75.24651 498.000
75.26646 584.000
75.28641 582.000
75.30635 622.000
75.32630 617.000
75.34625 704.000
75.36619 643.000
75.38614 650.000
75.40609 587.000
75.42603 549.000
75.44598 524.000
75.46593 505.000
75.48588 439.000
75.50582 502.000
75.52577 461.000
75.54572 506.000
75.56566 378.000
75.58561 434.000
75.60556 419.000
75.62550 374.000
75.64545 320.000
75.66540 283.000
75.68535 292.000
75.70529 267.000
75.72524 252.000
75.74519 238.000
75.76513 246.000
75.78508 206.000
75.80503 207.000
75.82497 196.000
75.84492 208.000
75.86487 173.000
75.88481 168.000
75.90476 169.000
75.92471 156.000
75.94466 180.000
75.96460 173.000
75.98455 142.000
76.00450 141.000
76.02444 165.000
76.04439 162.000
76.06434 152.000
76.08428 138.000
76.10423 153.000
76.12418 160.000
76.14413 154.000
76.16407 140.000
76.18402 157.000
76.20397 153.000
76.22391 161.000
76.24386 156.000
76.26381 128.000
76.28375 146.000
76.30370 155.000
76.32365 141.000
76.34359 158.000
76.36354 153.000
76.38349 137.000
76.40344 145.000
76.42338 154.000
76.44333 142.000
76.46328 146.000
76.48322 134.000
76.50317 121.000
76.52312 133.000
76.54306 154.000
76.56301 148.000
76.58296 136.000
76.60291 138.000
76.62285 125.000
76.64280 132.000
76.66275 136.000
76.68269 138.000
76.70264 175.000
76.72259 142.000
76.74253 140.000
76.76248 140.000
76.78243 134.000
76.80238 145.000
76.82232 152.000
76.84227 146.000
76.86222 137.000
76.88216 143.000
76.90211 145.000
76.92206 125.000
76.94200 157.000
76.96195 145.000
76.98190 151.000
77.00184 146.000
77.02179 143.000
77.04174 145.000
77.06169 121.000
77.08163 145.000
77.10158 141.000
77.12153 148.000
77.14147 141.000
77.16142 150.000
77.18137 124.000
77.20131 147.000
77.22126 125.000
77.24121 149.000
77.26116 160.000
77.28110 145.000
77.30105 145.000
77.32100 146.000
77.34094 128.000
77.36089 144.000
77.38084 162.000
77.40078 157.000
77.42073 126.000
77.44068 166.000
77.46062 148.000
77.48057 133.000
77.50052 147.000
77.52047 145.000
77.54041 151.000
77.56036 149.000
77.58031 146.000
77.60025 170.000
77.62020 158.000
77.64015 162.000
77.66009 180.000
77.68004 165.000
77.69999 192.000
77.71994 159.000
77.73988 164.000
77.75983 146.000
77.77978 152.000
77.79972 170.000
77.81967 160.000
77.83962 177.000
77.85956 160.000
77.87951 131.000
77.89946 170.000
77.91940 157.000
77.93935 178.000
77.95930 162.000
77.97925 162.000
77.99919 174.000
78.01914 160.000
78.03909 173.000
78.05903 163.000
78.07898 169.000
78.09893 177.000
78.11887 168.000
78.13882 172.000
78.15877 179.000
78.17872 181.000
78.19866 142.000
78.21861 171.000
78.23856 161.000
78.25850 161.000
78.27845 158.000
78.29840 178.000
78.31834 191.000
78.33829 177.000
78.35824 143.000
78.37819 181.000
78.39813 169.000
78.41808 198.000
78.43803 166.000
78.45797 160.000
78.47792 161.000
78.49787 159.000
78.51781 170.000
78.53776 164.000
78.55771 162.000
78.57765 182.000
78.59760 160.000
78.61755 189.000
78.63750 173.000
78.65744 168.000
78.67739 189.000
78.69734 191.000
78.71728 173.000
78.73723 180.000
78.75718 171.000
78.77712 191.000
78.79707 168.000
78.81702 171.000
78.83697 168.000
78.85691 180.000
78.87686 198.000
78.89681 190.000
78.91675 188.000
78.93670 194.000
78.95665 190.000
78.97659 170.000
78.99654 195.000
79.01649 232.000
79.03643 220.000
79.05638 226.000
79.07633 251.000
79.09628 213.000
79.11622 283.000
79.13617 269.000
79.15612 291.000
79.17606 322.000
79.19601 347.000
79.21596 383.000
79.23590 408.000
79.25585 419.000
79.27580 457.000
79.29575 476.000
79.31569 494.000
79.33564 484.000
79.35559 467.000
79.37553 447.000
79.39548 463.000
79.41543 426.000
79.43537 425.000
79.45532 405.000
79.47527 431.000
79.49521 387.000
79.51516 373.000
79.53511 343.000
79.55506 349.000
79.57500 345.000
79.59495 373.000
79.61490 343.000
79.63484 312.000
79.65479 261.000
79.67474 292.000
79.69468 246.000
79.71463 259.000
79.73458 229.000
79.75453 219.000
79.77447 190.000
79.79442 201.000
79.81437 195.000
79.83431 185.000
79.85426 171.000
79.87421 165.000
79.89415 161.000
79.91410 147.000
79.93405 126.000
79.95399 153.000
79.97394 157.000
79.99389 151.000
80.01384 177.000
80.03378 149.000
80.05373 153.000
80.07368 166.000
80.09362 136.000
80.11357 147.000
80.13352 172.000
80.15346 133.000
80.17341 168.000
80.19336 150.000
80.21331 155.000
80.23325 117.000
80.25320 157.000
80.27315 152.000
80.29309 158.000
80.31304 141.000
80.33299 153.000
80.35293 164.000
80.37288 140.000
80.39283 148.000
80.41278 160.000
80.43272 147.000
80.45267 164.000
80.47262 146.000
80.49256 137.000
80.51251 159.000
80.53246 119.000
80.55240 140.000
80.57235 135.000
80.59230 150.000
80.61224 136.000
80.63219 146.000
80.65214 116.000
80.67209 154.000
80.69203 145.000
80.71198 172.000
80.73193 155.000
80.75187 128.000
80.77182 140.000
80.79177 139.000
80.81171 152.000
80.83166 143.000
80.85161 161.000
80.87156 154.000
80.89150 148.000
80.91145 151.000
80.93140 159.000
80.95134 154.000
80.97129 130.000
80.99124 147.000
81.01118 153.000
81.03113 136.000
81.05108 142.000
81.07102 155.000
81.09097 164.000
81.11092 139.000
81.13087 151.000
81.15081 141.000
81.17076 144.000
81.19071 135.000
81.21065 130.000
81.23060 139.000
81.25055 125.000
81.27049 124.000
81.29044 143.000
81.31039 147.000
81.33034 118.000
81.35028 126.000
81.37023 168.000
81.39018 137.000
81.41012 133.000
81.43007 146.000
81.45002 144.000
81.46996 120.000
81.48991 131.000
81.50986 140.000
81.52980 150.000
81.54975 140.000
81.56970 130.000
81.58965 154.000
81.60959 134.000
81.62954 134.000
81.64949 129.000
81.66943 142.000
81.68938 128.000
81.70933 140.000
81.72927 158.000
81.74922 109.000
81.76917 145.000
81.78912 151.000
81.80906 146.000
81.82901 131.000
81.84896 138.000
81.86890 161.000
81.88885 153.000
81.90880 145.000
81.92874 147.000
81.94869 116.000
81.96864 140.000
81.98859 140.000
82.00853 155.000
82.02848 148.000
82.04843 138.000
82.06837 122.000
82.08832 146.000
82.10827 131.000
82.12821 181.000
82.14816 144.000
82.16811 160.000
82.18805 171.000
82.20800 132.000
82.22795 147.000
82.24790 157.000
82.26784 160.000
82.28779 144.000
82.30774 163.000
82.32768 128.000
82.34763 138.000
82.36758 143.000
82.38752 161.000
82.40747 149.000
82.42742 132.000
82.44737 146.000
82.46731 158.000
82.48726 152.000
82.50721 136.000
82.52715 170.000
82.54710 150.000
82.56705 155.000
82.58699 159.000
82.60694 124.000
82.62689 162.000
82.64683 164.000
82.66678 136.000
82.68673 153.000
82.70668 142.000
82.72662 135.000
82.74657 128.000
82.76652 130.000
82.78646 145.000
82.80641 133.000
82.82636 149.000
82.84630 127.000
82.86625 141.000
82.88620 138.000
82.90615 145.000
82.92609 128.000
82.94604 156.000
82.96599 142.000
82.98593 145.000
83.00588 170.000
83.02583 139.000
83.04577 152.000
83.06572 141.000
83.08567 143.000
83.10561 160.000
83.12556 150.000
83.14551 137.000
83.16546 136.000
83.18540 139.000
83.20535 158.000
83.22530 155.000
83.24524 123.000
83.26519 144.000
83.28514 160.000
83.30508 152.000
83.32503 155.000
83.34498 128.000
83.36493 147.000
83.38487 151.000
83.40482 123.000
83.42477 139.000
83.44471 140.000
83.46466 145.000
83.48461 153.000
83.50455 129.000
83.52450 171.000
83.54445 112.000
83.56440 147.000
83.58434 168.000
83.60429 147.000
83.62424 132.000
83.64418 145.000
83.66413 174.000
83.68408 112.000
83.70402 158.000
83.72397 140.000
83.74392 136.000
83.76386 141.000
83.78381 135.000
83.80376 153.000
83.82371 123.000
83.84365 129.000
83.86360 138.000
83.88355 143.000
83.90349 137.000
83.92344 144.000
83.94339 141.000
83.96333 149.000
83.98328 141.000
84.00323 150.000
84.02318 142.000
84.04312 134.000
84.06307 158.000
84.08302 169.000
84.10296 136.000
84.12291 116.000
84.14286 155.000
84.16280 145.000
84.18275 138.000
84.20270 151.000
84.22264 148.000
84.24259 133.000
84.26254 137.000
84.28249 155.000
84.30243 167.000
84.32238 159.000
84.34233 136.000
84.36227 162.000
84.38222 170.000
84.40217 123.000
84.42211 165.000
84.44206 146.000
84.46201 135.000
84.48196 165.000
84.50190 153.000
84.52185 153.000
84.54180 167.000
84.56174 151.000
84.58169 148.000
84.60164 154.000
84.62158 160.000
84.64153 153.000
84.66148 143.000
84.68142 143.000
84.70137 153.000
84.72132 153.000
84.74127 143.000
84.76121 131.000
84.78116 147.000
84.80111 156.000
84.82105 153.000
84.84100 164.000
84.86095 149.000
84.88089 153.000
84.90084 152.000
84.92079 155.000
84.94074 167.000
84.96068 155.000
84.98063 155.000
85.00058 162.000
85.02052 144.000
85.04047 126.000
85.06042 152.000
85.08036 159.000
85.10031 180.000
85.12026 130.000
85.14021 145.000
85.16015 150.000
85.18010 121.000
85.20005 155.000
85.21999 157.000
85.23994 127.000
85.25989 144.000
85.27983 143.000
85.29978 135.000
85.31973 154.000
85.33967 121.000
85.35962 143.000
85.37957 156.000
85.39952 152.000
85.41946 146.000
85.43941 152.000
85.45936 145.000
85.47930 163.000
85.49925 139.000
85.51920 150.000
85.53914 134.000
85.55909 130.000
85.57904 148.000
85.59899 118.000
85.61893 163.000
85.63888 142.000
85.65883 133.000
85.67877 134.000
85.69872 168.000
85.71867 132.000
85.73861 135.000
85.75856 142.000
85.77851 134.000
85.79845 142.000
85.81840 138.000
85.83835 148.000
85.85830 118.000
85.87824 126.000
85.89819 127.000
85.91814 116.000
85.93808 144.000
85.95803 157.000
85.97798 139.000
85.99792 138.000
86.01787 131.000
86.03782 159.000
86.05777 135.000
86.07771 124.000
86.09766 134.000
86.11761 152.000
86.13755 125.000
86.15750 163.000
86.17745 146.000
86.19739 132.000
86.21734 129.000
86.23729 123.000
86.25723 129.000
86.27718 159.000
86.29713 150.000
86.31708 130.000
86.33702 130.000
86.35697 137.000
86.37692 149.000
86.39686 183.000
86.41681 135.000
86.43676 147.000
86.45670 126.000
86.47665 155.000
86.49660 135.000
86.51655 106.000
86.53649 153.000
86.55644 148.000
86.57639 143.000
86.59633 140.000
86.61628 131.000
86.63623 135.000
86.65617 138.000
86.67612 132.000
86.69607 151.000
86.71602 137.000
86.73596 157.000
86.75591 133.000
86.77586 130.000
86.79580 155.000
86.81575 133.000
86.83570 132.000
86.85564 142.000
86.87559 141.000
86.89554 153.000
86.91548 124.000
86.93543 159.000
86.95538 137.000
86.97533 143.000
86.99527 147.000
87.01522 154.000
87.03517 165.000
87.05511 146.000
87.07506 135.000
87.09501 146.000
87.11495 147.000
87.13490 151.000
87.15485 164.000
87.17480 157.000
87.19474 167.000
87.21469 166.000
87.23464 153.000
87.25458 187.000
87.27453 171.000
87.29448 173.000
87.31442 177.000
87.33437 176.000
87.35432 178.000
87.37426 202.000
87.39421 154.000
87.41416 186.000
87.43411 154.000
87.45405 174.000
87.47400 181.000
87.49395 168.000
87.51389 174.000
87.53384 156.000
87.55379 185.000
87.57373 153.000
87.59368 170.000
87.61363 156.000
87.63358 149.000
87.65352 171.000
87.67347 184.000
87.69342 188.000
87.71336 178.000
87.73331 165.000
87.75326 159.000
87.77320 184.000
87.79315 165.000
87.81310 145.000
87.83304 159.000
87.85299 148.000
87.87294 144.000
87.89289 157.000
87.91283 135.000
87.93278 142.000
87.95273 137.000
87.97267 130.000
87.99262 129.000
88.01257 166.000
88.03251 135.000
88.05246 146.000
88.07241 144.000
88.09236 134.000
88.11230 147.000
88.13225 151.000
88.15220 131.000
88.17214 157.000
88.19209 144.000
88.21204 117.000
88.23198 156.000
88.25193 143.000
88.27188 132.000
88.29183 130.000
88.31177 133.000
88.33172 126.000
88.35167 133.000
88.37161 161.000
88.39156 132.000
88.41151 115.000
88.43145 141.000
88.45140 135.000
88.47135 147.000
88.49129 142.000
88.51124 142.000
88.53119 144.000
88.55114 146.000
88.57108 160.000
88.59103 140.000
88.61098 163.000
88.63092 128.000
88.65087 120.000
88.67082 146.000
88.69076 129.000
88.71071 125.000
88.73066 149.000
88.75061 144.000
88.77055 141.000
88.79050 138.000
88.81045 164.000
88.83039 134.000
88.85034 148.000
88.87029 144.000
88.89023 150.000
88.91018 148.000
88.93013 132.000
88.95007 151.000
88.97002 135.000
88.98997 140.000
89.00992 121.000
89.02986 143.000
89.04981 126.000
89.06976 135.000
89.08970 129.000
89.10965 142.000
89.12960 136.000
89.14954 142.000
89.16949 129.000
89.18944 145.000
89.20939 164.000
89.22933 142.000
89.24928 145.000
89.26923 146.000
89.28917 148.000
89.30912 131.000
89.32907 167.000
89.34901 135.000
89.36896 141.000
89.38891 143.000
89.40885 126.000
89.42880 154.000
89.44875 151.000
89.46870 159.000
89.48864 122.000
89.50859 140.000
89.52854 157.000
89.54848 129.000
89.56843 134.000
89.58838 155.000
89.60832 135.000
89.62827 144.000
89.64822 132.000
89.66817 135.000
89.68811 127.000
89.70806 152.000
89.72801 138.000
89.74795 145.000
89.76790 151.000
89.78785 139.000
89.80779 140.000
89.82774 140.000
89.84769 150.000
89.86764 145.000
89.88758 163.000
89.90753 154.000
89.92748 145.000
89.94742 171.000
89.96737 153.000
89.98732 146.000
90.00726 150.000
