10.00000 146.000
10.01995 125.000
10.03989 143.000
10.05984 148.000
10.07979 179.000
10.09973 165.000
10.11968 141.000
10.13963 167.000
10.15958 151.000
10.17952 174.000
10.19947 146.000
10.21942 173.000
10.23936 168.000
10.25931 144.000
10.27926 150.000
10.29920 166.000
10.31915 138.000
10.33910 168.000
10.35905 167.000
10.37899 140.000
10.39894 147.000
10.41889 143.000
10.43883 151.000
10.45878 190.000
10.47873 169.000
10.49867 160.000
10.51862 151.000
10.53857 153.000
10.55851 140.000
10.57846 169.000
10.59841 163.000
10.61836 151.000
10.63830 194.000
10.65825 181.000
10.67820 163.000
10.69814 188.000
10.71809 171.000
10.73804 162.000
10.75798 167.000
10.77793 184.000
10.79788 155.000
10.81783 156.000
10.83777 179.000
10.85772 163.000
10.87767 165.000
10.89761 174.000
10.91756 186.000
10.93751 150.000
10.95745 156.000
10.97740 154.000
10.99735 144.000
11.01730 169.000
11.03724 163.000
11.05719 169.000
11.07714 172.000
11.09708 178.000
11.11703 136.000
11.13698 184.000
11.15692 191.000
11.17687 164.000
11.19682 174.000
11.21676 193.000
11.23671 190.000
11.25666 179.000
11.27661 179.000
11.29655 174.000
11.31650 174.000
11.33645 160.000
11.35639 185.000
11.37634 190.000
11.39629 172.000
11.41623 170.000
11.43618 186.000
11.45613 165.000
11.47608 187.000
11.49602 190.000
11.51597 173.000
11.53592 182.000
11.55586 188.000
11.57581 179.000
11.59576 173.000
11.61570 183.000
11.63565 171.000
11.65560 171.000
11.67554 200.000
11.69549 177.000
11.71544 176.000
11.73539 178.000
11.75533 193.000
11.77528 208.000
11.79523 193.000
11.81517 209.000
11.83512 170.000
11.85507 172.000
11.87501 169.000
11.89496 181.000
11.91491 183.000
11.93486 184.000
11.95480 200.000
11.97475 173.000
11.99470 181.000
12.01464 190.000
12.03459 196.000
12.05454 172.000
12.07448 191.000
12.09443 188.000
12.11438 183.000
12.13432 187.000
12.15427 200.000
12.17422 192.000
12.19417 189.000
12.21411 189.000
12.23406 206.000
12.25401 195.000
12.27395 184.000
12.29390 189.000
12.31385 200.000
12.33379 211.000
12.35374 182.000
12.37369 206.000
12.39364 185.000
12.41358 209.000
12.43353 227.000
12.45348 201.000
12.47342 217.000
12.49337 208.000
12.51332 199.000
12.53326 193.000
12.55321 179.000
12.57316 210.000
12.59311 213.000
12.61305 173.000
12.63300 196.000
12.65295 185.000
12.67289 210.000
12.69284 207.000
12.71279 189.000
12.73273 174.000
12.75268 198.000
12.77263 214.000
12.79257 209.000
12.81252 222.000
12.83247 207.000
12.85242 225.000
12.87236 214.000
12.89231 223.000
12.91226 190.000
12.93220 218.000
12.95215 215.000
12.97210 197.000
12.99204 205.000
13.01199 237.000
13.03194 223.000
13.05189 211.000
13.07183 226.000
13.09178 229.000
13.11173 245.000
13.13167 202.000
13.15162 215.000
13.17157 197.000
13.19151 185.000
13.21146 191.000
13.23141 237.000
13.25135 203.000
13.27130 210.000
13.29125 207.000
13.31120 210.000
13.33114 212.000
13.35109 235.000
13.37104 213.000
13.39098 230.000
13.41093 226.000
13.43088 228.000
13.45082 218.000
13.47077 236.000
13.49072 223.000
13.51067 226.000
13.53061 220.000
13.55056 207.000
13.57051 199.000
13.59045 208.000
13.61040 210.000
13.63035 225.000
13.65029 244.000
13.67024 258.000
13.69019 220.000
13.71013 213.000
13.73008 189.000
13.75003 235.000
13.76998 231.000
13.78992 231.000
13.80987 223.000
13.82982 234.000
13.84976 213.000
13.86971 236.000
13.88966 218.000
13.90960 251.000
13.92955 241.000
13.94950 259.000
13.96945 227.000
13.98939 217.000
14.00934 208.000
14.02929 240.000
14.04923 237.000
14.06918 227.000
14.08913 226.000
14.10907 273.000
14.12902 231.000
14.14897 233.000
14.16892 267.000
14.18886 215.000
14.20881 240.000
14.22876 229.000
14.24870 243.000
14.26865 226.000
14.28860 261.000
14.30854 268.000
14.32849 245.000
14.34844 270.000
14.36838 270.000
14.38833 238.000
14.40828 261.000
14.42823 246.000
14.44817 264.000
14.46812 248.000
14.48807 211.000
14.50801 267.000
14.52796 227.000
14.54791 213.000
14.56785 268.000
14.58780 286.000
14.60775 260.000
14.62770 235.000
14.64764 255.000
14.66759 234.000
14.68754 251.000
14.70748 245.000
14.72743 253.000
14.74738 291.000
14.76732 258.000
14.78727 247.000
14.80722 265.000
14.82716 268.000
14.84711 239.000
14.86706 255.000
14.88701 285.000
14.90695 252.000
14.92690 265.000
14.94685 229.000
14.96679 251.000
14.98674 248.000
15.00669 275.000
15.02663 270.000
15.04658 277.000
15.06653 291.000
15.08648 258.000
15.10642 268.000
15.12637 234.000
15.14632 248.000
15.16626 272.000
15.18621 258.000
15.20616 267.000
15.22610 265.000
15.24605 249.000
15.26600 277.000
15.28594 275.000
15.30589 284.000
15.32584 247.000
15.34579 242.000
15.36573 309.000
15.38568 293.000
15.40563 269.000
15.42557 265.000
15.44552 274.000
15.46547 310.000
15.48541 272.000
15.50536 276.000
15.52531 289.000
15.54526 304.000
15.56520 269.000
15.58515 269.000
15.60510 274.000
15.62504 274.000
15.64499 291.000
15.66494 299.000
15.68488 295.000
15.70483 281.000
15.72478 266.000
15.74472 291.000
15.76467 283.000
15.78462 268.000
15.80457 297.000
15.82451 297.000
15.84446 293.000
15.86441 251.000
15.88435 266.000
15.90430 275.000
15.92425 312.000
15.94419 284.000
15.96414 296.000
15.98409 329.000
16.00404 294.000
16.02398 296.000
16.04393 300.000
16.06388 306.000
16.08382 298.000
16.10377 307.000
16.12372 257.000
16.14366 304.000
16.16361 304.000
16.18356 279.000
16.20351 301.000
16.22345 286.000
16.24340 313.000
16.26335 312.000
16.28329 289.000
16.30324 309.000
16.32319 294.000
16.34313 284.000
16.36308 298.000
16.38303 289.000
16.40297 294.000
16.42292 312.000
16.44287 330.000
16.46282 357.000
16.48276 309.000
16.50271 303.000
16.52266 299.000
16.54260 314.000
16.56255 343.000
16.58250 341.000
16.60244 328.000
16.62239 324.000
16.64234 336.000
16.66229 306.000
16.68223 332.000
16.70218 317.000
16.72213 344.000
16.74207 321.000
16.76202 347.000
16.78197 308.000
16.80191 334.000
16.82186 301.000
16.84181 332.000
16.86175 294.000
16.88170 292.000
16.90165 337.000
16.92160 352.000
16.94154 342.000
16.96149 318.000
16.98144 325.000
17.00138 331.000
17.02133 332.000
17.04128 316.000
17.06122 301.000
17.08117 335.000
17.10112 338.000
17.12107 327.000
17.14101 301.000
17.16096 354.000
17.18091 327.000
17.20085 336.000
17.22080 343.000
17.24075 321.000
17.26069 339.000
17.28064 351.000
17.30059 357.000
17.32053 344.000
17.34048 299.000
17.36043 340.000
17.38038 359.000
17.40032 312.000
17.42027 318.000
17.44022 351.000
17.46016 357.000
17.48011 354.000
17.50006 355.000
17.52000 341.000
17.53995 315.000
17.55990 323.000
17.57985 333.000
17.59979 331.000
17.61974 348.000
17.63969 361.000
17.65963 351.000
17.67958 351.000
17.69953 378.000
17.71947 365.000
17.73942 382.000
17.75937 364.000
17.77932 366.000
17.79926 372.000
17.81921 360.000
17.83916 351.000
17.85910 346.000
17.87905 370.000
17.89900 348.000
17.91894 366.000
17.93889 392.000
17.95884 356.000
17.97878 377.000
17.99873 383.000
18.01868 361.000
18.03863 371.000
18.05857 338.000
18.07852 365.000
18.09847 345.000
18.11841 379.000
18.13836 376.000
18.15831 358.000
18.17825 382.000
18.19820 379.000
18.21815 387.000
18.23810 361.000
18.25804 388.000
18.27799 367.000
18.29794 369.000
18.31788 409.000
18.33783 404.000
18.35778 380.000
18.37772 396.000
18.39767 350.000
18.41762 394.000
18.43756 374.000
18.45751 371.000
18.47746 394.000
18.49741 364.000
18.51735 360.000
18.53730 382.000
18.55725 398.000
18.57719 409.000
18.59714 360.000
18.61709 384.000
18.63703 376.000
18.65698 394.000
18.67693 400.000
18.69688 408.000
18.71682 402.000
18.73677 431.000
18.75672 404.000
18.77666 433.000
18.79661 378.000
18.81656 352.000
18.83650 375.000
18.85645 408.000
18.87640 421.000
18.89634 350.000
18.91629 385.000
18.93624 377.000
18.95619 385.000
18.97613 438.000
18.99608 405.000
19.01603 379.000
19.03597 407.000
19.05592 399.000
19.07587 392.000
19.09581 411.000
19.11576 430.000
19.13571 435.000
19.15566 425.000
19.17560 364.000
19.19555 374.000
19.21550 415.000
19.23544 419.000
19.25539 418.000
19.27534 423.000
19.29528 428.000
19.31523 401.000
19.33518 415.000
19.35513 406.000
19.37507 418.000
19.39502 401.000
19.41497 386.000
19.43491 409.000
19.45486 461.000
19.47481 380.000
19.49475 430.000
19.51470 403.000
19.53465 452.000
19.55459 405.000
19.57454 403.000
19.59449 444.000
19.61444 392.000
19.63438 385.000
19.65433 413.000
19.67428 430.000
19.69422 415.000
19.71417 421.000
19.73412 456.000
19.75406 413.000
19.77401 413.000
19.79396 409.000
19.81391 418.000
19.83385 438.000
19.85380 444.000
19.87375 375.000
19.89369 444.000
19.91364 456.000
19.93359 436.000
19.95353 447.000
19.97348 397.000
19.99343 441.000
20.01337 419.000
20.03332 426.000
20.05327 430.000
20.07322 402.000
20.09316 435.000
20.11311 426.000
20.13306 412.000
20.15300 411.000
20.17295 440.000
20.19290 418.000
20.21284 417.000
20.23279 460.000
20.25274 435.000
20.27269 451.000
20.29263 475.000
20.31258 461.000
20.33253 440.000
20.35247 427.000
20.37242 405.000
20.39237 412.000
20.41231 431.000
20.43226 464.000
20.45221 443.000
20.47215 468.000
20.49210 456.000
20.51205 413.000
20.53200 443.000
20.55194 442.000
20.57189 418.000
20.59184 442.000
20.61178 457.000
20.63173 457.000
20.65168 433.000
20.67162 483.000
20.69157 472.000
20.71152 489.000
20.73147 490.000
20.75141 473.000
20.77136 468.000
20.79131 446.000
20.81125 483.000
20.83120 536.000
20.85115 524.000
20.87109 490.000
20.89104 503.000
20.91099 481.000
20.93094 498.000
20.95088 541.000
20.97083 499.000
20.99078 492.000
21.01072 501.000
21.03067 477.000
21.05062 468.000
21.07056 475.000
21.09051 505.000
21.11046 421.000
21.13040 494.000
21.15035 469.000
21.17030 449.000
21.19025 455.000
21.21019 468.000
21.23014 466.000
21.25009 467.000
21.27003 465.000
21.28998 479.000
21.30993 413.000
21.32987 422.000
21.34982 475.000
21.36977 449.000
21.38972 454.000
21.40966 487.000
21.42961 469.000
21.44956 499.000
21.46950 516.000
21.48945 471.000
21.50940 473.000
21.52934 483.000
21.54929 480.000
21.56924 485.000
21.58918 490.000
21.60913 485.000
21.62908 443.000
21.64903 455.000
21.66897 466.000
21.68892 472.000
21.70887 488.000
21.72881 488.000
21.74876 487.000
21.76871 495.000
21.78865 503.000
21.80860 471.000
21.82855 456.000
21.84850 453.000
21.86844 495.000
21.88839 489.000
21.90834 505.000
21.92828 484.000
21.94823 500.000
21.96818 514.000
21.98812 469.000
22.00807 509.000
22.02802 516.000
22.04796 492.000
22.06791 477.000
22.08786 500.000
22.10781 529.000
22.12775 463.000
22.14770 472.000
22.16765 480.000
22.18759 453.000
22.20754 486.000
22.22749 492.000
22.24743 491.000
22.26738 449.000
22.28733 486.000
22.30728 477.000
22.32722 536.000
22.34717 534.000
22.36712 534.000
22.38706 491.000
22.40701 480.000
22.42696 504.000
22.44690 472.000
22.46685 544.000
22.48680 495.000
22.50675 510.000
22.52669 495.000
22.54664 514.000
22.56659 510.000
22.58653 508.000
22.60648 497.000
22.62643 475.000
22.64637 500.000
22.66632 507.000
22.68627 548.000
22.70621 506.000
22.72616 562.000
22.74611 557.000
22.76606 484.000
22.78600 517.000
22.80595 518.000
22.82590 511.000
22.84584 493.000
22.86579 497.000
22.88574 519.000
22.90568 472.000
22.92563 504.000
22.94558 497.000
22.96553 548.000
22.98547 538.000
23.00542 491.000
23.02537 540.000
23.04531 514.000
23.06526 545.000
23.08521 543.000
23.10515 553.000
23.12510 527.000
23.14505 503.000
23.16499 533.000
23.18494 527.000
23.20489 484.000
23.22484 526.000
23.24478 562.000
23.26473 518.000
23.28468 505.000
23.30462 520.000
23.32457 519.000
23.34452 515.000
23.36446 555.000
23.38441 501.000
23.40436 527.000
23.42431 546.000
23.44425 536.000
23.46420 502.000
23.48415 545.000
23.50409 539.000
23.52404 504.000
23.54399 563.000
23.56393 540.000
23.58388 550.000
23.60383 504.000
23.62377 584.000
23.64372 543.000
23.66367 541.000
23.68362 556.000
23.70356 545.000
23.72351 528.000
23.74346 574.000
23.76340 549.000
23.78335 598.000
23.80330 508.000
23.82324 470.000
23.84319 507.000
23.86314 543.000
23.88309 515.000
23.90303 531.000
23.92298 508.000
23.94293 545.000
23.96287 554.000
23.98282 558.000
24.00277 501.000
24.02271 545.000
24.04266 529.000
24.06261 531.000
24.08256 550.000
24.10250 528.000
24.12245 490.000
24.14240 545.000
24.16234 530.000
24.18229 495.000
24.20224 497.000
24.22218 551.000
24.24213 552.000
24.26208 563.000
24.28202 584.000
24.30197 558.000
24.32192 553.000
24.34187 547.000
24.36181 516.000
24.38176 554.000
24.40171 553.000
24.42165 541.000
24.44160 618.000
24.46155 547.000
24.48149 558.000
24.50144 531.000
24.52139 552.000
24.54134 579.000
24.56128 570.000
24.58123 589.000
24.60118 534.000
24.62112 544.000
24.64107 576.000
24.66102 590.000
24.68096 556.000
24.70091 555.000
24.72086 594.000
24.74080 580.000
24.76075 544.000
24.78070 599.000
24.80065 554.000
24.82059 583.000
24.84054 579.000
24.86049 605.000
24.88043 514.000
24.90038 565.000
24.92033 557.000
24.94027 533.000
24.96022 594.000
24.98017 560.000
25.00012 586.000
25.02006 536.000
25.04001 585.000
25.05996 572.000
25.07990 569.000
25.09985 596.000
25.11980 532.000
25.13974 547.000
25.15969 634.000
25.17964 576.000
25.19958 591.000
25.21953 602.000
25.23948 601.000
25.25943 560.000
25.27937 589.000
25.29932 585.000
25.31927 614.000
25.33921 597.000
25.35916 585.000
25.37911 546.000
25.39905 556.000
25.41900 563.000
25.43895 612.000
25.45890 593.000
25.47884 606.000
25.49879 560.000
25.51874 565.000
25.53868 567.000
25.55863 601.000
25.57858 543.000
25.59852 614.000
25.61847 609.000
25.63842 604.000
25.65837 616.000
25.67831 579.000
25.69826 613.000
25.71821 605.000
25.73815 600.000
25.75810 582.000
25.77805 608.000
25.79799 593.000
25.81794 596.000
25.83789 595.000
25.85783 623.000
25.87778 558.000
25.89773 573.000
25.91768 561.000
25.93762 621.000
25.95757 598.000
25.97752 605.000
25.99746 600.000
26.01741 576.000
26.03736 590.000
26.05730 605.000
26.07725 644.000
26.09720 604.000
26.11715 605.000
26.13709 615.000
26.15704 643.000
26.17699 620.000
26.19693 599.000
26.21688 627.000
26.23683 615.000
26.25677 563.000
26.27672 618.000
26.29667 640.000
26.31661 619.000
26.33656 677.000
26.35651 603.000
26.37646 604.000
26.39640 590.000
26.41635 557.000
26.43630 610.000
26.45624 582.000
26.47619 619.000
26.49614 608.000
26.51608 628.000
26.53603 583.000
26.55598 597.000
26.57593 608.000
26.59587 642.000
26.61582 599.000
26.63577 592.000
26.65571 646.000
26.67566 661.000
26.69561 650.000
26.71555 646.000
26.73550 624.000
26.75545 636.000
26.77539 611.000
26.79534 648.000
26.81529 648.000
26.83524 691.000
26.85518 653.000
26.87513 659.000
26.89508 656.000
26.91502 654.000
26.93497 649.000
26.95492 651.000
26.97486 636.000
26.99481 690.000
27.01476 639.000
27.03471 615.000
27.05465 653.000
27.07460 666.000
27.09455 666.000
27.11449 602.000
27.13444 688.000
27.15439 662.000
27.17433 656.000
27.19428 661.000
27.21423 627.000
27.23417 678.000
27.25412 669.000
27.27407 635.000
27.29402 607.000
27.31396 655.000
27.33391 655.000
27.35386 694.000
27.37380 641.000
27.39375 619.000
27.41370 658.000
27.43364 671.000
27.45359 659.000
27.47354 591.000
27.49349 657.000
27.51343 667.000
27.53338 632.000
27.55333 681.000
27.57327 601.000
27.59322 624.000
27.61317 635.000
27.63311 633.000
27.65306 663.000
27.67301 667.000
27.69296 671.000
27.71290 696.000
27.73285 671.000
27.75280 712.000
27.77274 655.000
27.79269 678.000
27.81264 636.000
27.83258 637.000
27.85253 645.000
27.87248 721.000
27.89242 660.000
27.91237 623.000
27.93232 627.000
27.95227 674.000
27.97221 655.000
27.99216 652.000
28.01211 692.000
28.03205 678.000
28.05200 660.000
28.07195 661.000
28.09189 673.000
28.11184 656.000
28.13179 642.000
28.15174 663.000
28.17168 643.000
28.19163 676.000
28.21158 672.000
28.23152 668.000
28.25147 724.000
28.27142 638.000
28.29136 652.000
28.31131 673.000
28.33126 655.000
28.35120 683.000
28.37115 675.000
28.39110 690.000
28.41105 703.000
28.43099 708.000
28.45094 713.000
28.47089 635.000
28.49083 659.000
28.51078 623.000
28.53073 733.000
28.55067 699.000
28.57062 703.000
28.59057 706.000
28.61052 682.000
28.63046 676.000
28.65041 710.000
28.67036 691.000
28.69030 707.000
28.71025 708.000
28.73020 730.000
28.75014 664.000
28.77009 643.000
28.79004 694.000
28.80998 720.000
28.82993 664.000
28.84988 716.000
28.86983 679.000
28.88977 699.000
28.90972 738.000
28.92967 703.000
28.94961 712.000
28.96956 706.000
28.98951 737.000
29.00945 692.000
29.02940 741.000
29.04935 780.000
29.06930 719.000
29.08924 716.000
29.10919 782.000
29.12914 737.000
29.14908 759.000
29.16903 764.000
29.18898 735.000
29.20892 774.000
29.22887 773.000
29.24882 802.000
29.26877 721.000
29.28871 739.000
29.30866 742.000
29.32861 775.000
29.34855 776.000
29.36850 760.000
29.38845 722.000
29.40839 739.000
29.42834 745.000
29.44829 775.000
29.46823 698.000
29.48818 758.000
29.50813 703.000
29.52808 707.000
29.54802 717.000
29.56797 697.000
29.58792 650.000
29.60786 684.000
29.62781 687.000
29.64776 664.000
29.66770 710.000
29.68765 735.000
29.70760 715.000
29.72755 775.000
29.74749 701.000
29.76744 698.000
29.78739 721.000
29.80733 702.000
29.82728 691.000
29.84723 709.000
29.86717 707.000
29.88712 712.000
29.90707 650.000
29.92701 748.000
29.94696 729.000
29.96691 722.000
29.98686 760.000
30.00680 729.000
30.02675 708.000
30.04670 686.000
30.06664 715.000
30.08659 764.000
30.10654 704.000
30.12648 749.000
30.14643 677.000
30.16638 687.000
30.18633 706.000
30.20627 748.000
30.22622 730.000
30.24617 691.000
30.26611 710.000
30.28606 711.000
30.30601 705.000
30.32595 759.000
30.34590 701.000
30.36585 713.000
30.38579 713.000
30.40574 756.000
30.42569 729.000
30.44564 718.000
30.46558 738.000
30.48553 744.000
30.50548 698.000
30.52542 751.000
30.54537 714.000
30.56532 708.000
30.58526 729.000
30.60521 698.000
30.62516 728.000
30.64511 745.000
30.66505 698.000
30.68500 706.000
30.70495 717.000
30.72489 764.000
30.74484 719.000
30.76479 711.000
30.78473 725.000
30.80468 686.000
30.82463 710.000
30.84458 687.000
30.86452 684.000
30.88447 700.000
30.90442 673.000
30.92436 702.000
30.94431 718.000
30.96426 707.000
30.98420 693.000
31.00415 739.000
31.02410 719.000
31.04404 695.000
31.06399 738.000
31.08394 708.000
31.10389 678.000
31.12383 676.000
31.14378 697.000
31.16373 724.000
31.18367 704.000
31.20362 774.000
31.22357 670.000
31.24351 725.000
31.26346 715.000
31.28341 690.000
31.30336 707.000
31.32330 744.000
31.34325 713.000
31.36320 695.000
31.38314 713.000
31.40309 737.000
31.42304 731.000
31.44298 715.000
31.46293 735.000
31.48288 750.000
31.50282 695.000
31.52277 749.000
31.54272 712.000
31.56267 680.000
31.58261 770.000
31.60256 706.000
31.62251 733.000
31.64245 745.000
31.66240 723.000
31.68235 693.000
31.70229 674.000
31.72224 693.000
31.74219 726.000
31.76214 713.000
31.78208 764.000
31.80203 726.000
31.82198 732.000
31.84192 761.000
31.86187 723.000
31.88182 734.000
31.90176 723.000
31.92171 695.000
31.94166 711.000
31.96160 759.000
31.98155 680.000
32.00150 727.000
32.02145 767.000
32.04139 766.000
32.06134 717.000
32.08129 759.000
32.10123 730.000
32.12118 790.000
32.14113 804.000
32.16107 818.000
32.18102 842.000
32.20097 871.000
32.22092 875.000
32.24086 899.000
32.26081 845.000
32.28076 819.000
32.30070 872.000
32.32065 894.000
32.34060 896.000
32.36054 861.000
32.38049 811.000
32.40044 806.000
32.42039 712.000
32.44033 747.000
32.46028 767.000
32.48023 741.000
32.50017 709.000
32.52012 720.000
32.54007 728.000
32.56001 685.000
32.57996 726.000
32.59991 752.000
32.61985 701.000
32.63980 683.000
32.65975 741.000
32.67970 742.000
32.69964 680.000
32.71959 691.000
32.73954 690.000
32.75948 751.000
32.77943 697.000
32.79938 696.000
32.81932 659.000
32.83927 618.000
32.85922 719.000
32.87917 708.000
32.89911 640.000
32.91906 693.000
32.93901 651.000
32.95895 688.000
32.97890 669.000
32.99885 699.000
33.01879 680.000
33.03874 713.000
33.05869 669.000
33.07863 735.000
33.09858 710.000
33.11853 718.000
33.13848 706.000
33.15842 635.000
33.17837 683.000
33.19832 663.000
33.21826 721.000
33.23821 627.000
33.25816 698.000
33.27810 717.000
33.29805 700.000
33.31800 737.000
33.33795 675.000
33.35789 731.000
33.37784 747.000
33.39779 655.000
33.41773 692.000
33.43768 665.000
33.45763 694.000
33.47757 647.000
33.49752 688.000
33.51747 738.000
33.53741 729.000
33.55736 710.000
33.57731 696.000
33.59726 694.000
33.61720 640.000
33.63715 659.000
33.65710 689.000
33.67704 629.000
33.69699 689.000
33.71694 706.000
33.73688 701.000
33.75683 698.000
33.77678 644.000
33.79673 682.000
33.81667 688.000
33.83662 671.000
33.85657 673.000
33.87651 704.000
33.89646 685.000
33.91641 631.000
33.93635 740.000
33.95630 686.000
33.97625 675.000
33.99620 680.000
34.01614 667.000
34.03609 730.000
34.05604 650.000
34.07598 660.000
34.09593 671.000
34.11588 690.000
34.13582 632.000
34.15577 710.000
34.17572 698.000
34.19566 699.000
34.21561 735.000
34.23556 736.000
34.25551 694.000
34.27545 778.000
34.29540 668.000
34.31535 740.000
34.33529 705.000
34.35524 780.000
34.37519 733.000
34.39513 777.000
34.41508 718.000
34.43503 776.000
34.45498 721.000
34.47492 769.000
34.49487 767.000
34.51482 766.000
34.53476 766.000
34.55471 778.000
34.57466 743.000
34.59460 790.000
34.61455 828.000
34.63450 807.000
34.65444 827.000
34.67439 746.000
34.69434 825.000
34.71429 811.000
34.73423 839.000
34.75418 795.000
34.77413 815.000
34.79407 866.000
34.81402 806.000
34.83397 865.000
34.85391 800.000
34.87386 899.000
34.89381 920.000
34.91376 923.000
34.93370 979.000
34.95365 1110.000
34.97360 1123.000
34.99354 1100.000
35.01349 1164.000
35.03344 1249.000
35.05338 1276.000
35.07333 1360.000
35.09328 1544.000
35.11322 1670.000
35.13317 1814.000
35.15312 1998.000
35.17307 2109.000
35.19301 2270.000
35.21296 2410.000
35.23291 2642.000
35.25285 2741.000
35.27280 2883.000
35.29275 2882.000
35.31269 2937.000
35.33264 2817.000
35.35259 2890.000
35.37254 2759.000
35.39248 2598.000
35.41243 2541.000
35.43238 2261.000
35.45232 2042.000
35.47227 1808.000
35.49222 1651.000
35.51216 1449.000
35.53211 1342.000
35.55206 1135.000
35.57201 1074.000
35.59195 980.000
35.61190 840.000
35.63185 821.000
35.65179 807.000
35.67174 753.000
35.69169 757.000
35.71163 722.000
35.73158 751.000
35.75153 735.000
35.77147 712.000
35.79142 746.000
35.81137 729.000
35.83132 724.000
35.85126 731.000
35.87121 702.000
35.89116 736.000
35.91110 731.000
35.93105 770.000
35.95100 701.000
35.97094 722.000
35.99089 759.000
36.01084 743.000
36.03079 687.000
36.05073 705.000
36.07068 707.000
36.09063 742.000
36.11057 788.000
36.13052 796.000
36.15047 827.000
36.17041 804.000
36.19036 829.000
36.21031 742.000
36.23025 795.000
36.25020 809.000
36.27015 812.000
36.29010 825.000
36.31004 790.000
36.32999 843.000
36.34994 879.000
36.36988 828.000
36.38983 885.000
36.40978 918.000
36.42972 911.000
36.44967 989.000
36.46962 945.000
36.48957 1083.000
36.50951 1173.000
36.52946 1269.000
36.54941 1319.000
36.56935 1408.000
36.58930 1503.000
36.60925 1632.000
36.62919 1799.000
36.64914 1827.000
36.66909 2086.000
36.68903 2347.000
36.70898 2497.000
36.72893 2934.000
36.74888 3206.000
36.76882 3695.000
36.78877 4190.000
36.80872 4587.000
36.82866 5151.000
36.84861 5269.000
36.86856 5309.000
36.88850 5363.000
36.90845 5412.000
36.92840 5221.000
36.94835 5032.000
36.96829 4402.000
36.98824 3779.000
37.00819 3316.000
37.02813 2823.000
37.04808 2289.000
37.06803 1978.000
37.08797 1649.000
37.10792 1370.000
37.12787 1065.000
37.14781 1037.000
37.16776 948.000
37.18771 901.000
37.20766 840.000
37.22760 805.000
37.24755 804.000
37.26750 777.000
37.28744 819.000
37.30739 785.000
37.32734 754.000
37.34728 745.000
37.36723 764.000
37.38718 760.000
37.40713 758.000
37.42707 797.000
37.44702 706.000
37.46697 725.000
37.48691 700.000
37.50686 749.000
37.52681 715.000
37.54675 774.000
37.56670 747.000
37.58665 731.000
37.60660 765.000
37.62654 750.000
37.64649 764.000
37.66644 759.000
37.68638 767.000
37.70633 775.000
37.72628 834.000
37.74622 714.000
37.76617 776.000
37.78612 784.000
37.80606 738.000
37.82601 813.000
37.84596 817.000
37.86591 845.000
37.88585 800.000
37.90580 780.000
37.92575 782.000
37.94569 839.000
37.96564 826.000
37.98559 873.000
38.00553 828.000
38.02548 882.000
38.04543 956.000
38.06538 985.000
38.08532 1042.000
38.10527 1085.000
38.12522 1062.000
38.14516 1249.000
38.16511 1266.000
38.18506 1327.000
38.20500 1408.000
38.22495 1484.000
38.24490 1643.000
38.26484 1771.000
38.28479 1838.000
38.30474 2094.000
38.32469 2168.000
38.34463 2241.000
38.36458 2503.000
38.38453 2657.000
38.40447 2701.000
38.42442 2816.000
38.44437 2809.000
38.46431 2912.000
38.48426 2953.000
38.50421 2889.000
38.52416 2708.000
38.54410 2511.000
38.56405 2339.000
38.58400 2152.000
38.60394 2098.000
38.62389 1893.000
38.64384 1726.000
38.66378 1753.000
38.68373 1578.000
38.70368 1475.000
38.72362 1454.000
38.74357 1364.000
38.76352 1376.000
38.78347 1312.000
38.80341 1220.000
38.82336 1232.000
38.84331 1219.000
38.86325 1141.000
38.88320 1052.000
38.90315 1005.000
38.92309 1021.000
38.94304 935.000
38.96299 908.000
38.98294 820.000
39.00288 799.000
39.02283 782.000
39.04278 751.000
39.06272 745.000
39.08267 747.000
39.10262 744.000
39.12256 744.000
39.14251 713.000
39.16246 725.000
39.18241 714.000
39.20235 723.000
39.22230 712.000
39.24225 700.000
39.26219 763.000
39.28214 690.000
39.30209 691.000
39.32203 720.000
39.34198 675.000
39.36193 705.000
39.38187 657.000
39.40182 712.000
39.42177 668.000
39.44172 684.000
39.46166 640.000
39.48161 685.000
39.50156 688.000
39.52150 705.000
39.54145 676.000
39.56140 725.000
39.58134 667.000
39.60129 670.000
39.62124 702.000
39.64119 673.000
39.66113 680.000
39.68108 674.000
39.70103 710.000
39.72097 666.000
39.74092 664.000
39.76087 701.000
39.78081 696.000
39.80076 631.000
39.82071 690.000
39.84065 657.000
39.86060 655.000
39.88055 677.000
39.90050 634.000
39.92044 727.000
39.94039 700.000
39.96034 645.000
39.98028 676.000
40.00023 701.000
40.02018 658.000
40.04012 645.000
40.06007 675.000
40.08002 668.000
40.09997 687.000
40.11991 694.000
40.13986 702.000
40.15981 687.000
40.17975 714.000
40.19970 731.000
40.21965 667.000
40.23959 649.000
40.25954 683.000
40.27949 682.000
40.29943 643.000
40.31938 643.000
40.33933 669.000
40.35928 687.000
40.37922 690.000
40.39917 719.000
40.41912 619.000
40.43906 675.000
40.45901 675.000
40.47896 620.000
40.49890 675.000
40.51885 696.000
40.53880 669.000
40.55875 693.000
40.57869 685.000
40.59864 666.000
40.61859 702.000
40.63853 667.000
40.65848 655.000
40.67843 703.000
40.69837 650.000
40.71832 701.000
40.73827 673.000
40.75822 717.000
40.77816 678.000
40.79811 698.000
40.81806 661.000
40.83800 673.000
40.85795 749.000
40.87790 704.000
40.89784 655.000
40.91779 736.000
40.93774 675.000
40.95768 652.000
40.97763 671.000
40.99758 666.000
41.01753 637.000
41.03747 692.000
41.05742 679.000
41.07737 703.000
41.09731 691.000
41.11726 702.000
41.13721 690.000
41.15715 683.000
41.17710 721.000
41.19705 761.000
41.21700 719.000
41.23694 818.000
41.25689 761.000
41.27684 715.000
41.29678 754.000
41.31673 751.000
41.33668 703.000
41.35662 701.000
41.37657 707.000
41.39652 757.000
41.41646 739.000
41.43641 718.000
41.45636 777.000
41.47631 760.000
41.49625 704.000
41.51620 775.000
41.53615 731.000
41.55609 739.000
41.57604 774.000
41.59599 794.000
41.61593 773.000
41.63588 786.000
41.65583 805.000
41.67578 791.000
41.69572 737.000
41.71567 817.000
41.73562 864.000
41.75556 819.000
41.77551 844.000
41.79546 858.000
41.81540 806.000
41.83535 818.000
41.85530 864.000
41.87524 865.000
41.89519 864.000
41.91514 840.000
41.93509 779.000
41.95503 855.000
41.97498 855.000
41.99493 895.000
42.01487 885.000
42.03482 925.000
42.05477 919.000
42.07471 900.000
42.09466 912.000
42.11461 930.000
42.13456 977.000
42.15450 949.000
42.17445 979.000
42.19440 998.000
42.21434 1003.000
42.23429 1050.000
42.25424 1051.000
42.27418 1105.000
42.29413 1045.000
42.31408 1095.000
42.33403 1155.000
42.35397 1205.000
42.37392 1297.000
42.39387 1259.000
42.41381 1362.000
42.43376 1353.000
42.45371 1445.000
42.47365 1539.000
42.49360 1524.000
42.51355 1772.000
42.53349 1814.000
42.55344 1870.000
42.57339 2000.000
42.59334 2154.000
42.61328 2279.000
42.63323 2285.000
42.65318 2491.000
42.67312 2713.000
42.69307 2803.000
42.71302 3078.000
42.73296 3252.000
42.75291 3391.000
42.77286 3613.000
42.79281 3718.000
42.81275 3777.000
42.83270 4110.000
42.85265 4156.000
42.87259 4056.000
42.89254 4290.000
42.91249 4405.000
42.93243 4254.000
42.95238 4221.000
42.97233 4231.000
42.99227 4116.000
43.01222 3885.000
43.03217 3752.000
43.05212 3667.000
43.07206 3444.000
43.09201 3157.000
43.11196 2972.000
43.13190 2903.000
43.15185 2717.000
43.17180 2508.000
43.19174 2381.000
43.21169 2179.000
43.23164 2021.000
43.25159 1796.000
43.27153 1742.000
43.29148 1650.000
43.31143 1624.000
43.33137 1469.000
43.35132 1380.000
43.37127 1331.000
43.39121 1222.000
43.41116 1197.000
43.43111 1159.000
43.45105 1064.000
43.47100 1111.000
43.49095 1052.000
43.51090 1010.000
43.53084 984.000
43.55079 996.000
43.57074 900.000
43.59068 898.000
43.61063 898.000
43.63058 867.000
43.65052 877.000
43.67047 820.000
43.69042 814.000
43.71037 856.000
43.73031 774.000
43.75026 813.000
43.77021 801.000
43.79015 739.000
43.81010 731.000
43.83005 780.000
43.84999 710.000
43.86994 809.000
43.88989 760.000
43.90984 756.000
43.92978 747.000
43.94973 714.000
43.96968 697.000
43.98962 705.000
44.00957 689.000
44.02952 734.000
44.04946 731.000
44.06941 653.000
44.08936 715.000
44.10930 696.000
44.12925 698.000
44.14920 651.000
44.16915 680.000
44.18909 715.000
44.20904 663.000
44.22899 639.000
44.24893 689.000
44.26888 699.000
44.28883 662.000
44.30877 670.000
44.32872 710.000
44.34867 665.000
44.36862 662.000
44.38856 702.000
44.40851 665.000
44.42846 683.000
44.44840 615.000
44.46835 684.000
44.48830 730.000
44.50824 651.000
44.52819 643.000
44.54814 690.000
44.56808 634.000
44.58803 634.000
44.60798 659.000
44.62793 652.000
44.64787 605.000
44.66782 632.000
44.68777 679.000
44.70771 641.000
44.72766 662.000
44.74761 660.000
44.76755 677.000
44.78750 665.000
44.80745 605.000
44.82740 593.000
44.84734 680.000
44.86729 632.000
44.88724 623.000
44.90718 648.000
44.92713 659.000
44.94708 683.000
44.96702 667.000
44.98697 650.000
45.00692 690.000
45.02686 627.000
45.04681 642.000
45.06676 646.000
45.08671 586.000
45.10665 625.000
45.12660 674.000
45.14655 653.000
45.16649 690.000
45.18644 644.000
45.20639 606.000
45.22633 645.000
45.24628 606.000
45.26623 632.000
45.28618 615.000
45.30612 680.000
45.32607 659.000
45.34602 637.000
45.36596 650.000
45.38591 653.000
45.40586 654.000
45.42580 625.000
45.44575 623.000
45.46570 625.000
45.48565 619.000
45.50559 660.000
45.52554 643.000
45.54549 646.000
45.56543 628.000
45.58538 625.000
45.60533 690.000
45.62527 639.000
45.64522 666.000
45.66517 633.000
45.68511 623.000
45.70506 656.000
45.72501 648.000
45.74496 647.000
45.76490 614.000
45.78485 650.000
45.80480 640.000
45.82474 671.000
45.84469 687.000
45.86464 642.000
45.88458 665.000
45.90453 623.000
45.92448 650.000
45.94443 689.000
45.96437 681.000
45.98432 649.000
46.00427 675.000
46.02421 705.000
46.04416 668.000
46.06411 652.000
46.08405 626.000
46.10400 686.000
46.12395 698.000
46.14389 637.000
46.16384 670.000
46.18379 631.000
46.20374 663.000
46.22368 698.000
46.24363 652.000
46.26358 710.000
46.28352 640.000
46.30347 590.000
46.32342 643.000
46.34336 642.000
46.36331 631.000
46.38326 616.000
46.40321 670.000
46.42315 606.000
46.44310 590.000
46.46305 594.000
46.48299 641.000
46.50294 606.000
46.52289 624.000
46.54283 624.000
46.56278 616.000
46.58273 579.000
46.60267 626.000
46.62262 585.000
46.64257 648.000
46.66252 595.000
46.68246 604.000
46.70241 616.000
46.72236 574.000
46.74230 615.000
46.76225 679.000
46.78220 609.000
46.80214 618.000
46.82209 584.000
46.84204 593.000
46.86199 617.000
46.88193 597.000
46.90188 618.000
46.92183 624.000
46.94177 634.000
46.96172 552.000
46.98167 622.000
47.00161 635.000
47.02156 608.000
47.04151 612.000
47.06146 600.000
47.08140 620.000
47.10135 594.000
47.12130 648.000
47.14124 594.000
47.16119 596.000
47.18114 608.000
47.20108 625.000
47.22103 599.000
47.24098 607.000
47.26092 649.000
47.28087 630.000
47.30082 569.000
47.32077 635.000
47.34071 585.000
47.36066 575.000
47.38061 653.000
47.40055 595.000
47.42050 591.000
47.44045 605.000
47.46039 627.000
47.48034 635.000
47.50029 590.000
47.52024 607.000
47.54018 634.000
47.56013 633.000
47.58008 618.000
47.60002 629.000
47.61997 596.000
47.63992 602.000
47.65986 633.000
47.67981 577.000
47.69976 645.000
47.71970 655.000
47.73965 615.000
47.75960 625.000
47.77955 657.000
47.79949 630.000
47.81944 614.000
47.83939 643.000
47.85933 650.000
47.87928 559.000
47.89923 614.000
47.91917 587.000
47.93912 642.000
47.95907 663.000
47.97902 638.000
47.99896 607.000
48.01891 643.000
48.03886 647.000
48.05880 639.000
48.07875 583.000
48.09870 654.000
48.11864 635.000
48.13859 680.000
48.15854 636.000
48.17848 602.000
48.19843 665.000
48.21838 623.000
48.23833 682.000
48.25827 658.000
48.27822 613.000
48.29817 704.000
48.31811 689.000
48.33806 757.000
48.35801 703.000
48.37795 754.000
48.39790 726.000
48.41785 778.000
48.43780 811.000
48.45774 820.000
48.47769 769.000
48.49764 916.000
48.51758 889.000
48.53753 937.000
48.55748 976.000
48.57742 992.000
48.59737 1018.000
48.61732 1070.000
48.63726 1104.000
48.65721 1105.000
48.67716 1189.000
48.69711 1201.000
48.71705 1198.000
48.73700 1100.000
48.75695 1118.000
48.77689 1096.000
48.79684 1068.000
48.81679 1043.000
48.83673 951.000
48.85668 965.000
48.87663 871.000
48.89658 878.000
48.91652 803.000
48.93647 784.000
48.95642 804.000
48.97636 709.000
48.99631 698.000
49.01626 729.000
49.03620 718.000
49.05615 662.000
49.07610 657.000
49.09605 625.000
49.11599 657.000
49.13594 631.000
49.15589 629.000
49.17583 633.000
49.19578 586.000
49.21573 613.000
49.23567 639.000
49.25562 613.000
49.27557 650.000
49.29551 598.000
49.31546 581.000
49.33541 568.000
49.35536 622.000
49.37530 618.000
49.39525 606.000
49.41520 600.000
49.43514 617.000
49.45509 594.000
49.47504 603.000
49.49498 631.000
49.51493 600.000
49.53488 613.000
49.55483 580.000
49.57477 594.000
49.59472 624.000
49.61467 638.000
49.63461 573.000
49.65456 595.000
49.67451 627.000
49.69445 624.000
49.71440 635.000
49.73435 582.000
49.75429 563.000
49.77424 624.000
49.79419 620.000
49.81414 604.000
49.83408 594.000
49.85403 591.000
49.87398 611.000
49.89392 601.000
49.91387 614.000
49.93382 591.000
49.95376 591.000
49.97371 609.000
49.99366 613.000
50.01361 547.000
50.03355 602.000
50.05350 622.000
50.07345 625.000
50.09339 641.000
50.11334 611.000
50.13329 629.000
50.15323 592.000
50.17318 596.000
50.19313 618.000
50.21307 580.000
50.23302 611.000
50.25297 584.000
50.27292 591.000
50.29286 597.000
50.31281 592.000
50.33276 627.000
50.35270 609.000
50.37265 605.000
50.39260 599.000
50.41254 498.000
50.43249 598.000
50.45244 662.000
50.47239 623.000
50.49233 586.000
50.51228 619.000
50.53223 618.000
50.55217 598.000
50.57212 599.000
50.59207 605.000
50.61201 583.000
50.63196 581.000
50.65191 612.000
50.67186 593.000
50.69180 600.000
50.71175 608.000
50.73170 592.000
50.75164 629.000
50.77159 637.000
50.79154 579.000
50.81148 620.000
50.83143 577.000
50.85138 623.000
50.87132 654.000
50.89127 537.000
50.91122 631.000
50.93117 600.000
50.95111 652.000
50.97106 621.000
50.99101 643.000
51.01095 615.000
51.03090 624.000
51.05085 625.000
51.07079 629.000
51.09074 633.000
51.11069 666.000
51.13064 641.000
51.15058 598.000
51.17053 579.000
51.19048 631.000
51.21042 592.000
51.23037 637.000
51.25032 596.000
51.27026 593.000
51.29021 621.000
51.31016 596.000
51.33010 582.000
51.35005 637.000
51.37000 603.000
51.38995 597.000
51.40989 594.000
51.42984 585.000
51.44979 572.000
51.46973 617.000
51.48968 574.000
51.50963 571.000
51.52957 594.000
51.54952 590.000
51.56947 595.000
51.58942 582.000
51.60936 563.000
51.62931 599.000
51.64926 615.000
51.66920 593.000
51.68915 582.000
51.70910 621.000
51.72904 587.000
51.74899 605.000
51.76894 608.000
51.78888 591.000
51.80883 648.000
51.82878 630.000
51.84873 623.000
51.86867 628.000
51.88862 614.000
51.90857 585.000
51.92851 608.000
51.94846 619.000
51.96841 634.000
51.98835 596.000
52.00830 595.000
52.02825 643.000
52.04820 559.000
52.06814 594.000
52.08809 574.000
52.10804 580.000
52.12798 572.000
52.14793 606.000
52.16788 609.000
52.18782 562.000
52.20777 597.000
52.22772 558.000
52.24767 593.000
52.26761 596.000
52.28756 582.000
52.30751 622.000
52.32745 598.000
52.34740 574.000
52.36735 589.000
52.38729 583.000
52.40724 571.000
52.42719 580.000
52.44713 610.000
52.46708 589.000
52.48703 603.000
52.50698 586.000
52.52692 633.000
52.54687 587.000
52.56682 620.000
52.58676 589.000
52.60671 622.000
52.62666 578.000
52.64660 628.000
52.66655 579.000
52.68650 671.000
52.70645 597.000
52.72639 648.000
52.74634 609.000
52.76629 640.000
52.78623 633.000
52.80618 635.000
52.82613 637.000
52.84607 683.000
52.86602 637.000
52.88597 666.000
52.90591 686.000
52.92586 661.000
52.94581 650.000
52.96576 663.000
52.98570 708.000
53.00565 690.000
53.02560 677.000
53.04554 753.000
53.06549 686.000
53.08544 726.000
53.10538 711.000
53.12533 784.000
53.14528 725.000
53.16523 718.000
53.18517 738.000
53.20512 756.000
53.22507 737.000
53.24501 678.000
53.26496 666.000
53.28491 719.000
53.30485 694.000
53.32480 658.000
53.34475 698.000
53.36469 726.000
53.38464 673.000
53.40459 668.000
53.42454 667.000
53.44448 665.000
53.46443 645.000
53.48438 693.000
53.50432 660.000
53.52427 642.000
53.54422 618.000
53.56416 656.000
53.58411 641.000
53.60406 629.000
53.62401 620.000
53.64395 639.000
53.66390 658.000
53.68385 590.000
53.70379 643.000
53.72374 620.000
53.74369 587.000
53.76363 583.000
53.78358 603.000
53.80353 611.000
53.82348 594.000
53.84342 618.000
53.86337 610.000
53.88332 574.000
53.90326 590.000
53.92321 600.000
53.94316 551.000
53.96310 603.000
53.98305 598.000
54.00300 586.000
54.02294 569.000
54.04289 570.000
54.06284 620.000
54.08279 602.000
54.10273 633.000
54.12268 617.000
54.14263 602.000
54.16257 578.000
54.18252 574.000
54.20247 609.000
54.22241 611.000
54.24236 592.000
54.26231 629.000
54.28226 618.000
54.30220 567.000
54.32215 617.000
54.34210 620.000
54.36204 598.000
54.38199 565.000
54.40194 584.000
54.42188 596.000
54.44183 574.000
54.46178 589.000
54.48172 594.000
54.50167 576.000
54.52162 589.000
54.54157 605.000
54.56151 580.000
54.58146 578.000
54.60141 607.000
54.62135 588.000
54.64130 566.000
54.66125 610.000
54.68119 568.000
54.70114 619.000
54.72109 601.000
54.74104 568.000
54.76098 610.000
54.78093 631.000
54.80088 608.000
54.82082 555.000
54.84077 604.000
54.86072 569.000
54.88066 578.000
54.90061 619.000
54.92056 592.000
54.94050 573.000
54.96045 547.000
54.98040 577.000
55.00035 596.000
55.02029 593.000
55.04024 585.000
55.06019 606.000
55.08013 540.000
55.10008 580.000
55.12003 551.000
55.13997 600.000
55.15992 627.000
55.17987 601.000
55.19982 589.000
55.21976 600.000
55.23971 600.000
55.25966 619.000
55.27960 572.000
55.29955 602.000
55.31950 581.000
55.33944 570.000
55.35939 608.000
55.37934 594.000
55.39929 547.000
55.41923 579.000
55.43918 587.000
55.45913 567.000
55.47907 590.000
55.49902 586.000
55.51897 560.000
55.53891 582.000
55.55886 587.000
55.57881 624.000
55.59875 569.000
55.61870 627.000
55.63865 585.000
55.65860 626.000
55.67854 582.000
55.69849 644.000
55.71844 606.000
55.73838 564.000
55.75833 567.000
55.77828 602.000
55.79822 554.000
55.81817 622.000
55.83812 588.000
55.85807 622.000
55.87801 576.000
55.89796 597.000
55.91791 602.000
55.93785 561.000
55.95780 582.000
55.97775 614.000
55.99769 602.000
56.01764 592.000
56.03759 571.000
56.05753 598.000
56.07748 562.000
56.09743 600.000
56.11738 585.000
56.13732 578.000
56.15727 612.000
56.17722 571.000
56.19716 593.000
56.21711 629.000
56.23706 561.000
56.25700 568.000
56.27695 603.000
56.29690 640.000
56.31685 603.000
56.33679 609.000
56.35674 595.000
56.37669 621.000
56.39663 624.000
56.41658 606.000
56.43653 550.000
56.45647 584.000
56.47642 619.000
56.49637 632.000
56.51631 637.000
56.53626 612.000
56.55621 568.000
56.57616 645.000
56.59610 561.000
56.61605 581.000
56.63600 628.000
56.65594 655.000
56.67589 584.000
56.69584 578.000
56.71578 621.000
56.73573 625.000
56.75568 583.000
56.77563 581.000
56.79557 581.000
56.81552 559.000
56.83547 615.000
56.85541 600.000
56.87536 617.000
56.89531 575.000
56.91525 577.000
56.93520 621.000
56.95515 560.000
56.97510 566.000
56.99504 515.000
57.01499 596.000
57.03494 598.000
57.05488 573.000
57.07483 577.000
57.09478 618.000
57.11472 591.000
57.13467 614.000
57.15462 592.000
57.17456 563.000
57.19451 577.000
57.21446 600.000
57.23441 620.000
57.25435 635.000
57.27430 575.000
57.29425 618.000
57.31419 591.000
57.33414 584.000
57.35409 627.000
57.37403 591.000
57.39398 586.000
57.41393 605.000
57.43388 611.000
57.45382 591.000
57.47377 610.000
57.49372 567.000
57.51366 642.000
57.53361 641.000
57.55356 631.000
57.57350 636.000
57.59345 584.000
57.61340 663.000
57.63334 586.000
57.65329 572.000
57.67324 684.000
57.69319 680.000
57.71313 684.000
57.73308 647.000
57.75303 665.000
57.77297 717.000
57.79292 694.000
57.81287 753.000
57.83281 691.000
57.85276 738.000
57.87271 802.000
57.89266 854.000
57.91260 782.000
57.93255 832.000
57.95250 848.000
57.97244 933.000
57.99239 945.000
58.01234 932.000
58.03228 901.000
58.05223 912.000
58.07218 880.000
58.09212 857.000
58.11207 820.000
58.13202 831.000
58.15197 819.000
58.17191 775.000
58.19186 704.000
58.21181 757.000
58.23175 755.000
58.25170 663.000
58.27165 694.000
58.29159 744.000
58.31154 678.000
58.33149 655.000
58.35144 634.000
58.37138 650.000
58.39133 604.000
58.41128 616.000
58.43122 627.000
58.45117 612.000
58.47112 616.000
58.49106 615.000
58.51101 581.000
58.53096 603.000
58.55090 569.000
58.57085 598.000
58.59080 567.000
58.61075 618.000
58.63069 584.000
58.65064 611.000
58.67059 566.000
58.69053 594.000
58.71048 593.000
58.73043 571.000
58.75037 560.000
58.77032 589.000
58.79027 553.000
58.81022 554.000
58.83016 617.000
58.85011 542.000
58.87006 611.000
58.89000 562.000
58.90995 601.000
58.92990 566.000
58.94984 593.000
58.96979 620.000
58.98974 576.000
59.00969 609.000
59.02963 583.000
59.04958 595.000
59.06953 620.000
59.08947 647.000
59.10942 608.000
59.12937 610.000
59.14931 591.000
59.16926 588.000
59.18921 596.000
59.20915 564.000
59.22910 626.000
59.24905 583.000
59.26900 583.000
59.28894 600.000
59.30889 624.000
59.32884 563.000
59.34878 595.000
59.36873 543.000
59.38868 575.000
59.40862 577.000
59.42857 600.000
59.44852 520.000
59.46847 603.000
59.48841 618.000
59.50836 603.000
59.52831 591.000
59.54825 600.000
59.56820 619.000
59.58815 600.000
59.60809 604.000
59.62804 611.000
59.64799 619.000
59.66793 585.000
59.68788 606.000
59.70783 570.000
59.72778 594.000
59.74772 611.000
59.76767 572.000
59.78762 576.000
59.80756 645.000
59.82751 578.000
59.84746 562.000
59.86740 603.000
59.88735 661.000
59.90730 550.000
59.92725 612.000
59.94719 630.000
59.96714 607.000
59.98709 597.000
60.00703 651.000
60.02698 614.000
60.04693 638.000
60.06687 574.000
60.08682 601.000
60.10677 551.000
60.12671 619.000
60.14666 600.000
60.16661 638.000
60.18656 614.000
60.20650 581.000
60.22645 610.000
60.24640 633.000
60.26634 639.000
60.28629 619.000
60.30624 593.000
60.32618 594.000
60.34613 622.000
60.36608 650.000
60.38603 579.000
60.40597 638.000
60.42592 598.000
60.44587 641.000
60.46581 590.000
60.48576 574.000
60.50571 622.000
60.52565 651.000
60.54560 587.000
60.56555 611.000
60.58550 636.000
60.60544 614.000
60.62539 684.000
60.64534 680.000
60.66528 634.000
60.68523 639.000
60.70518 664.000
60.72512 623.000
60.74507 651.000
60.76502 607.000
60.78496 645.000
60.80491 588.000
60.82486 608.000
60.84481 653.000
60.86475 622.000
60.88470 672.000
60.90465 623.000
60.92459 608.000
60.94454 709.000
60.96449 647.000
60.98443 655.000
61.00438 690.000
61.02433 696.000
61.04428 710.000
61.06422 731.000
61.08417 749.000
61.10412 708.000
61.12406 747.000
61.14401 742.000
61.16396 846.000
61.18390 800.000
61.20385 821.000
61.22380 856.000
61.24374 859.000
61.26369 864.000
61.28364 934.000
61.30359 962.000
61.32353 1016.000
61.34348 1033.000
61.36343 1028.000
61.38337 1037.000
61.40332 1116.000
61.42327 1026.000
61.44321 1107.000
61.46316 1025.000
61.48311 1020.000
61.50306 1020.000
61.52300 1043.000
61.54295 1047.000
61.56290 990.000
61.58284 968.000
61.60279 994.000
61.62274 961.000
61.64268 869.000
61.66263 929.000
61.68258 879.000
61.70252 901.000
61.72247 921.000
61.74242 835.000
61.76237 852.000
61.78231 875.000
61.80226 948.000
61.82221 931.000
61.84215 945.000
61.86210 952.000
61.88205 1022.000
61.90199 1014.000
61.92194 1011.000
61.94189 1090.000
61.96184 1072.000
61.98178 1136.000
62.00173 1179.000
62.02168 1170.000
62.04162 1280.000
62.06157 1329.000
62.08152 1419.000
62.10146 1492.000
62.12141 1534.000
62.14136 1582.000
62.16131 1623.000
62.18125 1775.000
62.20120 1783.000
62.22115 1952.000
62.24109 2033.000
62.26104 2141.000
62.28099 2199.000
62.30093 2197.000
62.32088 2417.000
62.34083 2528.000
62.36077 2561.000
62.38072 2625.000
62.40067 2562.000
62.42062 2554.000
62.44056 2669.000
62.46051 2574.000
62.48046 2529.000
62.50040 2483.000
62.52035 2358.000
62.54030 2208.000
62.56024 2207.000
62.58019 2088.000
62.60014 2007.000
62.62009 1851.000
62.64003 1739.000
62.65998 1603.000
62.67993 1585.000
62.69987 1430.000
62.71982 1376.000
62.73977 1287.000
62.75971 1280.000
62.77966 1200.000
62.79961 1038.000
62.81955 1087.000
62.83950 1061.000
62.85945 946.000
62.87940 938.000
62.89934 868.000
62.91929 872.000
62.93924 844.000
62.95918 796.000
62.97913 773.000
62.99908 797.000
63.01902 798.000
63.03897 789.000
63.05892 789.000
63.07887 727.000
63.09881 719.000
63.11876 721.000
63.13871 701.000
63.15865 745.000
63.17860 689.000
63.19855 771.000
63.21849 695.000
63.23844 740.000
63.25839 670.000
63.27833 673.000
63.29828 684.000
63.31823 699.000
63.33818 701.000
63.35812 650.000
63.37807 602.000
63.39802 638.000
63.41796 664.000
63.43791 637.000
63.45786 630.000
63.47780 655.000
63.49775 627.000
63.51770 615.000
63.53765 650.000
63.55759 646.000
63.57754 622.000
63.59749 630.000
63.61743 660.000
63.63738 651.000
63.65733 641.000
63.67727 613.000
63.69722 600.000
63.71717 644.000
63.73712 669.000
63.75706 619.000
63.77701 587.000
63.79696 673.000
63.81690 593.000
63.83685 636.000
63.85680 611.000
63.87674 641.000
63.89669 620.000
63.91664 635.000
63.93658 623.000
63.95653 580.000
63.97648 591.000
63.99643 618.000
64.01637 636.000
64.03632 649.000
64.05627 612.000
64.07621 620.000
64.09616 617.000
64.11611 577.000
64.13605 606.000
64.15600 639.000
64.17595 641.000
64.19590 646.000
64.21584 626.000
64.23579 568.000
64.25574 595.000
64.27568 592.000
64.29563 600.000
64.31558 632.000
64.33552 643.000
64.35547 627.000
64.37542 663.000
64.39536 590.000
64.41531 601.000
64.43526 645.000
64.45521 619.000
64.47515 598.000
64.49510 612.000
64.51505 620.000
64.53499 608.000
64.55494 660.000
64.57489 641.000
64.59483 601.000
64.61478 608.000
64.63473 611.000
64.65468 575.000
64.67462 598.000
64.69457 598.000
64.71452 569.000
64.73446 629.000
64.75441 615.000
64.77436 585.000
64.79430 600.000
64.81425 633.000
64.83420 601.000
64.85414 630.000
64.87409 638.000
64.89404 644.000
64.91399 633.000
64.93393 636.000
64.95388 639.000
64.97383 677.000
64.99377 650.000
65.01372 637.000
65.03367 636.000
65.05361 642.000
65.07356 692.000
65.09351 690.000
65.11346 673.000
65.13340 693.000
65.15335 699.000
65.17330 760.000
65.19324 710.000
65.21319 707.000
65.23314 709.000
65.25308 704.000
65.27303 742.000
65.29298 816.000
65.31293 781.000
65.33287 818.000
65.35282 772.000
65.37277 773.000
65.39271 812.000
65.41266 835.000
65.43261 768.000
65.45255 801.000
65.47250 822.000
65.49245 792.000
65.51239 776.000
65.53234 786.000
65.55229 864.000
65.57224 798.000
65.59218 765.000
65.61213 796.000
65.63208 826.000
65.65202 826.000
65.67197 771.000
65.69192 768.000
65.71186 756.000
65.73181 771.000
65.75176 806.000
65.77171 744.000
65.79165 721.000
65.81160 737.000
65.83155 789.000
65.85149 804.000
65.87144 756.000
65.89139 772.000
65.91133 760.000
65.93128 736.000
65.95123 770.000
65.97117 805.000
65.99112 825.000
66.01107 785.000
66.03102 794.000
66.05096 863.000
66.07091 837.000
66.09086 851.000
66.11080 826.000
66.13075 888.000
66.15070 859.000
66.17064 907.000
66.19059 940.000
66.21054 903.000
66.23049 862.000
66.25043 909.000
66.27038 899.000
66.29033 851.000
66.31027 851.000
66.33022 840.000
66.35017 791.000
66.37011 772.000
66.39006 826.000
66.41001 809.000
66.42995 756.000
66.44990 707.000
66.46985 699.000
66.48980 692.000
66.50974 712.000
66.52969 667.000
66.54964 620.000
66.56958 643.000
66.58953 649.000
66.60948 606.000
66.62942 644.000
66.64937 617.000
66.66932 612.000
66.68927 634.000
66.70921 611.000
66.72916 604.000
66.74911 644.000
66.76905 612.000
66.78900 628.000
66.80895 620.000
66.82889 606.000
66.84884 608.000
66.86879 610.000
66.88874 613.000
66.90868 610.000
66.92863 624.000
66.94858 635.000
66.96852 608.000
66.98847 639.000
67.00842 600.000
67.02836 658.000
67.04831 631.000
67.06826 615.000
67.08820 618.000
67.10815 610.000
67.12810 631.000
67.14805 620.000
67.16799 623.000
67.18794 625.000
67.20789 650.000
67.22783 634.000
67.24778 581.000
67.26773 671.000
67.28767 642.000
67.30762 674.000
67.32757 654.000
67.34752 681.000
67.36746 672.000
67.38741 661.000
67.40736 688.000
67.42730 691.000
67.44725 742.000
67.46720 743.000
67.48714 796.000
67.50709 782.000
67.52704 790.000
67.54698 840.000
67.56693 850.000
67.58688 847.000
67.60683 842.000
67.62677 807.000
67.64672 849.000
67.66667 834.000
67.68661 922.000
67.70656 884.000
67.72651 929.000
67.74645 915.000
67.76640 920.000
67.78635 912.000
67.80630 953.000
67.82624 904.000
67.84619 947.000
67.86614 889.000
67.88608 897.000
67.90603 840.000
67.92598 870.000
67.94592 821.000
67.96587 871.000
67.98582 850.000
68.00576 836.000
68.02571 798.000
68.04566 723.000
68.06561 794.000
68.08555 753.000
68.10550 718.000
68.12545 730.000
68.14539 736.000
68.16534 708.000
68.18529 714.000
68.20523 678.000
68.22518 657.000
68.24513 688.000
68.26508 570.000
68.28502 621.000
68.30497 667.000
68.32492 613.000
68.34486 638.000
68.36481 615.000
68.38476 639.000
68.40470 544.000
68.42465 626.000
68.44460 544.000
68.46455 632.000
68.48449 584.000
68.50444 614.000
68.52439 576.000
68.54433 600.000
68.56428 609.000
68.58423 607.000
68.60417 595.000
68.62412 637.000
68.64407 607.000
68.66401 571.000
68.68396 588.000
68.70391 575.000
68.72386 624.000
68.74380 589.000
68.76375 592.000
68.78370 627.000
68.80364 547.000
68.82359 572.000
68.84354 568.000
68.86348 610.000
68.88343 588.000
68.90338 581.000
68.92333 583.000
68.94327 594.000
68.96322 572.000
68.98317 602.000
69.00311 605.000
69.02306 596.000
69.04301 581.000
69.06295 607.000
69.08290 581.000
69.10285 583.000
69.12279 593.000
69.14274 615.000
69.16269 588.000
69.18264 589.000
69.20258 579.000
69.22253 588.000
69.24248 600.000
69.26242 576.000
69.28237 618.000
69.30232 532.000
69.32226 568.000
69.34221 588.000
69.36216 627.000
69.38211 610.000
69.40205 544.000
69.42200 544.000
69.44195 601.000
69.46189 579.000
69.48184 561.000
69.50179 557.000
69.52173 596.000
69.54168 598.000
69.56163 571.000
69.58157 561.000
69.60152 594.000
69.62147 552.000
69.64142 579.000
69.66136 552.000
69.68131 620.000
69.70126 554.000
69.72120 598.000
69.74115 615.000
69.76110 611.000
69.78104 538.000
69.80099 607.000
69.82094 598.000
69.84089 582.000
69.86083 573.000
69.88078 619.000
69.90073 558.000
69.92067 548.000
69.94062 564.000
69.96057 580.000
69.98051 574.000
70.00046 538.000
70.02041 612.000
70.04035 545.000
70.06030 574.000
70.08025 593.000
70.10020 615.000
70.12014 591.000
70.14009 601.000
70.16004 598.000
70.17998 591.000
70.19993 559.000
70.21988 586.000
70.23982 556.000
70.25977 584.000
70.27972 612.000
70.29967 610.000
70.31961 571.000
70.33956 547.000
70.35951 610.000
70.37945 584.000
70.39940 563.000
70.41935 585.000
70.43929 588.000
70.45924 584.000
70.47919 551.000
70.49914 610.000
70.51908 582.000
70.53903 651.000
70.55898 601.000
70.57892 591.000
70.59887 620.000
70.61882 555.000
70.63876 594.000
70.65871 613.000
70.67866 583.000
70.69860 591.000
70.71855 570.000
70.73850 546.000
70.75845 615.000
70.77839 577.000
70.79834 569.000
70.81829 555.000
70.83823 578.000
70.85818 601.000
70.87813 582.000
70.89807 615.000
70.91802 552.000
70.93797 613.000
70.95792 580.000
70.97786 589.000
70.99781 648.000
71.01776 548.000
71.03770 576.000
71.05765 565.000
71.07760 609.000
71.09754 557.000
71.11749 576.000
71.13744 589.000
71.15738 585.000
71.17733 544.000
71.19728 591.000
71.21723 628.000
71.23717 585.000
71.25712 601.000
71.27707 611.000
71.29701 563.000
71.31696 618.000
71.33691 571.000
71.35685 546.000
71.37680 598.000
71.39675 616.000
71.41670 588.000
71.43664 593.000
71.45659 561.000
71.47654 547.000
71.49648 570.000
71.51643 585.000
71.53638 627.000
71.55632 632.000
71.57627 624.000
71.59622 583.000
71.61616 642.000
71.63611 604.000
71.65606 613.000
71.67601 558.000
71.69595 616.000
71.71590 604.000
71.73585 631.000
71.75579 550.000
71.77574 605.000
71.79569 604.000
71.81563 637.000
71.83558 593.000
71.85553 614.000
71.87548 640.000
71.89542 636.000
71.91537 637.000
71.93532 636.000
71.95526 607.000
71.97521 691.000
71.99516 642.000
72.01510 658.000
72.03505 736.000
72.05500 652.000
72.07495 703.000
72.09489 662.000
72.11484 714.000
72.13479 692.000
72.15473 683.000
72.17468 712.000
72.19463 697.000
72.21457 721.000
72.23452 715.000
72.25447 691.000
72.27441 732.000
72.29436 694.000
72.31431 735.000
72.33426 723.000
72.35420 709.000
72.37415 668.000
72.39410 653.000
72.41404 675.000
72.43399 656.000
72.45394 647.000
72.47388 696.000
72.49383 651.000
72.51378 606.000
72.53373 638.000
72.55367 651.000
72.57362 656.000
72.59357 619.000
72.61351 583.000
72.63346 611.000
72.65341 666.000
72.67335 596.000
72.69330 623.000
72.71325 599.000
72.73319 642.000
72.75314 649.000
72.77309 578.000
72.79304 556.000
72.81298 536.000
72.83293 616.000
72.85288 606.000
72.87282 617.000
72.89277 624.000
72.91272 614.000
72.93266 615.000
72.95261 616.000
72.97256 556.000
72.99251 599.000
73.01245 585.000
73.03240 574.000
73.05235 679.000
73.07229 622.000
73.09224 598.000
73.11219 641.000
73.13213 583.000
73.15208 559.000
73.17203 675.000
73.19197 560.000
73.21192 589.000
73.23187 598.000
73.25182 577.000
73.27176 609.000
73.29171 604.000
73.31166 656.000
73.33160 630.000
73.35155 593.000
73.37150 646.000
73.39144 605.000
73.41139 613.000
73.43134 614.000
73.45129 587.000
73.47123 577.000
73.49118 610.000
73.51113 607.000
73.53107 638.000
73.55102 583.000
73.57097 614.000
73.59091 563.000
73.61086 639.000
73.63081 619.000
73.65076 606.000
73.67070 632.000
73.69065 598.000
73.71060 588.000
73.73054 637.000
73.75049 597.000
73.77044 590.000
73.79038 634.000
73.81033 670.000
73.83028 625.000
73.85022 620.000
73.87017 604.000
73.89012 647.000
73.91007 627.000
73.93001 657.000
73.94996 620.000
73.96991 635.000
73.98985 630.000
74.00980 635.000
74.02975 656.000
74.04969 653.000
74.06964 623.000
74.08959 680.000
74.10954 644.000
74.12948 634.000
74.14943 658.000
74.16938 699.000
74.18932 680.000
74.20927 672.000
74.22922 698.000
74.24916 683.000
74.26911 700.000
74.28906 696.000
74.30900 685.000
74.32895 735.000
74.34890 674.000
74.36885 745.000
74.38879 751.000
74.40874 775.000
74.42869 745.000
74.44863 805.000
74.46858 800.000
74.48853 821.000
74.50847 883.000
74.52842 859.000
74.54837 921.000
74.56832 859.000
74.58826 986.000
74.60821 999.000
74.62816 969.000
74.64810 1065.000
74.66805 1039.000
74.68800 1060.000
74.70794 1221.000
74.72789 1127.000
74.74784 1142.000
74.76778 1187.000
74.78773 1269.000
74.80768 1254.000
74.82763 1272.000
74.84757 1238.000
74.86752 1249.000
74.88747 1298.000
74.90741 1244.000
74.92736 1295.000
74.94731 1271.000
74.96725 1280.000
74.98720 1315.000
75.00715 1271.000
75.02710 1233.000
75.04704 1253.000
75.06699 1291.000
75.08694 1212.000
75.10688 1220.000
75.12683 1200.000
75.14678 1153.000
75.16672 1117.000
75.18667 1098.000
75.20662 1021.000
75.22657 1030.000
75.24651 1027.000
75.26646 948.000
75.28641 928.000
75.30635 892.000
75.32630 927.000
75.34625 938.000
75.36619 887.000
75.38614 824.000
75.40609 794.000
75.42603 803.000
75.44598 799.000
75.46593 747.000
75.48588 787.000
75.50582 749.000
75.52577 729.000
75.54572 771.000
75.56566 726.000
75.58561 739.000
75.60556 703.000
75.62550 709.000
75.64545 663.000
75.66540 637.000
75.68535 680.000
75.70529 677.000
75.72524 659.000
75.74519 692.000
75.76513 688.000
75.78508 625.000
75.80503 641.000
75.82497 650.000
75.84492 604.000
75.86487 631.000
75.88481 607.000
75.90476 601.000
75.92471 661.000
75.94466 625.000
75.96460 666.000
75.98455 628.000
76.00450 594.000
76.02444 587.000
76.04439 589.000
76.06434 639.000
76.08428 628.000
76.10423 597.000
76.12418 657.000
76.14413 576.000
76.16407 572.000
76.18402 650.000
76.20397 567.000
76.22391 627.000
76.24386 585.000
76.26381 637.000
76.28375 563.000
76.30370 620.000
76.32365 652.000
76.34359 609.000
76.36354 634.000
76.38349 602.000
76.40344 601.000
76.42338 564.000
76.44333 611.000
76.46328 630.000
76.48322 589.000
76.50317 579.000
76.52312 634.000
76.54306 610.000
76.56301 629.000
76.58296 600.000
76.60291 605.000
76.62285 636.000
76.64280 622.000
76.66275 567.000
76.68269 627.000
76.70264 583.000
76.72259 574.000
76.74253 628.000
76.76248 592.000
76.78243 622.000
76.80238 627.000
76.82232 608.000
76.84227 558.000
76.86222 608.000
76.88216 571.000
76.90211 608.000
76.92206 586.000
76.94200 554.000
76.96195 632.000
76.98190 586.000
77.00184 581.000
77.02179 603.000
77.04174 590.000
77.06169 625.000
77.08163 608.000
77.10158 574.000
77.12153 524.000
77.14147 567.000
77.16142 591.000
77.18137 625.000
77.20131 615.000
77.22126 598.000
77.24121 560.000
77.26116 627.000
77.28110 590.000
77.30105 569.000
77.32100 578.000
77.34094 589.000
77.36089 576.000
77.38084 609.000
77.40078 576.000
77.42073 611.000
77.44068 618.000
77.46062 558.000
77.48057 589.000
77.50052 597.000
77.52047 568.000
77.54041 608.000
77.56036 595.000
77.58031 584.000
77.60025 610.000
77.62020 568.000
77.64015 591.000
77.66009 603.000
77.68004 589.000
77.69999 545.000
77.71994 585.000
77.73988 604.000
77.75983 604.000
77.77978 588.000
77.79972 581.000
77.81967 583.000
77.83962 603.000
77.85956 617.000
77.87951 617.000
77.89946 637.000
77.91940 555.000
77.93935 602.000
77.95930 608.000
77.97925 576.000
77.99919 580.000
78.01914 626.000
78.03909 600.000
78.05903 568.000
78.07898 646.000
78.09893 600.000
78.11887 593.000
78.13882 608.000
78.15877 614.000
78.17872 589.000
78.19866 624.000
78.21861 608.000
78.23856 616.000
78.25850 635.000
78.27845 633.000
78.29840 597.000
78.31834 662.000
78.33829 637.000
78.35824 684.000
78.37819 675.000
78.39813 669.000
78.41808 690.000
78.43803 669.000
78.45797 681.000
78.47792 736.000
78.49787 737.000
78.51781 806.000
78.53776 777.000
78.55771 854.000
78.57765 826.000
78.59760 898.000
78.61755 864.000
78.63750 943.000
78.65744 957.000
78.67739 1039.000
78.69734 1009.000
78.71728 1071.000
78.73723 1100.000
78.75718 1173.000
78.77712 1263.000
78.79707 1334.000
78.81702 1259.000
78.83697 1259.000
78.85691 1283.000
78.87686 1220.000
78.89681 1247.000
78.91675 1199.000
78.93670 1122.000
78.95665 1115.000
78.97659 1097.000
78.99654 1065.000
79.01649 1010.000
79.03643 1003.000
79.05638 1019.000
79.07633 979.000
79.09628 903.000
79.11622 881.000
79.13617 866.000
79.15612 786.000
79.17606 805.000
79.19601 795.000
79.21596 737.000
79.23590 669.000
79.25585 720.000
79.27580 678.000
79.29575 648.000
79.31569 653.000
79.33564 625.000
79.35559 660.000
79.37553 660.000
79.39548 631.000
79.41543 630.000
79.43537 628.000
79.45532 617.000
79.47527 609.000
79.49521 619.000
79.51516 641.000
79.53511 605.000
79.55506 611.000
79.57500 581.000
79.59495 614.000
79.61490 602.000
79.63484 639.000
79.65479 626.000
79.67474 637.000
79.69468 603.000
79.71463 565.000
79.73458 626.000
79.75453 589.000
79.77447 598.000
79.79442 633.000
79.81437 596.000
79.83431 616.000
79.85426 650.000
79.87421 551.000
79.89415 589.000
79.91410 575.000
79.93405 629.000
79.95399 614.000
79.97394 590.000
79.99389 608.000
80.01384 612.000
80.03378 640.000
80.05373 602.000
80.07368 645.000
80.09362 583.000
80.11357 629.000
80.13352 607.000
80.15346 618.000
80.17341 584.000
80.19336 640.000
80.21331 606.000
80.23325 654.000
80.25320 639.000
80.27315 658.000
80.29309 626.000
80.31304 661.000
80.33299 621.000
80.35293 598.000
80.37288 610.000
80.39283 624.000
80.41278 578.000
80.43272 577.000
80.45267 550.000
80.47262 615.000
80.49256 626.000
80.51251 597.000
80.53246 628.000
80.55240 615.000
80.57235 572.000
80.59230 577.000
80.61224 594.000
80.63219 623.000
80.65214 550.000
80.67209 600.000
80.69203 596.000
80.71198 547.000
80.73193 558.000
80.75187 573.000
80.77182 599.000
80.79177 613.000
80.81171 566.000
80.83166 568.000
80.85161 633.000
80.87156 549.000
80.89150 610.000
80.91145 577.000
80.93140 583.000
80.95134 571.000
80.97129 560.000
80.99124 578.000
81.01118 533.000
81.03113 599.000
81.05108 582.000
81.07102 570.000
81.09097 555.000
81.11092 558.000
81.13087 583.000
81.15081 580.000
81.17076 540.000
81.19071 577.000
81.21065 583.000
81.23060 550.000
81.25055 572.000
81.27049 566.000
81.29044 578.000
81.31039 546.000
81.33034 582.000
81.35028 582.000
81.37023 549.000
81.39018 575.000
81.41012 573.000
81.43007 625.000
81.45002 569.000
81.46996 525.000
81.48991 597.000
81.50986 606.000
81.52980 579.000
81.54975 602.000
81.56970 567.000
81.58965 534.000
81.60959 593.000
81.62954 566.000
81.64949 547.000
81.66943 561.000
81.68938 546.000
81.70933 565.000
81.72927 536.000
81.74922 606.000
81.76917 560.000
81.78912 569.000
81.80906 522.000
81.82901 561.000
81.84896 636.000
81.86890 604.000
81.88885 568.000
81.90880 581.000
81.92874 558.000
81.94869 553.000
81.96864 591.000
81.98859 607.000
82.00853 608.000
82.02848 613.000
82.04843 626.000
82.06837 559.000
82.08832 584.000
82.10827 632.000
82.12821 604.000
82.14816 613.000
82.16811 649.000
82.18805 636.000
82.20800 594.000
82.22795 643.000
82.24790 656.000
82.26784 657.000
82.28779 649.000
82.30774 645.000
82.32768 653.000
82.34763 663.000
82.36758 662.000
82.38752 619.000
82.40747 649.000
82.42742 685.000
82.44737 661.000
82.46731 688.000
82.48726 692.000
82.50721 737.000
82.52715 696.000
82.54710 667.000
82.56705 676.000
82.58699 719.000
82.60694 661.000
82.62689 694.000
82.64683 655.000
82.66678 675.000
82.68673 649.000
82.70668 682.000
82.72662 640.000
82.74657 706.000
82.76652 693.000
82.78646 671.000
82.80641 653.000
82.82636 663.000
82.84630 704.000
82.86625 664.000
82.88620 681.000
82.90615 631.000
82.92609 666.000
82.94604 674.000
82.96599 653.000
82.98593 683.000
83.00588 613.000
83.02583 641.000
83.04577 585.000
83.06572 630.000
83.08567 647.000
83.10561 634.000
83.12556 614.000
83.14551 648.000
83.16546 606.000
83.18540 622.000
83.20535 591.000
83.22530 593.000
83.24524 609.000
83.26519 636.000
83.28514 572.000
83.30508 640.000
83.32503 617.000
83.34498 637.000
83.36493 675.000
83.38487 582.000
83.40482 610.000
83.42477 589.000
83.44471 645.000
83.46466 633.000
83.48461 643.000
83.50455 607.000
83.52450 643.000
83.54445 635.000
83.56440 612.000
83.58434 628.000
83.60429 643.000
83.62424 690.000
83.64418 575.000
83.66413 632.000
83.68408 590.000
83.70402 603.000
83.72397 622.000
83.74392 605.000
83.76386 618.000
83.78381 567.000
83.80376 616.000
83.82371 584.000
83.84365 609.000
83.86360 563.000
83.88355 627.000
83.90349 640.000
83.92344 634.000
83.94339 610.000
83.96333 583.000
83.98328 607.000
84.00323 581.000
84.02318 557.000
84.04312 620.000
84.06307 586.000
84.08302 574.000
84.10296 571.000
84.12291 543.000
84.14286 578.000
84.16280 576.000
84.18275 600.000
84.20270 588.000
84.22264 576.000
84.24259 571.000
84.26254 571.000
84.28249 570.000
84.30243 543.000
84.32238 570.000
84.34233 590.000
84.36227 538.000
84.38222 582.000
84.40217 559.000
84.42211 598.000
84.44206 559.000
84.46201 570.000
84.48196 596.000
84.50190 598.000
84.52185 532.000
84.54180 578.000
84.56174 593.000
84.58169 563.000
84.60164 591.000
84.62158 565.000
84.64153 595.000
84.66148 574.000
84.68142 568.000
84.70137 569.000
84.72132 574.000
84.74127 589.000
84.76121 596.000
84.78116 586.000
84.80111 572.000
84.82105 549.000
84.84100 569.000
84.86095 516.000
84.88089 597.000
84.90084 541.000
84.92079 571.000
84.94074 573.000
84.96068 556.000
84.98063 588.000
85.00058 531.000
85.02052 579.000
85.04047 558.000
85.06042 600.000
85.08036 572.000
85.10031 584.000
85.12026 582.000
85.14021 555.000
85.16015 584.000
85.18010 553.000
85.20005 552.000
85.21999 556.000
85.23994 557.000
85.25989 546.000
85.27983 550.000
85.29978 553.000
85.31973 554.000
85.33967 600.000
85.35962 562.000
85.37957 566.000
85.39952 555.000
85.41946 542.000
85.43941 608.000
85.45936 550.000
85.47930 593.000
85.49925 575.000
85.51920 588.000
85.53914 579.000
85.55909 572.000
85.57904 564.000
85.59899 558.000
85.61893 591.000
85.63888 576.000
85.65883 578.000
85.67877 577.000
85.69872 581.000
85.71867 595.000
85.73861 570.000
85.75856 579.000
85.77851 570.000
85.79845 606.000
85.81840 594.000
85.83835 574.000
85.85830 597.000
85.87824 546.000
85.89819 580.000
85.91814 533.000
85.93808 577.000
85.95803 549.000
85.97798 575.000
85.99792 611.000
86.01787 557.000
86.03782 572.000
86.05777 559.000
86.07771 587.000
86.09766 523.000
86.11761 586.000
86.13755 594.000
86.15750 567.000
86.17745 557.000
86.19739 572.000
86.21734 582.000
86.23729 573.000
86.25723 611.000
86.27718 573.000
86.29713 569.000
86.31708 593.000
86.33702 589.000
86.35697 590.000
86.37692 589.000
86.39686 555.000
86.41681 564.000
86.43676 603.000
86.45670 566.000
86.47665 544.000
86.49660 641.000
86.51655 556.000
86.53649 591.000
86.55644 579.000
86.57639 569.000
86.59633 625.000
86.61628 627.000
86.63623 591.000
86.65617 601.000
86.67612 573.000
86.69607 613.000
86.71602 541.000
86.73596 577.000
86.75591 601.000
86.77586 607.000
86.79580 582.000
86.81575 604.000
86.83570 567.000
86.85564 536.000
86.87559 563.000
86.89554 611.000
86.91548 585.000
86.93543 627.000
86.95538 557.000
86.97533 573.000
86.99527 594.000
87.01522 594.000
87.03517 586.000
87.05511 641.000
87.07506 586.000
87.09501 611.000
87.11495 614.000
87.13490 582.000
87.15485 578.000
87.17480 572.000
87.19474 581.000
87.21469 578.000
87.23464 616.000
87.25458 653.000
87.27453 636.000
87.29448 601.000
87.31442 593.000
87.33437 565.000
87.35432 597.000
87.37426 546.000
87.39421 533.000
87.41416 542.000
87.43411 584.000
87.45405 627.000
87.47400 612.000
87.49395 609.000
87.51389 573.000
87.53384 588.000
87.55379 564.000
87.57373 579.000
87.59368 616.000
87.61363 586.000
87.63358 633.000
87.65352 567.000
87.67347 557.000
87.69342 552.000
87.71336 559.000
87.73331 568.000
87.75326 534.000
87.77320 554.000
87.79315 596.000
87.81310 542.000
87.83304 606.000
87.85299 588.000
87.87294 601.000
87.89289 561.000
87.91283 570.000
87.93278 542.000
87.95273 576.000
87.97267 572.000
87.99262 562.000
88.01257 575.000
88.03251 531.000
88.05246 569.000
88.07241 568.000
88.09236 573.000
88.11230 587.000
88.13225 547.000
88.15220 584.000
88.17214 601.000
88.19209 581.000
88.21204 537.000
88.23198 582.000
88.25193 574.000
88.27188 572.000
88.29183 602.000
88.31177 562.000
88.33172 639.000
88.35167 592.000
88.37161 576.000
88.39156 578.000
88.41151 587.000
88.43145 554.000
88.45140 564.000
88.47135 623.000
88.49129 593.000
88.51124 590.000
88.53119 612.000
88.55114 607.000
88.57108 568.000
88.59103 604.000
88.61098 593.000
88.63092 571.000
88.65087 565.000
88.67082 598.000
88.69076 566.000
88.71071 533.000
88.73066 573.000
88.75061 601.000
88.77055 589.000
88.79050 541.000
88.81045 589.000
88.83039 630.000
88.85034 581.000
88.87029 618.000
88.89023 592.000
88.91018 608.000
88.93013 628.000
88.95007 588.000
88.97002 594.000
88.98997 607.000
89.00992 581.000
89.02986 607.000
89.04981 656.000
89.06976 549.000
89.08970 548.000
89.10965 578.000
89.12960 600.000
89.14954 596.000
89.16949 568.000
89.18944 629.000
89.20939 623.000
89.22933 603.000
89.24928 619.000
89.26923 610.000
89.28917 630.000
89.30912 626.000
89.32907 642.000
89.34901 579.000
89.36896 594.000
89.38891 640.000
89.40885 601.000
89.42880 604.000
89.44875 603.000
89.46870 654.000
89.48864 610.000
89.50859 654.000
89.52854 657.000
89.54848 613.000
89.56843 599.000
89.58838 617.000
89.60832 624.000
89.62827 651.000
89.64822 568.000
89.66817 595.000
89.68811 606.000
89.70806 632.000
89.72801 642.000
89.74795 654.000
89.76790 594.000
89.78785 603.000
89.80779 619.000
89.82774 682.000
89.84769 626.000
89.86764 578.000
89.88758 600.000
89.90753 571.000
89.92748 652.000
89.94742 647.000
89.96737 593.000
89.98732 645.000
90.00726 619.000
