10.00000 352.000
10.01995 338.000
10.03989 348.000
10.05984 356.000
10.07979 335.000
10.09973 340.000
10.11968 337.000
10.13963 332.000
10.15958 329.000
10.17952 369.000
10.19947 353.000
10.21942 322.000
10.23936 302.000
10.25931 310.000
10.27926 360.000
10.29920 347.000
10.31915 345.000
10.33910 327.000
10.35905 319.000
10.37899 346.000
10.39894 343.000
10.41889 381.000
10.43883 332.000
10.45878 338.000
10.47873 361.000
10.49867 351.000
10.51862 328.000
10.53857 351.000
10.55851 332.000
10.57846 332.000
10.59841 332.000
10.61836 369.000
10.63830 323.000
10.65825 329.000
10.67820 337.000
10.69814 344.000
10.71809 315.000
10.73804 360.000
10.75798 346.000
10.77793 337.000
10.79788 354.000
10.81783 336.000
10.83777 327.000
10.85772 321.000
10.87767 328.000
10.89761 352.000
10.91756 341.000
10.93751 368.000
10.95745 335.000
10.97740 367.000
10.99735 325.000
11.01730 332.000
11.03724 347.000
11.05719 327.000
11.07714 312.000
11.09708 382.000
11.11703 338.000
11.13698 333.000
11.15692 341.000
11.17687 342.000
11.19682 330.000
11.21676 349.000
11.23671 370.000
11.25666 370.000
11.27661 356.000
11.29655 330.000
11.31650 346.000
11.33645 347.000
11.35639 338.000
11.37634 334.000
11.39629 321.000
11.41623 373.000
11.43618 323.000
11.45613 311.000
11.47608 305.000
11.49602 333.000
11.51597 308.000
11.53592 331.000
11.55586 330.000
11.57581 319.000
11.59576 338.000
11.61570 313.000
11.63565 339.000
11.65560 342.000
11.67554 328.000
11.69549 348.000
11.71544 330.000
11.73539 347.000
11.75533 317.000
11.77528 332.000
11.79523 318.000
11.81517 323.000
11.83512 310.000
11.85507 371.000
11.87501 324.000
11.89496 324.000
11.91491 369.000
11.93486 341.000
11.95480 365.000
11.97475 366.000
11.99470 336.000
12.01464 336.000
12.03459 332.000
12.05454 324.000
12.07448 332.000
12.09443 347.000
12.11438 309.000
12.13432 349.000
12.15427 316.000
12.17422 341.000
12.19417 334.000
12.21411 360.000
12.23406 322.000
12.25401 331.000
12.27395 324.000
12.29390 345.000
12.31385 326.000
12.33379 357.000
12.35374 347.000
12.37369 317.000
12.39364 379.000
12.41358 314.000
12.43353 346.000
12.45348 344.000
12.47342 336.000
12.49337 308.000
12.51332 340.000
12.53326 294.000
12.55321 345.000
12.57316 330.000
12.59311 338.000
12.61305 351.000
12.63300 348.000
12.65295 344.000
12.67289 340.000
12.69284 343.000
12.71279 359.000
12.73273 354.000
12.75268 323.000
12.77263 330.000
12.79257 351.000
12.81252 342.000
12.83247 360.000
12.85242 382.000
12.87236 324.000
12.89231 320.000
12.91226 347.000
12.93220 336.000
12.95215 366.000
12.97210 333.000
12.99204 358.000
13.01199 346.000
13.03194 377.000
13.05189 367.000
13.07183 357.000
13.09178 346.000
13.11173 343.000
13.13167 349.000
13.15162 333.000
13.17157 353.000
13.19151 326.000
13.21146 355.000
13.23141 367.000
13.25135 344.000
13.27130 369.000
13.29125 334.000
13.31120 324.000
13.33114 324.000
13.35109 341.000
13.37104 319.000
13.39098 329.000
13.41093 348.000
13.43088 320.000
13.45082 350.000
13.47077 348.000
13.49072 350.000
13.51067 314.000
13.53061 325.000
13.55056 338.000
13.57051 342.000
13.59045 347.000
13.61040 354.000
13.63035 351.000
13.65029 311.000
13.67024 328.000
13.69019 338.000
13.71013 332.000
13.73008 342.000
13.75003 373.000
13.76998 345.000
13.78992 348.000
13.80987 342.000
13.82982 348.000
13.84976 347.000
13.86971 352.000
13.88966 349.000
13.90960 358.000
13.92955 365.000
13.94950 338.000
13.96945 374.000
13.98939 353.000
14.00934 354.000
14.02929 333.000
14.04923 297.000
14.06918 366.000
14.08913 351.000
14.10907 343.000
14.12902 316.000
14.14897 347.000
14.16892 292.000
14.18886 338.000
14.20881 357.000
14.22876 366.000
14.24870 366.000
14.26865 329.000
14.28860 354.000
14.30854 379.000
14.32849 363.000
14.34844 336.000
14.36838 370.000
14.38833 338.000
14.40828 357.000
14.42823 338.000
14.44817 362.000
14.46812 348.000
14.48807 331.000
14.50801 374.000
14.52796 315.000
14.54791 324.000
14.56785 354.000
14.58780 330.000
14.60775 320.000
14.62770 330.000
14.64764 333.000
14.66759 359.000
14.68754 312.000
14.70748 354.000
14.72743 337.000
14.74738 351.000
14.76732 346.000
14.78727 321.000
14.80722 357.000
14.82716 336.000
14.84711 347.000
14.86706 329.000
14.88701 333.000
14.90695 338.000
14.92690 328.000
14.94685 352.000
14.96679 326.000
14.98674 384.000
15.00669 355.000
15.02663 353.000
15.04658 354.000
15.06653 362.000
15.08648 350.000
15.10642 337.000
15.12637 416.000
15.14632 384.000
15.16626 337.000
15.18621 352.000
15.20616 358.000
15.22610 334.000
15.24605 371.000
15.26600 349.000
15.28594 368.000
15.30589 391.000
15.32584 371.000
15.34579 366.000
15.36573 408.000
15.38568 400.000
15.40563 396.000
15.42557 374.000
15.44552 385.000
15.46547 385.000
15.48541 370.000
15.50536 428.000
15.52531 440.000
15.54526 446.000
15.56520 484.000
15.58515 481.000
15.60510 534.000
15.62504 606.000
15.64499 747.000
15.66494 1005.000
15.68488 1261.000
15.70483 1734.000
15.72478 2619.000
15.74472 3617.000
15.76467 4221.000
15.78462 4600.000
15.80457 4441.000
15.82451 3835.000
15.84446 2624.000
15.86441 1891.000
15.88435 1215.000
15.90430 1003.000
15.92425 1023.000
15.94419 1235.000
15.96414 1540.000
15.98409 1851.000
16.00404 1960.000
16.02398 2036.000
16.04393 2041.000
16.06388 1893.000
16.08382 1573.000
16.10377 1476.000
16.12372 1156.000
16.14366 991.000
16.16361 805.000
16.18356 634.000
16.20351 537.000
16.22345 464.000
16.24340 461.000
16.26335 398.000
16.28329 425.000
16.30324 366.000
16.32319 411.000
16.34313 390.000
16.36308 364.000
16.38303 352.000
16.40297 377.000
16.42292 365.000
16.44287 373.000
16.46282 366.000
16.48276 389.000
16.50271 368.000
16.52266 385.000
16.54260 369.000
16.56255 372.000
16.58250 402.000
16.60244 342.000
16.62239 330.000
16.64234 378.000
16.66229 364.000
16.68223 384.000
16.70218 349.000
16.72213 359.000
16.74207 375.000
16.76202 433.000
16.78197 360.000
16.80191 483.000
16.82186 431.000
16.84181 422.000
16.86175 448.000
16.88170 430.000
16.90165 413.000
16.92160 384.000
16.94154 357.000
16.96149 368.000
16.98144 365.000
17.00138 375.000
17.02133 333.000
17.04128 343.000
17.06122 340.000
17.08117 350.000
17.10112 342.000
17.12107 330.000
17.14101 348.000
17.16096 370.000
17.18091 367.000
17.20085 334.000
17.22080 355.000
17.24075 357.000
17.26069 390.000
17.28064 366.000
17.30059 365.000
17.32053 352.000
17.34048 338.000
17.36043 343.000
17.38038 403.000
17.40032 338.000
17.42027 368.000
17.44022 361.000
17.46016 338.000
17.48011 326.000
17.50006 330.000
17.52000 361.000
17.53995 347.000
17.55990 344.000
17.57985 363.000
17.59979 313.000
17.61974 357.000
17.63969 366.000
17.65963 333.000
17.67958 340.000
17.69953 332.000
17.71947 342.000
17.73942 337.000
17.75937 350.000
17.77932 335.000
17.79926 344.000
17.81921 346.000
17.83916 380.000
17.85910 339.000
17.87905 335.000
17.89900 390.000
17.91894 353.000
17.93889 352.000
17.95884 327.000
17.97878 343.000
17.99873 338.000
18.01868 316.000
18.03863 326.000
18.05857 329.000
18.07852 346.000
18.09847 344.000
18.11841 351.000
18.13836 363.000
18.15831 322.000
18.17825 348.000
18.19820 380.000
18.21815 370.000
18.23810 360.000
18.25804 383.000
18.27799 339.000
18.29794 385.000
18.31788 331.000
18.33783 359.000
18.35778 350.000
18.37772 380.000
18.39767 350.000
18.41762 343.000
18.43756 355.000
18.45751 355.000
18.47746 350.000
18.49741 356.000
18.51735 347.000
18.53730 358.000
18.55725 371.000
18.57719 361.000
18.59714 344.000
18.61709 341.000
18.63703 315.000
18.65698 325.000
18.67693 344.000
18.69688 352.000
18.71682 327.000
18.73677 342.000
18.75672 332.000
18.77666 345.000
18.79661 371.000
18.81656 354.000
18.83650 350.000
18.85645 346.000
18.87640 320.000
18.89634 354.000
18.91629 333.000
18.93624 347.000
18.95619 366.000
18.97613 365.000
18.99608 407.000
19.01603 365.000
19.03597 348.000
19.05592 335.000
19.07587 372.000
19.09581 354.000
19.11576 324.000
19.13571 334.000
19.15566 327.000
19.17560 373.000
19.19555 340.000
19.21550 394.000
19.23544 352.000
19.25539 338.000
19.27534 370.000
19.29528 361.000
19.31523 356.000
19.33518 357.000
19.35513 353.000
19.37507 336.000
19.39502 338.000
19.41497 345.000
19.43491 348.000
19.45486 335.000
19.47481 374.000
19.49475 356.000
19.51470 356.000
19.53465 372.000
19.55459 349.000
19.57454 358.000
19.59449 341.000
19.61444 356.000
19.63438 352.000
19.65433 341.000
19.67428 304.000
19.69422 312.000
19.71417 312.000
19.73412 317.000
19.75406 342.000
19.77401 322.000
19.79396 327.000
19.81391 362.000
19.83385 338.000
19.85380 319.000
19.87375 366.000
19.89369 363.000
19.91364 346.000
19.93359 324.000
19.95353 356.000
19.97348 341.000
19.99343 364.000
20.01337 344.000
20.03332 351.000
20.05327 386.000
20.07322 353.000
20.09316 356.000
20.11311 348.000
20.13306 361.000
20.15300 336.000
20.17295 360.000
20.19290 353.000
20.21284 347.000
20.23279 385.000
20.25274 349.000
20.27269 347.000
20.29263 341.000
20.31258 346.000
20.33253 367.000
20.35247 365.000
20.37242 375.000
20.39237 333.000
20.41231 347.000
20.43226 364.000
20.45221 327.000
20.47215 334.000
20.49210 364.000
20.51205 352.000
20.53200 364.000
20.55194 380.000
20.57189 380.000
20.59184 325.000
20.61178 369.000
20.63173 445.000
20.65168 373.000
20.67162 416.000
20.69157 443.000
20.71152 446.000
20.73147 460.000
20.75141 564.000
20.77136 568.000
20.79131 628.000
20.81125 708.000
20.83120 817.000
20.85115 1020.000
20.87109 982.000
20.89104 832.000
20.91099 854.000
20.93094 712.000
20.95088 654.000
20.97083 630.000
20.99078 564.000
21.01072 516.000
21.03067 550.000
21.05062 496.000
21.07056 502.000
21.09051 466.000
21.11046 462.000
21.13040 471.000
21.15035 456.000
21.17030 402.000
21.19025 401.000
21.21019 350.000
21.23014 379.000
21.25009 374.000
21.27003 356.000
21.28998 379.000
21.30993 360.000
21.32987 341.000
21.34982 361.000
21.36977 374.000
21.38972 372.000
21.40966 383.000
21.42961 356.000
21.44956 361.000
21.46950 349.000
21.48945 348.000
21.50940 299.000
21.52934 355.000
21.54929 328.000
21.56924 337.000
21.58918 364.000
21.60913 362.000
21.62908 370.000
21.64903 358.000
21.66897 385.000
21.68892 369.000
21.70887 364.000
21.72881 345.000
21.74876 356.000
21.76871 334.000
21.78865 356.000
21.80860 359.000
21.82855 365.000
21.84850 359.000
21.86844 318.000
21.88839 342.000
21.90834 356.000
21.92828 347.000
21.94823 347.000
21.96818 344.000
21.98812 346.000
22.00807 340.000
22.02802 365.000
22.04796 360.000
22.06791 324.000
22.08786 347.000
22.10781 364.000
22.12775 369.000
22.14770 375.000
22.16765 373.000
22.18759 350.000
22.20754 340.000
22.22749 348.000
22.24743 331.000
22.26738 387.000
22.28733 375.000
22.30728 365.000
22.32722 380.000
22.34717 363.000
22.36712 347.000
22.38706 367.000
22.40701 361.000
22.42696 395.000
22.44690 390.000
22.46685 355.000
22.48680 344.000
22.50675 321.000
22.52669 336.000
22.54664 378.000
22.56659 371.000
22.58653 317.000
22.60648 342.000
22.62643 372.000
22.64637 347.000
22.66632 344.000
22.68627 353.000
22.70621 366.000
22.72616 364.000
22.74611 377.000
22.76606 317.000
22.78600 349.000
22.80595 329.000
22.82590 341.000
22.84584 344.000
22.86579 312.000
22.88574 325.000
22.90568 360.000
22.92563 375.000
22.94558 360.000
22.96553 381.000
22.98547 369.000
23.00542 347.000
23.02537 376.000
23.04531 363.000
23.06526 343.000
23.08521 368.000
23.10515 355.000
23.12510 367.000
23.14505 384.000
23.16499 348.000
23.18494 357.000
23.20489 392.000
23.22484 345.000
23.24478 351.000
23.26473 359.000
23.28468 336.000
23.30462 332.000
23.32457 390.000
23.34452 351.000
23.36446 336.000
23.38441 360.000
23.40436 328.000
23.42431 379.000
23.44425 356.000
23.46420 353.000
23.48415 373.000
23.50409 373.000
23.52404 336.000
23.54399 319.000
23.56393 359.000
23.58388 348.000
23.60383 363.000
23.62377 398.000
23.64372 371.000
23.66367 388.000
23.68362 350.000
23.70356 346.000
23.72351 398.000
23.74346 353.000
23.76340 348.000
23.78335 340.000
23.80330 364.000
23.82324 392.000
23.84319 353.000
23.86314 395.000
23.88309 363.000
23.90303 378.000
23.92298 404.000
23.94293 355.000
23.96287 363.000
23.98282 416.000
24.00277 405.000
24.02271 389.000
24.04266 380.000
24.06261 371.000
24.08256 362.000
24.10250 389.000
24.12245 365.000
24.14240 339.000
24.16234 375.000
24.18229 394.000
24.20224 381.000
24.22218 371.000
24.24213 377.000
24.26208 367.000
24.28202 338.000
24.30197 390.000
24.32192 334.000
24.34187 379.000
24.36181 368.000
24.38176 343.000
24.40171 365.000
24.42165 319.000
24.44160 375.000
24.46155 358.000
24.48149 390.000
24.50144 380.000
24.52139 384.000
24.54134 377.000
24.56128 379.000
24.58123 393.000
24.60118 352.000
24.62112 351.000
24.64107 371.000
24.66102 393.000
24.68096 368.000
24.70091 365.000
24.72086 344.000
24.74080 349.000
24.76075 362.000
24.78070 422.000
24.80065 381.000
24.82059 389.000
24.84054 365.000
24.86049 346.000
24.88043 407.000
24.90038 346.000
24.92033 427.000
24.94027 424.000
24.96022 421.000
24.98017 425.000
25.00012 436.000
25.02006 403.000
25.04001 423.000
25.05996 406.000
25.07990 397.000
25.09985 373.000
25.11980 384.000
25.13974 366.000
25.15969 360.000
25.17964 387.000
25.19958 361.000
25.21953 382.000
25.23948 384.000
25.25943 396.000
25.27937 391.000
25.29932 340.000
25.31927 380.000
25.33921 409.000
25.35916 381.000
25.37911 394.000
25.39905 380.000
25.41900 374.000
25.43895 348.000
25.45890 365.000
25.47884 373.000
25.49879 361.000
25.51874 351.000
25.53868 361.000
25.55863 387.000
25.57858 363.000
25.59852 405.000
25.61847 365.000
25.63842 365.000
25.65837 376.000
25.67831 331.000
25.69826 400.000
25.71821 365.000
25.73815 341.000
25.75810 386.000
25.77805 358.000
25.79799 389.000
25.81794 399.000
25.83789 385.000
25.85783 342.000
25.87778 356.000
25.89773 400.000
25.91768 413.000
25.93762 357.000
25.95757 378.000
25.97752 357.000
25.99746 397.000
26.01741 386.000
26.03736 362.000
26.05730 440.000
26.07725 369.000
26.09720 362.000
26.11715 363.000
26.13709 381.000
26.15704 376.000
26.17699 363.000
26.19693 423.000
26.21688 367.000
26.23683 401.000
26.25677 386.000
26.27672 364.000
26.29667 381.000
26.31661 377.000
26.33656 390.000
26.35651 358.000
26.37646 390.000
26.39640 397.000
26.41635 377.000
26.43630 380.000
26.45624 340.000
26.47619 369.000
26.49614 336.000
26.51608 355.000
26.53603 371.000
26.55598 354.000
26.57593 403.000
26.59587 379.000
26.61582 407.000
26.63577 371.000
26.65571 399.000
26.67566 392.000
26.69561 358.000
26.71555 390.000
26.73550 381.000
26.75545 378.000
26.77539 333.000
26.79534 440.000
26.81529 347.000
26.83524 414.000
26.85518 422.000
26.87513 338.000
26.89508 402.000
26.91502 390.000
26.93497 393.000
26.95492 436.000
26.97486 380.000
26.99481 403.000
27.01476 379.000
27.03471 374.000
27.05465 371.000
27.07460 404.000
27.09455 430.000
27.11449 414.000
27.13444 400.000
27.15439 371.000
27.17433 387.000
27.19428 447.000
27.21423 419.000
27.23417 413.000
27.25412 408.000
27.27407 379.000
27.29402 384.000
27.31396 372.000
27.33391 396.000
27.35386 399.000
27.37380 395.000
27.39375 389.000
27.41370 390.000
27.43364 387.000
27.45359 396.000
27.47354 396.000
27.49349 386.000
27.51343 388.000
27.53338 375.000
27.55333 372.000
27.57327 411.000
27.59322 383.000
27.61317 392.000
27.63311 405.000
27.65306 411.000
27.67301 387.000
27.69296 384.000
27.71290 392.000
27.73285 393.000
27.75280 427.000
27.77274 394.000
27.79269 403.000
27.81264 390.000
27.83258 385.000
27.85253 377.000
27.87248 387.000
27.89242 419.000
27.91237 423.000
27.93232 411.000
27.95227 400.000
27.97221 381.000
27.99216 404.000
28.01211 408.000
28.03205 400.000
28.05200 428.000
28.07195 382.000
28.09189 401.000
28.11184 418.000
28.13179 400.000
28.15174 406.000
28.17168 423.000
28.19163 419.000
28.21158 407.000
28.23152 367.000
28.25147 395.000
28.27142 401.000
28.29136 402.000
28.31131 414.000
28.33126 387.000
28.35120 423.000
28.37115 418.000
28.39110 395.000
28.41105 401.000
28.43099 390.000
28.45094 389.000
28.47089 431.000
28.49083 445.000
28.51078 398.000
28.53073 415.000
28.55067 430.000
28.57062 417.000
28.59057 360.000
28.61052 398.000
28.63046 404.000
28.65041 416.000
28.67036 388.000
28.69030 373.000
28.71025 460.000
28.73020 415.000
28.75014 429.000
28.77009 405.000
28.79004 409.000
28.80998 415.000
28.82993 393.000
28.84988 395.000
28.86983 390.000
28.88977 392.000
28.90972 410.000
28.92967 415.000
28.94961 384.000
28.96956 425.000
28.98951 399.000
29.00945 415.000
29.02940 399.000
29.04935 383.000
29.06930 388.000
29.08924 395.000
29.10919 394.000
29.12914 430.000
29.14908 438.000
29.16903 398.000
29.18898 448.000
29.20892 437.000
29.22887 446.000
29.24882 480.000
29.26877 476.000
29.28871 530.000
29.30866 531.000
29.32861 536.000
29.34855 607.000
29.36850 574.000
29.38845 591.000
29.40839 573.000
29.42834 601.000
29.44829 591.000
29.46823 555.000
29.48818 568.000
29.50813 480.000
29.52808 500.000
29.54802 477.000
29.56797 450.000
29.58792 485.000
29.60786 445.000
29.62781 440.000
29.64776 468.000
29.66770 459.000
29.68765 401.000
29.70760 421.000
29.72755 393.000
29.74749 445.000
29.76744 415.000
29.78739 426.000
29.80733 414.000
29.82728 420.000
29.84723 394.000
29.86717 432.000
29.88712 438.000
29.90707 407.000
29.92701 454.000
29.94696 432.000
29.96691 413.000
29.98686 468.000
30.00680 449.000
30.02675 415.000
30.04670 447.000
30.06664 423.000
30.08659 455.000
30.10654 426.000
30.12648 453.000
30.14643 409.000
30.16638 459.000
30.18633 445.000
30.20627 432.000
30.22622 439.000
30.24617 398.000
30.26611 397.000
30.28606 432.000
30.30601 433.000
30.32595 432.000
30.34590 402.000
30.36585 429.000
30.38579 398.000
30.40574 438.000
30.42569 392.000
30.44564 410.000
30.46558 429.000
30.48553 395.000
30.50548 404.000
30.52542 427.000
30.54537 439.000
30.56532 421.000
30.58526 410.000
30.60521 426.000
30.62516 377.000
30.64511 449.000
30.66505 434.000
30.68500 411.000
30.70495 406.000
30.72489 418.000
30.74484 421.000
30.76479 438.000
30.78473 404.000
30.80468 427.000
30.82463 386.000
30.84458 426.000
30.86452 386.000
30.88447 466.000
30.90442 376.000
30.92436 402.000
30.94431 420.000
30.96426 370.000
30.98420 423.000
31.00415 436.000
31.02410 412.000
31.04404 432.000
31.06399 433.000
31.08394 392.000
31.10389 436.000
31.12383 445.000
31.14378 432.000
31.16373 415.000
31.18367 470.000
31.20362 462.000
31.22357 415.000
31.24351 403.000
31.26346 428.000
31.28341 431.000
31.30336 425.000
31.32330 425.000
31.34325 429.000
31.36320 397.000
31.38314 392.000
31.40309 406.000
31.42304 432.000
31.44298 397.000
31.46293 429.000
31.48288 431.000
31.50282 455.000
31.52277 399.000
31.54272 458.000
31.56267 419.000
31.58261 446.000
31.60256 391.000
31.62251 443.000
31.64245 415.000
31.66240 420.000
31.68235 438.000
31.70229 464.000
31.72224 479.000
31.74219 498.000
31.76214 521.000
31.78208 535.000
31.80203 535.000
31.82198 571.000
31.84192 646.000
31.86187 659.000
31.88182 665.000
31.90176 639.000
31.92171 677.000
31.94166 710.000
31.96160 666.000
31.98155 570.000
32.00150 567.000
32.02145 537.000
32.04139 503.000
32.06134 495.000
32.08129 489.000
32.10123 411.000
32.12118 492.000
32.14113 492.000
32.16107 451.000
32.18102 460.000
32.20097 460.000
32.22092 465.000
32.24086 481.000
32.26081 498.000
32.28076 530.000
32.30070 531.000
32.32065 519.000
32.34060 603.000
32.36054 593.000
32.38049 585.000
32.40044 620.000
32.42039 642.000
32.44033 611.000
32.46028 749.000
32.48023 776.000
32.50017 832.000
32.52012 918.000
32.54007 896.000
32.56001 800.000
32.57996 779.000
32.59991 706.000
32.61985 690.000
32.63980 601.000
32.65975 476.000
32.67970 530.000
32.69964 495.000
32.71959 456.000
32.73954 428.000
32.75948 486.000
32.77943 423.000
32.79938 406.000
32.81932 458.000
32.83927 415.000
32.85922 411.000
32.87917 437.000
32.89911 403.000
32.91906 441.000
32.93901 429.000
32.95895 478.000
32.97890 404.000
32.99885 453.000
33.01879 416.000
33.03874 400.000
33.05869 422.000
33.07863 410.000
33.09858 459.000
33.11853 397.000
33.13848 442.000
33.15842 447.000
33.17837 443.000
33.19832 410.000
33.21826 413.000
33.23821 443.000
33.25816 465.000
33.27810 404.000
33.29805 449.000
33.31800 426.000
33.33795 439.000
33.35789 386.000
33.37784 455.000
33.39779 437.000
33.41773 436.000
33.43768 440.000
33.45763 459.000
33.47757 409.000
33.49752 410.000
33.51747 461.000
33.53741 394.000
33.55736 429.000
33.57731 416.000
33.59726 416.000
33.61720 461.000
33.63715 456.000
33.65710 399.000
33.67704 474.000
33.69699 462.000
33.71694 440.000
33.73688 397.000
33.75683 411.000
33.77678 428.000
33.79673 441.000
33.81667 453.000
33.83662 458.000
33.85657 462.000
33.87651 433.000
33.89646 429.000
33.91641 494.000
33.93635 470.000
33.95630 478.000
33.97625 484.000
33.99620 490.000
34.01614 508.000
34.03609 510.000
34.05604 512.000
34.07598 511.000
34.09593 480.000
34.11588 493.000
34.13582 525.000
34.15577 543.000
34.17572 550.000
34.19566 522.000
34.21561 582.000
34.23556 625.000
34.25551 689.000
34.27545 717.000
34.29540 796.000
34.31535 817.000
34.33529 904.000
34.35524 1002.000
34.37519 989.000
34.39513 994.000
34.41508 955.000
34.43503 895.000
34.45498 972.000
34.47492 888.000
34.49487 903.000
34.51482 782.000
34.53476 735.000
34.55471 709.000
34.57466 712.000
34.59460 688.000
34.61455 690.000
34.63450 713.000
34.65444 705.000
34.67439 668.000
34.69434 660.000
34.71429 713.000
34.73423 684.000
34.75418 725.000
34.77413 653.000
34.79407 708.000
34.81402 641.000
34.83397 633.000
34.85391 661.000
34.87386 619.000
34.89381 593.000
34.91376 578.000
34.93370 583.000
34.95365 568.000
34.97360 582.000
34.99354 561.000
35.01349 553.000
35.03344 577.000
35.05338 581.000
35.07333 560.000
35.09328 522.000
35.11322 587.000
35.13317 595.000
35.15312 601.000
35.17307 620.000
35.19301 641.000
35.21296 744.000
35.23291 734.000
35.25285 829.000
35.27280 908.000
35.29275 999.000
35.31269 1004.000
35.33264 1086.000
35.35259 1214.000
35.37254 1381.000
35.39248 1568.000
35.41243 1952.000
35.43238 2341.000
35.45232 2521.000
35.47227 2665.000
35.49222 3188.000
35.51216 4325.000
35.53211 5326.000
35.55206 5279.000
35.57201 4267.000
35.59195 3579.000
35.61190 3375.000
35.63185 3344.000
35.65179 2789.000
35.67174 2056.000
35.69169 1532.000
35.71163 1265.000
35.73158 1031.000
35.75153 886.000
35.77147 839.000
35.79142 803.000
35.81137 761.000
35.83132 650.000
35.85126 652.000
35.87121 646.000
35.89116 604.000
35.91110 634.000
35.93105 603.000
35.95100 582.000
35.97094 639.000
35.99089 589.000
36.01084 580.000
36.03079 553.000
36.05073 556.000
36.07068 529.000
36.09063 523.000
36.11057 530.000
36.13052 545.000
36.15047 528.000
36.17041 510.000
36.19036 487.000
36.21031 485.000
36.23025 460.000
36.25020 469.000
36.27015 513.000
36.29010 494.000
36.31004 461.000
36.32999 447.000
36.34994 469.000
36.36988 477.000
36.38983 486.000
36.40978 467.000
36.42972 473.000
36.44967 478.000
36.46962 453.000
36.48957 483.000
36.50951 508.000
36.52946 445.000
36.54941 493.000
36.56935 480.000
36.58930 474.000
36.60925 476.000
36.62919 484.000
36.64914 503.000
36.66909 528.000
36.68903 456.000
36.70898 500.000
36.72893 482.000
36.74888 515.000
36.76882 585.000
36.78877 554.000
36.80872 534.000
36.82866 525.000
36.84861 588.000
36.86856 606.000
36.88850 531.000
36.90845 616.000
36.92840 556.000
36.94835 525.000
36.96829 584.000
36.98824 606.000
37.00819 546.000
37.02813 533.000
37.04808 552.000
37.06803 569.000
37.08797 547.000
37.10792 565.000
37.12787 516.000
37.14781 564.000
37.16776 552.000
37.18771 532.000
37.20766 519.000
37.22760 499.000
37.24755 524.000
37.26750 486.000
37.28744 489.000
37.30739 501.000
37.32734 505.000
37.34728 417.000
37.36723 466.000
37.38718 404.000
37.40713 483.000
37.42707 440.000
37.44702 445.000
37.46697 421.000
37.48691 446.000
37.50686 412.000
37.52681 450.000
37.54675 488.000
37.56670 480.000
37.58665 480.000
37.60660 429.000
37.62654 477.000
37.64649 437.000
37.66644 461.000
37.68638 512.000
37.70633 413.000
37.72628 455.000
37.74622 406.000
37.76617 446.000
37.78612 435.000
37.80606 426.000
37.82601 477.000
37.84596 451.000
37.86591 462.000
37.88585 503.000
37.90580 447.000
37.92575 466.000
37.94569 511.000
37.96564 472.000
37.98559 472.000
38.00553 470.000
38.02548 480.000
38.04543 489.000
38.06538 522.000
38.08532 541.000
38.10527 498.000
38.12522 491.000
38.14516 497.000
38.16511 513.000
38.18506 529.000
38.20500 536.000
38.22495 545.000
38.24490 557.000
38.26484 532.000
38.28479 525.000
38.30474 543.000
38.32469 554.000
38.34463 589.000
38.36458 567.000
38.38453 631.000
38.40447 634.000
38.42442 753.000
38.44437 669.000
38.46431 698.000
38.48426 757.000
38.50421 831.000
38.52416 828.000
38.54410 967.000
38.56405 940.000
38.58400 1065.000
38.60394 1122.000
38.62389 1252.000
38.64384 1388.000
38.66378 1663.000
38.68373 2010.000
38.70368 2506.000
38.72362 3128.000
38.74357 3501.000
38.76352 3204.000
38.78347 2993.000
38.80341 2821.000
38.82336 2710.000
38.84331 2688.000
38.86325 2532.000
38.88320 2454.000
38.90315 2271.000
38.92309 2076.000
38.94304 1656.000
38.96299 1558.000
38.98294 1365.000
39.00288 1369.000
39.02283 1303.000
39.04278 1151.000
39.06272 1004.000
39.08267 953.000
39.10262 810.000
39.12256 890.000
39.14251 854.000
39.16246 779.000
39.18241 710.000
39.20235 716.000
39.22230 740.000
39.24225 710.000
39.26219 622.000
39.28214 611.000
39.30209 565.000
39.32203 574.000
39.34198 580.000
39.36193 539.000
39.38187 528.000
39.40182 525.000
39.42177 491.000
39.44172 515.000
39.46166 474.000
39.48161 484.000
39.50156 498.000
39.52150 468.000
39.54145 431.000
39.56140 467.000
39.58134 484.000
39.60129 452.000
39.62124 456.000
39.64119 463.000
39.66113 465.000
39.68108 423.000
39.70103 434.000
39.72097 431.000
39.74092 486.000
39.76087 419.000
39.78081 469.000
39.80076 443.000
39.82071 405.000
39.84065 408.000
39.86060 414.000
39.88055 453.000
39.90050 436.000
39.92044 408.000
39.94039 452.000
39.96034 453.000
39.98028 426.000
40.00023 458.000
40.02018 432.000
40.04012 430.000
40.06007 460.000
40.08002 424.000
40.09997 420.000
40.11991 416.000
40.13986 447.000
40.15981 434.000
40.17975 411.000
40.19970 406.000
40.21965 407.000
40.23959 391.000
40.25954 440.000
40.27949 449.000
40.29943 399.000
40.31938 434.000
40.33933 394.000
40.35928 389.000
40.37922 396.000
40.39917 418.000
40.41912 382.000
40.43906 365.000
40.45901 414.000
40.47896 396.000
40.49890 413.000
40.51885 397.000
40.53880 414.000
40.55875 430.000
40.57869 449.000
40.59864 413.000
40.61859 397.000
40.63853 420.000
40.65848 407.000
40.67843 441.000
40.69837 410.000
40.71832 426.000
40.73827 403.000
40.75822 409.000
40.77816 422.000
40.79811 431.000
40.81806 421.000
40.83800 422.000
40.85795 417.000
40.87790 388.000
40.89784 433.000
40.91779 438.000
40.93774 418.000
40.95768 469.000
40.97763 453.000
40.99758 412.000
41.01753 426.000
41.03747 434.000
41.05742 448.000
41.07737 462.000
41.09731 423.000
41.11726 434.000
41.13721 425.000
41.15715 463.000
41.17710 469.000
41.19705 464.000
41.21700 447.000
41.23694 461.000
41.25689 501.000
41.27684 465.000
41.29678 444.000
41.31673 511.000
41.33668 514.000
41.35662 502.000
41.37657 558.000
41.39652 530.000
41.41646 549.000
41.43641 619.000
41.45636 670.000
41.47631 740.000
41.49625 819.000
41.51620 894.000
41.53615 927.000
41.55609 909.000
41.57604 865.000
41.59599 807.000
41.61593 819.000
41.63588 817.000
41.65583 720.000
41.67578 650.000
41.69572 607.000
41.71567 515.000
41.73562 550.000
41.75556 451.000
41.77551 473.000
41.79546 488.000
41.81540 455.000
41.83535 463.000
41.85530 472.000
41.87524 436.000
41.89519 427.000
41.91514 428.000
41.93509 433.000
41.95503 462.000
41.97498 399.000
41.99493 436.000
42.01487 422.000
42.03482 460.000
42.05477 451.000
42.07471 426.000
42.09466 393.000
42.11461 445.000
42.13456 408.000
42.15450 415.000
42.17445 460.000
42.19440 425.000
42.21434 394.000
42.23429 391.000
42.25424 418.000
42.27418 416.000
42.29413 446.000
42.31408 393.000
42.33403 423.000
42.35397 420.000
42.37392 441.000
42.39387 399.000
42.41381 452.000
42.43376 439.000
42.45371 443.000
42.47365 420.000
42.49360 392.000
42.51355 439.000
42.53349 408.000
42.55344 456.000
42.57339 428.000
42.59334 382.000
42.61328 435.000
42.63323 427.000
42.65318 403.000
42.67312 439.000
42.69307 445.000
42.71302 409.000
42.73296 433.000
42.75291 439.000
42.77286 443.000
42.79281 443.000
42.81275 399.000
42.83270 438.000
42.85265 446.000
42.87259 450.000
42.89254 384.000
42.91249 427.000
42.93243 395.000
42.95238 421.000
42.97233 414.000
42.99227 464.000
43.01222 448.000
43.03217 415.000
43.05212 440.000
43.07206 432.000
43.09201 470.000
43.11196 457.000
43.13190 450.000
43.15185 504.000
43.17180 476.000
43.19174 501.000
43.21169 470.000
43.23164 490.000
43.25159 533.000
43.27153 494.000
43.29148 494.000
43.31143 476.000
43.33137 491.000
43.35132 511.000
43.37127 474.000
43.39121 467.000
43.41116 507.000
43.43111 523.000
43.45105 420.000
43.47100 410.000
43.49095 404.000
43.51090 436.000
43.53084 419.000
43.55079 393.000
43.57074 415.000
43.59068 416.000
43.61063 407.000
43.63058 428.000
43.65052 371.000
43.67047 446.000
43.69042 423.000
43.71037 402.000
43.73031 382.000
43.75026 386.000
43.77021 384.000
43.79015 425.000
43.81010 417.000
43.83005 380.000
43.84999 418.000
43.86994 403.000
43.88989 405.000
43.90984 413.000
43.92978 389.000
43.94973 397.000
43.96968 427.000
43.98962 422.000
44.00957 400.000
44.02952 398.000
44.04946 381.000
44.06941 383.000
44.08936 419.000
44.10930 413.000
44.12925 392.000
44.14920 414.000
44.16915 422.000
44.18909 404.000
44.20904 411.000
44.22899 423.000
44.24893 396.000
44.26888 445.000
44.28883 371.000
44.30877 378.000
44.32872 438.000
44.34867 412.000
44.36862 420.000
44.38856 430.000
44.40851 433.000
44.42846 425.000
44.44840 403.000
44.46835 408.000
44.48830 422.000
44.50824 448.000
44.52819 423.000
44.54814 440.000
44.56808 440.000
44.58803 469.000
44.60798 423.000
44.62793 419.000
44.64787 455.000
44.66782 435.000
44.68777 471.000
44.70771 462.000
44.72766 509.000
44.74761 503.000
44.76755 557.000
44.78750 501.000
44.80745 512.000
44.82740 486.000
44.84734 505.000
44.86729 497.000
44.88724 457.000
44.90718 483.000
44.92713 464.000
44.94708 444.000
44.96702 432.000
44.98697 413.000
45.00692 414.000
45.02686 418.000
45.04681 415.000
45.06676 424.000
45.08671 409.000
45.10665 391.000
45.12660 401.000
45.14655 396.000
45.16649 428.000
45.18644 396.000
45.20639 380.000
45.22633 404.000
45.24628 404.000
45.26623 416.000
45.28618 392.000
45.30612 418.000
45.32607 400.000
45.34602 368.000
45.36596 363.000
45.38591 387.000
45.40586 359.000
45.42580 365.000
45.44575 413.000
45.46570 390.000
45.48565 407.000
45.50559 382.000
45.52554 419.000
45.54549 385.000
45.56543 371.000
45.58538 451.000
45.60533 391.000
45.62527 366.000
45.64522 361.000
45.66517 394.000
45.68511 415.000
45.70506 407.000
45.72501 399.000
45.74496 399.000
45.76490 401.000
45.78485 396.000
45.80480 389.000
45.82474 384.000
45.84469 400.000
45.86464 442.000
45.88458 412.000
45.90453 398.000
45.92448 381.000
45.94443 393.000
45.96437 388.000
45.98432 402.000
46.00427 426.000
46.02421 407.000
46.04416 423.000
46.06411 415.000
46.08405 412.000
46.10400 388.000
46.12395 395.000
46.14389 433.000
46.16384 429.000
46.18379 429.000
46.20374 443.000
46.22368 572.000
46.24363 551.000
46.26358 510.000
46.28352 504.000
46.30347 456.000
46.32342 484.000
46.34336 452.000
46.36331 497.000
46.38326 484.000
46.40321 429.000
46.42315 396.000
46.44310 458.000
46.46305 425.000
46.48299 410.000
46.50294 453.000
46.52289 426.000
46.54283 412.000
46.56278 382.000
46.58273 376.000
46.60267 364.000
46.62262 386.000
46.64257 438.000
46.66252 365.000
46.68246 376.000
46.70241 394.000
46.72236 383.000
46.74230 387.000
46.76225 378.000
46.78220 403.000
46.80214 378.000
46.82209 379.000
46.84204 385.000
46.86199 356.000
46.88193 406.000
46.90188 393.000
46.92183 399.000
46.94177 356.000
46.96172 429.000
46.98167 380.000
47.00161 370.000
47.02156 393.000
47.04151 439.000
47.06146 376.000
47.08140 393.000
47.10135 392.000
47.12130 410.000
47.14124 401.000
47.16119 405.000
47.18114 376.000
47.20108 392.000
47.22103 415.000
47.24098 347.000
47.26092 402.000
47.28087 377.000
47.30082 398.000
47.32077 399.000
47.34071 383.000
47.36066 418.000
47.38061 375.000
47.40055 379.000
47.42050 367.000
47.44045 412.000
47.46039 398.000
47.48034 400.000
47.50029 393.000
47.52024 388.000
47.54018 399.000
47.56013 362.000
47.58008 396.000
47.60002 414.000
47.61997 393.000
47.63992 376.000
47.65986 395.000
47.67981 397.000
47.69976 403.000
47.71970 431.000
47.73965 405.000
47.75960 433.000
47.77955 388.000
47.79949 412.000
47.81944 427.000
47.83939 406.000
47.85933 409.000
47.87928 486.000
47.89923 441.000
47.91917 421.000
47.93912 418.000
47.95907 425.000
47.97902 420.000
47.99896 428.000
48.01891 452.000
48.03886 466.000
48.05880 476.000
48.07875 465.000
48.09870 442.000
48.11864 471.000
48.13859 468.000
48.15854 476.000
48.17848 507.000
48.19843 442.000
48.21838 453.000
48.23833 479.000
48.25827 476.000
48.27822 530.000
48.29817 536.000
48.31811 502.000
48.33806 571.000
48.35801 564.000
48.37795 556.000
48.39790 585.000
48.41785 638.000
48.43780 666.000
48.45774 700.000
48.47769 731.000
48.49764 709.000
48.51758 790.000
48.53753 771.000
48.55748 840.000
48.57742 859.000
48.59737 909.000
48.61732 1024.000
48.63726 1106.000
48.65721 1207.000
48.67716 1243.000
48.69711 1200.000
48.71705 1139.000
48.73700 1059.000
48.75695 982.000
48.77689 947.000
48.79684 944.000
48.81679 878.000
48.83673 850.000
48.85668 739.000
48.87663 678.000
48.89658 591.000
48.91652 531.000
48.93647 546.000
48.95642 522.000
48.97636 492.000
48.99631 460.000
49.01626 451.000
49.03620 454.000
49.05615 473.000
49.07610 496.000
49.09605 458.000
49.11599 444.000
49.13594 456.000
49.15589 407.000
49.17583 408.000
49.19578 415.000
49.21573 423.000
49.23567 417.000
49.25562 448.000
49.27557 454.000
49.29551 430.000
49.31546 464.000
49.33541 440.000
49.35536 454.000
49.37530 430.000
49.39525 418.000
49.41520 455.000
49.43514 460.000
49.45509 418.000
49.47504 464.000
49.49498 478.000
49.51493 446.000
49.53488 468.000
49.55483 424.000
49.57477 481.000
49.59472 488.000
49.61467 438.000
49.63461 435.000
49.65456 462.000
49.67451 433.000
49.69445 459.000
49.71440 422.000
49.73435 436.000
49.75429 431.000
49.77424 400.000
49.79419 403.000
49.81414 410.000
49.83408 403.000
49.85403 420.000
49.87398 412.000
49.89392 383.000
49.91387 365.000
49.93382 379.000
49.95376 413.000
49.97371 371.000
49.99366 399.000
50.01361 385.000
50.03355 407.000
50.05350 344.000
50.07345 410.000
50.09339 398.000
50.11334 421.000
50.13329 392.000
50.15323 387.000
50.17318 371.000
50.19313 410.000
50.21307 412.000
50.23302 359.000
50.25297 383.000
50.27292 366.000
50.29286 400.000
50.31281 383.000
50.33276 370.000
50.35270 389.000
50.37265 394.000
50.39260 399.000
50.41254 381.000
50.43249 381.000
50.45244 403.000
50.47239 408.000
50.49233 413.000
50.51228 351.000
50.53223 413.000
50.55217 428.000
50.57212 397.000
50.59207 388.000
50.61201 344.000
50.63196 375.000
50.65191 384.000
50.67186 394.000
50.69180 393.000
50.71175 392.000
50.73170 385.000
50.75164 404.000
50.77159 411.000
50.79154 368.000
50.81148 389.000
50.83143 396.000
50.85138 367.000
50.87132 390.000
50.89127 372.000
50.91122 391.000
50.93117 393.000
50.95111 373.000
50.97106 338.000
50.99101 388.000
51.01095 365.000
51.03090 364.000
51.05085 441.000
51.07079 379.000
51.09074 413.000
51.11069 365.000
51.13064 364.000
51.15058 440.000
51.17053 399.000
51.19048 403.000
51.21042 416.000
51.23037 401.000
51.25032 433.000
51.27026 429.000
51.29021 411.000
51.31016 425.000
51.33010 463.000
51.35005 415.000
51.37000 434.000
51.38995 484.000
51.40989 441.000
51.42984 422.000
51.44979 428.000
51.46973 456.000
51.48968 392.000
51.50963 379.000
51.52957 378.000
51.54952 409.000
51.56947 407.000
51.58942 401.000
51.60936 373.000
51.62931 424.000
51.64926 386.000
51.66920 408.000
51.68915 372.000
51.70910 390.000
51.72904 387.000
51.74899 401.000
51.76894 370.000
51.78888 382.000
51.80883 388.000
51.82878 423.000
51.84873 365.000
51.86867 391.000
51.88862 412.000
51.90857 389.000
51.92851 384.000
51.94846 402.000
51.96841 399.000
51.98835 406.000
52.00830 450.000
52.02825 409.000
52.04820 456.000
52.06814 450.000
52.08809 393.000
52.10804 407.000
52.12798 444.000
52.14793 431.000
52.16788 439.000
52.18782 390.000
52.20777 475.000
52.22772 418.000
52.24767 446.000
52.26761 413.000
52.28756 414.000
52.30751 389.000
52.32745 428.000
52.34740 428.000
52.36735 425.000
52.38729 402.000
52.40724 442.000
52.42719 427.000
52.44713 443.000
52.46708 414.000
52.48703 432.000
52.50698 422.000
52.52692 425.000
52.54687 433.000
52.56682 450.000
52.58676 469.000
52.60671 465.000
52.62666 429.000
52.64660 446.000
52.66655 482.000
52.68650 470.000
52.70645 510.000
52.72639 470.000
52.74634 465.000
52.76629 488.000
52.78623 504.000
52.80618 451.000
52.82613 488.000
52.84607 494.000
52.86602 443.000
52.88597 466.000
52.90591 452.000
52.92586 433.000
52.94581 447.000
52.96576 452.000
52.98570 437.000
53.00565 387.000
53.02560 422.000
53.04554 395.000
53.06549 484.000
53.08544 391.000
53.10538 396.000
53.12533 466.000
53.14528 432.000
53.16523 438.000
53.18517 463.000
53.20512 401.000
53.22507 430.000
53.24501 445.000
53.26496 421.000
53.28491 449.000
53.30485 425.000
53.32480 462.000
53.34475 462.000
53.36469 444.000
53.38464 497.000
53.40459 506.000
53.42454 530.000
53.44448 517.000
53.46443 601.000
53.48438 610.000
53.50432 708.000
53.52427 729.000
53.54422 698.000
53.56416 689.000
53.58411 647.000
53.60406 643.000
53.62401 616.000
53.64395 567.000
53.66390 611.000
53.68385 624.000
53.70379 623.000
53.72374 504.000
53.74369 482.000
53.76363 490.000
53.78358 470.000
53.80353 449.000
53.82348 480.000
53.84342 455.000
53.86337 427.000
53.88332 458.000
53.90326 417.000
53.92321 398.000
53.94316 418.000
53.96310 453.000
53.98305 409.000
54.00300 432.000
54.02294 438.000
54.04289 372.000
54.06284 397.000
54.08279 357.000
54.10273 398.000
54.12268 435.000
54.14263 404.000
54.16257 406.000
54.18252 385.000
54.20247 449.000
54.22241 413.000
54.24236 413.000
54.26231 413.000
54.28226 384.000
54.30220 370.000
54.32215 393.000
54.34210 408.000
54.36204 406.000
54.38199 364.000
54.40194 405.000
54.42188 432.000
54.44183 429.000
54.46178 401.000
54.48172 399.000
54.50167 410.000
54.52162 359.000
54.54157 389.000
54.56151 387.000
54.58146 398.000
54.60141 356.000
54.62135 440.000
54.64130 394.000
54.66125 413.000
54.68119 360.000
54.70114 382.000
54.72109 402.000
54.74104 416.000
54.76098 400.000
54.78093 383.000
54.80088 422.000
54.82082 414.000
54.84077 416.000
54.86072 382.000
54.88066 394.000
54.90061 391.000
54.92056 406.000
54.94050 361.000
54.96045 346.000
54.98040 391.000
55.00035 408.000
55.02029 387.000
55.04024 398.000
55.06019 406.000
55.08013 381.000
55.10008 384.000
55.12003 410.000
55.13997 401.000
55.15992 416.000
55.17987 396.000
55.19982 392.000
55.21976 405.000
55.23971 411.000
55.25966 368.000
55.27960 394.000
55.29955 398.000
55.31950 385.000
55.33944 384.000
55.35939 391.000
55.37934 377.000
55.39929 365.000
55.41923 354.000
55.43918 395.000
55.45913 354.000
55.47907 436.000
55.49902 389.000
55.51897 391.000
55.53891 408.000
55.55886 403.000
55.57881 352.000
55.59875 380.000
55.61870 419.000
55.63865 421.000
55.65860 398.000
55.67854 391.000
55.69849 374.000
55.71844 378.000
55.73838 383.000
55.75833 405.000
55.77828 424.000
55.79822 396.000
55.81817 382.000
55.83812 365.000
55.85807 407.000
55.87801 382.000
55.89796 368.000
55.91791 363.000
55.93785 377.000
55.95780 380.000
55.97775 409.000
55.99769 404.000
56.01764 407.000
56.03759 351.000
56.05753 413.000
56.07748 392.000
56.09743 387.000
56.11738 371.000
56.13732 393.000
56.15727 375.000
56.17722 375.000
56.19716 428.000
56.21711 403.000
56.23706 390.000
56.25700 377.000
56.27695 398.000
56.29690 365.000
56.31685 413.000
56.33679 368.000
56.35674 403.000
56.37669 415.000
56.39663 409.000
56.41658 412.000
56.43653 418.000
56.45647 398.000
56.47642 369.000
56.49637 366.000
56.51631 402.000
56.53626 402.000
56.55621 426.000
56.57616 402.000
56.59610 380.000
56.61605 437.000
56.63600 397.000
56.65594 431.000
56.67589 429.000
56.69584 449.000
56.71578 416.000
56.73573 395.000
56.75568 440.000
56.77563 455.000
56.79557 417.000
56.81552 440.000
56.83547 440.000
56.85541 424.000
56.87536 472.000
56.89531 421.000
56.91525 391.000
56.93520 444.000
56.95515 394.000
56.97510 439.000
56.99504 389.000
57.01499 428.000
57.03494 456.000
57.05488 415.000
57.07483 411.000
57.09478 436.000
57.11472 466.000
57.13467 448.000
57.15462 471.000
57.17456 442.000
57.19451 417.000
57.21446 462.000
57.23441 499.000
57.25435 484.000
57.27430 463.000
57.29425 476.000
57.31419 471.000
57.33414 470.000
57.35409 466.000
57.37403 468.000
57.39398 469.000
57.41393 467.000
57.43388 411.000
57.45382 425.000
57.47377 436.000
57.49372 460.000
57.51366 427.000
57.53361 415.000
57.55356 393.000
57.57350 398.000
57.59345 419.000
57.61340 378.000
57.63334 433.000
57.65329 400.000
57.67324 408.000
57.69319 392.000
57.71313 406.000
57.73308 409.000
57.75303 397.000
57.77297 361.000
57.79292 445.000
57.81287 397.000
57.83281 436.000
57.85276 407.000
57.87271 407.000
57.89266 427.000
57.91260 414.000
57.93255 401.000
57.95250 402.000
57.97244 423.000
57.99239 446.000
58.01234 397.000
58.03228 418.000
58.05223 443.000
58.07218 393.000
58.09212 495.000
58.11207 471.000
58.13202 461.000
58.15197 465.000
58.17191 504.000
58.19186 498.000
58.21181 482.000
58.23175 564.000
58.25170 630.000
58.27165 684.000
58.29159 756.000
58.31154 742.000
58.33149 780.000
58.35144 696.000
58.37138 635.000
58.39133 620.000
58.41128 625.000
58.43122 623.000
58.45117 600.000
58.47112 666.000
58.49106 609.000
58.51101 558.000
58.53096 529.000
58.55090 503.000
58.57085 492.000
58.59080 463.000
58.61075 447.000
58.63069 406.000
58.65064 438.000
58.67059 394.000
58.69053 410.000
58.71048 416.000
58.73043 420.000
58.75037 417.000
58.77032 375.000
58.79027 405.000
58.81022 376.000
58.83016 410.000
58.85011 392.000
58.87006 405.000
58.89000 392.000
58.90995 424.000
58.92990 400.000
58.94984 410.000
58.96979 389.000
58.98974 390.000
59.00969 390.000
59.02963 385.000
59.04958 419.000
59.06953 443.000
59.08947 367.000
59.10942 365.000
59.12937 381.000
59.14931 406.000
59.16926 403.000
59.18921 411.000
59.20915 362.000
59.22910 403.000
59.24905 394.000
59.26900 387.000
59.28894 421.000
59.30889 432.000
59.32884 406.000
59.34878 382.000
59.36873 409.000
59.38868 377.000
59.40862 400.000
59.42857 410.000
59.44852 402.000
59.46847 380.000
59.48841 391.000
59.50836 366.000
59.52831 407.000
59.54825 367.000
59.56820 386.000
59.58815 389.000
59.60809 402.000
59.62804 385.000
59.64799 383.000
59.66793 385.000
59.68788 363.000
59.70783 364.000
59.72778 428.000
59.74772 406.000
59.76767 398.000
59.78762 395.000
59.80756 437.000
59.82751 388.000
59.84746 408.000
59.86740 382.000
59.88735 396.000
59.90730 401.000
59.92725 396.000
59.94719 411.000
59.96714 386.000
59.98709 408.000
60.00703 408.000
60.02698 372.000
60.04693 412.000
60.06687 381.000
60.08682 395.000
60.10677 360.000
60.12671 422.000
60.14666 369.000
60.16661 388.000
60.18656 354.000
60.20650 379.000
60.22645 417.000
60.24640 369.000
60.26634 422.000
60.28629 371.000
60.30624 382.000
60.32618 394.000
60.34613 373.000
60.36608 374.000
60.38603 413.000
60.40597 371.000
60.42592 402.000
60.44587 388.000
60.46581 376.000
60.48576 386.000
60.50571 429.000
60.52565 412.000
60.54560 392.000
60.56555 437.000
60.58550 415.000
60.60544 416.000
60.62539 402.000
60.64534 439.000
60.66528 386.000
60.68523 427.000
60.70518 410.000
60.72512 389.000
60.74507 410.000
60.76502 417.000
60.78496 389.000
60.80491 420.000
60.82486 427.000
60.84481 403.000
60.86475 416.000
60.88470 405.000
60.90465 424.000
60.92459 400.000
60.94454 419.000
60.96449 383.000
60.98443 455.000
61.00438 443.000
61.02433 430.000
61.04428 441.000
61.06422 406.000
61.08417 451.000
61.10412 412.000
61.12406 476.000
61.14401 451.000
61.16396 485.000
61.18390 428.000
61.20385 481.000
61.22380 494.000
61.24374 446.000
61.26369 499.000
61.28364 479.000
61.30359 539.000
61.32353 511.000
61.34348 552.000
61.36343 554.000
61.38337 570.000
61.40332 661.000
61.42327 714.000
61.44321 710.000
61.46316 784.000
61.48311 940.000
61.50306 960.000
61.52300 1057.000
61.54295 1051.000
61.56290 975.000
61.58284 1020.000
61.60279 886.000
61.62274 818.000
61.64268 879.000
61.66263 876.000
61.68258 888.000
61.70252 877.000
61.72247 866.000
61.74242 840.000
61.76237 753.000
61.78231 757.000
61.80226 694.000
61.82221 625.000
61.84215 640.000
61.86210 563.000
61.88205 537.000
61.90199 569.000
61.92194 542.000
61.94189 534.000
61.96184 495.000
61.98178 485.000
62.00173 473.000
62.02168 465.000
62.04162 483.000
62.06157 456.000
62.08152 447.000
62.10146 452.000
62.12141 446.000
62.14136 464.000
62.16131 421.000
62.18125 431.000
62.20120 432.000
62.22115 445.000
62.24109 439.000
62.26104 430.000
62.28099 444.000
62.30093 455.000
62.32088 434.000
62.34083 405.000
62.36077 393.000
62.38072 437.000
62.40067 380.000
62.42062 425.000
62.44056 407.000
62.46051 422.000
62.48046 433.000
62.50040 442.000
62.52035 419.000
62.54030 438.000
62.56024 426.000
62.58019 428.000
62.60014 404.000
62.62009 402.000
62.64003 410.000
62.65998 429.000
62.67993 438.000
62.69987 417.000
62.71982 420.000
62.73977 399.000
62.75971 405.000
62.77966 409.000
62.79961 422.000
62.81955 439.000
62.83950 430.000
62.85945 430.000
62.87940 425.000
62.89934 407.000
62.91929 470.000
62.93924 475.000
62.95918 405.000
62.97913 435.000
62.99908 426.000
63.01902 443.000
63.03897 465.000
63.05892 424.000
63.07887 469.000
63.09881 448.000
63.11876 450.000
63.13871 438.000
63.15865 478.000
63.17860 454.000
63.19855 454.000
63.21849 479.000
63.23844 469.000
63.25839 431.000
63.27833 474.000
63.29828 472.000
63.31823 458.000
63.33818 448.000
63.35812 462.000
63.37807 425.000
63.39802 417.000
63.41796 443.000
63.43791 409.000
63.45786 425.000
63.47780 394.000
63.49775 466.000
63.51770 399.000
63.53765 426.000
63.55759 426.000
63.57754 445.000
63.59749 455.000
63.61743 425.000
63.63738 458.000
63.65733 443.000
63.67727 455.000
63.69722 463.000
63.71717 453.000
63.73712 468.000
63.75706 472.000
63.77701 445.000
63.79696 422.000
63.81690 463.000
63.83685 448.000
63.85680 450.000
63.87674 413.000
63.89669 455.000
63.91664 451.000
63.93658 432.000
63.95653 445.000
63.97648 427.000
63.99643 462.000
64.01637 459.000
64.03632 443.000
64.05627 461.000
64.07621 382.000
64.09616 421.000
64.11611 437.000
64.13605 444.000
64.15600 430.000
64.17595 438.000
64.19590 407.000
64.21584 395.000
64.23579 385.000
64.25574 425.000
64.27568 389.000
64.29563 426.000
64.31558 391.000
64.33552 379.000
64.35547 445.000
64.37542 406.000
64.39536 429.000
64.41531 452.000
64.43526 438.000
64.45521 379.000
64.47515 420.000
64.49510 374.000
64.51505 379.000
64.53499 448.000
64.55494 406.000
64.57489 437.000
64.59483 418.000
64.61478 406.000
64.63473 406.000
64.65468 373.000
64.67462 434.000
64.69457 436.000
64.71452 428.000
64.73446 420.000
64.75441 416.000
64.77436 410.000
64.79430 384.000
64.81425 390.000
64.83420 421.000
64.85414 381.000
64.87409 401.000
64.89404 399.000
64.91399 460.000
64.93393 404.000
64.95388 394.000
64.97383 416.000
64.99377 399.000
65.01372 410.000
65.03367 411.000
65.05361 459.000
65.07356 409.000
65.09351 418.000
65.11346 413.000
65.13340 433.000
65.15335 413.000
65.17330 374.000
65.19324 430.000
65.21319 404.000
65.23314 439.000
65.25308 425.000
65.27303 425.000
65.29298 448.000
65.31293 488.000
65.33287 466.000
65.35282 433.000
65.37277 460.000
65.39271 470.000
65.41266 436.000
65.43261 529.000
65.45255 511.000
65.47250 491.000
65.49245 486.000
65.51239 485.000
65.53234 521.000
65.55229 521.000
65.57224 517.000
65.59218 519.000
65.61213 569.000
65.63208 572.000
65.65202 580.000
65.67197 611.000
65.69192 574.000
65.71186 586.000
65.73181 613.000
65.75176 638.000
65.77171 682.000
65.79165 666.000
65.81160 747.000
65.83155 741.000
65.85149 726.000
65.87144 783.000
65.89139 742.000
65.91133 712.000
65.93128 705.000
65.95123 731.000
65.97117 717.000
65.99112 709.000
66.01107 680.000
66.03102 748.000
66.05096 702.000
66.07091 713.000
66.09086 792.000
66.11080 807.000
66.13075 853.000
66.15070 904.000
66.17064 977.000
66.19059 1041.000
66.21054 914.000
66.23049 925.000
66.25043 860.000
66.27038 763.000
66.29033 733.000
66.31027 709.000
66.33022 720.000
66.35017 749.000
66.37011 784.000
66.39006 701.000
66.41001 745.000
66.42995 637.000
66.44990 595.000
66.46985 616.000
66.48980 612.000
66.50974 526.000
66.52969 499.000
66.54964 516.000
66.56958 529.000
66.58953 489.000
66.60948 517.000
66.62942 487.000
66.64937 473.000
66.66932 466.000
66.68927 462.000
66.70921 452.000
66.72916 450.000
66.74911 502.000
66.76905 435.000
66.78900 450.000
66.80895 457.000
66.82889 402.000
66.84884 388.000
66.86879 460.000
66.88874 430.000
66.90868 416.000
66.92863 392.000
66.94858 437.000
66.96852 423.000
66.98847 424.000
67.00842 467.000
67.02836 412.000
67.04831 449.000
67.06826 393.000
67.08820 410.000
67.10815 434.000
67.12810 454.000
67.14805 426.000
67.16799 392.000
67.18794 366.000
67.20789 409.000
67.22783 426.000
67.24778 437.000
67.26773 412.000
67.28767 424.000
67.30762 475.000
67.32757 409.000
67.34752 468.000
67.36746 454.000
67.38741 485.000
67.40736 446.000
67.42730 436.000
67.44725 429.000
67.46720 431.000
67.48714 421.000
67.50709 439.000
67.52704 451.000
67.54698 445.000
67.56693 458.000
67.58688 453.000
67.60683 431.000
67.62677 457.000
67.64672 487.000
67.66667 456.000
67.68661 434.000
67.70656 468.000
67.72651 468.000
67.74645 489.000
67.76640 516.000
67.78635 487.000
67.80630 483.000
67.82624 491.000
67.84619 535.000
67.86614 563.000
67.88608 597.000
67.90603 642.000
67.92598 612.000
67.94592 656.000
67.96587 661.000
67.98582 673.000
68.00576 683.000
68.02571 719.000
68.04566 731.000
68.06561 721.000
68.08555 784.000
68.10550 895.000
68.12545 925.000
68.14539 932.000
68.16534 859.000
68.18529 792.000
68.20523 723.000
68.22518 713.000
68.24513 621.000
68.26508 643.000
68.28502 649.000
68.30497 617.000
68.32492 649.000
68.34486 636.000
68.36481 611.000
68.38476 562.000
68.40470 543.000
68.42465 485.000
68.44460 509.000
68.46455 480.000
68.48449 469.000
68.50444 427.000
68.52439 435.000
68.54433 405.000
68.56428 418.000
68.58423 406.000
68.60417 420.000
68.62412 393.000
68.64407 427.000
68.66401 401.000
68.68396 409.000
68.70391 419.000
68.72386 413.000
68.74380 401.000
68.76375 414.000
68.78370 402.000
68.80364 372.000
68.82359 368.000
68.84354 385.000
68.86348 384.000
68.88343 404.000
68.90338 400.000
68.92333 384.000
68.94327 414.000
68.96322 376.000
68.98317 410.000
69.00311 389.000
69.02306 392.000
69.04301 394.000
69.06295 406.000
69.08290 415.000
69.10285 385.000
69.12279 378.000
69.14274 367.000
69.16269 389.000
69.18264 411.000
69.20258 409.000
69.22253 386.000
69.24248 432.000
69.26242 378.000
69.28237 409.000
69.30232 447.000
69.32226 401.000
69.34221 377.000
69.36216 420.000
69.38211 378.000
69.40205 355.000
69.42200 401.000
69.44195 372.000
69.46189 378.000
69.48184 401.000
69.50179 352.000
69.52173 361.000
69.54168 405.000
69.56163 400.000
69.58157 391.000
69.60152 406.000
69.62147 389.000
69.64142 379.000
69.66136 359.000
69.68131 374.000
69.70126 399.000
69.72120 403.000
69.74115 380.000
69.76110 386.000
69.78104 394.000
69.80099 390.000
69.82094 384.000
69.84089 379.000
69.86083 402.000
69.88078 370.000
69.90073 372.000
69.92067 369.000
69.94062 360.000
69.96057 385.000
69.98051 401.000
70.00046 399.000
70.02041 355.000
70.04035 363.000
70.06030 390.000
70.08025 360.000
70.10020 412.000
70.12014 358.000
70.14009 402.000
70.16004 375.000
70.17998 408.000
70.19993 400.000
70.21988 352.000
70.23982 378.000
70.25977 375.000
70.27972 374.000
70.29967 397.000
70.31961 352.000
70.33956 378.000
70.35951 372.000
70.37945 403.000
70.39940 368.000
70.41935 397.000
70.43929 388.000
70.45924 385.000
70.47919 383.000
70.49914 387.000
70.51908 385.000
70.53903 402.000
70.55898 373.000
70.57892 408.000
70.59887 361.000
70.61882 331.000
70.63876 406.000
70.65871 355.000
70.67866 364.000
70.69860 362.000
70.71855 387.000
70.73850 379.000
70.75845 394.000
70.77839 388.000
70.79834 402.000
70.81829 411.000
70.83823 364.000
70.85818 354.000
70.87813 397.000
70.89807 352.000
70.91802 387.000
70.93797 415.000
70.95792 362.000
70.97786 386.000
70.99781 403.000
71.01776 366.000
71.03770 366.000
71.05765 372.000
71.07760 384.000
71.09754 395.000
71.11749 390.000
71.13744 392.000
71.15738 354.000
71.17733 406.000
71.19728 384.000
71.21723 352.000
71.23717 386.000
71.25712 366.000
71.27707 395.000
71.29701 358.000
71.31696 369.000
71.33691 379.000
71.35685 377.000
71.37680 378.000
71.39675 385.000
71.41670 390.000
71.43664 417.000
71.45659 383.000
71.47654 407.000
71.49648 404.000
71.51643 364.000
71.53638 376.000
71.55632 394.000
71.57627 388.000
71.59622 373.000
71.61616 368.000
71.63611 408.000
71.65606 423.000
71.67601 418.000
71.69595 384.000
71.71590 422.000
71.73585 424.000
71.75579 379.000
71.77574 426.000
71.79569 409.000
71.81563 411.000
71.83558 437.000
71.85553 377.000
71.87548 401.000
71.89542 387.000
71.91537 401.000
71.93532 383.000
71.95526 419.000
71.97521 408.000
71.99516 429.000
72.01510 400.000
72.03505 419.000
72.05500 371.000
72.07495 409.000
72.09489 352.000
72.11484 398.000
72.13479 438.000
72.15473 414.000
72.17468 431.000
72.19463 454.000
72.21457 410.000
72.23452 425.000
72.25447 464.000
72.27441 453.000
72.29436 459.000
72.31431 465.000
72.33426 526.000
72.35420 528.000
72.37415 526.000
72.39410 549.000
72.41404 565.000
72.43399 512.000
72.45394 536.000
72.47388 479.000
72.49383 462.000
72.51378 525.000
72.53373 493.000
72.55367 485.000
72.57362 507.000
72.59357 518.000
72.61351 444.000
72.63346 453.000
72.65341 512.000
72.67335 487.000
72.69330 496.000
72.71325 465.000
72.73319 474.000
72.75314 452.000
72.77309 417.000
72.79304 444.000
72.81298 441.000
72.83293 444.000
72.85288 460.000
72.87282 425.000
72.89277 456.000
72.91272 463.000
72.93266 431.000
72.95261 445.000
72.97256 436.000
72.99251 491.000
73.01245 447.000
73.03240 410.000
73.05235 392.000
73.07229 445.000
73.09224 442.000
73.11219 404.000
73.13213 434.000
73.15208 459.000
73.17203 403.000
73.19197 450.000
73.21192 417.000
73.23187 422.000
73.25182 418.000
73.27176 399.000
73.29171 417.000
73.31166 400.000
73.33160 403.000
73.35155 416.000
73.37150 393.000
73.39144 441.000
73.41139 380.000
73.43134 403.000
73.45129 385.000
73.47123 399.000
73.49118 390.000
73.51113 424.000
73.53107 392.000
73.55102 379.000
73.57097 404.000
73.59091 375.000
73.61086 369.000
73.63081 432.000
73.65076 382.000
73.67070 373.000
73.69065 348.000
73.71060 399.000
73.73054 392.000
73.75049 395.000
73.77044 361.000
73.79038 353.000
73.81033 392.000
73.83028 388.000
73.85022 397.000
73.87017 399.000
73.89012 397.000
73.91007 417.000
73.93001 411.000
73.94996 348.000
73.96991 389.000
73.98985 406.000
74.00980 348.000
74.02975 380.000
74.04969 389.000
74.06964 389.000
74.08959 376.000
74.10954 383.000
74.12948 402.000
74.14943 390.000
74.16938 383.000
74.18932 365.000
74.20927 409.000
74.22922 367.000
74.24916 395.000
74.26911 378.000
74.28906 369.000
74.30900 369.000
74.32895 390.000
74.34890 392.000
74.36885 378.000
74.38879 386.000
74.40874 390.000
74.42869 393.000
74.44863 369.000
74.46858 431.000
74.48853 416.000
74.50847 408.000
74.52842 394.000
74.54837 389.000
74.56832 421.000
74.58826 417.000
74.60821 411.000
74.62816 407.000
74.64810 371.000
74.66805 410.000
74.68800 387.000
74.70794 372.000
74.72789 421.000
74.74784 408.000
74.76778 436.000
74.78773 383.000
74.80768 408.000
74.82763 441.000
74.84757 422.000
74.86752 427.000
74.88747 455.000
74.90741 442.000
74.92736 473.000
74.94731 472.000
74.96725 522.000
74.98720 493.000
75.00715 539.000
75.02710 535.000
75.04704 547.000
75.06699 506.000
75.08694 545.000
75.10688 525.000
75.12683 581.000
75.14678 532.000
75.16672 609.000
75.18667 587.000
75.20662 614.000
75.22657 647.000
75.24651 679.000
75.26646 614.000
75.28641 589.000
75.30635 558.000
75.32630 517.000
75.34625 560.000
75.36619 515.000
75.38614 546.000
75.40609 509.000
75.42603 510.000
75.44598 481.000
75.46593 504.000
75.48588 485.000
75.50582 550.000
75.52577 475.000
75.54572 458.000
75.56566 388.000
75.58561 425.000
75.60556 405.000
75.62550 421.000
75.64545 423.000
75.66540 416.000
75.68535 410.000
75.70529 399.000
75.72524 410.000
75.74519 390.000
75.76513 391.000
75.78508 385.000
75.80503 387.000
75.82497 393.000
75.84492 364.000
75.86487 375.000
75.88481 397.000
75.90476 389.000
75.92471 384.000
75.94466 385.000
75.96460 341.000
75.98455 422.000
76.00450 366.000
76.02444 371.000
76.04439 380.000
76.06434 426.000
76.08428 379.000
76.10423 391.000
76.12418 394.000
76.14413 368.000
76.16407 359.000
76.18402 366.000
76.20397 414.000
76.22391 377.000
76.24386 378.000
76.26381 374.000
76.28375 378.000
76.30370 345.000
76.32365 403.000
76.34359 371.000
76.36354 375.000
76.38349 384.000
76.40344 391.000
76.42338 392.000
76.44333 388.000
76.46328 359.000
76.48322 383.000
76.50317 405.000
76.52312 393.000
76.54306 408.000
76.56301 384.000
76.58296 397.000
76.60291 375.000
76.62285 369.000
76.64280 396.000
76.66275 372.000
76.68269 381.000
76.70264 349.000
76.72259 369.000
76.74253 347.000
76.76248 400.000
76.78243 390.000
76.80238 399.000
76.82232 357.000
76.84227 358.000
76.86222 366.000
76.88216 399.000
76.90211 361.000
76.92206 386.000
76.94200 366.000
76.96195 391.000
76.98190 363.000
77.00184 382.000
77.02179 397.000
77.04174 381.000
77.06169 376.000
77.08163 390.000
77.10158 366.000
77.12153 397.000
77.14147 382.000
77.16142 369.000
77.18137 388.000
77.20131 382.000
77.22126 416.000
77.24121 377.000
77.26116 375.000
77.28110 383.000
77.30105 378.000
77.32100 404.000
77.34094 403.000
77.36089 371.000
77.38084 400.000
77.40078 376.000
77.42073 385.000
77.44068 399.000
77.46062 401.000
77.48057 414.000
77.50052 381.000
77.52047 376.000
77.54041 405.000
77.56036 386.000
77.58031 379.000
77.60025 437.000
77.62020 383.000
77.64015 373.000
77.66009 389.000
77.68004 413.000
77.69999 398.000
77.71994 362.000
77.73988 387.000
77.75983 406.000
77.77978 407.000
77.79972 404.000
77.81967 410.000
77.83962 374.000
77.85956 424.000
77.87951 375.000
77.89946 410.000
77.91940 389.000
77.93935 390.000
77.95930 404.000
77.97925 416.000
77.99919 435.000
78.01914 416.000
78.03909 434.000
78.05903 409.000
78.07898 440.000
78.09893 429.000
78.11887 398.000
78.13882 383.000
78.15877 386.000
78.17872 375.000
78.19866 378.000
78.21861 392.000
78.23856 433.000
78.25850 399.000
78.27845 377.000
78.29840 408.000
78.31834 359.000
78.33829 400.000
78.35824 369.000
78.37819 398.000
78.39813 399.000
78.41808 428.000
78.43803 435.000
78.45797 391.000
78.47792 408.000
78.49787 386.000
78.51781 367.000
78.53776 337.000
78.55771 371.000
78.57765 383.000
78.59760 353.000
78.61755 385.000
78.63750 373.000
78.65744 416.000
78.67739 394.000
78.69734 391.000
78.71728 374.000
78.73723 355.000
78.75718 390.000
78.77712 394.000
78.79707 382.000
78.81702 356.000
78.83697 367.000
78.85691 359.000
78.87686 357.000
78.89681 362.000
78.91675 373.000
78.93670 368.000
78.95665 375.000
78.97659 378.000
78.99654 385.000
79.01649 411.000
79.03643 376.000
79.05638 367.000
79.07633 349.000
79.09628 408.000
79.11622 384.000
79.13617 389.000
79.15612 339.000
79.17606 399.000
79.19601 371.000
79.21596 393.000
79.23590 407.000
79.25585 383.000
79.27580 356.000
79.29575 386.000
79.31569 380.000
79.33564 351.000
79.35559 363.000
79.37553 394.000
79.39548 402.000
79.41543 377.000
79.43537 377.000
79.45532 372.000
79.47527 378.000
79.49521 373.000
79.51516 389.000
79.53511 392.000
79.55506 364.000
79.57500 382.000
79.59495 350.000
79.61490 356.000
79.63484 399.000
79.65479 371.000
79.67474 379.000
79.69468 383.000
79.71463 379.000
79.73458 422.000
79.75453 397.000
79.77447 431.000
79.79442 399.000
79.81437 371.000
79.83431 368.000
79.85426 398.000
79.87421 401.000
79.89415 384.000
79.91410 369.000
79.93405 402.000
79.95399 394.000
79.97394 412.000
79.99389 420.000
80.01384 413.000
80.03378 422.000
80.05373 424.000
80.07368 398.000
80.09362 448.000
80.11357 442.000
80.13352 428.000
80.15346 446.000
80.17341 433.000
80.19336 389.000
80.21331 425.000
80.23325 373.000
80.25320 390.000
80.27315 421.000
80.29309 401.000
80.31304 424.000
80.33299 371.000
80.35293 440.000
80.37288 408.000
80.39283 452.000
80.41278 425.000
80.43272 386.000
80.45267 402.000
80.47262 371.000
80.49256 364.000
80.51251 403.000
80.53246 394.000
80.55240 422.000
80.57235 345.000
80.59230 400.000
80.61224 372.000
80.63219 419.000
80.65214 394.000
80.67209 362.000
80.69203 353.000
80.71198 367.000
80.73193 382.000
80.75187 349.000
80.77182 407.000
80.79177 372.000
80.81171 320.000
80.83166 395.000
80.85161 360.000
80.87156 388.000
80.89150 394.000
80.91145 401.000
80.93140 372.000
80.95134 390.000
80.97129 400.000
80.99124 351.000
81.01118 362.000
81.03113 367.000
81.05108 379.000
81.07102 398.000
81.09097 389.000
81.11092 392.000
81.13087 368.000
81.15081 397.000
81.17076 377.000
81.19071 362.000
81.21065 383.000
81.23060 402.000
81.25055 398.000
81.27049 356.000
81.29044 402.000
81.31039 375.000
81.33034 362.000
81.35028 377.000
81.37023 340.000
81.39018 375.000
81.41012 411.000
81.43007 394.000
81.45002 375.000
81.46996 375.000
81.48991 409.000
81.50986 393.000
81.52980 382.000
81.54975 344.000
81.56970 402.000
81.58965 366.000
81.60959 411.000
81.62954 379.000
81.64949 398.000
81.66943 351.000
81.68938 356.000
81.70933 374.000
81.72927 365.000
81.74922 344.000
81.76917 370.000
81.78912 375.000
81.80906 366.000
81.82901 353.000
81.84896 423.000
81.86890 386.000
81.88885 386.000
81.90880 387.000
81.92874 400.000
81.94869 392.000
81.96864 392.000
81.98859 385.000
82.00853 360.000
82.02848 385.000
82.04843 422.000
82.06837 398.000
82.08832 414.000
82.10827 436.000
82.12821 399.000
82.14816 427.000
82.16811 452.000
82.18805 471.000
82.20800 447.000
82.22795 445.000
82.24790 483.000
82.26784 464.000
82.28779 489.000
82.30774 467.000
82.32768 462.000
82.34763 445.000
82.36758 474.000
82.38752 449.000
82.40747 418.000
82.42742 440.000
82.44737 450.000
82.46731 413.000
82.48726 425.000
82.50721 450.000
82.52715 447.000
82.54710 422.000
82.56705 458.000
82.58699 437.000
82.60694 421.000
82.62689 396.000
82.64683 411.000
82.66678 449.000
82.68673 430.000
82.70668 426.000
82.72662 385.000
82.74657 428.000
82.76652 412.000
82.78646 385.000
82.80641 423.000
82.82636 434.000
82.84630 408.000
82.86625 433.000
82.88620 375.000
82.90615 441.000
82.92609 446.000
82.94604 420.000
82.96599 430.000
82.98593 432.000
83.00588 444.000
83.02583 408.000
83.04577 492.000
83.06572 400.000
83.08567 449.000
83.10561 484.000
83.12556 494.000
83.14551 444.000
83.16546 505.000
83.18540 466.000
83.20535 406.000
83.22530 421.000
83.24524 479.000
83.26519 440.000
83.28514 458.000
83.30508 463.000
83.32503 456.000
83.34498 412.000
83.36493 437.000
83.38487 480.000
83.40482 416.000
83.42477 435.000
83.44471 490.000
83.46466 416.000
83.48461 482.000
83.50455 503.000
83.52450 498.000
83.54445 549.000
83.56440 475.000
83.58434 476.000
83.60429 489.000
83.62424 501.000
83.64418 443.000
83.66413 490.000
83.68408 468.000
83.70402 451.000
83.72397 435.000
83.74392 436.000
83.76386 455.000
83.78381 521.000
83.80376 488.000
83.82371 447.000
83.84365 445.000
83.86360 426.000
83.88355 440.000
83.90349 477.000
83.92344 464.000
83.94339 444.000
83.96333 419.000
83.98328 388.000
84.00323 430.000
84.02318 436.000
84.04312 399.000
84.06307 399.000
84.08302 430.000
84.10296 422.000
84.12291 434.000
84.14286 378.000
84.16280 395.000
84.18275 395.000
84.20270 403.000
84.22264 431.000
84.24259 406.000
84.26254 419.000
84.28249 373.000
84.30243 374.000
84.32238 398.000
84.34233 391.000
84.36227 407.000
84.38222 360.000
84.40217 396.000
84.42211 339.000
84.44206 389.000
84.46201 413.000
84.48196 379.000
84.50190 398.000
84.52185 406.000
84.54180 429.000
84.56174 378.000
84.58169 395.000
84.60164 416.000
84.62158 359.000
84.64153 382.000
84.66148 373.000
84.68142 395.000
84.70137 454.000
84.72132 396.000
84.74127 358.000
84.76121 383.000
84.78116 335.000
84.80111 372.000
84.82105 376.000
84.84100 403.000
84.86095 413.000
84.88089 391.000
84.90084 384.000
84.92079 395.000
84.94074 373.000
84.96068 323.000
84.98063 395.000
85.00058 376.000
85.02052 371.000
85.04047 362.000
85.06042 375.000
85.08036 347.000
85.10031 384.000
85.12026 368.000
85.14021 386.000
85.16015 384.000
85.18010 356.000
85.20005 373.000
85.21999 397.000
85.23994 385.000
85.25989 394.000
85.27983 355.000
85.29978 369.000
85.31973 399.000
85.33967 376.000
85.35962 384.000
85.37957 369.000
85.39952 373.000
85.41946 346.000
85.43941 370.000
85.45936 379.000
85.47930 390.000
85.49925 378.000
85.51920 378.000
85.53914 419.000
85.55909 364.000
85.57904 355.000
85.59899 398.000
85.61893 349.000
85.63888 375.000
85.65883 383.000
85.67877 408.000
85.69872 384.000
85.71867 398.000
85.73861 340.000
85.75856 393.000
85.77851 396.000
85.79845 369.000
85.81840 385.000
85.83835 414.000
85.85830 409.000
85.87824 376.000
85.89819 350.000
85.91814 387.000
85.93808 378.000
85.95803 371.000
85.97798 390.000
85.99792 336.000
86.01787 357.000
86.03782 369.000
86.05777 392.000
86.07771 371.000
86.09766 366.000
86.11761 357.000
86.13755 393.000
86.15750 364.000
86.17745 394.000
86.19739 375.000
86.21734 372.000
86.23729 354.000
86.25723 393.000
86.27718 397.000
86.29713 409.000
86.31708 380.000
86.33702 394.000
86.35697 389.000
86.37692 432.000
86.39686 422.000
86.41681 410.000
86.43676 383.000
86.45670 425.000
86.47665 396.000
86.49660 423.000
86.51655 428.000
86.53649 412.000
86.55644 369.000
86.57639 416.000
86.59633 425.000
86.61628 400.000
86.63623 420.000
86.65617 459.000
86.67612 418.000
86.69607 396.000
86.71602 399.000
86.73596 395.000
86.75591 414.000
86.77586 382.000
86.79580 386.000
86.81575 375.000
86.83570 412.000
86.85564 441.000
86.87559 392.000
86.89554 409.000
86.91548 365.000
86.93543 423.000
86.95538 397.000
86.97533 414.000
86.99527 404.000
87.01522 415.000
87.03517 406.000
87.05511 405.000
87.07506 403.000
87.09501 414.000
87.11495 402.000
87.13490 378.000
87.15485 396.000
87.17480 399.000
87.19474 378.000
87.21469 383.000
87.23464 378.000
87.25458 382.000
87.27453 405.000
87.29448 398.000
87.31442 405.000
87.33437 354.000
87.35432 360.000
87.37426 390.000
87.39421 425.000
87.41416 395.000
87.43411 377.000
87.45405 417.000
87.47400 374.000
87.49395 404.000
87.51389 407.000
87.53384 363.000
87.55379 379.000
87.57373 394.000
87.59368 386.000
87.61363 396.000
87.63358 388.000
87.65352 388.000
87.67347 395.000
87.69342 394.000
87.71336 363.000
87.73331 375.000
87.75326 406.000
87.77320 367.000
87.79315 359.000
87.81310 405.000
87.83304 382.000
87.85299 397.000
87.87294 384.000
87.89289 364.000
87.91283 365.000
87.93278 408.000
87.95273 365.000
87.97267 380.000
87.99262 353.000
88.01257 364.000
88.03251 380.000
88.05246 378.000
88.07241 389.000
88.09236 383.000
88.11230 384.000
88.13225 362.000
88.15220 352.000
88.17214 358.000
88.19209 358.000
88.21204 363.000
88.23198 405.000
88.25193 400.000
88.27188 388.000
88.29183 391.000
88.31177 373.000
88.33172 378.000
88.35167 380.000
88.37161 354.000
88.39156 375.000
88.41151 384.000
88.43145 401.000
88.45140 391.000
88.47135 374.000
88.49129 368.000
88.51124 384.000
88.53119 365.000
88.55114 385.000
88.57108 397.000
88.59103 397.000
88.61098 423.000
88.63092 377.000
88.65087 361.000
88.67082 376.000
88.69076 387.000
88.71071 394.000
88.73066 367.000
88.75061 372.000
88.77055 364.000
88.79050 376.000
88.81045 382.000
88.83039 368.000
88.85034 376.000
88.87029 364.000
88.89023 351.000
88.91018 354.000
88.93013 402.000
88.95007 374.000
88.97002 386.000
88.98997 394.000
89.00992 409.000
89.02986 406.000
89.04981 362.000
89.06976 379.000
89.08970 362.000
89.10965 377.000
89.12960 368.000
89.14954 371.000
89.16949 362.000
89.18944 380.000
89.20939 423.000
89.22933 400.000
89.24928 372.000
89.26923 406.000
89.28917 405.000
89.30912 355.000
89.32907 383.000
89.34901 410.000
89.36896 361.000
89.38891 409.000
89.40885 386.000
89.42880 407.000
89.44875 382.000
89.46870 431.000
89.48864 398.000
89.50859 403.000
89.52854 394.000
89.54848 393.000
89.56843 375.000
89.58838 394.000
89.60832 397.000
89.62827 450.000
89.64822 377.000
89.66817 445.000
89.68811 402.000
89.70806 448.000
89.72801 437.000
89.74795 438.000
89.76790 481.000
89.78785 494.000
89.80779 464.000
89.82774 453.000
89.84769 442.000
89.86764 450.000
89.88758 477.000
89.90753 498.000
89.92748 420.000
89.94742 461.000
89.96737 472.000
89.98732 455.000
90.00726 442.000
