10.00000 36.000
10.01995 44.000
10.03989 52.000
10.05984 40.000
10.07979 57.000
10.09973 41.000
10.11968 48.000
10.13963 38.000
10.15958 45.000
10.17952 44.000
10.19947 41.000
10.21942 38.000
10.23936 39.000
10.25931 40.000
10.27926 29.000
10.29920 36.000
10.31915 44.000
10.33910 44.000
10.35905 33.000
10.37899 35.000
10.39894 44.000
10.41889 35.000
10.43883 40.000
10.45878 35.000
10.47873 31.000
10.49867 51.000
10.51862 44.000
10.53857 40.000
10.55851 38.000
10.57846 44.000
10.59841 45.000
10.61836 52.000
10.63830 47.000
10.65825 54.000
10.67820 42.000
10.69814 33.000
10.71809 50.000
10.73804 30.000
10.75798 30.000
10.77793 36.000
10.79788 36.000
10.81783 35.000
10.83777 41.000
10.85772 37.000
10.87767 39.000
10.89761 47.000
10.91756 37.000
10.93751 42.000
10.95745 35.000
10.97740 36.000
10.99735 37.000
11.01730 37.000
11.03724 49.000
11.05719 38.000
11.07714 40.000
11.09708 39.000
11.11703 40.000
11.13698 38.000
11.15692 51.000
11.17687 57.000
11.19682 39.000
11.21676 46.000
11.23671 43.000
11.25666 38.000
11.27661 34.000
11.29655 41.000
11.31650 50.000
11.33645 43.000
11.35639 35.000
11.37634 43.000
11.39629 41.000
11.41623 56.000
11.43618 43.000
11.45613 44.000
11.47608 33.000
11.49602 32.000
11.51597 26.000
11.53592 51.000
11.55586 34.000
11.57581 53.000
11.59576 46.000
11.61570 46.000
11.63565 40.000
11.65560 42.000
11.67554 35.000
11.69549 37.000
11.71544 46.000
11.73539 36.000
11.75533 30.000
11.77528 41.000
11.79523 38.000
11.81517 42.000
11.83512 37.000
11.85507 26.000
11.87501 41.000
11.89496 44.000
11.91491 37.000
11.93486 40.000
11.95480 38.000
11.97475 39.000
11.99470 33.000
12.01464 41.000
12.03459 40.000
12.05454 32.000
12.07448 49.000
12.09443 36.000
12.11438 46.000
12.13432 36.000
12.15427 41.000
12.17422 32.000
12.19417 43.000
12.21411 39.000
12.23406 36.000
12.25401 47.000
12.27395 32.000
12.29390 43.000
12.31385 46.000
12.33379 42.000
12.35374 32.000
12.37369 29.000
12.39364 40.000
12.41358 33.000
12.43353 40.000
12.45348 33.000
12.47342 46.000
12.49337 43.000
12.51332 38.000
12.53326 48.000
12.55321 48.000
12.57316 33.000
12.59311 49.000
12.61305 36.000
12.63300 47.000
12.65295 48.000
12.67289 39.000
12.69284 48.000
12.71279 39.000
12.73273 29.000
12.75268 49.000
12.77263 50.000
12.79257 38.000
12.81252 42.000
12.83247 49.000
12.85242 35.000
12.87236 40.000
12.89231 49.000
12.91226 35.000
12.93220 44.000
12.95215 36.000
12.97210 33.000
12.99204 44.000
13.01199 40.000
13.03194 45.000
13.05189 36.000
13.07183 32.000
13.09178 49.000
13.11173 40.000
13.13167 57.000
13.15162 48.000
13.17157 45.000
13.19151 30.000
13.21146 38.000
13.23141 33.000
13.25135 35.000
13.27130 44.000
13.29125 38.000
13.31120 47.000
13.33114 42.000
13.35109 41.000
13.37104 30.000
13.39098 45.000
13.41093 47.000
13.43088 34.000
13.45082 27.000
13.47077 45.000
13.49072 44.000
13.51067 24.000
13.53061 43.000
13.55056 27.000
13.57051 38.000
13.59045 45.000
13.61040 47.000
13.63035 32.000
13.65029 49.000
13.67024 43.000
13.69019 32.000
13.71013 38.000
13.73008 39.000
13.75003 42.000
13.76998 39.000
13.78992 37.000
13.80987 41.000
13.82982 36.000
13.84976 45.000
13.86971 38.000
13.88966 42.000
13.90960 40.000
13.92955 40.000
13.94950 47.000
13.96945 42.000
13.98939 33.000
14.00934 39.000
14.02929 39.000
14.04923 34.000
14.06918 39.000
14.08913 34.000
14.10907 38.000
14.12902 54.000
14.14897 44.000
14.16892 41.000
14.18886 45.000
14.20881 54.000
14.22876 47.000
14.24870 42.000
14.26865 35.000
14.28860 45.000
14.30854 45.000
14.32849 49.000
14.34844 47.000
14.36838 41.000
14.38833 35.000
14.40828 48.000
14.42823 45.000
14.44817 49.000
14.46812 39.000
14.48807 55.000
14.50801 47.000
14.52796 46.000
14.54791 50.000
14.56785 52.000
14.58780 42.000
14.60775 50.000
14.62770 49.000
14.64764 52.000
14.66759 39.000
14.68754 38.000
14.70748 43.000
14.72743 45.000
14.74738 42.000
14.76732 49.000
14.78727 43.000
14.80722 29.000
14.82716 37.000
14.84711 40.000
14.86706 55.000
14.88701 53.000
14.90695 40.000
14.92690 39.000
14.94685 50.000
14.96679 49.000
14.98674 33.000
15.00669 41.000
15.02663 43.000
15.04658 49.000
15.06653 47.000
15.08648 42.000
15.10642 34.000
15.12637 50.000
15.14632 49.000
15.16626 50.000
15.18621 46.000
15.20616 47.000
15.22610 55.000
15.24605 55.000
15.26600 55.000
15.28594 62.000
15.30589 67.000
15.32584 64.000
15.34579 58.000
15.36573 57.000
15.38568 58.000
15.40563 66.000
15.42557 70.000
15.44552 72.000
15.46547 66.000
15.48541 70.000
15.50536 69.000
15.52531 77.000
15.54526 93.000
15.56520 84.000
15.58515 107.000
15.60510 84.000
15.62504 128.000
15.64499 118.000
15.66494 133.000
15.68488 173.000
15.70483 198.000
15.72478 248.000
15.74472 362.000
15.76467 450.000
15.78462 598.000
15.80457 755.000
15.82451 957.000
15.84446 1241.000
15.86441 1609.000
15.88435 1911.000
15.90430 2133.000
15.92425 2336.000
15.94419 2498.000
15.96414 2476.000
15.98409 2427.000
16.00404 1826.000
16.02398 1245.000
16.04393 725.000
16.06388 449.000
16.08382 248.000
16.10377 180.000
16.12372 138.000
16.14366 125.000
16.16361 96.000
16.18356 92.000
16.20351 84.000
16.22345 96.000
16.24340 90.000
16.26335 69.000
16.28329 95.000
16.30324 62.000
16.32319 67.000
16.34313 70.000
16.36308 69.000
16.38303 69.000
16.40297 46.000
16.42292 69.000
16.44287 60.000
16.46282 64.000
16.48276 71.000
16.50271 39.000
16.52266 58.000
16.54260 45.000
16.56255 39.000
16.58250 44.000
16.60244 50.000
16.62239 44.000
16.64234 43.000
16.66229 59.000
16.68223 39.000
16.70218 49.000
16.72213 63.000
16.74207 62.000
16.76202 44.000
16.78197 48.000
16.80191 49.000
16.82186 58.000
16.84181 53.000
16.86175 49.000
16.88170 61.000
16.90165 57.000
16.92160 51.000
16.94154 52.000
16.96149 54.000
16.98144 44.000
17.00138 50.000
17.02133 43.000
17.04128 42.000
17.06122 42.000
17.08117 52.000
17.10112 50.000
17.12107 43.000
17.14101 41.000
17.16096 55.000
17.18091 44.000
17.20085 53.000
17.22080 51.000
17.24075 36.000
17.26069 48.000
17.28064 45.000
17.30059 43.000
17.32053 35.000
17.34048 49.000
17.36043 51.000
17.38038 51.000
17.40032 52.000
17.42027 41.000
17.44022 39.000
17.46016 41.000
17.48011 56.000
17.50006 54.000
17.52000 38.000
17.53995 51.000
17.55990 29.000
17.57985 51.000
17.59979 35.000
17.61974 44.000
17.63969 45.000
17.65963 36.000
17.67958 34.000
17.69953 33.000
17.71947 44.000
17.73942 49.000
17.75937 48.000
17.77932 44.000
17.79926 45.000
17.81921 46.000
17.83916 48.000
17.85910 40.000
17.87905 32.000
17.89900 38.000
17.91894 46.000
17.93889 61.000
17.95884 48.000
17.97878 46.000
17.99873 43.000
18.01868 43.000
18.03863 28.000
18.05857 43.000
18.07852 39.000
18.09847 48.000
18.11841 50.000
18.13836 46.000
18.15831 62.000
18.17825 60.000
18.19820 55.000
18.21815 57.000
18.23810 58.000
18.25804 60.000
18.27799 53.000
18.29794 57.000
18.31788 61.000
18.33783 75.000
18.35778 78.000
18.37772 77.000
18.39767 83.000
18.41762 100.000
18.43756 132.000
18.45751 133.000
18.47746 131.000
18.49741 164.000
18.51735 188.000
18.53730 159.000
18.55725 145.000
18.57719 112.000
18.59714 102.000
18.61709 100.000
18.63703 64.000
18.65698 70.000
18.67693 74.000
18.69688 45.000
18.71682 55.000
18.73677 56.000
18.75672 40.000
18.77666 51.000
18.79661 48.000
18.81656 43.000
18.83650 40.000
18.85645 45.000
18.87640 50.000
18.89634 38.000
18.91629 38.000
18.93624 45.000
18.95619 50.000
18.97613 33.000
18.99608 49.000
19.01603 53.000
19.03597 46.000
19.05592 49.000
19.07587 38.000
19.09581 43.000
19.11576 52.000
19.13571 41.000
19.15566 54.000
19.17560 41.000
19.19555 31.000
19.21550 49.000
19.23544 40.000
19.25539 49.000
19.27534 43.000
19.29528 41.000
19.31523 53.000
19.33518 39.000
19.35513 40.000
19.37507 39.000
19.39502 44.000
19.41497 49.000
19.43491 53.000
19.45486 42.000
19.47481 42.000
19.49475 42.000
19.51470 33.000
19.53465 38.000
19.55459 50.000
19.57454 52.000
19.59449 36.000
19.61444 50.000
19.63438 40.000
19.65433 53.000
19.67428 59.000
19.69422 42.000
19.71417 44.000
19.73412 42.000
19.75406 42.000
19.77401 55.000
19.79396 47.000
19.81391 43.000
19.83385 40.000
19.85380 37.000
19.87375 46.000
19.89369 48.000
19.91364 42.000
19.93359 38.000
19.95353 55.000
19.97348 49.000
19.99343 40.000
20.01337 47.000
20.03332 39.000
20.05327 31.000
20.07322 40.000
20.09316 41.000
20.11311 63.000
20.13306 55.000
20.15300 47.000
20.17295 49.000
20.19290 40.000
20.21284 46.000
20.23279 45.000
20.25274 56.000
20.27269 53.000
20.29263 38.000
20.31258 53.000
20.33253 42.000
20.35247 49.000
20.37242 45.000
20.39237 40.000
20.41231 50.000
20.43226 45.000
20.45221 39.000
20.47215 54.000
20.49210 47.000
20.51205 45.000
20.53200 45.000
20.55194 48.000
20.57189 46.000
20.59184 44.000
20.61178 58.000
20.63173 33.000
20.65168 59.000
20.67162 44.000
20.69157 48.000
20.71152 46.000
20.73147 39.000
20.75141 47.000
20.77136 37.000
20.79131 59.000
20.81125 38.000
20.83120 46.000
20.85115 54.000
20.87109 42.000
20.89104 48.000
20.91099 51.000
20.93094 29.000
20.95088 56.000
20.97083 67.000
20.99078 63.000
21.01072 56.000
21.03067 50.000
21.05062 61.000
21.07056 45.000
21.09051 48.000
21.11046 62.000
21.13040 52.000
21.15035 47.000
21.17030 57.000
21.19025 39.000
21.21019 63.000
21.23014 55.000
21.25009 60.000
21.27003 48.000
21.28998 58.000
21.30993 42.000
21.32987 40.000
21.34982 44.000
21.36977 53.000
21.38972 42.000
21.40966 43.000
21.42961 47.000
21.44956 41.000
21.46950 52.000
21.48945 40.000
21.50940 46.000
21.52934 38.000
21.54929 64.000
21.56924 49.000
21.58918 46.000
21.60913 41.000
21.62908 38.000
21.64903 33.000
21.66897 45.000
21.68892 42.000
21.70887 55.000
21.72881 44.000
21.74876 57.000
21.76871 46.000
21.78865 53.000
21.80860 48.000
21.82855 42.000
21.84850 47.000
21.86844 55.000
21.88839 45.000
21.90834 50.000
21.92828 42.000
21.94823 50.000
21.96818 49.000
21.98812 47.000
22.00807 42.000
22.02802 45.000
22.04796 59.000
22.06791 50.000
22.08786 45.000
22.10781 52.000
22.12775 45.000
22.14770 50.000
22.16765 52.000
22.18759 50.000
22.20754 46.000
22.22749 46.000
22.24743 47.000
22.26738 47.000
22.28733 52.000
22.30728 47.000
22.32722 46.000
22.34717 53.000
22.36712 44.000
22.38706 49.000
22.40701 56.000
22.42696 43.000
22.44690 56.000
22.46685 53.000
22.48680 39.000
22.50675 51.000
22.52669 59.000
22.54664 44.000
22.56659 48.000
22.58653 51.000
22.60648 44.000
22.62643 47.000
22.64637 46.000
22.66632 67.000
22.68627 47.000
22.70621 44.000
22.72616 39.000
22.74611 52.000
22.76606 61.000
22.78600 47.000
22.80595 49.000
22.82590 44.000
22.84584 56.000
22.86579 50.000
22.88574 57.000
22.90568 44.000
22.92563 57.000
22.94558 50.000
22.96553 45.000
22.98547 52.000
23.00542 53.000
23.02537 62.000
23.04531 59.000
23.06526 54.000
23.08521 62.000
23.10515 51.000
23.12510 51.000
23.14505 50.000
23.16499 45.000
23.18494 61.000
23.20489 47.000
23.22484 52.000
23.24478 49.000
23.26473 58.000
23.28468 46.000
23.30462 54.000
23.32457 55.000
23.34452 45.000
23.36446 46.000
23.38441 55.000
23.40436 53.000
23.42431 51.000
23.44425 62.000
23.46420 53.000
23.48415 50.000
23.50409 42.000
23.52404 67.000
23.54399 66.000
23.56393 45.000
23.58388 51.000
23.60383 48.000
23.62377 50.000
23.64372 52.000
23.66367 40.000
23.68362 44.000
23.70356 71.000
23.72351 44.000
23.74346 49.000
23.76340 54.000
23.78335 61.000
23.80330 46.000
23.82324 43.000
23.84319 51.000
23.86314 52.000
23.88309 51.000
23.90303 57.000
23.92298 45.000
23.94293 59.000
23.96287 48.000
23.98282 47.000
24.00277 59.000
24.02271 42.000
24.04266 41.000
24.06261 57.000
24.08256 47.000
24.10250 50.000
24.12245 44.000
24.14240 40.000
24.16234 53.000
24.18229 42.000
24.20224 57.000
24.22218 48.000
24.24213 58.000
24.26208 51.000
24.28202 48.000
24.30197 61.000
24.32192 41.000
24.34187 54.000
24.36181 44.000
24.38176 50.000
24.40171 57.000
24.42165 61.000
24.44160 55.000
24.46155 60.000
24.48149 57.000
24.50144 44.000
24.52139 51.000
24.54134 57.000
24.56128 45.000
24.58123 54.000
24.60118 58.000
24.62112 55.000
24.64107 59.000
24.66102 68.000
24.68096 60.000
24.70091 61.000
24.72086 49.000
24.74080 50.000
24.76075 50.000
24.78070 55.000
24.80065 47.000
24.82059 54.000
24.84054 49.000
24.86049 53.000
24.88043 46.000
24.90038 52.000
24.92033 50.000
24.94027 57.000
24.96022 60.000
24.98017 36.000
25.00012 55.000
25.02006 61.000
25.04001 45.000
25.05996 41.000
25.07990 56.000
25.09985 48.000
25.11980 47.000
25.13974 44.000
25.15969 43.000
25.17964 56.000
25.19958 49.000
25.21953 49.000
25.23948 45.000
25.25943 58.000
25.27937 52.000
25.29932 41.000
25.31927 51.000
25.33921 50.000
25.35916 69.000
25.37911 50.000
25.39905 63.000
25.41900 48.000
25.43895 53.000
25.45890 46.000
25.47884 55.000
25.49879 51.000
25.51874 55.000
25.53868 40.000
25.55863 38.000
25.57858 58.000
25.59852 43.000
25.61847 52.000
25.63842 52.000
25.65837 47.000
25.67831 51.000
25.69826 60.000
25.71821 51.000
25.73815 43.000
25.75810 49.000
25.77805 61.000
25.79799 59.000
25.81794 50.000
25.83789 55.000
25.85783 44.000
25.87778 70.000
25.89773 39.000
25.91768 48.000
25.93762 43.000
25.95757 64.000
25.97752 52.000
25.99746 50.000
26.01741 58.000
26.03736 58.000
26.05730 54.000
26.07725 44.000
26.09720 61.000
26.11715 54.000
26.13709 63.000
26.15704 52.000
26.17699 46.000
26.19693 49.000
26.21688 75.000
26.23683 57.000
26.25677 73.000
26.27672 48.000
26.29667 60.000
26.31661 65.000
26.33656 59.000
26.35651 67.000
26.37646 58.000
26.39640 53.000
26.41635 52.000
26.43630 59.000
26.45624 46.000
26.47619 53.000
26.49614 53.000
26.51608 52.000
26.53603 59.000
26.55598 47.000
26.57593 59.000
26.59587 51.000
26.61582 49.000
26.63577 42.000
26.65571 58.000
26.67566 76.000
26.69561 69.000
26.71555 64.000
26.73550 45.000
26.75545 49.000
26.77539 70.000
26.79534 64.000
26.81529 56.000
26.83524 40.000
26.85518 56.000
26.87513 61.000
26.89508 51.000
26.91502 52.000
26.93497 51.000
26.95492 61.000
26.97486 70.000
26.99481 65.000
27.01476 55.000
27.03471 61.000
27.05465 56.000
27.07460 53.000
27.09455 66.000
27.11449 52.000
27.13444 53.000
27.15439 54.000
27.17433 60.000
27.19428 53.000
27.21423 51.000
27.23417 53.000
27.25412 55.000
27.27407 53.000
27.29402 58.000
27.31396 56.000
27.33391 56.000
27.35386 55.000
27.37380 52.000
27.39375 57.000
27.41370 56.000
27.43364 54.000
27.45359 51.000
27.47354 49.000
27.49349 42.000
27.51343 68.000
27.53338 58.000
27.55333 57.000
27.57327 73.000
27.59322 50.000
27.61317 52.000
27.63311 67.000
27.65306 62.000
27.67301 53.000
27.69296 71.000
27.71290 68.000
27.73285 57.000
27.75280 68.000
27.77274 75.000
27.79269 54.000
27.81264 62.000
27.83258 76.000
27.85253 69.000
27.87248 63.000
27.89242 67.000
27.91237 60.000
27.93232 47.000
27.95227 51.000
27.97221 64.000
27.99216 56.000
28.01211 61.000
28.03205 60.000
28.05200 52.000
28.07195 60.000
28.09189 54.000
28.11184 63.000
28.13179 57.000
28.15174 61.000
28.17168 62.000
28.19163 54.000
28.21158 74.000
28.23152 47.000
28.25147 62.000
28.27142 44.000
28.29136 46.000
28.31131 59.000
28.33126 56.000
28.35120 57.000
28.37115 61.000
28.39110 65.000
28.41105 59.000
28.43099 60.000
28.45094 75.000
28.47089 49.000
28.49083 50.000
28.51078 56.000
28.53073 58.000
28.55067 53.000
28.57062 51.000
28.59057 74.000
28.61052 61.000
28.63046 56.000
28.65041 58.000
28.67036 72.000
28.69030 57.000
28.71025 53.000
28.73020 71.000
28.75014 50.000
28.77009 59.000
28.79004 78.000
28.80998 63.000
28.82993 56.000
28.84988 55.000
28.86983 61.000
28.88977 64.000
28.90972 58.000
28.92967 56.000
28.94961 76.000
28.96956 76.000
28.98951 46.000
29.00945 48.000
29.02940 44.000
29.04935 51.000
29.06930 58.000
29.08924 46.000
29.10919 54.000
29.12914 65.000
29.14908 54.000
29.16903 66.000
29.18898 64.000
29.20892 67.000
29.22887 55.000
29.24882 65.000
29.26877 72.000
29.28871 73.000
29.30866 64.000
29.32861 78.000
29.34855 81.000
29.36850 61.000
29.38845 57.000
29.40839 65.000
29.42834 63.000
29.44829 75.000
29.46823 79.000
29.48818 79.000
29.50813 65.000
29.52808 76.000
29.54802 78.000
29.56797 57.000
29.58792 62.000
29.60786 80.000
29.62781 65.000
29.64776 46.000
29.66770 47.000
29.68765 57.000
29.70760 64.000
29.72755 53.000
29.74749 62.000
29.76744 76.000
29.78739 54.000
29.80733 59.000
29.82728 76.000
29.84723 55.000
29.86717 61.000
29.88712 62.000
29.90707 53.000
29.92701 66.000
29.94696 57.000
29.96691 64.000
29.98686 64.000
30.00680 75.000
30.02675 73.000
30.04670 80.000
30.06664 86.000
30.08659 86.000
30.10654 69.000
30.12648 80.000
30.14643 108.000
30.16638 124.000
30.18633 105.000
30.20627 126.000
30.22622 130.000
30.24617 161.000
30.26611 184.000
30.28606 195.000
30.30601 246.000
30.32595 283.000
30.34590 326.000
30.36585 357.000
30.38579 395.000
30.40574 446.000
30.42569 445.000
30.44564 407.000
30.46558 332.000
30.48553 314.000
30.50548 253.000
30.52542 204.000
30.54537 181.000
30.56532 141.000
30.58526 82.000
30.60521 93.000
30.62516 99.000
30.64511 80.000
30.66505 84.000
30.68500 89.000
30.70495 66.000
30.72489 73.000
30.74484 64.000
30.76479 65.000
30.78473 66.000
30.80468 62.000
30.82463 70.000
30.84458 67.000
30.86452 61.000
30.88447 71.000
30.90442 51.000
30.92436 51.000
30.94431 55.000
30.96426 53.000
30.98420 80.000
31.00415 64.000
31.02410 58.000
31.04404 60.000
31.06399 65.000
31.08394 55.000
31.10389 47.000
31.12383 80.000
31.14378 58.000
31.16373 68.000
31.18367 62.000
31.20362 50.000
31.22357 62.000
31.24351 72.000
31.26346 59.000
31.28341 75.000
31.30336 60.000
31.32330 59.000
31.34325 52.000
31.36320 65.000
31.38314 50.000
31.40309 61.000
31.42304 76.000
31.44298 71.000
31.46293 61.000
31.48288 64.000
31.50282 81.000
31.52277 77.000
31.54272 61.000
31.56267 61.000
31.58261 67.000
31.60256 79.000
31.62251 70.000
31.64245 61.000
31.66240 78.000
31.68235 67.000
31.70229 75.000
31.72224 78.000
31.74219 80.000
31.76214 83.000
31.78208 71.000
31.80203 78.000
31.82198 86.000
31.84192 85.000
31.86187 92.000
31.88182 121.000
31.90176 110.000
31.92171 118.000
31.94166 137.000
31.96160 150.000
31.98155 152.000
32.00150 157.000
32.02145 218.000
32.04139 228.000
32.06134 248.000
32.08129 274.000
32.10123 303.000
32.12118 349.000
32.14113 360.000
32.16107 327.000
32.18102 330.000
32.20097 284.000
32.22092 253.000
32.24086 228.000
32.26081 173.000
32.28076 150.000
32.30070 115.000
32.32065 94.000
32.34060 70.000
32.36054 84.000
32.38049 76.000
32.40044 70.000
32.42039 65.000
32.44033 72.000
32.46028 69.000
32.48023 54.000
32.50017 55.000
32.52012 59.000
32.54007 60.000
32.56001 59.000
32.57996 65.000
32.59991 59.000
32.61985 54.000
32.63980 41.000
32.65975 62.000
32.67970 57.000
32.69964 73.000
32.71959 60.000
32.73954 64.000
32.75948 55.000
32.77943 57.000
32.79938 79.000
32.81932 84.000
32.83927 64.000
32.85922 67.000
32.87917 69.000
32.89911 62.000
32.91906 74.000
32.93901 56.000
32.95895 60.000
32.97890 51.000
32.99885 51.000
33.01879 54.000
33.03874 57.000
33.05869 67.000
33.07863 69.000
33.09858 51.000
33.11853 64.000
33.13848 60.000
33.15842 68.000
33.17837 64.000
33.19832 77.000
33.21826 59.000
33.23821 56.000
33.25816 58.000
33.27810 61.000
33.29805 69.000
33.31800 63.000
33.33795 55.000
33.35789 60.000
33.37784 61.000
33.39779 73.000
33.41773 50.000
33.43768 67.000
33.45763 51.000
33.47757 60.000
33.49752 55.000
33.51747 50.000
33.53741 66.000
33.55736 59.000
33.57731 61.000
33.59726 59.000
33.61720 63.000
33.63715 56.000
33.65710 61.000
33.67704 70.000
33.69699 59.000
33.71694 60.000
33.73688 60.000
33.75683 46.000
33.77678 54.000
33.79673 63.000
33.81667 49.000
33.83662 67.000
33.85657 52.000
33.87651 55.000
33.89646 67.000
33.91641 67.000
33.93635 50.000
33.95630 58.000
33.97625 64.000
33.99620 62.000
34.01614 63.000
34.03609 61.000
34.05604 65.000
34.07598 53.000
34.09593 47.000
34.11588 48.000
34.13582 58.000
34.15577 57.000
34.17572 79.000
34.19566 61.000
34.21561 63.000
34.23556 61.000
34.25551 58.000
34.27545 53.000
34.29540 77.000
34.31535 55.000
34.33529 67.000
34.35524 69.000
34.37519 52.000
34.39513 66.000
34.41508 61.000
34.43503 71.000
34.45498 68.000
34.47492 72.000
34.49487 78.000
34.51482 75.000
34.53476 93.000
34.55471 78.000
34.57466 62.000
34.59460 87.000
34.61455 63.000
34.63450 81.000
34.65444 85.000
34.67439 64.000
34.69434 78.000
34.71429 92.000
34.73423 77.000
34.75418 74.000
34.77413 64.000
34.79407 73.000
34.81402 62.000
34.83397 72.000
34.85391 90.000
34.87386 64.000
34.89381 87.000
34.91376 74.000
34.93370 90.000
34.95365 78.000
34.97360 83.000
34.99354 80.000
35.01349 73.000
35.03344 86.000
35.05338 81.000
35.07333 71.000
35.09328 89.000
35.11322 79.000
35.13317 82.000
35.15312 83.000
35.17307 80.000
35.19301 94.000
35.21296 99.000
35.23291 78.000
35.25285 90.000
35.27280 87.000
35.29275 102.000
35.31269 96.000
35.33264 89.000
35.35259 124.000
35.37254 109.000
35.39248 93.000
35.41243 122.000
35.43238 122.000
35.45232 158.000
35.47227 156.000
35.49222 134.000
35.51216 165.000
35.53211 173.000
35.55206 247.000
35.57201 272.000
35.59195 363.000
35.61190 443.000
35.63185 493.000
35.65179 623.000
35.67174 793.000
35.69169 921.000
35.71163 1146.000
35.73158 1364.000
35.75153 1486.000
35.77147 1655.000
35.79142 1763.000
35.81137 1694.000
35.83132 1570.000
35.85126 1397.000
35.87121 1326.000
35.89116 1189.000
35.91110 898.000
35.93105 702.000
35.95100 597.000
35.97094 450.000
35.99089 389.000
36.01084 319.000
36.03079 267.000
36.05073 228.000
36.07068 201.000
36.09063 202.000
36.11057 149.000
36.13052 130.000
36.15047 136.000
36.17041 112.000
36.19036 117.000
36.21031 90.000
36.23025 105.000
36.25020 100.000
36.27015 95.000
36.29010 88.000
36.31004 75.000
36.32999 97.000
36.34994 85.000
36.36988 88.000
36.38983 74.000
36.40978 97.000
36.42972 79.000
36.44967 74.000
36.46962 80.000
36.48957 72.000
36.50951 68.000
36.52946 90.000
36.54941 88.000
36.56935 83.000
36.58930 82.000
36.60925 95.000
36.62919 105.000
36.64914 105.000
36.66909 115.000
36.68903 114.000
36.70898 116.000
36.72893 87.000
36.74888 105.000
36.76882 96.000
36.78877 91.000
36.80872 102.000
36.82866 71.000
36.84861 83.000
36.86856 99.000
36.88850 79.000
36.90845 80.000
36.92840 86.000
36.94835 86.000
36.96829 80.000
36.98824 100.000
37.00819 99.000
37.02813 66.000
37.04808 76.000
37.06803 87.000
37.08797 98.000
37.10792 110.000
37.12787 94.000
37.14781 139.000
37.16776 134.000
37.18771 155.000
37.20766 152.000
37.22760 196.000
37.24755 238.000
37.26750 262.000
37.28744 254.000
37.30739 305.000
37.32734 273.000
37.34728 311.000
37.36723 295.000
37.38718 272.000
37.40713 212.000
37.42707 254.000
37.44702 246.000
37.46697 218.000
37.48691 187.000
37.50686 163.000
37.52681 143.000
37.54675 135.000
37.56670 129.000
37.58665 101.000
37.60660 118.000
37.62654 78.000
37.64649 70.000
37.66644 87.000
37.68638 68.000
37.70633 88.000
37.72628 76.000
37.74622 64.000
37.76617 69.000
37.78612 88.000
37.80606 75.000
37.82601 73.000
37.84596 56.000
37.86591 56.000
37.88585 60.000
37.90580 71.000
37.92575 83.000
37.94569 97.000
37.96564 71.000
37.98559 64.000
38.00553 72.000
38.02548 65.000
38.04543 73.000
38.06538 69.000
38.08532 68.000
38.10527 73.000
38.12522 58.000
38.14516 57.000
38.16511 58.000
38.18506 65.000
38.20500 70.000
38.22495 59.000
38.24490 69.000
38.26484 68.000
38.28479 73.000
38.30474 70.000
38.32469 65.000
38.34463 68.000
38.36458 73.000
38.38453 76.000
38.40447 59.000
38.42442 44.000
38.44437 84.000
38.46431 63.000
38.48426 89.000
38.50421 81.000
38.52416 74.000
38.54410 80.000
38.56405 75.000
38.58400 69.000
38.60394 69.000
38.62389 81.000
38.64384 77.000
38.66378 89.000
38.68373 97.000
38.70368 81.000
38.72362 85.000
38.74357 91.000
38.76352 91.000
38.78347 88.000
38.80341 85.000
38.82336 81.000
38.84331 99.000
38.86325 94.000
38.88320 81.000
38.90315 84.000
38.92309 106.000
38.94304 116.000
38.96299 123.000
38.98294 109.000
39.00288 140.000
39.02283 129.000
39.04278 139.000
39.06272 163.000
39.08267 165.000
39.10262 160.000
39.12256 222.000
39.14251 223.000
39.16246 236.000
39.18241 304.000
39.20235 364.000
39.22230 429.000
39.24225 473.000
39.26219 519.000
39.28214 637.000
39.30209 713.000
39.32203 746.000
39.34198 774.000
39.36193 794.000
39.38187 785.000
39.40182 786.000
39.42177 769.000
39.44172 679.000
39.46166 590.000
39.48161 568.000
39.50156 411.000
39.52150 375.000
39.54145 346.000
39.56140 335.000
39.58134 299.000
39.60129 269.000
39.62124 227.000
39.64119 194.000
39.66113 169.000
39.68108 162.000
39.70103 141.000
39.72097 151.000
39.74092 125.000
39.76087 113.000
39.78081 91.000
39.80076 88.000
39.82071 103.000
39.84065 102.000
39.86060 100.000
39.88055 96.000
39.90050 92.000
39.92044 86.000
39.94039 106.000
39.96034 96.000
39.98028 87.000
40.00023 86.000
40.02018 89.000
40.04012 74.000
40.06007 78.000
40.08002 69.000
40.09997 62.000
40.11991 72.000
40.13986 63.000
40.15981 67.000
40.17975 68.000
40.19970 71.000
40.21965 72.000
40.23959 64.000
40.25954 73.000
40.27949 72.000
40.29943 72.000
40.31938 65.000
40.33933 78.000
40.35928 70.000
40.37922 65.000
40.39917 64.000
40.41912 55.000
40.43906 54.000
40.45901 67.000
40.47896 65.000
40.49890 64.000
40.51885 59.000
40.53880 66.000
40.55875 54.000
40.57869 69.000
40.59864 51.000
40.61859 73.000
40.63853 68.000
40.65848 51.000
40.67843 64.000
40.69837 75.000
40.71832 63.000
40.73827 59.000
40.75822 62.000
40.77816 59.000
40.79811 66.000
40.81806 63.000
40.83800 64.000
40.85795 57.000
40.87790 62.000
40.89784 65.000
40.91779 64.000
40.93774 59.000
40.95768 58.000
40.97763 65.000
40.99758 64.000
41.01753 58.000
41.03747 55.000
41.05742 66.000
41.07737 65.000
41.09731 66.000
41.11726 67.000
41.13721 50.000
41.15715 65.000
41.17710 54.000
41.19705 63.000
41.21700 68.000
41.23694 54.000
41.25689 54.000
41.27684 54.000
41.29678 74.000
41.31673 65.000
41.33668 59.000
41.35662 72.000
41.37657 60.000
41.39652 59.000
41.41646 56.000
41.43641 67.000
41.45636 52.000
41.47631 60.000
41.49625 62.000
41.51620 69.000
41.53615 48.000
41.55609 74.000
41.57604 57.000
41.59599 62.000
41.61593 76.000
41.63588 61.000
41.65583 75.000
41.67578 55.000
41.69572 69.000
41.71567 46.000
41.73562 60.000
41.75556 69.000
41.77551 57.000
41.79546 67.000
41.81540 65.000
41.83535 52.000
41.85530 64.000
41.87524 57.000
41.89519 72.000
41.91514 60.000
41.93509 71.000
41.95503 75.000
41.97498 73.000
41.99493 67.000
42.01487 53.000
42.03482 70.000
42.05477 58.000
42.07471 71.000
42.09466 76.000
42.11461 80.000
42.13456 63.000
42.15450 58.000
42.17445 45.000
42.19440 70.000
42.21434 58.000
42.23429 71.000
42.25424 51.000
42.27418 74.000
42.29413 59.000
42.31408 66.000
42.33403 79.000
42.35397 52.000
42.37392 60.000
42.39387 61.000
42.41381 65.000
42.43376 70.000
42.45371 60.000
42.47365 55.000
42.49360 77.000
42.51355 61.000
42.53349 50.000
42.55344 64.000
42.57339 66.000
42.59334 82.000
42.61328 62.000
42.63323 76.000
42.65318 65.000
42.67312 69.000
42.69307 67.000
42.71302 77.000
42.73296 67.000
42.75291 79.000
42.77286 74.000
42.79281 72.000
42.81275 71.000
42.83270 67.000
42.85265 96.000
42.87259 72.000
42.89254 79.000
42.91249 90.000
42.93243 70.000
42.95238 94.000
42.97233 94.000
42.99227 76.000
43.01222 104.000
43.03217 76.000
43.05212 78.000
43.07206 90.000
43.09201 107.000
43.11196 113.000
43.13190 126.000
43.15185 177.000
43.17180 179.000
43.19174 183.000
43.21169 210.000
43.23164 275.000
43.25159 281.000
43.27153 397.000
43.29148 458.000
43.31143 491.000
43.33137 562.000
43.35132 634.000
43.37127 626.000
43.39121 633.000
43.41116 739.000
43.43111 749.000
43.45105 720.000
43.47100 834.000
43.49095 782.000
43.51090 724.000
43.53084 676.000
43.55079 624.000
43.57074 548.000
43.59068 479.000
43.61063 460.000
43.63058 350.000
43.65052 333.000
43.67047 305.000
43.69042 242.000
43.71037 203.000
43.73031 201.000
43.75026 166.000
43.77021 138.000
43.79015 133.000
43.81010 117.000
43.83005 135.000
43.84999 116.000
43.86994 108.000
43.88989 91.000
43.90984 79.000
43.92978 89.000
43.94973 82.000
43.96968 88.000
43.98962 86.000
44.00957 81.000
44.02952 77.000
44.04946 72.000
44.06941 76.000
44.08936 78.000
44.10930 78.000
44.12925 64.000
44.14920 81.000
44.16915 66.000
44.18909 83.000
44.20904 59.000
44.22899 56.000
44.24893 61.000
44.26888 65.000
44.28883 68.000
44.30877 85.000
44.32872 71.000
44.34867 68.000
44.36862 63.000
44.38856 74.000
44.40851 66.000
44.42846 65.000
44.44840 63.000
44.46835 63.000
44.48830 65.000
44.50824 61.000
44.52819 67.000
44.54814 63.000
44.56808 56.000
44.58803 64.000
44.60798 66.000
44.62793 61.000
44.64787 48.000
44.66782 61.000
44.68777 57.000
44.70771 63.000
44.72766 69.000
44.74761 60.000
44.76755 52.000
44.78750 68.000
44.80745 58.000
44.82740 63.000
44.84734 64.000
44.86729 65.000
44.88724 71.000
44.90718 73.000
44.92713 55.000
44.94708 63.000
44.96702 67.000
44.98697 71.000
45.00692 70.000
45.02686 59.000
45.04681 48.000
45.06676 77.000
45.08671 64.000
45.10665 74.000
45.12660 64.000
45.14655 80.000
45.16649 59.000
45.18644 63.000
45.20639 74.000
45.22633 60.000
45.24628 67.000
45.26623 54.000
45.28618 66.000
45.30612 76.000
45.32607 77.000
45.34602 67.000
45.36596 58.000
45.38591 58.000
45.40586 64.000
45.42580 62.000
45.44575 62.000
45.46570 83.000
45.48565 47.000
45.50559 66.000
45.52554 56.000
45.54549 62.000
45.56543 47.000
45.58538 77.000
45.60533 60.000
45.62527 66.000
45.64522 50.000
45.66517 58.000
45.68511 63.000
45.70506 69.000
45.72501 71.000
45.74496 72.000
45.76490 50.000
45.78485 65.000
45.80480 72.000
45.82474 45.000
45.84469 57.000
45.86464 51.000
45.88458 67.000
45.90453 49.000
45.92448 70.000
45.94443 64.000
45.96437 59.000
45.98432 57.000
46.00427 58.000
46.02421 69.000
46.04416 51.000
46.06411 75.000
46.08405 43.000
46.10400 66.000
46.12395 52.000
46.14389 49.000
46.16384 68.000
46.18379 57.000
46.20374 58.000
46.22368 60.000
46.24363 62.000
46.26358 55.000
46.28352 47.000
46.30347 63.000
46.32342 60.000
46.34336 63.000
46.36331 60.000
46.38326 50.000
46.40321 68.000
46.42315 58.000
46.44310 59.000
46.46305 67.000
46.48299 58.000
46.50294 67.000
46.52289 59.000
46.54283 62.000
46.56278 63.000
46.58273 54.000
46.60267 64.000
46.62262 61.000
46.64257 64.000
46.66252 72.000
46.68246 62.000
46.70241 61.000
46.72236 55.000
46.74230 60.000
46.76225 58.000
46.78220 50.000
46.80214 55.000
46.82209 62.000
46.84204 62.000
46.86199 68.000
46.88193 58.000
46.90188 56.000
46.92183 61.000
46.94177 79.000
46.96172 48.000
46.98167 64.000
47.00161 54.000
47.02156 67.000
47.04151 64.000
47.06146 57.000
47.08140 77.000
47.10135 61.000
47.12130 49.000
47.14124 48.000
47.16119 54.000
47.18114 74.000
47.20108 60.000
47.22103 71.000
47.24098 73.000
47.26092 66.000
47.28087 64.000
47.30082 69.000
47.32077 56.000
47.34071 66.000
47.36066 79.000
47.38061 63.000
47.40055 76.000
47.42050 76.000
47.44045 74.000
47.46039 73.000
47.48034 75.000
47.50029 68.000
47.52024 65.000
47.54018 74.000
47.56013 73.000
47.58008 83.000
47.60002 72.000
47.61997 83.000
47.63992 78.000
47.65986 79.000
47.67981 64.000
47.69976 63.000
47.71970 66.000
47.73965 74.000
47.75960 68.000
47.77955 72.000
47.79949 64.000
47.81944 62.000
47.83939 96.000
47.85933 78.000
47.87928 68.000
47.89923 65.000
47.91917 80.000
47.93912 89.000
47.95907 74.000
47.97902 68.000
47.99896 69.000
48.01891 55.000
48.03886 72.000
48.05880 78.000
48.07875 97.000
48.09870 84.000
48.11864 56.000
48.13859 82.000
48.15854 88.000
48.17848 84.000
48.19843 94.000
48.21838 91.000
48.23833 106.000
48.25827 88.000
48.27822 119.000
48.29817 98.000
48.31811 108.000
48.33806 98.000
48.35801 109.000
48.37795 92.000
48.39790 100.000
48.41785 119.000
48.43780 125.000
48.45774 129.000
48.47769 114.000
48.49764 150.000
48.51758 127.000
48.53753 168.000
48.55748 171.000
48.57742 231.000
48.59737 221.000
48.61732 246.000
48.63726 331.000
48.65721 334.000
48.67716 392.000
48.69711 460.000
48.71705 515.000
48.73700 584.000
48.75695 671.000
48.77689 740.000
48.79684 669.000
48.81679 655.000
48.83673 689.000
48.85668 587.000
48.87663 561.000
48.89658 552.000
48.91652 475.000
48.93647 435.000
48.95642 386.000
48.97636 329.000
48.99631 277.000
49.01626 255.000
49.03620 233.000
49.05615 223.000
49.07610 192.000
49.09605 157.000
49.11599 153.000
49.13594 152.000
49.15589 146.000
49.17583 112.000
49.19578 130.000
49.21573 121.000
49.23567 129.000
49.25562 89.000
49.27557 93.000
49.29551 115.000
49.31546 95.000
49.33541 96.000
49.35536 69.000
49.37530 102.000
49.39525 101.000
49.41520 77.000
49.43514 100.000
49.45509 89.000
49.47504 72.000
49.49498 73.000
49.51493 93.000
49.53488 77.000
49.55483 67.000
49.57477 80.000
49.59472 65.000
49.61467 61.000
49.63461 62.000
49.65456 85.000
49.67451 85.000
49.69445 71.000
49.71440 64.000
49.73435 68.000
49.75429 74.000
49.77424 65.000
49.79419 75.000
49.81414 65.000
49.83408 61.000
49.85403 53.000
49.87398 72.000
49.89392 81.000
49.91387 70.000
49.93382 74.000
49.95376 65.000
49.97371 74.000
49.99366 62.000
50.01361 52.000
50.03355 63.000
50.05350 74.000
50.07345 74.000
50.09339 68.000
50.11334 57.000
50.13329 52.000
50.15323 55.000
50.17318 54.000
50.19313 53.000
50.21307 61.000
50.23302 61.000
50.25297 61.000
50.27292 59.000
50.29286 79.000
50.31281 73.000
50.33276 65.000
50.35270 60.000
50.37265 53.000
50.39260 56.000
50.41254 77.000
50.43249 55.000
50.45244 62.000
50.47239 45.000
50.49233 71.000
50.51228 57.000
50.53223 73.000
50.55217 68.000
50.57212 70.000
50.59207 58.000
50.61201 48.000
50.63196 58.000
50.65191 55.000
50.67186 49.000
50.69180 73.000
50.71175 60.000
50.73170 46.000
50.75164 64.000
50.77159 73.000
50.79154 45.000
50.81148 56.000
50.83143 56.000
50.85138 65.000
50.87132 54.000
50.89127 62.000
50.91122 72.000
50.93117 61.000
50.95111 57.000
50.97106 55.000
50.99101 52.000
51.01095 61.000
51.03090 61.000
51.05085 54.000
51.07079 54.000
51.09074 59.000
51.11069 62.000
51.13064 70.000
51.15058 54.000
51.17053 69.000
51.19048 64.000
51.21042 55.000
51.23037 58.000
51.25032 52.000
51.27026 60.000
51.29021 48.000
51.31016 62.000
51.33010 49.000
51.35005 65.000
51.37000 55.000
51.38995 45.000
51.40989 60.000
51.42984 46.000
51.44979 53.000
51.46973 55.000
51.48968 61.000
51.50963 45.000
51.52957 66.000
51.54952 52.000
51.56947 64.000
51.58942 68.000
51.60936 66.000
51.62931 54.000
51.64926 46.000
51.66920 61.000
51.68915 61.000
51.70910 54.000
51.72904 58.000
51.74899 57.000
51.76894 45.000
51.78888 60.000
51.80883 62.000
51.82878 41.000
51.84873 53.000
51.86867 59.000
51.88862 55.000
51.90857 40.000
51.92851 46.000
51.94846 67.000
51.96841 60.000
51.98835 74.000
52.00830 55.000
52.02825 62.000
52.04820 53.000
52.06814 49.000
52.08809 65.000
52.10804 71.000
52.12798 54.000
52.14793 75.000
52.16788 61.000
52.18782 66.000
52.20777 68.000
52.22772 46.000
52.24767 58.000
52.26761 63.000
52.28756 59.000
52.30751 48.000
52.32745 63.000
52.34740 64.000
52.36735 63.000
52.38729 55.000
52.40724 64.000
52.42719 59.000
52.44713 66.000
52.46708 48.000
52.48703 59.000
52.50698 56.000
52.52692 66.000
52.54687 49.000
52.56682 52.000
52.58676 57.000
52.60671 41.000
52.62666 68.000
52.64660 57.000
52.66655 56.000
52.68650 58.000
52.70645 57.000
52.72639 45.000
52.74634 72.000
52.76629 55.000
52.78623 73.000
52.80618 68.000
52.82613 67.000
52.84607 58.000
52.86602 68.000
52.88597 77.000
52.90591 63.000
52.92586 67.000
52.94581 54.000
52.96576 62.000
52.98570 58.000
53.00565 65.000
53.02560 49.000
53.04554 64.000
53.06549 60.000
53.08544 49.000
53.10538 58.000
53.12533 58.000
53.14528 59.000
53.16523 60.000
53.18517 72.000
53.20512 58.000
53.22507 47.000
53.24501 58.000
53.26496 63.000
53.28491 54.000
53.30485 54.000
53.32480 69.000
53.34475 54.000
53.36469 70.000
53.38464 72.000
53.40459 55.000
53.42454 67.000
53.44448 51.000
53.46443 51.000
53.48438 72.000
53.50432 78.000
53.52427 73.000
53.54422 62.000
53.56416 64.000
53.58411 57.000
53.60406 54.000
53.62401 66.000
53.64395 69.000
53.66390 75.000
53.68385 80.000
53.70379 89.000
53.72374 79.000
53.74369 83.000
53.76363 81.000
53.78358 95.000
53.80353 94.000
53.82348 116.000
53.84342 127.000
53.86337 153.000
53.88332 125.000
53.90326 166.000
53.92321 168.000
53.94316 181.000
53.96310 168.000
53.98305 160.000
54.00300 131.000
54.02294 154.000
54.04289 135.000
54.06284 105.000
54.08279 110.000
54.10273 109.000
54.12268 114.000
54.14263 102.000
54.16257 88.000
54.18252 87.000
54.20247 87.000
54.22241 70.000
54.24236 63.000
54.26231 65.000
54.28226 59.000
54.30220 85.000
54.32215 51.000
54.34210 51.000
54.36204 56.000
54.38199 71.000
54.40194 55.000
54.42188 62.000
54.44183 68.000
54.46178 66.000
54.48172 52.000
54.50167 65.000
54.52162 79.000
54.54157 52.000
54.56151 60.000
54.58146 59.000
54.60141 56.000
54.62135 61.000
54.64130 50.000
54.66125 51.000
54.68119 61.000
54.70114 59.000
54.72109 56.000
54.74104 66.000
54.76098 67.000
54.78093 61.000
54.80088 57.000
54.82082 70.000
54.84077 62.000
54.86072 52.000
54.88066 58.000
54.90061 49.000
54.92056 64.000
54.94050 43.000
54.96045 60.000
54.98040 65.000
55.00035 60.000
55.02029 59.000
55.04024 53.000
55.06019 59.000
55.08013 53.000
55.10008 57.000
55.12003 64.000
55.13997 56.000
55.15992 62.000
55.17987 43.000
55.19982 54.000
55.21976 55.000
55.23971 59.000
55.25966 56.000
55.27960 64.000
55.29955 60.000
55.31950 57.000
55.33944 67.000
55.35939 54.000
55.37934 67.000
55.39929 56.000
55.41923 52.000
55.43918 59.000
55.45913 49.000
55.47907 54.000
55.49902 59.000
55.51897 44.000
55.53891 65.000
55.55886 58.000
55.57881 64.000
55.59875 66.000
55.61870 59.000
55.63865 65.000
55.65860 67.000
55.67854 58.000
55.69849 55.000
55.71844 69.000
55.73838 64.000
55.75833 55.000
55.77828 52.000
55.79822 72.000
55.81817 55.000
55.83812 65.000
55.85807 60.000
55.87801 61.000
55.89796 58.000
55.91791 56.000
55.93785 57.000
55.95780 52.000
55.97775 51.000
55.99769 54.000
56.01764 59.000
56.03759 51.000
56.05753 54.000
56.07748 48.000
56.09743 55.000
56.11738 49.000
56.13732 55.000
56.15727 49.000
56.17722 50.000
56.19716 70.000
56.21711 63.000
56.23706 59.000
56.25700 66.000
56.27695 70.000
56.29690 54.000
56.31685 66.000
56.33679 61.000
56.35674 60.000
56.37669 50.000
56.39663 58.000
56.41658 71.000
56.43653 55.000
56.45647 63.000
56.47642 44.000
56.49637 55.000
56.51631 45.000
56.53626 57.000
56.55621 50.000
56.57616 53.000
56.59610 68.000
56.61605 50.000
56.63600 80.000
56.65594 56.000
56.67589 55.000
56.69584 63.000
56.71578 67.000
56.73573 54.000
56.75568 59.000
56.77563 61.000
56.79557 37.000
56.81552 74.000
56.83547 60.000
56.85541 63.000
56.87536 59.000
56.89531 66.000
56.91525 68.000
56.93520 72.000
56.95515 70.000
56.97510 81.000
56.99504 62.000
57.01499 66.000
57.03494 65.000
57.05488 69.000
57.07483 83.000
57.09478 97.000
57.11472 90.000
57.13467 77.000
57.15462 81.000
57.17456 88.000
57.19451 96.000
57.21446 131.000
57.23441 115.000
57.25435 122.000
57.27430 134.000
57.29425 141.000
57.31419 171.000
57.33414 178.000
57.35409 189.000
57.37403 214.000
57.39398 268.000
57.41393 308.000
57.43388 292.000
57.45382 379.000
57.47377 378.000
57.49372 410.000
57.51366 369.000
57.53361 388.000
57.55356 315.000
57.57350 310.000
57.59345 287.000
57.61340 219.000
57.63334 279.000
57.65329 246.000
57.67324 222.000
57.69319 225.000
57.71313 174.000
57.73308 151.000
57.75303 160.000
57.77297 151.000
57.79292 115.000
57.81287 85.000
57.83281 85.000
57.85276 92.000
57.87271 80.000
57.89266 77.000
57.91260 73.000
57.93255 73.000
57.95250 82.000
57.97244 63.000
57.99239 65.000
58.01234 72.000
58.03228 58.000
58.05223 62.000
58.07218 73.000
58.09212 75.000
58.11207 57.000
58.13202 54.000
58.15197 69.000
58.17191 73.000
58.19186 68.000
58.21181 57.000
58.23175 72.000
58.25170 62.000
58.27165 58.000
58.29159 54.000
58.31154 58.000
58.33149 59.000
58.35144 59.000
58.37138 76.000
58.39133 71.000
58.41128 70.000
58.43122 75.000
58.45117 53.000
58.47112 61.000
58.49106 66.000
58.51101 56.000
58.53096 64.000
58.55090 64.000
58.57085 53.000
58.59080 58.000
58.61075 58.000
58.63069 65.000
58.65064 63.000
58.67059 57.000
58.69053 65.000
58.71048 53.000
58.73043 60.000
58.75037 61.000
58.77032 63.000
58.79027 56.000
58.81022 63.000
58.83016 53.000
58.85011 47.000
58.87006 60.000
58.89000 57.000
58.90995 62.000
58.92990 70.000
58.94984 70.000
58.96979 52.000
58.98974 57.000
59.00969 52.000
59.02963 56.000
59.04958 53.000
59.06953 59.000
59.08947 63.000
59.10942 68.000
59.12937 58.000
59.14931 64.000
59.16926 58.000
59.18921 68.000
59.20915 55.000
59.22910 69.000
59.24905 69.000
59.26900 69.000
59.28894 57.000
59.30889 51.000
59.32884 59.000
59.34878 68.000
59.36873 59.000
59.38868 69.000
59.40862 58.000
59.42857 71.000
59.44852 73.000
59.46847 62.000
59.48841 59.000
59.50836 61.000
59.52831 53.000
59.54825 57.000
59.56820 55.000
59.58815 58.000
59.60809 69.000
59.62804 44.000
59.64799 53.000
59.66793 53.000
59.68788 65.000
59.70783 67.000
59.72778 53.000
59.74772 52.000
59.76767 51.000
59.78762 55.000
59.80756 63.000
59.82751 55.000
59.84746 65.000
59.86740 66.000
59.88735 79.000
59.90730 68.000
59.92725 59.000
59.94719 59.000
59.96714 60.000
59.98709 62.000
60.00703 65.000
60.02698 62.000
60.04693 49.000
60.06687 58.000
60.08682 53.000
60.10677 69.000
60.12671 56.000
60.14666 48.000
60.16661 60.000
60.18656 58.000
60.20650 51.000
60.22645 71.000
60.24640 56.000
60.26634 65.000
60.28629 72.000
60.30624 68.000
60.32618 77.000
60.34613 61.000
60.36608 71.000
60.38603 50.000
60.40597 61.000
60.42592 57.000
60.44587 59.000
60.46581 65.000
60.48576 72.000
60.50571 53.000
60.52565 60.000
60.54560 45.000
60.56555 69.000
60.58550 60.000
60.60544 58.000
60.62539 75.000
60.64534 66.000
60.66528 53.000
60.68523 74.000
60.70518 65.000
60.72512 67.000
60.74507 57.000
60.76502 51.000
60.78496 60.000
60.80491 81.000
60.82486 66.000
60.84481 59.000
60.86475 69.000
60.88470 62.000
60.90465 61.000
60.92459 58.000
60.94454 65.000
60.96449 76.000
60.98443 62.000
61.00438 69.000
61.02433 83.000
61.04428 77.000
61.06422 61.000
61.08417 72.000
61.10412 64.000
61.12406 71.000
61.14401 57.000
61.16396 80.000
61.18390 82.000
61.20385 65.000
61.22380 66.000
61.24374 62.000
61.26369 65.000
61.28364 75.000
61.30359 69.000
61.32353 85.000
61.34348 64.000
61.36343 76.000
61.38337 73.000
61.40332 75.000
61.42327 73.000
61.44321 66.000
61.46316 71.000
61.48311 61.000
61.50306 74.000
61.52300 81.000
61.54295 66.000
61.56290 63.000
61.58284 82.000
61.60279 90.000
61.62274 90.000
61.64268 102.000
61.66263 81.000
61.68258 77.000
61.70252 88.000
61.72247 115.000
61.74242 85.000
61.76237 94.000
61.78231 104.000
61.80226 110.000
61.82221 119.000
61.84215 128.000
61.86210 157.000
61.88205 156.000
61.90199 152.000
61.92194 184.000
61.94189 180.000
61.96184 234.000
61.98178 262.000
62.00173 261.000
62.02168 279.000
62.04162 305.000
62.06157 327.000
62.08152 317.000
62.10146 320.000
62.12141 303.000
62.14136 320.000
62.16131 261.000
62.18125 230.000
62.20120 245.000
62.22115 232.000
62.24109 223.000
62.26104 221.000
62.28099 238.000
62.30093 211.000
62.32088 177.000
62.34083 158.000
62.36077 132.000
62.38072 147.000
62.40067 116.000
62.42062 127.000
62.44056 112.000
62.46051 118.000
62.48046 124.000
62.50040 97.000
62.52035 96.000
62.54030 105.000
62.56024 90.000
62.58019 105.000
62.60014 99.000
62.62009 89.000
62.64003 109.000
62.65998 127.000
62.67993 134.000
62.69987 132.000
62.71982 129.000
62.73977 155.000
62.75971 165.000
62.77966 172.000
62.79961 172.000
62.81955 201.000
62.83950 229.000
62.85945 248.000
62.87940 247.000
62.89934 285.000
62.91929 297.000
62.93924 295.000
62.95918 333.000
62.97913 316.000
62.99908 369.000
63.01902 421.000
63.03897 438.000
63.05892 448.000
63.07887 517.000
63.09881 533.000
63.11876 568.000
63.13871 546.000
63.15865 519.000
63.17860 471.000
63.19855 470.000
63.21849 398.000
63.23844 399.000
63.25839 396.000
63.27833 341.000
63.29828 316.000
63.31823 281.000
63.33818 299.000
63.35812 266.000
63.37807 216.000
63.39802 186.000
63.41796 165.000
63.43791 144.000
63.45786 126.000
63.47780 135.000
63.49775 96.000
63.51770 112.000
63.53765 75.000
63.55759 102.000
63.57754 97.000
63.59749 93.000
63.61743 92.000
63.63738 100.000
63.65733 79.000
63.67727 89.000
63.69722 81.000
63.71717 73.000
63.73712 92.000
63.75706 74.000
63.77701 87.000
63.79696 99.000
63.81690 85.000
63.83685 76.000
63.85680 104.000
63.87674 88.000
63.89669 122.000
63.91664 107.000
63.93658 140.000
63.95653 134.000
63.97648 169.000
63.99643 156.000
64.01637 191.000
64.03632 196.000
64.05627 226.000
64.07621 229.000
64.09616 274.000
64.11611 251.000
64.13605 265.000
64.15600 256.000
64.17595 276.000
64.19590 223.000
64.21584 231.000
64.23579 256.000
64.25574 254.000
64.27568 233.000
64.29563 254.000
64.31558 227.000
64.33552 202.000
64.35547 200.000
64.37542 212.000
64.39536 185.000
64.41531 185.000
64.43526 167.000
64.45521 175.000
64.47515 151.000
64.49510 149.000
64.51505 171.000
64.53499 148.000
64.55494 124.000
64.57489 139.000
64.59483 135.000
64.61478 113.000
64.63473 115.000
64.65468 108.000
64.67462 100.000
64.69457 95.000
64.71452 99.000
64.73446 90.000
64.75441 86.000
64.77436 73.000
64.79430 73.000
64.81425 84.000
64.83420 79.000
64.85414 81.000
64.87409 80.000
64.89404 70.000
64.91399 84.000
64.93393 62.000
64.95388 72.000
64.97383 84.000
64.99377 60.000
65.01372 73.000
65.03367 61.000
65.05361 63.000
65.07356 87.000
65.09351 75.000
65.11346 60.000
65.13340 55.000
65.15335 72.000
65.17330 71.000
65.19324 57.000
65.21319 55.000
65.23314 59.000
65.25308 53.000
65.27303 53.000
65.29298 69.000
65.31293 75.000
65.33287 69.000
65.35282 59.000
65.37277 74.000
65.39271 72.000
65.41266 58.000
65.43261 78.000
65.45255 74.000
65.47250 68.000
65.49245 58.000
65.51239 67.000
65.53234 52.000
65.55229 57.000
65.57224 62.000
65.59218 62.000
65.61213 58.000
65.63208 79.000
65.65202 61.000
65.67197 74.000
65.69192 58.000
65.71186 69.000
65.73181 60.000
65.75176 68.000
65.77171 49.000
65.79165 62.000
65.81160 57.000
65.83155 67.000
65.85149 61.000
65.87144 65.000
65.89139 60.000
65.91133 79.000
65.93128 60.000
65.95123 60.000
65.97117 71.000
65.99112 69.000
66.01107 75.000
66.03102 75.000
66.05096 60.000
66.07091 65.000
66.09086 53.000
66.11080 82.000
66.13075 85.000
66.15070 68.000
66.17064 78.000
66.19059 71.000
66.21054 70.000
66.23049 82.000
66.25043 85.000
66.27038 103.000
66.29033 89.000
66.31027 106.000
66.33022 109.000
66.35017 122.000
66.37011 114.000
66.39006 144.000
66.41001 170.000
66.42995 136.000
66.44990 165.000
66.46985 201.000
66.48980 191.000
66.50974 197.000
66.52969 177.000
66.54964 190.000
66.56958 186.000
66.58953 177.000
66.60948 186.000
66.62942 193.000
66.64937 184.000
66.66932 196.000
66.68927 202.000
66.70921 181.000
66.72916 153.000
66.74911 159.000
66.76905 164.000
66.78900 150.000
66.80895 146.000
66.82889 142.000
66.84884 139.000
66.86879 125.000
66.88874 111.000
66.90868 133.000
66.92863 109.000
66.94858 136.000
66.96852 125.000
66.98847 134.000
67.00842 118.000
67.02836 122.000
67.04831 106.000
67.06826 111.000
67.08820 119.000
67.10815 128.000
67.12810 132.000
67.14805 123.000
67.16799 111.000
67.18794 112.000
67.20789 108.000
67.22783 94.000
67.24778 103.000
67.26773 84.000
67.28767 72.000
67.30762 93.000
67.32757 78.000
67.34752 85.000
67.36746 79.000
67.38741 74.000
67.40736 85.000
67.42730 84.000
67.44725 57.000
67.46720 74.000
67.48714 76.000
67.50709 65.000
67.52704 63.000
67.54698 58.000
67.56693 53.000
67.58688 58.000
67.60683 65.000
67.62677 62.000
67.64672 70.000
67.66667 57.000
67.68661 46.000
67.70656 62.000
67.72651 60.000
67.74645 45.000
67.76640 64.000
67.78635 67.000
67.80630 57.000
67.82624 57.000
67.84619 54.000
67.86614 55.000
67.88608 52.000
67.90603 59.000
67.92598 49.000
67.94592 53.000
67.96587 61.000
67.98582 59.000
68.00576 50.000
68.02571 75.000
68.04566 58.000
68.06561 49.000
68.08555 57.000
68.10550 57.000
68.12545 63.000
68.14539 67.000
68.16534 62.000
68.18529 67.000
68.20523 63.000
68.22518 44.000
68.24513 54.000
68.26508 62.000
68.28502 67.000
68.30497 59.000
68.32492 51.000
68.34486 54.000
68.36481 64.000
68.38476 64.000
68.40470 56.000
68.42465 62.000
68.44460 48.000
68.46455 56.000
68.48449 54.000
68.50444 64.000
68.52439 53.000
68.54433 57.000
68.56428 47.000
68.58423 55.000
68.60417 50.000
68.62412 65.000
68.64407 62.000
68.66401 63.000
68.68396 49.000
68.70391 51.000
68.72386 65.000
68.74380 49.000
68.76375 67.000
68.78370 44.000
68.80364 57.000
68.82359 53.000
68.84354 56.000
68.86348 48.000
68.88343 45.000
68.90338 59.000
68.92333 61.000
68.94327 42.000
68.96322 65.000
68.98317 53.000
69.00311 62.000
69.02306 70.000
69.04301 61.000
69.06295 52.000
69.08290 61.000
69.10285 57.000
69.12279 62.000
69.14274 56.000
69.16269 55.000
69.18264 61.000
69.20258 67.000
69.22253 62.000
69.24248 60.000
69.26242 61.000
69.28237 57.000
69.30232 53.000
69.32226 52.000
69.34221 56.000
69.36216 63.000
69.38211 68.000
69.40205 49.000
69.42200 57.000
69.44195 57.000
69.46189 56.000
69.48184 67.000
69.50179 72.000
69.52173 43.000
69.54168 67.000
69.56163 61.000
69.58157 57.000
69.60152 62.000
69.62147 49.000
69.64142 66.000
69.66136 68.000
69.68131 47.000
69.70126 57.000
69.72120 52.000
69.74115 59.000
69.76110 58.000
69.78104 64.000
69.80099 39.000
69.82094 65.000
69.84089 59.000
69.86083 56.000
69.88078 71.000
69.90073 60.000
69.92067 46.000
69.94062 59.000
69.96057 70.000
69.98051 63.000
70.00046 52.000
70.02041 62.000
70.04035 55.000
70.06030 72.000
70.08025 55.000
70.10020 58.000
70.12014 50.000
70.14009 71.000
70.16004 70.000
70.17998 60.000
70.19993 52.000
70.21988 53.000
70.23982 69.000
70.25977 53.000
70.27972 67.000
70.29967 46.000
70.31961 61.000
70.33956 42.000
70.35951 60.000
70.37945 50.000
70.39940 52.000
70.41935 66.000
70.43929 63.000
70.45924 54.000
70.47919 67.000
70.49914 60.000
70.51908 58.000
70.53903 55.000
70.55898 59.000
70.57892 49.000
70.59887 60.000
70.61882 39.000
70.63876 63.000
70.65871 66.000
70.67866 53.000
70.69860 54.000
70.71855 54.000
70.73850 52.000
70.75845 59.000
70.77839 49.000
70.79834 59.000
70.81829 55.000
70.83823 59.000
70.85818 69.000
70.87813 60.000
70.89807 54.000
70.91802 43.000
70.93797 67.000
70.95792 51.000
70.97786 49.000
70.99781 62.000
71.01776 55.000
71.03770 58.000
71.05765 63.000
71.07760 61.000
71.09754 60.000
71.11749 54.000
71.13744 73.000
71.15738 63.000
71.17733 75.000
71.19728 59.000
71.21723 57.000
71.23717 55.000
71.25712 55.000
71.27707 73.000
71.29701 57.000
71.31696 78.000
71.33691 60.000
71.35685 68.000
71.37680 64.000
71.39675 64.000
71.41670 70.000
71.43664 63.000
71.45659 72.000
71.47654 73.000
71.49648 85.000
71.51643 81.000
71.53638 67.000
71.55632 94.000
71.57627 93.000
71.59622 87.000
71.61616 63.000
71.63611 77.000
71.65606 95.000
71.67601 96.000
71.69595 81.000
71.71590 82.000
71.73585 81.000
71.75579 80.000
71.77574 87.000
71.79569 69.000
71.81563 76.000
71.83558 85.000
71.85553 91.000
71.87548 69.000
71.89542 70.000
71.91537 61.000
71.93532 67.000
71.95526 59.000
71.97521 73.000
71.99516 59.000
72.01510 70.000
72.03505 59.000
72.05500 61.000
72.07495 60.000
72.09489 63.000
72.11484 62.000
72.13479 55.000
72.15473 71.000
72.17468 53.000
72.19463 62.000
72.21457 62.000
72.23452 49.000
72.25447 66.000
72.27441 43.000
72.29436 46.000
72.31431 69.000
72.33426 56.000
72.35420 56.000
72.37415 62.000
72.39410 50.000
72.41404 64.000
72.43399 66.000
72.45394 56.000
72.47388 71.000
72.49383 62.000
72.51378 51.000
72.53373 59.000
72.55367 48.000
72.57362 56.000
72.59357 55.000
72.61351 69.000
72.63346 57.000
72.65341 60.000
72.67335 69.000
72.69330 63.000
72.71325 62.000
72.73319 47.000
72.75314 48.000
72.77309 62.000
72.79304 53.000
72.81298 56.000
72.83293 55.000
72.85288 40.000
72.87282 64.000
72.89277 52.000
72.91272 62.000
72.93266 54.000
72.95261 65.000
72.97256 50.000
72.99251 47.000
73.01245 66.000
73.03240 70.000
73.05235 55.000
73.07229 74.000
73.09224 57.000
73.11219 55.000
73.13213 68.000
73.15208 67.000
73.17203 52.000
73.19197 63.000
73.21192 73.000
73.23187 65.000
73.25182 75.000
73.27176 68.000
73.29171 86.000
73.31166 90.000
73.33160 86.000
73.35155 102.000
73.37150 73.000
73.39144 98.000
73.41139 115.000
73.43134 119.000
73.45129 119.000
73.47123 109.000
73.49118 116.000
73.51113 128.000
73.53107 130.000
73.55102 114.000
73.57097 120.000
73.59091 118.000
73.61086 133.000
73.63081 112.000
73.65076 119.000
73.67070 113.000
73.69065 103.000
73.71060 113.000
73.73054 121.000
73.75049 106.000
73.77044 81.000
73.79038 98.000
73.81033 112.000
73.83028 102.000
73.85022 105.000
73.87017 98.000
73.89012 71.000
73.91007 97.000
73.93001 82.000
73.94996 93.000
73.96991 76.000
73.98985 67.000
74.00980 65.000
74.02975 68.000
74.04969 62.000
74.06964 65.000
74.08959 88.000
74.10954 86.000
74.12948 73.000
74.14943 57.000
74.16938 80.000
74.18932 62.000
74.20927 63.000
74.22922 69.000
74.24916 69.000
74.26911 72.000
74.28906 75.000
74.30900 75.000
74.32895 77.000
74.34890 69.000
74.36885 65.000
74.38879 66.000
74.40874 88.000
74.42869 60.000
74.44863 78.000
74.46858 77.000
74.48853 100.000
74.50847 100.000
74.52842 104.000
74.54837 109.000
74.56832 99.000
74.58826 107.000
74.60821 102.000
74.62816 131.000
74.64810 121.000
74.66805 127.000
74.68800 125.000
74.70794 153.000
74.72789 127.000
74.74784 135.000
74.76778 145.000
74.78773 132.000
74.80768 128.000
74.82763 84.000
74.84757 86.000
74.86752 100.000
74.88747 102.000
74.90741 106.000
74.92736 101.000
74.94731 103.000
74.96725 88.000
74.98720 93.000
75.00715 80.000
75.02710 88.000
75.04704 82.000
75.06699 85.000
75.08694 78.000
75.10688 81.000
75.12683 69.000
75.14678 71.000
75.16672 83.000
75.18667 81.000
75.20662 88.000
75.22657 77.000
75.24651 111.000
75.26646 83.000
75.28641 96.000
75.30635 91.000
75.32630 88.000
75.34625 101.000
75.36619 104.000
75.38614 112.000
75.40609 110.000
75.42603 113.000
75.44598 112.000
75.46593 132.000
75.48588 94.000
75.50582 99.000
75.52577 111.000
75.54572 107.000
75.56566 127.000
75.58561 133.000
75.60556 129.000
75.62550 129.000
75.64545 146.000
75.66540 120.000
75.68535 145.000
75.70529 115.000
75.72524 121.000
75.74519 121.000
75.76513 110.000
75.78508 114.000
75.80503 117.000
75.82497 100.000
75.84492 104.000
75.86487 92.000
75.88481 82.000
75.90476 97.000
75.92471 85.000
75.94466 81.000
75.96460 81.000
75.98455 86.000
76.00450 89.000
76.02444 89.000
76.04439 72.000
76.06434 68.000
76.08428 90.000
76.10423 76.000
76.12418 65.000
76.14413 71.000
76.16407 75.000
76.18402 49.000
76.20397 64.000
76.22391 49.000
76.24386 72.000
76.26381 56.000
76.28375 62.000
76.30370 59.000
76.32365 65.000
76.34359 77.000
76.36354 63.000
76.38349 50.000
76.40344 58.000
76.42338 61.000
76.44333 56.000
76.46328 65.000
76.48322 53.000
76.50317 64.000
76.52312 62.000
76.54306 81.000
76.56301 49.000
76.58296 68.000
76.60291 53.000
76.62285 53.000
76.64280 72.000
76.66275 49.000
76.68269 58.000
76.70264 63.000
76.72259 62.000
76.74253 63.000
76.76248 57.000
76.78243 48.000
76.80238 57.000
76.82232 58.000
76.84227 60.000
76.86222 68.000
76.88216 65.000
76.90211 60.000
76.92206 44.000
76.94200 58.000
76.96195 64.000
76.98190 55.000
77.00184 52.000
77.02179 47.000
77.04174 71.000
77.06169 64.000
77.08163 72.000
77.10158 72.000
77.12153 67.000
77.14147 52.000
77.16142 40.000
77.18137 52.000
77.20131 57.000
77.22126 45.000
77.24121 60.000
77.26116 54.000
77.28110 65.000
77.30105 65.000
77.32100 70.000
77.34094 61.000
77.36089 65.000
77.38084 47.000
77.40078 55.000
77.42073 60.000
77.44068 70.000
77.46062 66.000
77.48057 80.000
77.50052 78.000
77.52047 74.000
77.54041 77.000
77.56036 81.000
77.58031 62.000
77.60025 89.000
77.62020 82.000
77.64015 83.000
77.66009 93.000
77.68004 107.000
77.69999 107.000
77.71994 108.000
77.73988 107.000
77.75983 118.000
77.77978 109.000
77.79972 112.000
77.81967 114.000
77.83962 104.000
77.85956 110.000
77.87951 98.000
77.89946 113.000
77.91940 116.000
77.93935 112.000
77.95930 111.000
77.97925 133.000
77.99919 100.000
78.01914 117.000
78.03909 94.000
78.05903 141.000
78.07898 115.000
78.09893 122.000
78.11887 125.000
78.13882 117.000
78.15877 105.000
78.17872 109.000
78.19866 117.000
78.21861 110.000
78.23856 113.000
78.25850 128.000
78.27845 106.000
78.29840 120.000
78.31834 146.000
78.33829 136.000
78.35824 137.000
78.37819 134.000
78.39813 128.000
78.41808 120.000
78.43803 115.000
78.45797 137.000
78.47792 113.000
78.49787 106.000
78.51781 116.000
78.53776 105.000
78.55771 100.000
78.57765 108.000
78.59760 89.000
78.61755 116.000
78.63750 92.000
78.65744 95.000
78.67739 82.000
78.69734 91.000
78.71728 73.000
78.73723 78.000
78.75718 77.000
78.77712 69.000
78.79707 80.000
78.81702 89.000
78.83697 72.000
78.85691 73.000
78.87686 52.000
78.89681 63.000
78.91675 67.000
78.93670 57.000
78.95665 71.000
78.97659 47.000
78.99654 63.000
79.01649 67.000
79.03643 67.000
79.05638 49.000
79.07633 73.000
79.09628 59.000
79.11622 70.000
79.13617 54.000
79.15612 63.000
79.17606 58.000
79.19601 85.000
79.21596 66.000
79.23590 64.000
79.25585 94.000
79.27580 93.000
79.29575 76.000
79.31569 84.000
79.33564 93.000
79.35559 83.000
79.37553 88.000
79.39548 84.000
79.41543 88.000
79.43537 86.000
79.45532 97.000
79.47527 83.000
79.49521 91.000
79.51516 88.000
79.53511 81.000
79.55506 96.000
79.57500 106.000
79.59495 102.000
79.61490 94.000
79.63484 89.000
79.65479 113.000
79.67474 95.000
79.69468 88.000
79.71463 89.000
79.73458 92.000
79.75453 72.000
79.77447 81.000
79.79442 77.000
79.81437 104.000
79.83431 73.000
79.85426 67.000
79.87421 89.000
79.89415 85.000
79.91410 69.000
79.93405 68.000
79.95399 67.000
79.97394 69.000
79.99389 65.000
80.01384 64.000
80.03378 62.000
80.05373 55.000
80.07368 71.000
80.09362 61.000
80.11357 51.000
80.13352 68.000
80.15346 70.000
80.17341 61.000
80.19336 43.000
80.21331 65.000
80.23325 74.000
80.25320 68.000
80.27315 55.000
80.29309 46.000
80.31304 58.000
80.33299 63.000
80.35293 65.000
80.37288 69.000
80.39283 69.000
80.41278 54.000
80.43272 63.000
80.45267 78.000
80.47262 48.000
80.49256 60.000
80.51251 72.000
80.53246 62.000
80.55240 70.000
80.57235 69.000
80.59230 61.000
80.61224 68.000
80.63219 62.000
80.65214 69.000
80.67209 60.000
80.69203 65.000
80.71198 66.000
80.73193 79.000
80.75187 81.000
80.77182 64.000
80.79177 71.000
80.81171 69.000
80.83166 66.000
80.85161 60.000
80.87156 71.000
80.89150 72.000
80.91145 60.000
80.93140 55.000
80.95134 64.000
80.97129 56.000
80.99124 59.000
81.01118 67.000
81.03113 57.000
81.05108 60.000
81.07102 57.000
81.09097 61.000
81.11092 61.000
81.13087 48.000
81.15081 63.000
81.17076 70.000
81.19071 56.000
81.21065 51.000
81.23060 62.000
81.25055 60.000
81.27049 46.000
81.29044 59.000
81.31039 52.000
81.33034 62.000
81.35028 49.000
81.37023 56.000
81.39018 62.000
81.41012 59.000
81.43007 62.000
81.45002 64.000
81.46996 60.000
81.48991 48.000
81.50986 55.000
81.52980 62.000
81.54975 63.000
81.56970 53.000
81.58965 57.000
81.60959 70.000
81.62954 51.000
81.64949 46.000
81.66943 51.000
81.68938 56.000
81.70933 63.000
81.72927 52.000
81.74922 56.000
81.76917 56.000
81.78912 57.000
81.80906 56.000
81.82901 64.000
81.84896 62.000
81.86890 67.000
81.88885 54.000
81.90880 54.000
81.92874 60.000
81.94869 63.000
81.96864 46.000
81.98859 67.000
82.00853 54.000
82.02848 49.000
82.04843 48.000
82.06837 58.000
82.08832 59.000
82.10827 65.000
82.12821 64.000
82.14816 55.000
82.16811 58.000
82.18805 57.000
82.20800 55.000
82.22795 61.000
82.24790 71.000
82.26784 68.000
82.28779 74.000
82.30774 54.000
82.32768 43.000
82.34763 66.000
82.36758 57.000
82.38752 51.000
82.40747 57.000
82.42742 44.000
82.44737 53.000
82.46731 40.000
82.48726 72.000
82.50721 56.000
82.52715 48.000
82.54710 61.000
82.56705 58.000
82.58699 63.000
82.60694 45.000
82.62689 51.000
82.64683 55.000
82.66678 59.000
82.68673 65.000
82.70668 58.000
82.72662 60.000
82.74657 58.000
82.76652 57.000
82.78646 62.000
82.80641 55.000
82.82636 43.000
82.84630 59.000
82.86625 60.000
82.88620 61.000
82.90615 63.000
82.92609 58.000
82.94604 59.000
82.96599 78.000
82.98593 63.000
83.00588 58.000
83.02583 57.000
83.04577 52.000
83.06572 55.000
83.08567 72.000
83.10561 50.000
83.12556 64.000
83.14551 74.000
83.16546 59.000
83.18540 45.000
83.20535 45.000
83.22530 56.000
83.24524 58.000
83.26519 58.000
83.28514 64.000
83.30508 68.000
83.32503 50.000
83.34498 65.000
83.36493 53.000
83.38487 58.000
83.40482 56.000
83.42477 56.000
83.44471 68.000
83.46466 58.000
83.48461 67.000
83.50455 49.000
83.52450 66.000
83.54445 57.000
83.56440 63.000
83.58434 52.000
83.60429 54.000
83.62424 67.000
83.64418 58.000
83.66413 54.000
83.68408 60.000
83.70402 60.000
83.72397 45.000
83.74392 51.000
83.76386 55.000
83.78381 61.000
83.80376 67.000
83.82371 54.000
83.84365 60.000
83.86360 57.000
83.88355 62.000
83.90349 52.000
83.92344 54.000
83.94339 71.000
83.96333 75.000
83.98328 56.000
84.00323 68.000
84.02318 62.000
84.04312 56.000
84.06307 52.000
84.08302 65.000
84.10296 67.000
84.12291 68.000
84.14286 66.000
84.16280 63.000
84.18275 79.000
84.20270 67.000
84.22264 76.000
84.24259 81.000
84.26254 69.000
84.28249 69.000
84.30243 87.000
84.32238 94.000
84.34233 91.000
84.36227 107.000
84.38222 115.000
84.40217 103.000
84.42211 103.000
84.44206 112.000
84.46201 94.000
84.48196 107.000
84.50190 115.000
84.52185 134.000
84.54180 122.000
84.56174 106.000
84.58169 108.000
84.60164 109.000
84.62158 129.000
84.64153 110.000
84.66148 111.000
84.68142 103.000
84.70137 107.000
84.72132 90.000
84.74127 101.000
84.76121 98.000
84.78116 106.000
84.80111 93.000
84.82105 88.000
84.84100 100.000
84.86095 102.000
84.88089 90.000
84.90084 72.000
84.92079 87.000
84.94074 99.000
84.96068 102.000
84.98063 89.000
85.00058 86.000
85.02052 89.000
85.04047 89.000
85.06042 67.000
85.08036 74.000
85.10031 72.000
85.12026 78.000
85.14021 73.000
85.16015 72.000
85.18010 67.000
85.20005 64.000
85.21999 76.000
85.23994 75.000
85.25989 67.000
85.27983 68.000
85.29978 60.000
85.31973 59.000
85.33967 70.000
85.35962 58.000
85.37957 69.000
85.39952 72.000
85.41946 66.000
85.43941 61.000
85.45936 49.000
85.47930 60.000
85.49925 64.000
85.51920 50.000
85.53914 60.000
85.55909 49.000
85.57904 56.000
85.59899 71.000
85.61893 54.000
85.63888 68.000
85.65883 78.000
85.67877 56.000
85.69872 64.000
85.71867 54.000
85.73861 49.000
85.75856 66.000
85.77851 53.000
85.79845 57.000
85.81840 59.000
85.83835 52.000
85.85830 68.000
85.87824 62.000
85.89819 61.000
85.91814 57.000
85.93808 58.000
85.95803 64.000
85.97798 54.000
85.99792 64.000
86.01787 53.000
86.03782 55.000
86.05777 62.000
86.07771 66.000
86.09766 61.000
86.11761 75.000
86.13755 61.000
86.15750 56.000
86.17745 65.000
86.19739 55.000
86.21734 60.000
86.23729 56.000
86.25723 53.000
86.27718 66.000
86.29713 56.000
86.31708 51.000
86.33702 66.000
86.35697 59.000
86.37692 62.000
86.39686 68.000
86.41681 58.000
86.43676 76.000
86.45670 54.000
86.47665 74.000
86.49660 49.000
86.51655 69.000
86.53649 64.000
86.55644 62.000
86.57639 56.000
86.59633 53.000
86.61628 57.000
86.63623 53.000
86.65617 56.000
86.67612 72.000
86.69607 67.000
86.71602 54.000
86.73596 58.000
86.75591 59.000
86.77586 72.000
86.79580 49.000
86.81575 66.000
86.83570 65.000
86.85564 52.000
86.87559 57.000
86.89554 47.000
86.91548 75.000
86.93543 69.000
86.95538 57.000
86.97533 61.000
86.99527 63.000
87.01522 57.000
87.03517 61.000
87.05511 65.000
87.07506 65.000
87.09501 65.000
87.11495 60.000
87.13490 69.000
87.15485 59.000
87.17480 63.000
87.19474 68.000
87.21469 70.000
87.23464 70.000
87.25458 68.000
87.27453 84.000
87.29448 77.000
87.31442 71.000
87.33437 78.000
87.35432 77.000
87.37426 82.000
87.39421 67.000
87.41416 90.000
87.43411 86.000
87.45405 91.000
87.47400 87.000
87.49395 92.000
87.51389 89.000
87.53384 96.000
87.55379 98.000
87.57373 99.000
87.59368 101.000
87.61363 99.000
87.63358 110.000
87.65352 98.000
87.67347 114.000
87.69342 106.000
87.71336 81.000
87.73331 72.000
87.75326 98.000
87.77320 94.000
87.79315 101.000
87.81310 92.000
87.83304 74.000
87.85299 76.000
87.87294 70.000
87.89289 82.000
87.91283 72.000
87.93278 81.000
87.95273 79.000
87.97267 61.000
87.99262 72.000
88.01257 69.000
88.03251 72.000
88.05246 66.000
88.07241 60.000
88.09236 71.000
88.11230 61.000
88.13225 74.000
88.15220 63.000
88.17214 66.000
88.19209 60.000
88.21204 57.000
88.23198 60.000
88.25193 51.000
88.27188 65.000
88.29183 74.000
88.31177 38.000
88.33172 59.000
88.35167 74.000
88.37161 65.000
88.39156 61.000
88.41151 58.000
88.43145 56.000
88.45140 52.000
88.47135 60.000
88.49129 64.000
88.51124 58.000
88.53119 68.000
88.55114 49.000
88.57108 66.000
88.59103 53.000
88.61098 55.000
88.63092 60.000
88.65087 55.000
88.67082 58.000
88.69076 61.000
88.71071 58.000
88.73066 60.000
88.75061 60.000
88.77055 67.000
88.79050 45.000
88.81045 56.000
88.83039 68.000
88.85034 71.000
88.87029 63.000
88.89023 57.000
88.91018 52.000
88.93013 55.000
88.95007 65.000
88.97002 55.000
88.98997 59.000
89.00992 67.000
89.02986 56.000
89.04981 52.000
89.06976 60.000
89.08970 56.000
89.10965 58.000
89.12960 72.000
89.14954 63.000
89.16949 50.000
89.18944 46.000
89.20939 50.000
89.22933 65.000
89.24928 50.000
89.26923 66.000
89.28917 62.000
89.30912 51.000
89.32907 40.000
89.34901 61.000
89.36896 64.000
89.38891 63.000
89.40885 51.000
89.42880 64.000
89.44875 66.000
89.46870 45.000
89.48864 48.000
89.50859 72.000
89.52854 54.000
89.54848 60.000
89.56843 63.000
89.58838 70.000
89.60832 69.000
89.62827 56.000
89.64822 59.000
89.66817 48.000
89.68811 60.000
89.70806 56.000
89.72801 53.000
89.74795 61.000
89.76790 53.000
89.78785 61.000
89.80779 49.000
89.82774 48.000
89.84769 56.000
89.86764 51.000
89.88758 60.000
89.90753 61.000
89.92748 55.000
89.94742 65.000
89.96737 73.000
89.98732 53.000
90.00726 49.000
