10.00000 126.000
10.01995 113.000
10.03989 105.000
10.05984 111.000
10.07979 98.000
10.09973 113.000
10.11968 74.000
10.13963 109.000
10.15958 93.000
10.17952 105.000
10.19947 122.000
10.21942 104.000
10.23936 113.000
10.25931 110.000
10.27926 98.000
10.29920 113.000
10.31915 115.000
10.33910 75.000
10.35905 97.000
10.37899 86.000
10.39894 96.000
10.41889 86.000
10.43883 105.000
10.45878 114.000
10.47873 102.000
10.49867 96.000
10.51862 105.000
10.53857 108.000
10.55851 103.000
10.57846 127.000
10.59841 104.000
10.61836 127.000
10.63830 121.000
10.65825 98.000
10.67820 116.000
10.69814 104.000
10.71809 115.000
10.73804 122.000
10.75798 96.000
10.77793 101.000
10.79788 119.000
10.81783 110.000
10.83777 115.000
10.85772 118.000
10.87767 114.000
10.89761 108.000
10.91756 111.000
10.93751 100.000
10.95745 108.000
10.97740 111.000
10.99735 125.000
11.01730 108.000
11.03724 112.000
11.05719 101.000
11.07714 117.000
11.09708 102.000
11.11703 115.000
11.13698 119.000
11.15692 100.000
11.17687 99.000
11.19682 107.000
11.21676 100.000
11.23671 128.000
11.25666 99.000
11.27661 114.000
11.29655 105.000
11.31650 104.000
11.33645 122.000
11.35639 117.000
11.37634 111.000
11.39629 127.000
11.41623 99.000
11.43618 111.000
11.45613 102.000
11.47608 120.000
11.49602 123.000
11.51597 106.000
11.53592 106.000
11.55586 125.000
11.57581 119.000
11.59576 109.000
11.61570 114.000
11.63565 141.000
11.65560 113.000
11.67554 100.000
11.69549 123.000
11.71544 122.000
11.73539 111.000
11.75533 108.000
11.77528 117.000
11.79523 125.000
11.81517 128.000
11.83512 120.000
11.85507 125.000
11.87501 131.000
11.89496 125.000
11.91491 141.000
11.93486 138.000
11.95480 107.000
11.97475 130.000
11.99470 105.000
12.01464 109.000
12.03459 108.000
12.05454 110.000
12.07448 121.000
12.09443 118.000
12.11438 122.000
12.13432 123.000
12.15427 130.000
12.17422 112.000
12.19417 127.000
12.21411 129.000
12.23406 116.000
12.25401 115.000
12.27395 132.000
12.29390 114.000
12.31385 124.000
12.33379 124.000
12.35374 128.000
12.37369 141.000
12.39364 142.000
12.41358 140.000
12.43353 129.000
12.45348 124.000
12.47342 145.000
12.49337 117.000
12.51332 137.000
12.53326 125.000
12.55321 100.000
12.57316 122.000
12.59311 122.000
12.61305 137.000
12.63300 107.000
12.65295 107.000
12.67289 129.000
12.69284 123.000
12.71279 120.000
12.73273 131.000
12.75268 112.000
12.77263 142.000
12.79257 142.000
12.81252 125.000
12.83247 144.000
12.85242 130.000
12.87236 135.000
12.89231 134.000
12.91226 128.000
12.93220 131.000
12.95215 133.000
12.97210 134.000
12.99204 118.000
13.01199 109.000
13.03194 144.000
13.05189 149.000
13.07183 140.000
13.09178 132.000
13.11173 135.000
13.13167 119.000
13.15162 134.000
13.17157 129.000
13.19151 127.000
13.21146 118.000
13.23141 147.000
13.25135 139.000
13.27130 129.000
13.29125 123.000
13.31120 118.000
13.33114 137.000
13.35109 138.000
13.37104 151.000
13.39098 127.000
13.41093 141.000
13.43088 122.000
13.45082 151.000
13.47077 144.000
13.49072 126.000
13.51067 127.000
13.53061 144.000
13.55056 139.000
13.57051 128.000
13.59045 115.000
13.61040 137.000
13.63035 140.000
13.65029 143.000
13.67024 147.000
13.69019 141.000
13.71013 133.000
13.73008 133.000
13.75003 132.000
13.76998 136.000
13.78992 142.000
13.80987 153.000
13.82982 158.000
13.84976 152.000
13.86971 155.000
13.88966 144.000
13.90960 124.000
13.92955 142.000
13.94950 142.000
13.96945 134.000
13.98939 126.000
14.00934 130.000
14.02929 120.000
14.04923 155.000
14.06918 122.000
14.08913 151.000
14.10907 126.000
14.12902 143.000
14.14897 133.000
14.16892 155.000
14.18886 146.000
14.20881 134.000
14.22876 132.000
14.24870 161.000
14.26865 148.000
14.28860 131.000
14.30854 148.000
14.32849 156.000
14.34844 139.000
14.36838 154.000
14.38833 122.000
14.40828 146.000
14.42823 149.000
14.44817 116.000
14.46812 131.000
14.48807 153.000
14.50801 153.000
14.52796 131.000
14.54791 151.000
14.56785 145.000
14.58780 136.000
14.60775 145.000
14.62770 142.000
14.64764 131.000
14.66759 142.000
14.68754 149.000
14.70748 165.000
14.72743 149.000
14.74738 136.000
14.76732 165.000
14.78727 166.000
14.80722 159.000
14.82716 125.000
14.84711 145.000
14.86706 164.000
14.88701 153.000
14.90695 124.000
14.92690 143.000
14.94685 148.000
14.96679 157.000
14.98674 148.000
15.00669 153.000
15.02663 159.000
15.04658 156.000
15.06653 145.000
15.08648 148.000
15.10642 157.000
15.12637 165.000
15.14632 169.000
15.16626 146.000
15.18621 156.000
15.20616 144.000
15.22610 174.000
15.24605 179.000
15.26600 162.000
15.28594 163.000
15.30589 160.000
15.32584 153.000
15.34579 149.000
15.36573 154.000
15.38568 175.000
15.40563 167.000
15.42557 167.000
15.44552 171.000
15.46547 169.000
15.48541 181.000
15.50536 150.000
15.52531 177.000
15.54526 153.000
15.56520 189.000
15.58515 199.000
15.60510 173.000
15.62504 146.000
15.64499 194.000
15.66494 165.000
15.68488 196.000
15.70483 182.000
15.72478 164.000
15.74472 171.000
15.76467 171.000
15.78462 171.000
15.80457 170.000
15.82451 199.000
15.84446 195.000
15.86441 166.000
15.88435 178.000
15.90430 171.000
15.92425 181.000
15.94419 147.000
15.96414 183.000
15.98409 156.000
16.00404 205.000
16.02398 201.000
16.04393 200.000
16.06388 191.000
16.08382 178.000
16.10377 169.000
16.12372 213.000
16.14366 211.000
16.16361 190.000
16.18356 182.000
16.20351 170.000
16.22345 194.000
16.24340 191.000
16.26335 200.000
16.28329 195.000
16.30324 174.000
16.32319 198.000
16.34313 190.000
16.36308 212.000
16.38303 215.000
16.40297 221.000
16.42292 189.000
16.44287 190.000
16.46282 191.000
16.48276 219.000
16.50271 185.000
16.52266 234.000
16.54260 200.000
16.56255 208.000
16.58250 209.000
16.60244 211.000
16.62239 202.000
16.64234 200.000
16.66229 220.000
16.68223 201.000
16.70218 199.000
16.72213 174.000
16.74207 206.000
16.76202 215.000
16.78197 224.000
16.80191 189.000
16.82186 187.000
16.84181 215.000
16.86175 209.000
16.88170 215.000
16.90165 201.000
16.92160 229.000
16.94154 236.000
16.96149 246.000
16.98144 226.000
17.00138 224.000
17.02133 249.000
17.04128 230.000
17.06122 223.000
17.08117 232.000
17.10112 248.000
17.12107 220.000
17.14101 230.000
17.16096 243.000
17.18091 239.000
17.20085 248.000
17.22080 269.000
17.24075 251.000
17.26069 245.000
17.28064 256.000
17.30059 243.000
17.32053 254.000
17.34048 244.000
17.36043 247.000
17.38038 266.000
17.40032 229.000
17.42027 226.000
17.44022 245.000
17.46016 271.000
17.48011 239.000
17.50006 257.000
17.52000 220.000
17.53995 225.000
17.55990 250.000
17.57985 235.000
17.59979 262.000
17.61974 253.000
17.63969 246.000
17.65963 198.000
17.67958 275.000
17.69953 264.000
17.71947 292.000
17.73942 290.000
17.75937 264.000
17.77932 265.000
17.79926 289.000
17.81921 275.000
17.83916 267.000
17.85910 261.000
17.87905 269.000
17.89900 271.000
17.91894 281.000
17.93889 277.000
17.95884 279.000
17.97878 279.000
17.99873 265.000
18.01868 277.000
18.03863 300.000
18.05857 277.000
18.07852 302.000
18.09847 278.000
18.11841 262.000
18.13836 317.000
18.15831 286.000
18.17825 266.000
18.19820 316.000
18.21815 322.000
18.23810 277.000
18.25804 297.000
18.27799 324.000
18.29794 288.000
18.31788 320.000
18.33783 273.000
18.35778 289.000
18.37772 277.000
18.39767 331.000
18.41762 345.000
18.43756 287.000
18.45751 302.000
18.47746 285.000
18.49741 327.000
18.51735 320.000
18.53730 321.000
18.55725 306.000
18.57719 293.000
18.59714 327.000
18.61709 298.000
18.63703 315.000
18.65698 297.000
18.67693 344.000
18.69688 339.000
18.71682 319.000
18.73677 311.000
18.75672 285.000
18.77666 336.000
18.79661 344.000
18.81656 294.000
18.83650 321.000
18.85645 338.000
18.87640 362.000
18.89634 336.000
18.91629 328.000
18.93624 355.000
18.95619 345.000
18.97613 329.000
18.99608 322.000
19.01603 314.000
19.03597 309.000
19.05592 305.000
19.07587 340.000
19.09581 311.000
19.11576 314.000
19.13571 327.000
19.15566 367.000
19.17560 351.000
19.19555 343.000
19.21550 321.000
19.23544 355.000
19.25539 323.000
19.27534 367.000
19.29528 377.000
19.31523 342.000
19.33518 353.000
19.35513 398.000
19.37507 356.000
19.39502 361.000
19.41497 369.000
19.43491 370.000
19.45486 348.000
19.47481 363.000
19.49475 326.000
19.51470 329.000
19.53465 360.000
19.55459 343.000
19.57454 371.000
19.59449 395.000
19.61444 375.000
19.63438 368.000
19.65433 380.000
19.67428 325.000
19.69422 384.000
19.71417 383.000
19.73412 387.000
19.75406 389.000
19.77401 346.000
19.79396 346.000
19.81391 390.000
19.83385 324.000
19.85380 385.000
19.87375 390.000
19.89369 396.000
19.91364 379.000
19.93359 379.000
19.95353 396.000
19.97348 380.000
19.99343 384.000
20.01337 370.000
20.03332 410.000
20.05327 394.000
20.07322 410.000
20.09316 414.000
20.11311 420.000
20.13306 376.000
20.15300 421.000
20.17295 403.000
20.19290 420.000
20.21284 433.000
20.23279 440.000
20.25274 479.000
20.27269 434.000
20.29263 433.000
20.31258 452.000
20.33253 430.000
20.35247 435.000
20.37242 427.000
20.39237 445.000
20.41231 457.000
20.43226 446.000
20.45221 412.000
20.47215 386.000
20.49210 444.000
20.51205 431.000
20.53200 445.000
20.55194 407.000
20.57189 419.000
20.59184 403.000
20.61178 433.000
20.63173 412.000
20.65168 422.000
20.67162 423.000
20.69157 428.000
20.71152 421.000
20.73147 418.000
20.75141 413.000
20.77136 399.000
20.79131 416.000
20.81125 407.000
20.83120 431.000
20.85115 413.000
20.87109 460.000
20.89104 386.000
20.91099 423.000
20.93094 425.000
20.95088 397.000
20.97083 411.000
20.99078 410.000
21.01072 399.000
21.03067 446.000
21.05062 404.000
21.07056 422.000
21.09051 440.000
21.11046 425.000
21.13040 461.000
21.15035 432.000
21.17030 418.000
21.19025 392.000
21.21019 446.000
21.23014 390.000
21.25009 418.000
21.27003 422.000
21.28998 427.000
21.30993 431.000
21.32987 453.000
21.34982 426.000
21.36977 429.000
21.38972 413.000
21.40966 431.000
21.42961 429.000
21.44956 384.000
21.46950 433.000
21.48945 404.000
21.50940 465.000
21.52934 428.000
21.54929 441.000
21.56924 461.000
21.58918 462.000
21.60913 461.000
21.62908 409.000
21.64903 442.000
21.66897 400.000
21.68892 446.000
21.70887 406.000
21.72881 428.000
21.74876 405.000
21.76871 474.000
21.78865 455.000
21.80860 446.000
21.82855 443.000
21.84850 436.000
21.86844 444.000
21.88839 431.000
21.90834 456.000
21.92828 456.000
21.94823 475.000
21.96818 450.000
21.98812 421.000
22.00807 405.000
22.02802 448.000
22.04796 470.000
22.06791 403.000
22.08786 479.000
22.10781 436.000
22.12775 457.000
22.14770 447.000
22.16765 436.000
22.18759 458.000
22.20754 445.000
22.22749 464.000
22.24743 484.000
22.26738 453.000
22.28733 476.000
22.30728 437.000
22.32722 481.000
22.34717 456.000
22.36712 467.000
22.38706 468.000
22.40701 485.000
22.42696 480.000
22.44690 476.000
22.46685 474.000
22.48680 457.000
22.50675 485.000
22.52669 489.000
22.54664 463.000
22.56659 446.000
22.58653 465.000
22.60648 484.000
22.62643 511.000
22.64637 542.000
22.66632 456.000
22.68627 449.000
22.70621 489.000
22.72616 501.000
22.74611 470.000
22.76606 435.000
22.78600 515.000
22.80595 493.000
22.82590 499.000
22.84584 484.000
22.86579 505.000
22.88574 516.000
22.90568 509.000
22.92563 489.000
22.94558 506.000
22.96553 451.000
22.98547 482.000
23.00542 487.000
23.02537 463.000
23.04531 496.000
23.06526 493.000
23.08521 486.000
23.10515 540.000
23.12510 505.000
23.14505 500.000
23.16499 515.000
23.18494 479.000
23.20489 497.000
23.22484 523.000
23.24478 495.000
23.26473 507.000
23.28468 495.000
23.30462 543.000
23.32457 538.000
23.34452 498.000
23.36446 519.000
23.38441 499.000
23.40436 510.000
23.42431 507.000
23.44425 545.000
23.46420 526.000
23.48415 512.000
23.50409 506.000
23.52404 531.000
23.54399 548.000
23.56393 540.000
23.58388 507.000
23.60383 553.000
23.62377 517.000
23.64372 555.000
23.66367 546.000
23.68362 509.000
23.70356 559.000
23.72351 496.000
23.74346 521.000
23.76340 518.000
23.78335 537.000
23.80330 547.000
23.82324 479.000
23.84319 535.000
23.86314 510.000
23.88309 462.000
23.90303 521.000
23.92298 494.000
23.94293 542.000
23.96287 567.000
23.98282 567.000
24.00277 529.000
24.02271 535.000
24.04266 537.000
24.06261 526.000
24.08256 546.000
24.10250 531.000
24.12245 517.000
24.14240 524.000
24.16234 548.000
24.18229 540.000
24.20224 538.000
24.22218 521.000
24.24213 534.000
24.26208 571.000
24.28202 559.000
24.30197 543.000
24.32192 556.000
24.34187 557.000
24.36181 582.000
24.38176 553.000
24.40171 591.000
24.42165 585.000
24.44160 563.000
24.46155 557.000
24.48149 563.000
24.50144 587.000
24.52139 598.000
24.54134 560.000
24.56128 569.000
24.58123 635.000
24.60118 550.000
24.62112 541.000
24.64107 604.000
24.66102 583.000
24.68096 552.000
24.70091 604.000
24.72086 590.000
24.74080 571.000
24.76075 577.000
24.78070 601.000
24.80065 583.000
24.82059 577.000
24.84054 580.000
24.86049 596.000
24.88043 584.000
24.90038 557.000
24.92033 600.000
24.94027 595.000
24.96022 585.000
24.98017 601.000
25.00012 581.000
25.02006 612.000
25.04001 588.000
25.05996 579.000
25.07990 645.000
25.09985 662.000
25.11980 632.000
25.13974 622.000
25.15969 597.000
25.17964 616.000
25.19958 643.000
25.21953 586.000
25.23948 606.000
25.25943 625.000
25.27937 584.000
25.29932 628.000
25.31927 629.000
25.33921 607.000
25.35916 646.000
25.37911 602.000
25.39905 577.000
25.41900 640.000
25.43895 615.000
25.45890 576.000
25.47884 618.000
25.49879 603.000
25.51874 677.000
25.53868 653.000
25.55863 625.000
25.57858 658.000
25.59852 670.000
25.61847 641.000
25.63842 694.000
25.65837 641.000
25.67831 670.000
25.69826 642.000
25.71821 667.000
25.73815 615.000
25.75810 664.000
25.77805 676.000
25.79799 652.000
25.81794 665.000
25.83789 650.000
25.85783 661.000
25.87778 638.000
25.89773 661.000
25.91768 646.000
25.93762 642.000
25.95757 668.000
25.97752 628.000
25.99746 664.000
26.01741 676.000
26.03736 628.000
26.05730 713.000
26.07725 667.000
26.09720 654.000
26.11715 690.000
26.13709 669.000
26.15704 701.000
26.17699 644.000
26.19693 706.000
26.21688 658.000
26.23683 672.000
26.25677 696.000
26.27672 667.000
26.29667 745.000
26.31661 701.000
26.33656 697.000
26.35651 715.000
26.37646 719.000
26.39640 696.000
26.41635 652.000
26.43630 747.000
26.45624 647.000
26.47619 747.000
26.49614 695.000
26.51608 732.000
26.53603 721.000
26.55598 724.000
26.57593 724.000
26.59587 713.000
26.61582 737.000
26.63577 699.000
26.65571 756.000
26.67566 778.000
26.69561 717.000
26.71555 701.000
26.73550 738.000
26.75545 766.000
26.77539 714.000
26.79534 753.000
26.81529 750.000
26.83524 772.000
26.85518 699.000
26.87513 750.000
26.89508 791.000
26.91502 778.000
26.93497 747.000
26.95492 774.000
26.97486 757.000
26.99481 707.000
27.01476 769.000
27.03471 764.000
27.05465 755.000
27.07460 788.000
27.09455 718.000
27.11449 764.000
27.13444 733.000
27.15439 790.000
27.17433 774.000
27.19428 762.000
27.21423 795.000
27.23417 740.000
27.25412 770.000
27.27407 796.000
27.29402 741.000
27.31396 744.000
27.33391 805.000
27.35386 785.000
27.37380 776.000
27.39375 762.000
27.41370 733.000
27.43364 808.000
27.45359 806.000
27.47354 787.000
27.49349 745.000
27.51343 801.000
27.53338 815.000
27.55333 810.000
27.57327 801.000
27.59322 819.000
27.61317 806.000
27.63311 752.000
27.65306 825.000
27.67301 807.000
27.69296 811.000
27.71290 761.000
27.73285 814.000
27.75280 800.000
27.77274 786.000
27.79269 810.000
27.81264 844.000
27.83258 787.000
27.85253 798.000
27.87248 857.000
27.89242 813.000
27.91237 862.000
27.93232 799.000
27.95227 865.000
27.97221 818.000
27.99216 876.000
28.01211 909.000
28.03205 803.000
28.05200 815.000
28.07195 826.000
28.09189 845.000
28.11184 804.000
28.13179 877.000
28.15174 830.000
28.17168 862.000
28.19163 811.000
28.21158 842.000
28.23152 817.000
28.25147 818.000
28.27142 802.000
28.29136 799.000
28.31131 808.000
28.33126 829.000
28.35120 836.000
28.37115 895.000
28.39110 807.000
28.41105 800.000
28.43099 865.000
28.45094 893.000
28.47089 902.000
28.49083 841.000
28.51078 857.000
28.53073 797.000
28.55067 847.000
28.57062 852.000
28.59057 839.000
28.61052 831.000
28.63046 858.000
28.65041 860.000
28.67036 883.000
28.69030 869.000
28.71025 832.000
28.73020 886.000
28.75014 853.000
28.77009 898.000
28.79004 868.000
28.80998 892.000
28.82993 882.000
28.84988 863.000
28.86983 910.000
28.88977 912.000
28.90972 834.000
28.92967 864.000
28.94961 835.000
28.96956 863.000
28.98951 803.000
29.00945 870.000
29.02940 860.000
29.04935 875.000
29.06930 877.000
29.08924 878.000
29.10919 861.000
29.12914 872.000
29.14908 850.000
29.16903 867.000
29.18898 845.000
29.20892 870.000
29.22887 886.000
29.24882 908.000
29.26877 858.000
29.28871 869.000
29.30866 844.000
29.32861 858.000
29.34855 862.000
29.36850 904.000
29.38845 843.000
29.40839 915.000
29.42834 898.000
29.44829 839.000
29.46823 881.000
29.48818 917.000
29.50813 902.000
29.52808 885.000
29.54802 874.000
29.56797 884.000
29.58792 945.000
29.60786 928.000
29.62781 873.000
29.64776 886.000
29.66770 970.000
29.68765 875.000
29.70760 856.000
29.72755 900.000
29.74749 875.000
29.76744 901.000
29.78739 931.000
29.80733 896.000
29.82728 913.000
29.84723 925.000
29.86717 1001.000
29.88712 904.000
29.90707 924.000
29.92701 890.000
29.94696 866.000
29.96691 877.000
29.98686 968.000
30.00680 911.000
30.02675 907.000
30.04670 914.000
30.06664 918.000
30.08659 868.000
30.10654 938.000
30.12648 814.000
30.14643 838.000
30.16638 887.000
30.18633 889.000
30.20627 848.000
30.22622 820.000
30.24617 844.000
30.26611 921.000
30.28606 936.000
30.30601 878.000
30.32595 885.000
30.34590 887.000
30.36585 887.000
30.38579 878.000
30.40574 852.000
30.42569 912.000
30.44564 870.000
30.46558 842.000
30.48553 899.000
30.50548 768.000
30.52542 843.000
30.54537 856.000
30.56532 840.000
30.58526 821.000
30.60521 823.000
30.62516 818.000
30.64511 845.000
30.66505 892.000
30.68500 825.000
30.70495 870.000
30.72489 858.000
30.74484 807.000
30.76479 831.000
30.78473 825.000
30.80468 821.000
30.82463 912.000
30.84458 888.000
30.86452 817.000
30.88447 904.000
30.90442 809.000
30.92436 849.000
30.94431 831.000
30.96426 845.000
30.98420 777.000
31.00415 868.000
31.02410 811.000
31.04404 841.000
31.06399 809.000
31.08394 838.000
31.10389 862.000
31.12383 861.000
31.14378 817.000
31.16373 843.000
31.18367 805.000
31.20362 863.000
31.22357 882.000
31.24351 875.000
31.26346 809.000
31.28341 855.000
31.30336 839.000
31.32330 799.000
31.34325 774.000
31.36320 823.000
31.38314 812.000
31.40309 831.000
31.42304 790.000
31.44298 837.000
31.46293 827.000
31.48288 834.000
31.50282 794.000
31.52277 858.000
31.54272 844.000
31.56267 771.000
31.58261 801.000
31.60256 827.000
31.62251 826.000
31.64245 792.000
31.66240 837.000
31.68235 825.000
31.70229 810.000
31.72224 812.000
31.74219 795.000
31.76214 805.000
31.78208 791.000
31.80203 802.000
31.82198 811.000
31.84192 870.000
31.86187 810.000
31.88182 829.000
31.90176 857.000
31.92171 850.000
31.94166 888.000
31.96160 833.000
31.98155 808.000
32.00150 923.000
32.02145 854.000
32.04139 855.000
32.06134 844.000
32.08129 774.000
32.10123 827.000
32.12118 814.000
32.14113 812.000
32.16107 808.000
32.18102 805.000
32.20097 823.000
32.22092 848.000
32.24086 804.000
32.26081 826.000
32.28076 829.000
32.30070 824.000
32.32065 784.000
32.34060 799.000
32.36054 797.000
32.38049 808.000
32.40044 818.000
32.42039 815.000
32.44033 783.000
32.46028 728.000
32.48023 787.000
32.50017 775.000
32.52012 783.000
32.54007 727.000
32.56001 761.000
32.57996 781.000
32.59991 790.000
32.61985 778.000
32.63980 726.000
32.65975 762.000
32.67970 764.000
32.69964 779.000
32.71959 733.000
32.73954 774.000
32.75948 733.000
32.77943 722.000
32.79938 753.000
32.81932 805.000
32.83927 773.000
32.85922 742.000
32.87917 763.000
32.89911 784.000
32.91906 702.000
32.93901 728.000
32.95895 706.000
32.97890 768.000
32.99885 793.000
33.01879 714.000
33.03874 767.000
33.05869 741.000
33.07863 712.000
33.09858 752.000
33.11853 755.000
33.13848 703.000
33.15842 709.000
33.17837 735.000
33.19832 711.000
33.21826 743.000
33.23821 745.000
33.25816 749.000
33.27810 706.000
33.29805 769.000
33.31800 722.000
33.33795 743.000
33.35789 716.000
33.37784 799.000
33.39779 804.000
33.41773 773.000
33.43768 697.000
33.45763 758.000
33.47757 741.000
33.49752 767.000
33.51747 734.000
33.53741 778.000
33.55736 742.000
33.57731 794.000
33.59726 780.000
33.61720 754.000
33.63715 826.000
33.65710 804.000
33.67704 757.000
33.69699 795.000
33.71694 806.000
33.73688 816.000
33.75683 831.000
33.77678 848.000
33.79673 853.000
33.81667 799.000
33.83662 773.000
33.85657 776.000
33.87651 802.000
33.89646 821.000
33.91641 771.000
33.93635 826.000
33.95630 764.000
33.97625 815.000
33.99620 762.000
34.01614 805.000
34.03609 755.000
34.05604 818.000
34.07598 759.000
34.09593 707.000
34.11588 785.000
34.13582 770.000
34.15577 756.000
34.17572 702.000
34.19566 750.000
34.21561 749.000
34.23556 727.000
34.25551 700.000
34.27545 687.000
34.29540 687.000
34.31535 722.000
34.33529 726.000
34.35524 709.000
34.37519 714.000
34.39513 717.000
34.41508 772.000
34.43503 746.000
34.45498 713.000
34.47492 735.000
34.49487 714.000
34.51482 724.000
34.53476 744.000
34.55471 718.000
34.57466 734.000
34.59460 745.000
34.61455 743.000
34.63450 770.000
34.65444 728.000
34.67439 806.000
34.69434 794.000
34.71429 831.000
34.73423 837.000
34.75418 854.000
34.77413 915.000
34.79407 945.000
34.81402 999.000
34.83397 965.000
34.85391 1051.000
34.87386 1037.000
34.89381 1106.000
34.91376 1172.000
34.93370 1298.000
34.95365 1300.000
34.97360 1417.000
34.99354 1502.000
35.01349 1578.000
35.03344 1614.000
35.05338 1595.000
35.07333 1548.000
35.09328 1529.000
35.11322 1487.000
35.13317 1508.000
35.15312 1494.000
35.17307 1370.000
35.19301 1402.000
35.21296 1295.000
35.23291 1263.000
35.25285 1261.000
35.27280 1244.000
35.29275 1134.000
35.31269 1125.000
35.33264 1045.000
35.35259 1117.000
35.37254 1035.000
35.39248 1000.000
35.41243 1046.000
35.43238 946.000
35.45232 922.000
35.47227 923.000
35.49222 907.000
35.51216 849.000
35.53211 849.000
35.55206 829.000
35.57201 808.000
35.59195 744.000
35.61190 741.000
35.63185 700.000
35.65179 744.000
35.67174 685.000
35.69169 699.000
35.71163 724.000
35.73158 654.000
35.75153 717.000
35.77147 672.000
35.79142 728.000
35.81137 626.000
35.83132 663.000
35.85126 667.000
35.87121 662.000
35.89116 672.000
35.91110 668.000
35.93105 665.000
35.95100 690.000
35.97094 658.000
35.99089 724.000
36.01084 674.000
36.03079 706.000
36.05073 720.000
36.07068 672.000
36.09063 677.000
36.11057 688.000
36.13052 669.000
36.15047 685.000
36.17041 660.000
36.19036 694.000
36.21031 721.000
36.23025 713.000
36.25020 697.000
36.27015 662.000
36.29010 700.000
36.31004 700.000
36.32999 728.000
36.34994 717.000
36.36988 647.000
36.38983 715.000
36.40978 745.000
36.42972 720.000
36.44967 707.000
36.46962 701.000
36.48957 726.000
36.50951 756.000
36.52946 802.000
36.54941 807.000
36.56935 811.000
36.58930 773.000
36.60925 714.000
36.62919 787.000
36.64914 746.000
36.66909 831.000
36.68903 779.000
36.70898 800.000
36.72893 784.000
36.74888 814.000
36.76882 788.000
36.78877 739.000
36.80872 741.000
36.82866 718.000
36.84861 734.000
36.86856 703.000
36.88850 719.000
36.90845 724.000
36.92840 724.000
36.94835 677.000
36.96829 665.000
36.98824 700.000
37.00819 646.000
37.02813 672.000
37.04808 629.000
37.06803 622.000
37.08797 629.000
37.10792 645.000
37.12787 651.000
37.14781 623.000
37.16776 666.000
37.18771 616.000
37.20766 576.000
37.22760 588.000
37.24755 604.000
37.26750 642.000
37.28744 601.000
37.30739 626.000
37.32734 582.000
37.34728 598.000
37.36723 656.000
37.38718 645.000
37.40713 615.000
37.42707 614.000
37.44702 581.000
37.46697 600.000
37.48691 653.000
37.50686 601.000
37.52681 618.000
37.54675 692.000
37.56670 584.000
37.58665 635.000
37.60660 624.000
37.62654 656.000
37.64649 660.000
37.66644 649.000
37.68638 672.000
37.70633 694.000
37.72628 679.000
37.74622 659.000
37.76617 694.000
37.78612 744.000
37.80606 716.000
37.82601 710.000
37.84596 731.000
37.86591 784.000
37.88585 840.000
37.90580 828.000
37.92575 901.000
37.94569 934.000
37.96564 919.000
37.98559 988.000
38.00553 1117.000
38.02548 1217.000
38.04543 1198.000
38.06538 1354.000
38.08532 1526.000
38.10527 1588.000
38.12522 1559.000
38.14516 1543.000
38.16511 1621.000
38.18506 1555.000
38.20500 1563.000
38.22495 1491.000
38.24490 1409.000
38.26484 1337.000
38.28479 1344.000
38.30474 1263.000
38.32469 1225.000
38.34463 1138.000
38.36458 1134.000
38.38453 1093.000
38.40447 1093.000
38.42442 1169.000
38.44437 1078.000
38.46431 1080.000
38.48426 1110.000
38.50421 1021.000
38.52416 1061.000
38.54410 983.000
38.56405 989.000
38.58400 932.000
38.60394 848.000
38.62389 927.000
38.64384 796.000
38.66378 795.000
38.68373 765.000
38.70368 818.000
38.72362 747.000
38.74357 768.000
38.76352 732.000
38.78347 704.000
38.80341 790.000
38.82336 764.000
38.84331 767.000
38.86325 780.000
38.88320 740.000
38.90315 749.000
38.92309 747.000
38.94304 711.000
38.96299 657.000
38.98294 666.000
39.00288 648.000
39.02283 628.000
39.04278 664.000
39.06272 636.000
39.08267 619.000
39.10262 624.000
39.12256 605.000
39.14251 621.000
39.16246 621.000
39.18241 629.000
39.20235 543.000
39.22230 597.000
39.24225 624.000
39.26219 630.000
39.28214 610.000
39.30209 609.000
39.32203 587.000
39.34198 592.000
39.36193 624.000
39.38187 626.000
39.40182 606.000
39.42177 583.000
39.44172 587.000
39.46166 612.000
39.48161 599.000
39.50156 601.000
39.52150 573.000
39.54145 594.000
39.56140 578.000
39.58134 571.000
39.60129 644.000
39.62124 609.000
39.64119 570.000
39.66113 571.000
39.68108 592.000
39.70103 589.000
39.72097 561.000
39.74092 610.000
39.76087 555.000
39.78081 615.000
39.80076 587.000
39.82071 604.000
39.84065 583.000
39.86060 597.000
39.88055 578.000
39.90050 576.000
39.92044 615.000
39.94039 609.000
39.96034 593.000
39.98028 600.000
40.00023 585.000
40.02018 597.000
40.04012 614.000
40.06007 599.000
40.08002 580.000
40.09997 619.000
40.11991 584.000
40.13986 569.000
40.15981 565.000
40.17975 612.000
40.19970 600.000
40.21965 595.000
40.23959 564.000
40.25954 588.000
40.27949 621.000
40.29943 588.000
40.31938 607.000
40.33933 579.000
40.35928 598.000
40.37922 607.000
40.39917 579.000
40.41912 604.000
40.43906 618.000
40.45901 628.000
40.47896 603.000
40.49890 618.000
40.51885 581.000
40.53880 592.000
40.55875 600.000
40.57869 548.000
40.59864 588.000
40.61859 604.000
40.63853 584.000
40.65848 622.000
40.67843 594.000
40.69837 568.000
40.71832 601.000
40.73827 599.000
40.75822 589.000
40.77816 620.000
40.79811 624.000
40.81806 602.000
40.83800 554.000
40.85795 607.000
40.87790 588.000
40.89784 635.000
40.91779 656.000
40.93774 617.000
40.95768 550.000
40.97763 605.000
40.99758 611.000
41.01753 633.000
41.03747 558.000
41.05742 588.000
41.07737 577.000
41.09731 577.000
41.11726 594.000
41.13721 602.000
41.15715 577.000
41.17710 593.000
41.19705 588.000
41.21700 574.000
41.23694 595.000
41.25689 603.000
41.27684 589.000
41.29678 541.000
41.31673 609.000
41.33668 590.000
41.35662 591.000
41.37657 582.000
41.39652 567.000
41.41646 539.000
41.43641 608.000
41.45636 597.000
41.47631 546.000
41.49625 620.000
41.51620 600.000
41.53615 602.000
41.55609 618.000
41.57604 618.000
41.59599 601.000
41.61593 613.000
41.63588 586.000
41.65583 600.000
41.67578 585.000
41.69572 574.000
41.71567 617.000
41.73562 633.000
41.75556 574.000
41.77551 616.000
41.79546 601.000
41.81540 599.000
41.83535 597.000
41.85530 666.000
41.87524 554.000
41.89519 624.000
41.91514 630.000
41.93509 617.000
41.95503 594.000
41.97498 590.000
41.99493 626.000
42.01487 640.000
42.03482 630.000
42.05477 627.000
42.07471 635.000
42.09466 634.000
42.11461 597.000
42.13456 648.000
42.15450 587.000
42.17445 685.000
42.19440 637.000
42.21434 660.000
42.23429 663.000
42.25424 672.000
42.27418 691.000
42.29413 693.000
42.31408 668.000
42.33403 637.000
42.35397 697.000
42.37392 716.000
42.39387 664.000
42.41381 693.000
42.43376 733.000
42.45371 696.000
42.47365 759.000
42.49360 736.000
42.51355 757.000
42.53349 801.000
42.55344 760.000
42.57339 821.000
42.59334 788.000
42.61328 818.000
42.63323 791.000
42.65318 822.000
42.67312 831.000
42.69307 825.000
42.71302 836.000
42.73296 819.000
42.75291 887.000
42.77286 827.000
42.79281 821.000
42.81275 790.000
42.83270 819.000
42.85265 773.000
42.87259 799.000
42.89254 799.000
42.91249 779.000
42.93243 761.000
42.95238 804.000
42.97233 732.000
42.99227 696.000
43.01222 736.000
43.03217 713.000
43.05212 714.000
43.07206 712.000
43.09201 682.000
43.11196 691.000
43.13190 624.000
43.15185 664.000
43.17180 685.000
43.19174 660.000
43.21169 581.000
43.23164 598.000
43.25159 628.000
43.27153 614.000
43.29148 562.000
43.31143 579.000
43.33137 603.000
43.35132 593.000
43.37127 592.000
43.39121 578.000
43.41116 533.000
43.43111 538.000
43.45105 538.000
43.47100 566.000
43.49095 586.000
43.51090 537.000
43.53084 531.000
43.55079 586.000
43.57074 569.000
43.59068 578.000
43.61063 561.000
43.63058 575.000
43.65052 561.000
43.67047 550.000
43.69042 518.000
43.71037 559.000
43.73031 504.000
43.75026 538.000
43.77021 582.000
43.79015 493.000
43.81010 515.000
43.83005 562.000
43.84999 524.000
43.86994 537.000
43.88989 559.000
43.90984 530.000
43.92978 556.000
43.94973 505.000
43.96968 575.000
43.98962 505.000
44.00957 521.000
44.02952 512.000
44.04946 504.000
44.06941 526.000
44.08936 499.000
44.10930 532.000
44.12925 554.000
44.14920 546.000
44.16915 517.000
44.18909 512.000
44.20904 466.000
44.22899 535.000
44.24893 506.000
44.26888 539.000
44.28883 518.000
44.30877 550.000
44.32872 534.000
44.34867 540.000
44.36862 539.000
44.38856 489.000
44.40851 502.000
44.42846 526.000
44.44840 556.000
44.46835 505.000
44.48830 523.000
44.50824 482.000
44.52819 524.000
44.54814 517.000
44.56808 568.000
44.58803 508.000
44.60798 499.000
44.62793 491.000
44.64787 509.000
44.66782 539.000
44.68777 507.000
44.70771 501.000
44.72766 547.000
44.74761 499.000
44.76755 500.000
44.78750 505.000
44.80745 524.000
44.82740 492.000
44.84734 495.000
44.86729 496.000
44.88724 526.000
44.90718 512.000
44.92713 517.000
44.94708 518.000
44.96702 526.000
44.98697 498.000
45.00692 492.000
45.02686 512.000
45.04681 516.000
45.06676 507.000
45.08671 531.000
45.10665 552.000
45.12660 505.000
45.14655 554.000
45.16649 467.000
45.18644 520.000
45.20639 498.000
45.22633 499.000
45.24628 511.000
45.26623 496.000
45.28618 448.000
45.30612 497.000
45.32607 493.000
45.34602 521.000
45.36596 508.000
45.38591 483.000
45.40586 502.000
45.42580 494.000
45.44575 479.000
45.46570 510.000
45.48565 487.000
45.50559 467.000
45.52554 452.000
45.54549 502.000
45.56543 549.000
45.58538 450.000
45.60533 486.000
45.62527 486.000
45.64522 493.000
45.66517 486.000
45.68511 516.000
45.70506 489.000
45.72501 509.000
45.74496 541.000
45.76490 551.000
45.78485 524.000
45.80480 504.000
45.82474 528.000
45.84469 515.000
45.86464 520.000
45.88458 515.000
45.90453 504.000
45.92448 530.000
45.94443 517.000
45.96437 487.000
45.98432 509.000
46.00427 464.000
46.02421 478.000
46.04416 513.000
46.06411 488.000
46.08405 518.000
46.10400 482.000
46.12395 506.000
46.14389 508.000
46.16384 516.000
46.18379 488.000
46.20374 494.000
46.22368 484.000
46.24363 510.000
46.26358 446.000
46.28352 519.000
46.30347 502.000
46.32342 469.000
46.34336 487.000
46.36331 480.000
46.38326 471.000
46.40321 480.000
46.42315 479.000
46.44310 480.000
46.46305 479.000
46.48299 442.000
46.50294 469.000
46.52289 447.000
46.54283 452.000
46.56278 449.000
46.58273 477.000
46.60267 472.000
46.62262 464.000
46.64257 441.000
46.66252 472.000
46.68246 472.000
46.70241 500.000
46.72236 477.000
46.74230 482.000
46.76225 460.000
46.78220 457.000
46.80214 512.000
46.82209 503.000
46.84204 460.000
46.86199 432.000
46.88193 474.000
46.90188 484.000
46.92183 450.000
46.94177 503.000
46.96172 507.000
46.98167 415.000
47.00161 458.000
47.02156 500.000
47.04151 477.000
47.06146 464.000
47.08140 473.000
47.10135 496.000
47.12130 453.000
47.14124 469.000
47.16119 476.000
47.18114 474.000
47.20108 496.000
47.22103 455.000
47.24098 479.000
47.26092 422.000
47.28087 465.000
47.30082 463.000
47.32077 462.000
47.34071 450.000
47.36066 465.000
47.38061 455.000
47.40055 451.000
47.42050 435.000
47.44045 481.000
47.46039 458.000
47.48034 459.000
47.50029 456.000
47.52024 412.000
47.54018 476.000
47.56013 467.000
47.58008 417.000
47.60002 431.000
47.61997 494.000
47.63992 462.000
47.65986 458.000
47.67981 491.000
47.69976 472.000
47.71970 497.000
47.73965 497.000
47.75960 480.000
47.77955 460.000
47.79949 491.000
47.81944 416.000
47.83939 444.000
47.85933 446.000
47.87928 469.000
47.89923 472.000
47.91917 458.000
47.93912 479.000
47.95907 514.000
47.97902 466.000
47.99896 467.000
48.01891 461.000
48.03886 494.000
48.05880 458.000
48.07875 495.000
48.09870 527.000
48.11864 523.000
48.13859 447.000
48.15854 581.000
48.17848 541.000
48.19843 529.000
48.21838 557.000
48.23833 578.000
48.25827 580.000
48.27822 631.000
48.29817 637.000
48.31811 682.000
48.33806 673.000
48.35801 677.000
48.37795 690.000
48.39790 708.000
48.41785 716.000
48.43780 684.000
48.45774 678.000
48.47769 664.000
48.49764 747.000
48.51758 702.000
48.53753 672.000
48.55748 700.000
48.57742 643.000
48.59737 656.000
48.61732 652.000
48.63726 661.000
48.65721 632.000
48.67716 620.000
48.69711 660.000
48.71705 635.000
48.73700 683.000
48.75695 613.000
48.77689 604.000
48.79684 571.000
48.81679 586.000
48.83673 563.000
48.85668 597.000
48.87663 544.000
48.89658 500.000
48.91652 506.000
48.93647 498.000
48.95642 491.000
48.97636 525.000
48.99631 467.000
49.01626 466.000
49.03620 480.000
49.05615 457.000
49.07610 478.000
49.09605 454.000
49.11599 461.000
49.13594 510.000
49.15589 442.000
49.17583 465.000
49.19578 464.000
49.21573 468.000
49.23567 480.000
49.25562 490.000
49.27557 473.000
49.29551 453.000
49.31546 431.000
49.33541 478.000
49.35536 474.000
49.37530 446.000
49.39525 444.000
49.41520 431.000
49.43514 451.000
49.45509 445.000
49.47504 397.000
49.49498 483.000
49.51493 443.000
49.53488 450.000
49.55483 475.000
49.57477 475.000
49.59472 464.000
49.61467 470.000
49.63461 442.000
49.65456 436.000
49.67451 496.000
49.69445 462.000
49.71440 451.000
49.73435 431.000
49.75429 383.000
49.77424 444.000
49.79419 446.000
49.81414 429.000
49.83408 470.000
49.85403 452.000
49.87398 449.000
49.89392 410.000
49.91387 455.000
49.93382 397.000
49.95376 486.000
49.97371 423.000
49.99366 454.000
50.01361 441.000
50.03355 459.000
50.05350 447.000
50.07345 464.000
50.09339 471.000
50.11334 450.000
50.13329 425.000
50.15323 444.000
50.17318 476.000
50.19313 465.000
50.21307 452.000
50.23302 461.000
50.25297 442.000
50.27292 436.000
50.29286 434.000
50.31281 455.000
50.33276 449.000
50.35270 433.000
50.37265 439.000
50.39260 441.000
50.41254 448.000
50.43249 407.000
50.45244 444.000
50.47239 425.000
50.49233 446.000
50.51228 440.000
50.53223 448.000
50.55217 458.000
50.57212 439.000
50.59207 446.000
50.61201 435.000
50.63196 434.000
50.65191 441.000
50.67186 466.000
50.69180 443.000
50.71175 466.000
50.73170 452.000
50.75164 440.000
50.77159 503.000
50.79154 452.000
50.81148 471.000
50.83143 408.000
50.85138 456.000
50.87132 463.000
50.89127 430.000
50.91122 455.000
50.93117 429.000
50.95111 436.000
50.97106 432.000
50.99101 454.000
51.01095 420.000
51.03090 419.000
51.05085 452.000
51.07079 450.000
51.09074 467.000
51.11069 454.000
51.13064 429.000
51.15058 439.000
51.17053 465.000
51.19048 418.000
51.21042 426.000
51.23037 485.000
51.25032 451.000
51.27026 431.000
51.29021 451.000
51.31016 473.000
51.33010 445.000
51.35005 447.000
51.37000 459.000
51.38995 474.000
51.40989 447.000
51.42984 429.000
51.44979 412.000
51.46973 438.000
51.48968 413.000
51.50963 423.000
51.52957 428.000
51.54952 450.000
51.56947 448.000
51.58942 442.000
51.60936 444.000
51.62931 441.000
51.64926 459.000
51.66920 466.000
51.68915 454.000
51.70910 442.000
51.72904 459.000
51.74899 469.000
51.76894 450.000
51.78888 475.000
51.80883 436.000
51.82878 477.000
51.84873 438.000
51.86867 455.000
51.88862 462.000
51.90857 419.000
51.92851 412.000
51.94846 441.000
51.96841 455.000
51.98835 440.000
52.00830 435.000
52.02825 437.000
52.04820 424.000
52.06814 428.000
52.08809 435.000
52.10804 448.000
52.12798 376.000
52.14793 430.000
52.16788 418.000
52.18782 442.000
52.20777 465.000
52.22772 443.000
52.24767 453.000
52.26761 472.000
52.28756 432.000
52.30751 439.000
52.32745 403.000
52.34740 457.000
52.36735 469.000
52.38729 487.000
52.40724 453.000
52.42719 475.000
52.44713 445.000
52.46708 476.000
52.48703 462.000
52.50698 424.000
52.52692 479.000
52.54687 431.000
52.56682 463.000
52.58676 475.000
52.60671 473.000
52.62666 457.000
52.64660 472.000
52.66655 479.000
52.68650 509.000
52.70645 475.000
52.72639 478.000
52.74634 506.000
52.76629 523.000
52.78623 508.000
52.80618 520.000
52.82613 503.000
52.84607 534.000
52.86602 502.000
52.88597 480.000
52.90591 511.000
52.92586 491.000
52.94581 520.000
52.96576 494.000
52.98570 516.000
53.00565 492.000
53.02560 526.000
53.04554 491.000
53.06549 526.000
53.08544 517.000
53.10538 471.000
53.12533 487.000
53.14528 468.000
53.16523 461.000
53.18517 492.000
53.20512 525.000
53.22507 531.000
53.24501 459.000
53.26496 476.000
53.28491 504.000
53.30485 471.000
53.32480 502.000
53.34475 490.000
53.36469 481.000
53.38464 520.000
53.40459 485.000
53.42454 491.000
53.44448 486.000
53.46443 460.000
53.48438 503.000
53.50432 461.000
53.52427 503.000
53.54422 440.000
53.56416 446.000
53.58411 489.000
53.60406 448.000
53.62401 462.000
53.64395 463.000
53.66390 443.000
53.68385 472.000
53.70379 414.000
53.72374 456.000
53.74369 474.000
53.76363 431.000
53.78358 437.000
53.80353 429.000
53.82348 444.000
53.84342 432.000
53.86337 438.000
53.88332 437.000
53.90326 403.000
53.92321 396.000
53.94316 467.000
53.96310 442.000
53.98305 444.000
54.00300 431.000
54.02294 450.000
54.04289 434.000
54.06284 436.000
54.08279 473.000
54.10273 426.000
54.12268 455.000
54.14263 447.000
54.16257 437.000
54.18252 388.000
54.20247 419.000
54.22241 410.000
54.24236 426.000
54.26231 468.000
54.28226 407.000
54.30220 416.000
54.32215 434.000
54.34210 435.000
54.36204 451.000
54.38199 445.000
54.40194 410.000
54.42188 412.000
54.44183 445.000
54.46178 477.000
54.48172 414.000
54.50167 409.000
54.52162 428.000
54.54157 400.000
54.56151 443.000
54.58146 428.000
54.60141 403.000
54.62135 424.000
54.64130 475.000
54.66125 411.000
54.68119 415.000
54.70114 453.000
54.72109 444.000
54.74104 453.000
54.76098 457.000
54.78093 425.000
54.80088 445.000
54.82082 448.000
54.84077 451.000
54.86072 446.000
54.88066 416.000
54.90061 399.000
54.92056 416.000
54.94050 418.000
54.96045 404.000
54.98040 454.000
55.00035 433.000
55.02029 434.000
55.04024 457.000
55.06019 443.000
55.08013 451.000
55.10008 426.000
55.12003 442.000
55.13997 456.000
55.15992 416.000
55.17987 423.000
55.19982 415.000
55.21976 387.000
55.23971 393.000
55.25966 432.000
55.27960 416.000
55.29955 445.000
55.31950 427.000
55.33944 436.000
55.35939 423.000
55.37934 430.000
55.39929 426.000
55.41923 455.000
55.43918 434.000
55.45913 385.000
55.47907 442.000
55.49902 418.000
55.51897 442.000
55.53891 432.000
55.55886 421.000
55.57881 401.000
55.59875 436.000
55.61870 430.000
55.63865 450.000
55.65860 408.000
55.67854 430.000
55.69849 432.000
55.71844 445.000
55.73838 414.000
55.75833 418.000
55.77828 381.000
55.79822 464.000
55.81817 453.000
55.83812 458.000
55.85807 450.000
55.87801 428.000
55.89796 391.000
55.91791 400.000
55.93785 416.000
55.95780 442.000
55.97775 433.000
55.99769 373.000
56.01764 464.000
56.03759 419.000
56.05753 406.000
56.07748 413.000
56.09743 467.000
56.11738 447.000
56.13732 469.000
56.15727 433.000
56.17722 426.000
56.19716 457.000
56.21711 414.000
56.23706 425.000
56.25700 445.000
56.27695 444.000
56.29690 450.000
56.31685 407.000
56.33679 394.000
56.35674 388.000
56.37669 374.000
56.39663 462.000
56.41658 438.000
56.43653 470.000
56.45647 390.000
56.47642 437.000
56.49637 447.000
56.51631 422.000
56.53626 434.000
56.55621 446.000
56.57616 441.000
56.59610 454.000
56.61605 455.000
56.63600 453.000
56.65594 459.000
56.67589 462.000
56.69584 466.000
56.71578 460.000
56.73573 468.000
56.75568 448.000
56.77563 509.000
56.79557 513.000
56.81552 466.000
56.83547 544.000
56.85541 488.000
56.87536 502.000
56.89531 549.000
56.91525 527.000
56.93520 491.000
56.95515 477.000
56.97510 523.000
56.99504 495.000
57.01499 519.000
57.03494 521.000
57.05488 504.000
57.07483 476.000
57.09478 523.000
57.11472 469.000
57.13467 482.000
57.15462 518.000
57.17456 511.000
57.19451 489.000
57.21446 477.000
57.23441 454.000
57.25435 486.000
57.27430 437.000
57.29425 443.000
57.31419 477.000
57.33414 481.000
57.35409 479.000
57.37403 440.000
57.39398 490.000
57.41393 442.000
57.43388 426.000
57.45382 479.000
57.47377 431.000
57.49372 462.000
57.51366 458.000
57.53361 511.000
57.55356 476.000
57.57350 497.000
57.59345 507.000
57.61340 493.000
57.63334 530.000
57.65329 530.000
57.67324 572.000
57.69319 587.000
57.71313 595.000
57.73308 566.000
57.75303 601.000
57.77297 648.000
57.79292 638.000
57.81287 637.000
57.83281 653.000
57.85276 581.000
57.87271 568.000
57.89266 597.000
57.91260 549.000
57.93255 609.000
57.95250 589.000
57.97244 568.000
57.99239 566.000
58.01234 516.000
58.03228 557.000
58.05223 501.000
58.07218 522.000
58.09212 458.000
58.11207 457.000
58.13202 494.000
58.15197 478.000
58.17191 465.000
58.19186 481.000
58.21181 449.000
58.23175 448.000
58.25170 483.000
58.27165 403.000
58.29159 457.000
58.31154 437.000
58.33149 421.000
58.35144 438.000
58.37138 452.000
58.39133 446.000
58.41128 457.000
58.43122 453.000
58.45117 475.000
58.47112 457.000
58.49106 433.000
58.51101 421.000
58.53096 401.000
58.55090 458.000
58.57085 424.000
58.59080 415.000
58.61075 453.000
58.63069 442.000
58.65064 391.000
58.67059 426.000
58.69053 439.000
58.71048 450.000
58.73043 437.000
58.75037 444.000
58.77032 495.000
58.79027 404.000
58.81022 427.000
58.83016 466.000
58.85011 452.000
58.87006 440.000
58.89000 397.000
58.90995 432.000
58.92990 425.000
58.94984 429.000
58.96979 411.000
58.98974 475.000
59.00969 431.000
59.02963 469.000
59.04958 415.000
59.06953 458.000
59.08947 445.000
59.10942 435.000
59.12937 452.000
59.14931 423.000
59.16926 436.000
59.18921 413.000
59.20915 430.000
59.22910 418.000
59.24905 423.000
59.26900 448.000
59.28894 416.000
59.30889 456.000
59.32884 427.000
59.34878 452.000
59.36873 431.000
59.38868 448.000
59.40862 428.000
59.42857 453.000
59.44852 428.000
59.46847 416.000
59.48841 433.000
59.50836 413.000
59.52831 447.000
59.54825 398.000
59.56820 409.000
59.58815 422.000
59.60809 413.000
59.62804 469.000
59.64799 445.000
59.66793 403.000
59.68788 450.000
59.70783 449.000
59.72778 406.000
59.74772 432.000
59.76767 419.000
59.78762 415.000
59.80756 424.000
59.82751 434.000
59.84746 430.000
59.86740 433.000
59.88735 440.000
59.90730 393.000
59.92725 451.000
59.94719 406.000
59.96714 468.000
59.98709 423.000
60.00703 422.000
60.02698 407.000
60.04693 446.000
60.06687 461.000
60.08682 455.000
60.10677 435.000
60.12671 467.000
60.14666 445.000
60.16661 437.000
60.18656 431.000
60.20650 463.000
60.22645 480.000
60.24640 450.000
60.26634 470.000
60.28629 440.000
60.30624 444.000
60.32618 466.000
60.34613 465.000
60.36608 446.000
60.38603 476.000
60.40597 427.000
60.42592 451.000
60.44587 450.000
60.46581 421.000
60.48576 439.000
60.50571 439.000
60.52565 481.000
60.54560 455.000
60.56555 437.000
60.58550 467.000
60.60544 449.000
60.62539 482.000
60.64534 464.000
60.66528 458.000
60.68523 513.000
60.70518 496.000
60.72512 487.000
60.74507 491.000
60.76502 484.000
60.78496 509.000
60.80491 473.000
60.82486 485.000
60.84481 529.000
60.86475 486.000
60.88470 557.000
60.90465 547.000
60.92459 580.000
60.94454 556.000
60.96449 596.000
60.98443 606.000
61.00438 645.000
61.02433 673.000
61.04428 683.000
61.06422 615.000
61.08417 646.000
61.10412 614.000
61.12406 603.000
61.14401 638.000
61.16396 646.000
61.18390 616.000
61.20385 624.000
61.22380 629.000
61.24374 666.000
61.26369 614.000
61.28364 585.000
61.30359 595.000
61.32353 625.000
61.34348 624.000
61.36343 625.000
61.38337 672.000
61.40332 561.000
61.42327 559.000
61.44321 566.000
61.46316 522.000
61.48311 567.000
61.50306 536.000
61.52300 553.000
61.54295 551.000
61.56290 517.000
61.58284 510.000
61.60279 514.000
61.62274 515.000
61.64268 501.000
61.66263 476.000
61.68258 493.000
61.70252 529.000
61.72247 542.000
61.74242 490.000
61.76237 526.000
61.78231 544.000
61.80226 515.000
61.82221 542.000
61.84215 504.000
61.86210 526.000
61.88205 524.000
61.90199 540.000
61.92194 520.000
61.94189 547.000
61.96184 500.000
61.98178 534.000
62.00173 541.000
62.02168 537.000
62.04162 543.000
62.06157 552.000
62.08152 587.000
62.10146 579.000
62.12141 569.000
62.14136 560.000
62.16131 570.000
62.18125 599.000
62.20120 608.000
62.22115 607.000
62.24109 583.000
62.26104 573.000
62.28099 577.000
62.30093 593.000
62.32088 584.000
62.34083 649.000
62.36077 668.000
62.38072 690.000
62.40067 637.000
62.42062 664.000
62.44056 658.000
62.46051 705.000
62.48046 659.000
62.50040 584.000
62.52035 699.000
62.54030 635.000
62.56024 642.000
62.58019 639.000
62.60014 610.000
62.62009 586.000
62.64003 659.000
62.65998 654.000
62.67993 588.000
62.69987 585.000
62.71982 592.000
62.73977 562.000
62.75971 555.000
62.77966 550.000
62.79961 545.000
62.81955 543.000
62.83950 522.000
62.85945 494.000
62.87940 498.000
62.89934 537.000
62.91929 514.000
62.93924 497.000
62.95918 480.000
62.97913 454.000
62.99908 473.000
63.01902 471.000
63.03897 517.000
63.05892 461.000
63.07887 407.000
63.09881 450.000
63.11876 434.000
63.13871 427.000
63.15865 452.000
63.17860 442.000
63.19855 461.000
63.21849 426.000
63.23844 427.000
63.25839 416.000
63.27833 426.000
63.29828 449.000
63.31823 436.000
63.33818 426.000
63.35812 406.000
63.37807 409.000
63.39802 473.000
63.41796 441.000
63.43791 431.000
63.45786 399.000
63.47780 442.000
63.49775 452.000
63.51770 441.000
63.53765 423.000
63.55759 444.000
63.57754 434.000
63.59749 420.000
63.61743 398.000
63.63738 441.000
63.65733 425.000
63.67727 405.000
63.69722 416.000
63.71717 402.000
63.73712 432.000
63.75706 445.000
63.77701 397.000
63.79696 410.000
63.81690 428.000
63.83685 439.000
63.85680 404.000
63.87674 438.000
63.89669 430.000
63.91664 424.000
63.93658 424.000
63.95653 431.000
63.97648 377.000
63.99643 409.000
64.01637 412.000
64.03632 404.000
64.05627 419.000
64.07621 418.000
64.09616 455.000
64.11611 404.000
64.13605 407.000
64.15600 452.000
64.17595 403.000
64.19590 465.000
64.21584 451.000
64.23579 436.000
64.25574 410.000
64.27568 454.000
64.29563 450.000
64.31558 444.000
64.33552 443.000
64.35547 450.000
64.37542 422.000
64.39536 460.000
64.41531 442.000
64.43526 450.000
64.45521 427.000
64.47515 399.000
64.49510 413.000
64.51505 408.000
64.53499 412.000
64.55494 441.000
64.57489 460.000
64.59483 427.000
64.61478 424.000
64.63473 435.000
64.65468 408.000
64.67462 434.000
64.69457 438.000
64.71452 449.000
64.73446 429.000
64.75441 463.000
64.77436 447.000
64.79430 440.000
64.81425 470.000
64.83420 462.000
64.85414 434.000
64.87409 461.000
64.89404 464.000
64.91399 487.000
64.93393 492.000
64.95388 476.000
64.97383 526.000
64.99377 542.000
65.01372 514.000
65.03367 555.000
65.05361 585.000
65.07356 535.000
65.09351 543.000
65.11346 554.000
65.13340 535.000
65.15335 559.000
65.17330 548.000
65.19324 587.000
65.21319 574.000
65.23314 568.000
65.25308 602.000
65.27303 597.000
65.29298 547.000
65.31293 539.000
65.33287 552.000
65.35282 550.000
65.37277 518.000
65.39271 563.000
65.41266 558.000
65.43261 542.000
65.45255 524.000
65.47250 516.000
65.49245 506.000
65.51239 500.000
65.53234 483.000
65.55229 513.000
65.57224 526.000
65.59218 515.000
65.61213 465.000
65.63208 461.000
65.65202 482.000
65.67197 453.000
65.69192 488.000
65.71186 456.000
65.73181 461.000
65.75176 483.000
65.77171 549.000
65.79165 490.000
65.81160 492.000
65.83155 536.000
65.85149 532.000
65.87144 520.000
65.89139 560.000
65.91133 562.000
65.93128 562.000
65.95123 578.000
65.97117 580.000
65.99112 566.000
66.01107 537.000
66.03102 537.000
66.05096 588.000
66.07091 610.000
66.09086 574.000
66.11080 607.000
66.13075 623.000
66.15070 559.000
66.17064 554.000
66.19059 571.000
66.21054 519.000
66.23049 516.000
66.25043 536.000
66.27038 545.000
66.29033 522.000
66.31027 511.000
66.33022 483.000
66.35017 537.000
66.37011 506.000
66.39006 484.000
66.41001 458.000
66.42995 475.000
66.44990 466.000
66.46985 432.000
66.48980 480.000
66.50974 420.000
66.52969 436.000
66.54964 433.000
66.56958 402.000
66.58953 486.000
66.60948 485.000
66.62942 436.000
66.64937 461.000
66.66932 458.000
66.68927 433.000
66.70921 434.000
66.72916 424.000
66.74911 431.000
66.76905 437.000
66.78900 418.000
66.80895 428.000
66.82889 439.000
66.84884 444.000
66.86879 427.000
66.88874 477.000
66.90868 475.000
66.92863 445.000
66.94858 447.000
66.96852 434.000
66.98847 448.000
67.00842 499.000
67.02836 449.000
67.04831 506.000
67.06826 457.000
67.08820 512.000
67.10815 474.000
67.12810 461.000
67.14805 536.000
67.16799 499.000
67.18794 516.000
67.20789 505.000
67.22783 505.000
67.24778 543.000
67.26773 577.000
67.28767 551.000
67.30762 565.000
67.32757 573.000
67.34752 530.000
67.36746 594.000
67.38741 597.000
67.40736 593.000
67.42730 624.000
67.44725 609.000
67.46720 651.000
67.48714 646.000
67.50709 642.000
67.52704 669.000
67.54698 672.000
67.56693 681.000
67.58688 625.000
67.60683 644.000
67.62677 685.000
67.64672 654.000
67.66667 622.000
67.68661 602.000
67.70656 597.000
67.72651 594.000
67.74645 577.000
67.76640 538.000
67.78635 560.000
67.80630 580.000
67.82624 538.000
67.84619 504.000
67.86614 486.000
67.88608 497.000
67.90603 510.000
67.92598 480.000
67.94592 471.000
67.96587 458.000
67.98582 442.000
68.00576 459.000
68.02571 501.000
68.04566 445.000
68.06561 456.000
68.08555 435.000
68.10550 438.000
68.12545 449.000
68.14539 427.000
68.16534 434.000
68.18529 444.000
68.20523 414.000
68.22518 382.000
68.24513 423.000
68.26508 409.000
68.28502 461.000
68.30497 431.000
68.32492 432.000
68.34486 410.000
68.36481 435.000
68.38476 448.000
68.40470 433.000
68.42465 420.000
68.44460 441.000
68.46455 411.000
68.48449 440.000
68.50444 420.000
68.52439 415.000
68.54433 430.000
68.56428 399.000
68.58423 423.000
68.60417 415.000
68.62412 436.000
68.64407 406.000
68.66401 386.000
68.68396 405.000
68.70391 432.000
68.72386 432.000
68.74380 418.000
68.76375 412.000
68.78370 352.000
68.80364 390.000
68.82359 428.000
68.84354 432.000
68.86348 398.000
68.88343 458.000
68.90338 379.000
68.92333 416.000
68.94327 411.000
68.96322 411.000
68.98317 409.000
69.00311 382.000
69.02306 404.000
69.04301 439.000
69.06295 420.000
69.08290 401.000
69.10285 412.000
69.12279 406.000
69.14274 415.000
69.16269 393.000
69.18264 395.000
69.20258 444.000
69.22253 409.000
69.24248 424.000
69.26242 404.000
69.28237 406.000
69.30232 367.000
69.32226 402.000
69.34221 407.000
69.36216 386.000
69.38211 451.000
69.40205 448.000
69.42200 394.000
69.44195 403.000
69.46189 391.000
69.48184 401.000
69.50179 410.000
69.52173 415.000
69.54168 467.000
69.56163 414.000
69.58157 428.000
69.60152 403.000
69.62147 409.000
69.64142 400.000
69.66136 395.000
69.68131 409.000
69.70126 411.000
69.72120 396.000
69.74115 379.000
69.76110 398.000
69.78104 414.000
69.80099 428.000
69.82094 420.000
69.84089 410.000
69.86083 436.000
69.88078 412.000
69.90073 400.000
69.92067 382.000
69.94062 395.000
69.96057 369.000
69.98051 394.000
70.00046 421.000
70.02041 403.000
70.04035 411.000
70.06030 405.000
70.08025 383.000
70.10020 398.000
70.12014 426.000
70.14009 383.000
70.16004 440.000
70.17998 403.000
70.19993 431.000
70.21988 404.000
70.23982 446.000
70.25977 382.000
70.27972 408.000
70.29967 401.000
70.31961 417.000
70.33956 398.000
70.35951 412.000
70.37945 408.000
70.39940 419.000
70.41935 398.000
70.43929 398.000
70.45924 428.000
70.47919 391.000
70.49914 404.000
70.51908 432.000
70.53903 408.000
70.55898 410.000
70.57892 397.000
70.59887 396.000
70.61882 447.000
70.63876 428.000
70.65871 400.000
70.67866 399.000
70.69860 421.000
70.71855 398.000
70.73850 420.000
70.75845 408.000
70.77839 404.000
70.79834 418.000
70.81829 400.000
70.83823 419.000
70.85818 430.000
70.87813 383.000
70.89807 399.000
70.91802 435.000
70.93797 426.000
70.95792 439.000
70.97786 434.000
70.99781 411.000
71.01776 408.000
71.03770 437.000
71.05765 423.000
71.07760 441.000
71.09754 469.000
71.11749 429.000
71.13744 425.000
71.15738 401.000
71.17733 423.000
71.19728 399.000
71.21723 441.000
71.23717 436.000
71.25712 460.000
71.27707 450.000
71.29701 405.000
71.31696 433.000
71.33691 402.000
71.35685 406.000
71.37680 405.000
71.39675 451.000
71.41670 417.000
71.43664 411.000
71.45659 420.000
71.47654 410.000
71.49648 424.000
71.51643 397.000
71.53638 444.000
71.55632 453.000
71.57627 450.000
71.59622 437.000
71.61616 422.000
71.63611 406.000
71.65606 433.000
71.67601 414.000
71.69595 415.000
71.71590 439.000
71.73585 454.000
71.75579 428.000
71.77574 464.000
71.79569 459.000
71.81563 471.000
71.83558 453.000
71.85553 452.000
71.87548 486.000
71.89542 466.000
71.91537 525.000
71.93532 467.000
71.95526 571.000
71.97521 501.000
71.99516 492.000
72.01510 529.000
72.03505 538.000
72.05500 505.000
72.07495 482.000
72.09489 482.000
72.11484 486.000
72.13479 477.000
72.15473 509.000
72.17468 498.000
72.19463 499.000
72.21457 524.000
72.23452 460.000
72.25447 464.000
72.27441 475.000
72.29436 453.000
72.31431 479.000
72.33426 466.000
72.35420 417.000
72.37415 461.000
72.39410 433.000
72.41404 433.000
72.43399 427.000
72.45394 427.000
72.47388 449.000
72.49383 441.000
72.51378 391.000
72.53373 444.000
72.55367 428.000
72.57362 403.000
72.59357 430.000
72.61351 449.000
72.63346 400.000
72.65341 423.000
72.67335 379.000
72.69330 432.000
72.71325 376.000
72.73319 401.000
72.75314 407.000
72.77309 377.000
72.79304 421.000
72.81298 443.000
72.83293 447.000
72.85288 396.000
72.87282 383.000
72.89277 418.000
72.91272 418.000
72.93266 408.000
72.95261 433.000
72.97256 417.000
72.99251 419.000
73.01245 438.000
73.03240 417.000
73.05235 396.000
73.07229 417.000
73.09224 415.000
73.11219 390.000
73.13213 373.000
73.15208 429.000
73.17203 407.000
73.19197 408.000
73.21192 375.000
73.23187 410.000
73.25182 411.000
73.27176 419.000
73.29171 405.000
73.31166 443.000
73.33160 397.000
73.35155 409.000
73.37150 432.000
73.39144 401.000
73.41139 421.000
73.43134 426.000
73.45129 398.000
73.47123 402.000
73.49118 366.000
73.51113 414.000
73.53107 398.000
73.55102 426.000
73.57097 441.000
73.59091 428.000
73.61086 431.000
73.63081 400.000
73.65076 392.000
73.67070 391.000
73.69065 413.000
73.71060 437.000
73.73054 455.000
73.75049 426.000
73.77044 392.000
73.79038 404.000
73.81033 419.000
73.83028 460.000
73.85022 452.000
73.87017 420.000
73.89012 440.000
73.91007 415.000
73.93001 401.000
73.94996 438.000
73.96991 406.000
73.98985 447.000
74.00980 428.000
74.02975 463.000
74.04969 439.000
74.06964 459.000
74.08959 453.000
74.10954 450.000
74.12948 441.000
74.14943 470.000
74.16938 461.000
74.18932 461.000
74.20927 469.000
74.22922 472.000
74.24916 474.000
74.26911 465.000
74.28906 460.000
74.30900 471.000
74.32895 479.000
74.34890 485.000
74.36885 495.000
74.38879 543.000
74.40874 574.000
74.42869 518.000
74.44863 534.000
74.46858 540.000
74.48853 561.000
74.50847 543.000
74.52842 512.000
74.54837 561.000
74.56832 579.000
74.58826 556.000
74.60821 627.000
74.62816 601.000
74.64810 579.000
74.66805 520.000
74.68800 563.000
74.70794 536.000
74.72789 588.000
74.74784 571.000
74.76778 566.000
74.78773 516.000
74.80768 591.000
74.82763 570.000
74.84757 578.000
74.86752 560.000
74.88747 563.000
74.90741 592.000
74.92736 527.000
74.94731 525.000
74.96725 551.000
74.98720 503.000
75.00715 544.000
75.02710 531.000
75.04704 505.000
75.06699 501.000
75.08694 517.000
75.10688 513.000
75.12683 454.000
75.14678 489.000
75.16672 473.000
75.18667 455.000
75.20662 466.000
75.22657 417.000
75.24651 429.000
75.26646 413.000
75.28641 443.000
75.30635 433.000
75.32630 431.000
75.34625 466.000
75.36619 386.000
75.38614 447.000
75.40609 442.000
75.42603 437.000
75.44598 445.000
75.46593 396.000
75.48588 407.000
75.50582 419.000
75.52577 418.000
75.54572 450.000
75.56566 412.000
75.58561 386.000
75.60556 373.000
75.62550 419.000
75.64545 406.000
75.66540 419.000
75.68535 375.000
75.70529 420.000
75.72524 411.000
75.74519 415.000
75.76513 435.000
75.78508 403.000
75.80503 372.000
75.82497 408.000
75.84492 424.000
75.86487 383.000
75.88481 442.000
75.90476 404.000
75.92471 422.000
75.94466 402.000
75.96460 393.000
75.98455 442.000
76.00450 430.000
76.02444 427.000
76.04439 398.000
76.06434 383.000
76.08428 455.000
76.10423 400.000
76.12418 431.000
76.14413 428.000
76.16407 401.000
76.18402 416.000
76.20397 427.000
76.22391 430.000
76.24386 415.000
76.26381 427.000
76.28375 412.000
76.30370 355.000
76.32365 407.000
76.34359 422.000
76.36354 387.000
76.38349 378.000
76.40344 440.000
76.42338 397.000
76.44333 410.000
76.46328 410.000
76.48322 418.000
76.50317 403.000
76.52312 421.000
76.54306 448.000
76.56301 447.000
76.58296 460.000
76.60291 410.000
76.62285 385.000
76.64280 374.000
76.66275 428.000
76.68269 424.000
76.70264 391.000
76.72259 413.000
76.74253 384.000
76.76248 386.000
76.78243 398.000
76.80238 387.000
76.82232 422.000
76.84227 407.000
76.86222 437.000
76.88216 443.000
76.90211 404.000
76.92206 386.000
76.94200 404.000
76.96195 434.000
76.98190 390.000
77.00184 405.000
77.02179 396.000
77.04174 398.000
77.06169 421.000
77.08163 414.000
77.10158 355.000
77.12153 405.000
77.14147 424.000
77.16142 366.000
77.18137 414.000
77.20131 401.000
77.22126 433.000
77.24121 385.000
77.26116 434.000
77.28110 382.000
77.30105 425.000
77.32100 398.000
77.34094 429.000
77.36089 428.000
77.38084 405.000
77.40078 377.000
77.42073 408.000
77.44068 463.000
77.46062 412.000
77.48057 440.000
77.50052 400.000
77.52047 426.000
77.54041 448.000
77.56036 435.000
77.58031 414.000
77.60025 431.000
77.62020 425.000
77.64015 382.000
77.66009 423.000
77.68004 414.000
77.69999 422.000
77.71994 418.000
77.73988 391.000
77.75983 423.000
77.77978 438.000
77.79972 412.000
77.81967 403.000
77.83962 438.000
77.85956 388.000
77.87951 447.000
77.89946 416.000
77.91940 434.000
77.93935 431.000
77.95930 405.000
77.97925 415.000
77.99919 424.000
78.01914 401.000
78.03909 417.000
78.05903 429.000
78.07898 414.000
78.09893 426.000
78.11887 407.000
78.13882 442.000
78.15877 403.000
78.17872 404.000
78.19866 408.000
78.21861 422.000
78.23856 433.000
78.25850 442.000
78.27845 387.000
78.29840 463.000
78.31834 460.000
78.33829 445.000
78.35824 427.000
78.37819 426.000
78.39813 403.000
78.41808 378.000
78.43803 425.000
78.45797 435.000
78.47792 405.000
78.49787 452.000
78.51781 428.000
78.53776 418.000
78.55771 447.000
78.57765 440.000
78.59760 443.000
78.61755 446.000
78.63750 408.000
78.65744 425.000
78.67739 423.000
78.69734 429.000
78.71728 457.000
78.73723 439.000
78.75718 436.000
78.77712 443.000
78.79707 430.000
78.81702 442.000
78.83697 429.000
78.85691 447.000
78.87686 449.000
78.89681 425.000
78.91675 450.000
78.93670 403.000
78.95665 429.000
78.97659 461.000
78.99654 448.000
79.01649 433.000
79.03643 437.000
79.05638 419.000
79.07633 473.000
79.09628 462.000
79.11622 432.000
79.13617 421.000
79.15612 410.000
79.17606 451.000
79.19601 436.000
79.21596 423.000
79.23590 466.000
79.25585 397.000
79.27580 435.000
79.29575 419.000
79.31569 415.000
79.33564 418.000
79.35559 402.000
79.37553 399.000
79.39548 380.000
79.41543 401.000
79.43537 419.000
79.45532 403.000
79.47527 431.000
79.49521 400.000
79.51516 389.000
79.53511 414.000
79.55506 445.000
79.57500 394.000
79.59495 436.000
79.61490 408.000
79.63484 407.000
79.65479 383.000
79.67474 425.000
79.69468 392.000
79.71463 414.000
79.73458 393.000
79.75453 397.000
79.77447 397.000
79.79442 425.000
79.81437 381.000
79.83431 428.000
79.85426 424.000
79.87421 390.000
79.89415 464.000
79.91410 442.000
79.93405 437.000
79.95399 404.000
79.97394 446.000
79.99389 469.000
80.01384 415.000
80.03378 445.000
80.05373 432.000
80.07368 431.000
80.09362 416.000
80.11357 398.000
80.13352 413.000
80.15346 461.000
80.17341 412.000
80.19336 414.000
80.21331 413.000
80.23325 421.000
80.25320 395.000
80.27315 431.000
80.29309 436.000
80.31304 395.000
80.33299 423.000
80.35293 403.000
80.37288 405.000
80.39283 380.000
80.41278 435.000
80.43272 397.000
80.45267 423.000
80.47262 430.000
80.49256 426.000
80.51251 437.000
80.53246 445.000
80.55240 441.000
80.57235 342.000
80.59230 391.000
80.61224 389.000
80.63219 382.000
80.65214 418.000
80.67209 387.000
80.69203 432.000
80.71198 400.000
80.73193 412.000
80.75187 397.000
80.77182 417.000
80.79177 410.000
80.81171 385.000
80.83166 394.000
80.85161 417.000
80.87156 390.000
80.89150 414.000
80.91145 372.000
80.93140 414.000
80.95134 392.000
80.97129 438.000
80.99124 389.000
81.01118 388.000
81.03113 397.000
81.05108 397.000
81.07102 449.000
81.09097 419.000
81.11092 399.000
81.13087 409.000
81.15081 388.000
81.17076 401.000
81.19071 393.000
81.21065 393.000
81.23060 392.000
81.25055 425.000
81.27049 413.000
81.29044 395.000
81.31039 428.000
81.33034 406.000
81.35028 404.000
81.37023 407.000
81.39018 413.000
81.41012 393.000
81.43007 414.000
81.45002 411.000
81.46996 395.000
81.48991 421.000
81.50986 405.000
81.52980 399.000
81.54975 386.000
81.56970 417.000
81.58965 380.000
81.60959 412.000
81.62954 392.000
81.64949 435.000
81.66943 392.000
81.68938 400.000
81.70933 416.000
81.72927 402.000
81.74922 421.000
81.76917 412.000
81.78912 432.000
81.80906 397.000
81.82901 460.000
81.84896 408.000
81.86890 439.000
81.88885 451.000
81.90880 387.000
81.92874 418.000
81.94869 410.000
81.96864 435.000
81.98859 436.000
82.00853 417.000
82.02848 410.000
82.04843 442.000
82.06837 419.000
82.08832 398.000
82.10827 434.000
82.12821 464.000
82.14816 432.000
82.16811 471.000
82.18805 447.000
82.20800 457.000
82.22795 486.000
82.24790 473.000
82.26784 450.000
82.28779 477.000
82.30774 507.000
82.32768 443.000
82.34763 483.000
82.36758 511.000
82.38752 466.000
82.40747 491.000
82.42742 500.000
82.44737 496.000
82.46731 439.000
82.48726 504.000
82.50721 475.000
82.52715 490.000
82.54710 490.000
82.56705 467.000
82.58699 473.000
82.60694 513.000
82.62689 477.000
82.64683 471.000
82.66678 432.000
82.68673 465.000
82.70668 453.000
82.72662 429.000
82.74657 495.000
82.76652 473.000
82.78646 445.000
82.80641 438.000
82.82636 454.000
82.84630 390.000
82.86625 375.000
82.88620 386.000
82.90615 394.000
82.92609 458.000
82.94604 423.000
82.96599 419.000
82.98593 394.000
83.00588 437.000
83.02583 418.000
83.04577 407.000
83.06572 459.000
83.08567 450.000
83.10561 393.000
83.12556 365.000
83.14551 405.000
83.16546 449.000
83.18540 429.000
83.20535 408.000
83.22530 404.000
83.24524 372.000
83.26519 405.000
83.28514 400.000
83.30508 429.000
83.32503 439.000
83.34498 427.000
83.36493 432.000
83.38487 394.000
83.40482 486.000
83.42477 428.000
83.44471 413.000
83.46466 439.000
83.48461 404.000
83.50455 440.000
83.52450 428.000
83.54445 442.000
83.56440 415.000
83.58434 428.000
83.60429 422.000
83.62424 412.000
83.64418 430.000
83.66413 442.000
83.68408 438.000
83.70402 439.000
83.72397 458.000
83.74392 416.000
83.76386 433.000
83.78381 417.000
83.80376 418.000
83.82371 392.000
83.84365 375.000
83.86360 441.000
83.88355 406.000
83.90349 402.000
83.92344 383.000
83.94339 418.000
83.96333 410.000
83.98328 430.000
84.00323 395.000
84.02318 401.000
84.04312 412.000
84.06307 404.000
84.08302 425.000
84.10296 415.000
84.12291 392.000
84.14286 397.000
84.16280 416.000
84.18275 422.000
84.20270 426.000
84.22264 389.000
84.24259 401.000
84.26254 408.000
84.28249 377.000
84.30243 395.000
84.32238 381.000
84.34233 399.000
84.36227 403.000
84.38222 381.000
84.40217 412.000
84.42211 432.000
84.44206 398.000
84.46201 440.000
84.48196 390.000
84.50190 398.000
84.52185 411.000
84.54180 396.000
84.56174 422.000
84.58169 395.000
84.60164 385.000
84.62158 422.000
84.64153 409.000
84.66148 396.000
84.68142 375.000
84.70137 422.000
84.72132 368.000
84.74127 406.000
84.76121 420.000
84.78116 418.000
84.80111 397.000
84.82105 388.000
84.84100 395.000
84.86095 387.000
84.88089 388.000
84.90084 417.000
84.92079 428.000
84.94074 405.000
84.96068 400.000
84.98063 396.000
85.00058 381.000
85.02052 365.000
85.04047 388.000
85.06042 396.000
85.08036 385.000
85.10031 390.000
85.12026 361.000
85.14021 391.000
85.16015 409.000
85.18010 439.000
85.20005 371.000
85.21999 401.000
85.23994 417.000
85.25989 393.000
85.27983 381.000
85.29978 398.000
85.31973 390.000
85.33967 415.000
85.35962 430.000
85.37957 408.000
85.39952 349.000
85.41946 390.000
85.43941 411.000
85.45936 430.000
85.47930 374.000
85.49925 391.000
85.51920 390.000
85.53914 393.000
85.55909 408.000
85.57904 349.000
85.59899 349.000
85.61893 417.000
85.63888 374.000
85.65883 408.000
85.67877 402.000
85.69872 395.000
85.71867 408.000
85.73861 382.000
85.75856 399.000
85.77851 402.000
85.79845 400.000
85.81840 385.000
85.83835 388.000
85.85830 412.000
85.87824 434.000
85.89819 443.000
85.91814 409.000
85.93808 419.000
85.95803 429.000
85.97798 394.000
85.99792 400.000
86.01787 360.000
86.03782 368.000
86.05777 384.000
86.07771 395.000
86.09766 394.000
86.11761 403.000
86.13755 372.000
86.15750 395.000
86.17745 422.000
86.19739 387.000
86.21734 413.000
86.23729 395.000
86.25723 409.000
86.27718 389.000
86.29713 389.000
86.31708 447.000
86.33702 393.000
86.35697 370.000
86.37692 394.000
86.39686 399.000
86.41681 418.000
86.43676 434.000
86.45670 408.000
86.47665 413.000
86.49660 394.000
86.51655 395.000
86.53649 405.000
86.55644 403.000
86.57639 434.000
86.59633 436.000
86.61628 386.000
86.63623 446.000
86.65617 399.000
86.67612 438.000
86.69607 451.000
86.71602 410.000
86.73596 404.000
86.75591 442.000
86.77586 381.000
86.79580 401.000
86.81575 410.000
86.83570 413.000
86.85564 404.000
86.87559 440.000
86.89554 401.000
86.91548 421.000
86.93543 370.000
86.95538 392.000
86.97533 401.000
86.99527 425.000
87.01522 412.000
87.03517 466.000
87.05511 414.000
87.07506 428.000
87.09501 410.000
87.11495 409.000
87.13490 468.000
87.15485 401.000
87.17480 400.000
87.19474 367.000
87.21469 375.000
87.23464 400.000
87.25458 409.000
87.27453 408.000
87.29448 377.000
87.31442 424.000
87.33437 407.000
87.35432 399.000
87.37426 386.000
87.39421 413.000
87.41416 407.000
87.43411 365.000
87.45405 390.000
87.47400 450.000
87.49395 385.000
87.51389 365.000
87.53384 387.000
87.55379 407.000
87.57373 390.000
87.59368 376.000
87.61363 408.000
87.63358 407.000
87.65352 401.000
87.67347 388.000
87.69342 416.000
87.71336 417.000
87.73331 430.000
87.75326 395.000
87.77320 405.000
87.79315 385.000
87.81310 400.000
87.83304 399.000
87.85299 384.000
87.87294 410.000
87.89289 415.000
87.91283 424.000
87.93278 387.000
87.95273 390.000
87.97267 383.000
87.99262 385.000
88.01257 405.000
88.03251 427.000
88.05246 409.000
88.07241 400.000
88.09236 434.000
88.11230 396.000
88.13225 416.000
88.15220 460.000
88.17214 403.000
88.19209 395.000
88.21204 390.000
88.23198 405.000
88.25193 396.000
88.27188 415.000
88.29183 426.000
88.31177 397.000
88.33172 407.000
88.35167 412.000
88.37161 435.000
88.39156 425.000
88.41151 405.000
88.43145 426.000
88.45140 408.000
88.47135 416.000
88.49129 398.000
88.51124 384.000
88.53119 398.000
88.55114 436.000
88.57108 375.000
88.59103 390.000
88.61098 401.000
88.63092 382.000
88.65087 391.000
88.67082 377.000
88.69076 433.000
88.71071 377.000
88.73066 421.000
88.75061 411.000
88.77055 414.000
88.79050 416.000
88.81045 416.000
88.83039 381.000
88.85034 416.000
88.87029 412.000
88.89023 391.000
88.91018 437.000
88.93013 420.000
88.95007 456.000
88.97002 426.000
88.98997 459.000
89.00992 429.000
89.02986 447.000
89.04981 445.000
89.06976 472.000
89.08970 434.000
89.10965 436.000
89.12960 428.000
89.14954 453.000
89.16949 429.000
89.18944 454.000
89.20939 408.000
89.22933 452.000
89.24928 449.000
89.26923 458.000
89.28917 435.000
89.30912 432.000
89.32907 461.000
89.34901 451.000
89.36896 432.000
89.38891 428.000
89.40885 430.000
89.42880 455.000
89.44875 404.000
89.46870 438.000
89.48864 414.000
89.50859 456.000
89.52854 436.000
89.54848 419.000
89.56843 417.000
89.58838 440.000
89.60832 433.000
89.62827 415.000
89.64822 447.000
89.66817 432.000
89.68811 458.000
89.70806 435.000
89.72801 429.000
89.74795 434.000
89.76790 459.000
89.78785 404.000
89.80779 401.000
89.82774 418.000
89.84769 401.000
89.86764 441.000
89.88758 418.000
89.90753 427.000
89.92748 457.000
89.94742 466.000
89.96737 461.000
89.98732 439.000
90.00726 444.000
