10.00000 104.000
10.01995 130.000
10.03989 114.000
10.05984 91.000
10.07979 100.000
10.09973 120.000
10.11968 100.000
10.13963 114.000
10.15958 98.000
10.17952 89.000
10.19947 114.000
10.21942 92.000
10.23936 103.000
10.25931 116.000
10.27926 108.000
10.29920 103.000
10.31915 92.000
10.33910 91.000
10.35905 138.000
10.37899 106.000
10.39894 87.000
10.41889 111.000
10.43883 109.000
10.45878 105.000
10.47873 112.000
10.49867 104.000
10.51862 118.000
10.53857 87.000
10.55851 119.000
10.57846 113.000
10.59841 91.000
10.61836 95.000
10.63830 99.000
10.65825 116.000
10.67820 106.000
10.69814 100.000
10.71809 108.000
10.73804 106.000
10.75798 104.000
10.77793 103.000
10.79788 82.000
10.81783 103.000
10.83777 91.000
10.85772 101.000
10.87767 109.000
10.89761 97.000
10.91756 125.000
10.93751 97.000
10.95745 112.000
10.97740 120.000
10.99735 93.000
11.01730 75.000
11.03724 91.000
11.05719 108.000
11.07714 97.000
11.09708 114.000
11.11703 113.000
11.13698 118.000
11.15692 123.000
11.17687 95.000
11.19682 107.000
11.21676 134.000
11.23671 104.000
11.25666 106.000
11.27661 101.000
11.29655 113.000
11.31650 91.000
11.33645 89.000
11.35639 99.000
11.37634 128.000
11.39629 95.000
11.41623 110.000
11.43618 109.000
11.45613 104.000
11.47608 94.000
11.49602 91.000
11.51597 101.000
11.53592 99.000
11.55586 123.000
11.57581 108.000
11.59576 98.000
11.61570 104.000
11.63565 102.000
11.65560 104.000
11.67554 89.000
11.69549 92.000
11.71544 98.000
11.73539 109.000
11.75533 120.000
11.77528 99.000
11.79523 109.000
11.81517 119.000
11.83512 98.000
11.85507 104.000
11.87501 102.000
11.89496 113.000
11.91491 102.000
11.93486 113.000
11.95480 86.000
11.97475 99.000
11.99470 115.000
12.01464 123.000
12.03459 111.000
12.05454 87.000
12.07448 105.000
12.09443 111.000
12.11438 106.000
12.13432 95.000
12.15427 120.000
12.17422 106.000
12.19417 104.000
12.21411 110.000
12.23406 84.000
12.25401 97.000
12.27395 102.000
12.29390 103.000
12.31385 109.000
12.33379 100.000
12.35374 91.000
12.37369 87.000
12.39364 104.000
12.41358 103.000
12.43353 101.000
12.45348 107.000
12.47342 117.000
12.49337 103.000
12.51332 104.000
12.53326 112.000
12.55321 94.000
12.57316 110.000
12.59311 109.000
12.61305 78.000
12.63300 99.000
12.65295 97.000
12.67289 102.000
12.69284 107.000
12.71279 102.000
12.73273 108.000
12.75268 96.000
12.77263 99.000
12.79257 98.000
12.81252 97.000
12.83247 99.000
12.85242 87.000
12.87236 94.000
12.89231 94.000
12.91226 111.000
12.93220 107.000
12.95215 98.000
12.97210 97.000
12.99204 112.000
13.01199 88.000
13.03194 104.000
13.05189 105.000
13.07183 99.000
13.09178 89.000
13.11173 100.000
13.13167 118.000
13.15162 92.000
13.17157 91.000
13.19151 90.000
13.21146 119.000
13.23141 78.000
13.25135 97.000
13.27130 85.000
13.29125 99.000
13.31120 100.000
13.33114 98.000
13.35109 96.000
13.37104 84.000
13.39098 85.000
13.41093 91.000
13.43088 90.000
13.45082 92.000
13.47077 115.000
13.49072 109.000
13.51067 92.000
13.53061 117.000
13.55056 91.000
13.57051 103.000
13.59045 109.000
13.61040 91.000
13.63035 92.000
13.65029 100.000
13.67024 106.000
13.69019 79.000
13.71013 89.000
13.73008 83.000
13.75003 86.000
13.76998 98.000
13.78992 78.000
13.80987 109.000
13.82982 90.000
13.84976 90.000
13.86971 106.000
13.88966 102.000
13.90960 113.000
13.92955 102.000
13.94950 105.000
13.96945 85.000
13.98939 97.000
14.00934 117.000
14.02929 94.000
14.04923 116.000
14.06918 100.000
14.08913 98.000
14.10907 79.000
14.12902 92.000
14.14897 78.000
14.16892 105.000
14.18886 104.000
14.20881 101.000
14.22876 114.000
14.24870 115.000
14.26865 99.000
14.28860 102.000
14.30854 101.000
14.32849 118.000
14.34844 99.000
14.36838 92.000
14.38833 98.000
14.40828 101.000
14.42823 96.000
14.44817 120.000
14.46812 79.000
14.48807 118.000
14.50801 110.000
14.52796 111.000
14.54791 97.000
14.56785 85.000
14.58780 110.000
14.60775 100.000
14.62770 112.000
14.64764 89.000
14.66759 105.000
14.68754 101.000
14.70748 90.000
14.72743 95.000
14.74738 94.000
14.76732 90.000
14.78727 92.000
14.80722 98.000
14.82716 94.000
14.84711 82.000
14.86706 94.000
14.88701 109.000
14.90695 104.000
14.92690 94.000
14.94685 88.000
14.96679 125.000
14.98674 99.000
15.00669 93.000
15.02663 95.000
15.04658 85.000
15.06653 97.000
15.08648 96.000
15.10642 94.000
15.12637 94.000
15.14632 95.000
15.16626 96.000
15.18621 98.000
15.20616 103.000
15.22610 101.000
15.24605 109.000
15.26600 106.000
15.28594 107.000
15.30589 112.000
15.32584 110.000
15.34579 91.000
15.36573 88.000
15.38568 83.000
15.40563 99.000
15.42557 104.000
15.44552 100.000
15.46547 105.000
15.48541 78.000
15.50536 120.000
15.52531 114.000
15.54526 99.000
15.56520 113.000
15.58515 117.000
15.60510 109.000
15.62504 106.000
15.64499 92.000
15.66494 89.000
15.68488 104.000
15.70483 100.000
15.72478 83.000
15.74472 101.000
15.76467 101.000
15.78462 91.000
15.80457 89.000
15.82451 96.000
15.84446 92.000
15.86441 88.000
15.88435 98.000
15.90430 118.000
15.92425 120.000
15.94419 96.000
15.96414 85.000
15.98409 101.000
16.00404 102.000
16.02398 83.000
16.04393 88.000
16.06388 110.000
16.08382 113.000
16.10377 105.000
16.12372 107.000
16.14366 100.000
16.16361 102.000
16.18356 89.000
16.20351 106.000
16.22345 106.000
16.24340 112.000
16.26335 108.000
16.28329 107.000
16.30324 99.000
16.32319 105.000
16.34313 119.000
16.36308 84.000
16.38303 85.000
16.40297 110.000
16.42292 92.000
16.44287 109.000
16.46282 110.000
16.48276 113.000
16.50271 100.000
16.52266 110.000
16.54260 127.000
16.56255 115.000
16.58250 93.000
16.60244 97.000
16.62239 99.000
16.64234 121.000
16.66229 104.000
16.68223 99.000
16.70218 118.000
16.72213 95.000
16.74207 103.000
16.76202 108.000
16.78197 117.000
16.80191 130.000
16.82186 106.000
16.84181 97.000
16.86175 118.000
16.88170 120.000
16.90165 109.000
16.92160 118.000
16.94154 104.000
16.96149 103.000
16.98144 88.000
17.00138 95.000
17.02133 109.000
17.04128 112.000
17.06122 103.000
17.08117 123.000
17.10112 139.000
17.12107 124.000
17.14101 150.000
17.16096 114.000
17.18091 133.000
17.20085 120.000
17.22080 127.000
17.24075 106.000
17.26069 102.000
17.28064 107.000
17.30059 99.000
17.32053 116.000
17.34048 93.000
17.36043 96.000
17.38038 95.000
17.40032 103.000
17.42027 101.000
17.44022 103.000
17.46016 112.000
17.48011 93.000
17.50006 94.000
17.52000 98.000
17.53995 88.000
17.55990 78.000
17.57985 90.000
17.59979 91.000
17.61974 93.000
17.63969 105.000
17.65963 91.000
17.67958 97.000
17.69953 94.000
17.71947 94.000
17.73942 109.000
17.75937 101.000
17.77932 107.000
17.79926 84.000
17.81921 96.000
17.83916 105.000
17.85910 110.000
17.87905 97.000
17.89900 98.000
17.91894 111.000
17.93889 102.000
17.95884 81.000
17.97878 86.000
17.99873 93.000
18.01868 95.000
18.03863 90.000
18.05857 78.000
18.07852 103.000
18.09847 87.000
18.11841 85.000
18.13836 105.000
18.15831 95.000
18.17825 106.000
18.19820 110.000
18.21815 106.000
18.23810 115.000
18.25804 118.000
18.27799 141.000
18.29794 172.000
18.31788 217.000
18.33783 338.000
18.35778 437.000
18.37772 515.000
18.39767 487.000
18.41762 327.000
18.43756 272.000
18.45751 168.000
18.47746 138.000
18.49741 118.000
18.51735 120.000
18.53730 107.000
18.55725 100.000
18.57719 96.000
18.59714 108.000
18.61709 102.000
18.63703 91.000
18.65698 112.000
18.67693 103.000
18.69688 107.000
18.71682 88.000
18.73677 96.000
18.75672 102.000
18.77666 90.000
18.79661 106.000
18.81656 112.000
18.83650 109.000
18.85645 86.000
18.87640 88.000
18.89634 101.000
18.91629 78.000
18.93624 106.000
18.95619 95.000
18.97613 88.000
18.99608 106.000
19.01603 123.000
19.03597 102.000
19.05592 101.000
19.07587 121.000
19.09581 106.000
19.11576 94.000
19.13571 89.000
19.15566 85.000
19.17560 105.000
19.19555 108.000
19.21550 91.000
19.23544 111.000
19.25539 79.000
19.27534 111.000
19.29528 106.000
19.31523 98.000
19.33518 106.000
19.35513 94.000
19.37507 98.000
19.39502 93.000
19.41497 96.000
19.43491 88.000
19.45486 89.000
19.47481 109.000
19.49475 99.000
19.51470 96.000
19.53465 110.000
19.55459 90.000
19.57454 87.000
19.59449 92.000
19.61444 118.000
19.63438 107.000
19.65433 97.000
19.67428 104.000
19.69422 106.000
19.71417 107.000
19.73412 112.000
19.75406 107.000
19.77401 101.000
19.79396 114.000
19.81391 112.000
19.83385 103.000
19.85380 104.000
19.87375 146.000
19.89369 146.000
19.91364 207.000
19.93359 225.000
19.95353 294.000
19.97348 302.000
19.99343 335.000
20.01337 393.000
20.03332 345.000
20.05327 334.000
20.07322 309.000
20.09316 291.000
20.11311 230.000
20.13306 204.000
20.15300 219.000
20.17295 188.000
20.19290 141.000
20.21284 161.000
20.23279 137.000
20.25274 124.000
20.27269 135.000
20.29263 145.000
20.31258 118.000
20.33253 136.000
20.35247 115.000
20.37242 150.000
20.39237 113.000
20.41231 131.000
20.43226 157.000
20.45221 176.000
20.47215 204.000
20.49210 230.000
20.51205 268.000
20.53200 305.000
20.55194 359.000
20.57189 451.000
20.59184 551.000
20.61178 688.000
20.63173 663.000
20.65168 548.000
20.67162 463.000
20.69157 434.000
20.71152 289.000
20.73147 218.000
20.75141 215.000
20.77136 186.000
20.79131 159.000
20.81125 171.000
20.83120 162.000
20.85115 159.000
20.87109 137.000
20.89104 145.000
20.91099 160.000
20.93094 172.000
20.95088 139.000
20.97083 114.000
20.99078 123.000
21.01072 122.000
21.03067 102.000
21.05062 103.000
21.07056 105.000
21.09051 89.000
21.11046 119.000
21.13040 88.000
21.15035 104.000
21.17030 117.000
21.19025 98.000
21.21019 101.000
21.23014 87.000
21.25009 82.000
21.27003 93.000
21.28998 111.000
21.30993 107.000
21.32987 106.000
21.34982 122.000
21.36977 107.000
21.38972 95.000
21.40966 118.000
21.42961 113.000
21.44956 107.000
21.46950 108.000
21.48945 82.000
21.50940 104.000
21.52934 89.000
21.54929 92.000
21.56924 81.000
21.58918 105.000
21.60913 94.000
21.62908 102.000
21.64903 93.000
21.66897 122.000
21.68892 95.000
21.70887 104.000
21.72881 102.000
21.74876 94.000
21.76871 92.000
21.78865 93.000
21.80860 103.000
21.82855 91.000
21.84850 92.000
21.86844 105.000
21.88839 106.000
21.90834 77.000
21.92828 90.000
21.94823 96.000
21.96818 113.000
21.98812 96.000
22.00807 110.000
22.02802 86.000
22.04796 95.000
22.06791 95.000
22.08786 94.000
22.10781 99.000
22.12775 99.000
22.14770 98.000
22.16765 102.000
22.18759 96.000
22.20754 100.000
22.22749 104.000
22.24743 133.000
22.26738 99.000
22.28733 97.000
22.30728 112.000
22.32722 99.000
22.34717 110.000
22.36712 107.000
22.38706 95.000
22.40701 97.000
22.42696 90.000
22.44690 104.000
22.46685 98.000
22.48680 107.000
22.50675 103.000
22.52669 101.000
22.54664 95.000
22.56659 89.000
22.58653 96.000
22.60648 115.000
22.62643 84.000
22.64637 102.000
22.66632 96.000
22.68627 97.000
22.70621 97.000
22.72616 94.000
22.74611 102.000
22.76606 102.000
22.78600 122.000
22.80595 80.000
22.82590 107.000
22.84584 130.000
22.86579 93.000
22.88574 100.000
22.90568 80.000
22.92563 101.000
22.94558 97.000
22.96553 104.000
22.98547 76.000
23.00542 82.000
23.02537 91.000
23.04531 105.000
23.06526 105.000
23.08521 106.000
23.10515 98.000
23.12510 103.000
23.14505 105.000
23.16499 101.000
23.18494 104.000
23.20489 113.000
23.22484 82.000
23.24478 115.000
23.26473 112.000
23.28468 111.000
23.30462 96.000
23.32457 99.000
23.34452 106.000
23.36446 101.000
23.38441 108.000
23.40436 84.000
23.42431 127.000
23.44425 85.000
23.46420 97.000
23.48415 121.000
23.50409 104.000
23.52404 113.000
23.54399 88.000
23.56393 97.000
23.58388 89.000
23.60383 108.000
23.62377 110.000
23.64372 109.000
23.66367 98.000
23.68362 101.000
23.70356 97.000
23.72351 123.000
23.74346 104.000
23.76340 103.000
23.78335 103.000
23.80330 104.000
23.82324 110.000
23.84319 108.000
23.86314 111.000
23.88309 111.000
23.90303 100.000
23.92298 102.000
23.94293 108.000
23.96287 101.000
23.98282 98.000
24.00277 98.000
24.02271 115.000
24.04266 120.000
24.06261 121.000
24.08256 93.000
24.10250 110.000
24.12245 87.000
24.14240 112.000
24.16234 108.000
24.18229 125.000
24.20224 119.000
24.22218 99.000
24.24213 104.000
24.26208 101.000
24.28202 93.000
24.30197 110.000
24.32192 119.000
24.34187 104.000
24.36181 118.000
24.38176 100.000
24.40171 95.000
24.42165 110.000
24.44160 96.000
24.46155 99.000
24.48149 112.000
24.50144 109.000
24.52139 124.000
24.54134 98.000
24.56128 110.000
24.58123 118.000
24.60118 131.000
24.62112 108.000
24.64107 108.000
24.66102 124.000
24.68096 110.000
24.70091 108.000
24.72086 112.000
24.74080 94.000
24.76075 103.000
24.78070 108.000
24.80065 112.000
24.82059 130.000
24.84054 120.000
24.86049 103.000
24.88043 111.000
24.90038 119.000
24.92033 111.000
24.94027 114.000
24.96022 113.000
24.98017 99.000
25.00012 114.000
25.02006 112.000
25.04001 122.000
25.05996 125.000
25.07990 107.000
25.09985 107.000
25.11980 124.000
25.13974 95.000
25.15969 97.000
25.17964 121.000
25.19958 111.000
25.21953 109.000
25.23948 106.000
25.25943 109.000
25.27937 118.000
25.29932 125.000
25.31927 109.000
25.33921 120.000
25.35916 114.000
25.37911 114.000
25.39905 110.000
25.41900 100.000
25.43895 119.000
25.45890 103.000
25.47884 106.000
25.49879 102.000
25.51874 118.000
25.53868 117.000
25.55863 99.000
25.57858 89.000
25.59852 120.000
25.61847 128.000
25.63842 125.000
25.65837 95.000
25.67831 109.000
25.69826 127.000
25.71821 119.000
25.73815 118.000
25.75810 113.000
25.77805 122.000
25.79799 119.000
25.81794 104.000
25.83789 117.000
25.85783 127.000
25.87778 124.000
25.89773 127.000
25.91768 128.000
25.93762 142.000
25.95757 156.000
25.97752 158.000
25.99746 139.000
26.01741 136.000
26.03736 146.000
26.05730 167.000
26.07725 162.000
26.09720 151.000
26.11715 139.000
26.13709 139.000
26.15704 117.000
26.17699 133.000
26.19693 135.000
26.21688 140.000
26.23683 109.000
26.25677 102.000
26.27672 142.000
26.29667 108.000
26.31661 124.000
26.33656 128.000
26.35651 122.000
26.37646 117.000
26.39640 112.000
26.41635 118.000
26.43630 116.000
26.45624 120.000
26.47619 116.000
26.49614 101.000
26.51608 118.000
26.53603 102.000
26.55598 106.000
26.57593 119.000
26.59587 128.000
26.61582 137.000
26.63577 129.000
26.65571 120.000
26.67566 119.000
26.69561 106.000
26.71555 114.000
26.73550 114.000
26.75545 101.000
26.77539 135.000
26.79534 119.000
26.81529 133.000
26.83524 102.000
26.85518 137.000
26.87513 118.000
26.89508 138.000
26.91502 111.000
26.93497 100.000
26.95492 109.000
26.97486 120.000
26.99481 138.000
27.01476 114.000
27.03471 122.000
27.05465 121.000
27.07460 117.000
27.09455 133.000
27.11449 124.000
27.13444 105.000
27.15439 124.000
27.17433 149.000
27.19428 127.000
27.21423 122.000
27.23417 110.000
27.25412 133.000
27.27407 131.000
27.29402 119.000
27.31396 134.000
27.33391 100.000
27.35386 127.000
27.37380 124.000
27.39375 127.000
27.41370 111.000
27.43364 131.000
27.45359 128.000
27.47354 123.000
27.49349 114.000
27.51343 132.000
27.53338 138.000
27.55333 120.000
27.57327 125.000
27.59322 132.000
27.61317 139.000
27.63311 134.000
27.65306 130.000
27.67301 135.000
27.69296 127.000
27.71290 134.000
27.73285 125.000
27.75280 124.000
27.77274 144.000
27.79269 132.000
27.81264 122.000
27.83258 121.000
27.85253 112.000
27.87248 131.000
27.89242 139.000
27.91237 139.000
27.93232 133.000
27.95227 136.000
27.97221 124.000
27.99216 103.000
28.01211 114.000
28.03205 137.000
28.05200 131.000
28.07195 131.000
28.09189 107.000
28.11184 120.000
28.13179 111.000
28.15174 143.000
28.17168 126.000
28.19163 113.000
28.21158 106.000
28.23152 117.000
28.25147 122.000
28.27142 138.000
28.29136 123.000
28.31131 144.000
28.33126 138.000
28.35120 125.000
28.37115 117.000
28.39110 146.000
28.41105 110.000
28.43099 104.000
28.45094 152.000
28.47089 144.000
28.49083 116.000
28.51078 131.000
28.53073 126.000
28.55067 120.000
28.57062 129.000
28.59057 132.000
28.61052 126.000
28.63046 123.000
28.65041 123.000
28.67036 125.000
28.69030 126.000
28.71025 127.000
28.73020 144.000
28.75014 134.000
28.77009 117.000
28.79004 130.000
28.80998 152.000
28.82993 126.000
28.84988 133.000
28.86983 120.000
28.88977 143.000
28.90972 142.000
28.92967 125.000
28.94961 138.000
28.96956 145.000
28.98951 141.000
29.00945 138.000
29.02940 151.000
29.04935 131.000
29.06930 139.000
29.08924 146.000
29.10919 135.000
29.12914 163.000
29.14908 140.000
29.16903 131.000
29.18898 131.000
29.20892 157.000
29.22887 112.000
29.24882 154.000
29.26877 160.000
29.28871 160.000
29.30866 139.000
29.32861 153.000
29.34855 213.000
29.36850 200.000
29.38845 212.000
29.40839 244.000
29.42834 254.000
29.44829 314.000
29.46823 385.000
29.48818 365.000
29.50813 424.000
29.52808 407.000
29.54802 377.000
29.56797 299.000
29.58792 296.000
29.60786 256.000
29.62781 217.000
29.64776 185.000
29.66770 191.000
29.68765 180.000
29.70760 147.000
29.72755 139.000
29.74749 137.000
29.76744 128.000
29.78739 141.000
29.80733 156.000
29.82728 135.000
29.84723 152.000
29.86717 140.000
29.88712 159.000
29.90707 147.000
29.92701 177.000
29.94696 162.000
29.96691 133.000
29.98686 156.000
30.00680 177.000
30.02675 179.000
30.04670 195.000
30.06664 178.000
30.08659 188.000
30.10654 220.000
30.12648 223.000
30.14643 321.000
30.16638 395.000
30.18633 571.000
30.20627 865.000
30.22622 1116.000
30.24617 1170.000
30.26611 932.000
30.28606 819.000
30.30601 784.000
30.32595 655.000
30.34590 501.000
30.36585 343.000
30.38579 241.000
30.40574 222.000
30.42569 207.000
30.44564 169.000
30.46558 155.000
30.48553 159.000
30.50548 159.000
30.52542 166.000
30.54537 176.000
30.56532 160.000
30.58526 147.000
30.60521 121.000
30.62516 144.000
30.64511 149.000
30.66505 143.000
30.68500 142.000
30.70495 165.000
30.72489 138.000
30.74484 131.000
30.76479 135.000
30.78473 155.000
30.80468 155.000
30.82463 159.000
30.84458 150.000
30.86452 143.000
30.88447 140.000
30.90442 121.000
30.92436 138.000
30.94431 145.000
30.96426 145.000
30.98420 138.000
31.00415 142.000
31.02410 143.000
31.04404 132.000
31.06399 126.000
31.08394 136.000
31.10389 131.000
31.12383 131.000
31.14378 117.000
31.16373 119.000
31.18367 124.000
31.20362 131.000
31.22357 120.000
31.24351 125.000
31.26346 150.000
31.28341 149.000
31.30336 125.000
31.32330 136.000
31.34325 131.000
31.36320 107.000
31.38314 148.000
31.40309 137.000
31.42304 150.000
31.44298 157.000
31.46293 159.000
31.48288 217.000
31.50282 201.000
31.52277 194.000
31.54272 182.000
31.56267 208.000
31.58261 200.000
31.60256 192.000
31.62251 175.000
31.64245 170.000
31.66240 192.000
31.68235 198.000
31.70229 196.000
31.72224 232.000
31.74219 202.000
31.76214 227.000
31.78208 223.000
31.80203 218.000
31.82198 227.000
31.84192 223.000
31.86187 218.000
31.88182 227.000
31.90176 207.000
31.92171 217.000
31.94166 189.000
31.96160 200.000
31.98155 184.000
32.00150 181.000
32.02145 168.000
32.04139 176.000
32.06134 198.000
32.08129 179.000
32.10123 134.000
32.12118 148.000
32.14113 167.000
32.16107 148.000
32.18102 147.000
32.20097 136.000
32.22092 143.000
32.24086 156.000
32.26081 144.000
32.28076 123.000
32.30070 144.000
32.32065 163.000
32.34060 147.000
32.36054 142.000
32.38049 150.000
32.40044 131.000
32.42039 167.000
32.44033 162.000
32.46028 151.000
32.48023 164.000
32.50017 162.000
32.52012 132.000
32.54007 158.000
32.56001 174.000
32.57996 130.000
32.59991 156.000
32.61985 149.000
32.63980 125.000
32.65975 155.000
32.67970 144.000
32.69964 130.000
32.71959 149.000
32.73954 157.000
32.75948 145.000
32.77943 150.000
32.79938 146.000
32.81932 138.000
32.83927 134.000
32.85922 161.000
32.87917 150.000
32.89911 157.000
32.91906 145.000
32.93901 152.000
32.95895 162.000
32.97890 164.000
32.99885 144.000
33.01879 160.000
33.03874 142.000
33.05869 165.000
33.07863 167.000
33.09858 173.000
33.11853 204.000
33.13848 200.000
33.15842 221.000
33.17837 223.000
33.19832 266.000
33.21826 350.000
33.23821 390.000
33.25816 373.000
33.27810 362.000
33.29805 452.000
33.31800 449.000
33.33795 383.000
33.35789 395.000
33.37784 342.000
33.39779 352.000
33.41773 294.000
33.43768 300.000
33.45763 259.000
33.47757 217.000
33.49752 229.000
33.51747 214.000
33.53741 215.000
33.55736 207.000
33.57731 177.000
33.59726 176.000
33.61720 170.000
33.63715 161.000
33.65710 189.000
33.67704 177.000
33.69699 177.000
33.71694 195.000
33.73688 205.000
33.75683 230.000
33.77678 251.000
33.79673 248.000
33.81667 235.000
33.83662 286.000
33.85657 305.000
33.87651 341.000
33.89646 433.000
33.91641 488.000
33.93635 594.000
33.95630 694.000
33.97625 716.000
33.99620 700.000
34.01614 633.000
34.03609 611.000
34.05604 598.000
34.07598 498.000
34.09593 454.000
34.11588 392.000
34.13582 351.000
34.15577 325.000
34.17572 317.000
34.19566 271.000
34.21561 232.000
34.23556 247.000
34.25551 266.000
34.27545 254.000
34.29540 220.000
34.31535 213.000
34.33529 217.000
34.35524 215.000
34.37519 228.000
34.39513 223.000
34.41508 219.000
34.43503 245.000
34.45498 206.000
34.47492 201.000
34.49487 212.000
34.51482 223.000
34.53476 196.000
34.55471 213.000
34.57466 202.000
34.59460 159.000
34.61455 191.000
34.63450 172.000
34.65444 159.000
34.67439 160.000
34.69434 175.000
34.71429 176.000
34.73423 176.000
34.75418 210.000
34.77413 178.000
34.79407 185.000
34.81402 203.000
34.83397 160.000
34.85391 164.000
34.87386 186.000
34.89381 188.000
34.91376 175.000
34.93370 169.000
34.95365 172.000
34.97360 199.000
34.99354 215.000
35.01349 185.000
35.03344 174.000
35.05338 180.000
35.07333 192.000
35.09328 203.000
35.11322 183.000
35.13317 190.000
35.15312 210.000
35.17307 184.000
35.19301 205.000
35.21296 193.000
35.23291 224.000
35.25285 209.000
35.27280 214.000
35.29275 240.000
35.31269 242.000
35.33264 286.000
35.35259 282.000
35.37254 314.000
35.39248 340.000
35.41243 411.000
35.43238 421.000
35.45232 508.000
35.47227 543.000
35.49222 652.000
35.51216 825.000
35.53211 1018.000
35.55206 1347.000
35.57201 1924.000
35.59195 2664.000
35.61190 3302.000
35.63185 3125.000
35.65179 2791.000
35.67174 2323.000
35.69169 2233.000
35.71163 2040.000
35.73158 1796.000
35.75153 1246.000
35.77147 821.000
35.79142 612.000
35.81137 462.000
35.83132 428.000
35.85126 330.000
35.87121 342.000
35.89116 259.000
35.91110 267.000
35.93105 241.000
35.95100 260.000
35.97094 217.000
35.99089 237.000
36.01084 210.000
36.03079 212.000
36.05073 250.000
36.07068 226.000
36.09063 214.000
36.11057 223.000
36.13052 215.000
36.15047 215.000
36.17041 202.000
36.19036 227.000
36.21031 193.000
36.23025 223.000
36.25020 233.000
36.27015 212.000
36.29010 225.000
36.31004 215.000
36.32999 216.000
36.34994 187.000
36.36988 169.000
36.38983 201.000
36.40978 183.000
36.42972 189.000
36.44967 200.000
36.46962 150.000
36.48957 161.000
36.50951 160.000
36.52946 205.000
36.54941 148.000
36.56935 154.000
36.58930 160.000
36.60925 144.000
36.62919 127.000
36.64914 145.000
36.66909 137.000
36.68903 160.000
36.70898 146.000
36.72893 156.000
36.74888 162.000
36.76882 134.000
36.78877 164.000
36.80872 144.000
36.82866 132.000
36.84861 158.000
36.86856 154.000
36.88850 132.000
36.90845 152.000
36.92840 157.000
36.94835 167.000
36.96829 183.000
36.98824 163.000
37.00819 155.000
37.02813 162.000
37.04808 174.000
37.06803 166.000
37.08797 177.000
37.10792 178.000
37.12787 193.000
37.14781 196.000
37.16776 209.000
37.18771 205.000
37.20766 220.000
37.22760 301.000
37.24755 359.000
37.26750 367.000
37.28744 333.000
37.30739 272.000
37.32734 247.000
37.34728 245.000
37.36723 263.000
37.38718 189.000
37.40713 163.000
37.42707 166.000
37.44702 151.000
37.46697 135.000
37.48691 146.000
37.50686 124.000
37.52681 136.000
37.54675 119.000
37.56670 151.000
37.58665 141.000
37.60660 139.000
37.62654 128.000
37.64649 132.000
37.66644 140.000
37.68638 118.000
37.70633 133.000
37.72628 128.000
37.74622 132.000
37.76617 147.000
37.78612 122.000
37.80606 133.000
37.82601 152.000
37.84596 156.000
37.86591 145.000
37.88585 153.000
37.90580 155.000
37.92575 139.000
37.94569 144.000
37.96564 143.000
37.98559 146.000
38.00553 164.000
38.02548 145.000
38.04543 159.000
38.06538 159.000
38.08532 157.000
38.10527 163.000
38.12522 150.000
38.14516 146.000
38.16511 164.000
38.18506 128.000
38.20500 134.000
38.22495 143.000
38.24490 133.000
38.26484 154.000
38.28479 148.000
38.30474 146.000
38.32469 138.000
38.34463 158.000
38.36458 137.000
38.38453 141.000
38.40447 124.000
38.42442 175.000
38.44437 136.000
38.46431 161.000
38.48426 163.000
38.50421 155.000
38.52416 181.000
38.54410 183.000
38.56405 218.000
38.58400 204.000
38.60394 202.000
38.62389 236.000
38.64384 254.000
38.66378 283.000
38.68373 252.000
38.70368 272.000
38.72362 244.000
38.74357 247.000
38.76352 235.000
38.78347 245.000
38.80341 242.000
38.82336 259.000
38.84331 227.000
38.86325 214.000
38.88320 206.000
38.90315 182.000
38.92309 199.000
38.94304 208.000
38.96299 192.000
38.98294 166.000
39.00288 185.000
39.02283 164.000
39.04278 145.000
39.06272 181.000
39.08267 171.000
39.10262 175.000
39.12256 148.000
39.14251 153.000
39.16246 148.000
39.18241 150.000
39.20235 147.000
39.22230 141.000
39.24225 141.000
39.26219 140.000
39.28214 143.000
39.30209 138.000
39.32203 132.000
39.34198 128.000
39.36193 156.000
39.38187 145.000
39.40182 154.000
39.42177 134.000
39.44172 124.000
39.46166 104.000
39.48161 132.000
39.50156 125.000
39.52150 132.000
39.54145 118.000
39.56140 123.000
39.58134 111.000
39.60129 124.000
39.62124 119.000
39.64119 115.000
39.66113 135.000
39.68108 108.000
39.70103 140.000
39.72097 121.000
39.74092 119.000
39.76087 113.000
39.78081 114.000
39.80076 135.000
39.82071 132.000
39.84065 111.000
39.86060 139.000
39.88055 133.000
39.90050 123.000
39.92044 113.000
39.94039 145.000
39.96034 114.000
39.98028 133.000
40.00023 116.000
40.02018 122.000
40.04012 140.000
40.06007 121.000
40.08002 146.000
40.09997 114.000
40.11991 118.000
40.13986 108.000
40.15981 121.000
40.17975 129.000
40.19970 110.000
40.21965 120.000
40.23959 134.000
40.25954 121.000
40.27949 117.000
40.29943 116.000
40.31938 99.000
40.33933 122.000
40.35928 116.000
40.37922 123.000
40.39917 117.000
40.41912 122.000
40.43906 144.000
40.45901 121.000
40.47896 146.000
40.49890 121.000
40.51885 120.000
40.53880 113.000
40.55875 128.000
40.57869 107.000
40.59864 120.000
40.61859 117.000
40.63853 131.000
40.65848 135.000
40.67843 116.000
40.69837 127.000
40.71832 131.000
40.73827 129.000
40.75822 119.000
40.77816 146.000
40.79811 122.000
40.81806 143.000
40.83800 132.000
40.85795 123.000
40.87790 149.000
40.89784 132.000
40.91779 152.000
40.93774 125.000
40.95768 156.000
40.97763 140.000
40.99758 148.000
41.01753 151.000
41.03747 142.000
41.05742 141.000
41.07737 168.000
41.09731 178.000
41.11726 170.000
41.13721 172.000
41.15715 171.000
41.17710 168.000
41.19705 167.000
41.21700 153.000
41.23694 154.000
41.25689 163.000
41.27684 162.000
41.29678 182.000
41.31673 164.000
41.33668 173.000
41.35662 171.000
41.37657 165.000
41.39652 191.000
41.41646 165.000
41.43641 184.000
41.45636 164.000
41.47631 171.000
41.49625 165.000
41.51620 181.000
41.53615 179.000
41.55609 218.000
41.57604 188.000
41.59599 184.000
41.61593 223.000
41.63588 246.000
41.65583 226.000
41.67578 230.000
41.69572 263.000
41.71567 234.000
41.73562 246.000
41.75556 252.000
41.77551 246.000
41.79546 242.000
41.81540 182.000
41.83535 193.000
41.85530 195.000
41.87524 191.000
41.89519 178.000
41.91514 196.000
41.93509 177.000
41.95503 174.000
41.97498 169.000
41.99493 154.000
42.01487 160.000
42.03482 167.000
42.05477 132.000
42.07471 162.000
42.09466 153.000
42.11461 145.000
42.13456 160.000
42.15450 142.000
42.17445 134.000
42.19440 153.000
42.21434 135.000
42.23429 140.000
42.25424 152.000
42.27418 147.000
42.29413 136.000
42.31408 140.000
42.33403 129.000
42.35397 122.000
42.37392 111.000
42.39387 119.000
42.41381 128.000
42.43376 124.000
42.45371 131.000
42.47365 109.000
42.49360 115.000
42.51355 138.000
42.53349 108.000
42.55344 136.000
42.57339 127.000
42.59334 120.000
42.61328 151.000
42.63323 136.000
42.65318 134.000
42.67312 141.000
42.69307 152.000
42.71302 125.000
42.73296 158.000
42.75291 133.000
42.77286 141.000
42.79281 146.000
42.81275 138.000
42.83270 159.000
42.85265 155.000
42.87259 153.000
42.89254 161.000
42.91249 146.000
42.93243 147.000
42.95238 165.000
42.97233 160.000
42.99227 170.000
43.01222 166.000
43.03217 176.000
43.05212 162.000
43.07206 161.000
43.09201 198.000
43.11196 222.000
43.13190 209.000
43.15185 246.000
43.17180 258.000
43.19174 302.000
43.21169 333.000
43.23164 405.000
43.25159 485.000
43.27153 617.000
43.29148 673.000
43.31143 611.000
43.33137 633.000
43.35132 504.000
43.37127 526.000
43.39121 492.000
43.41116 403.000
43.43111 405.000
43.45105 355.000
43.47100 257.000
43.49095 234.000
43.51090 211.000
43.53084 190.000
43.55079 181.000
43.57074 161.000
43.59068 166.000
43.61063 130.000
43.63058 149.000
43.65052 132.000
43.67047 131.000
43.69042 137.000
43.71037 121.000
43.73031 133.000
43.75026 140.000
43.77021 119.000
43.79015 122.000
43.81010 140.000
43.83005 106.000
43.84999 126.000
43.86994 129.000
43.88989 121.000
43.90984 147.000
43.92978 117.000
43.94973 131.000
43.96968 132.000
43.98962 91.000
44.00957 102.000
44.02952 106.000
44.04946 133.000
44.06941 119.000
44.08936 109.000
44.10930 114.000
44.12925 94.000
44.14920 120.000
44.16915 124.000
44.18909 119.000
44.20904 122.000
44.22899 121.000
44.24893 115.000
44.26888 120.000
44.28883 118.000
44.30877 121.000
44.32872 147.000
44.34867 126.000
44.36862 130.000
44.38856 152.000
44.40851 116.000
44.42846 151.000
44.44840 116.000
44.46835 160.000
44.48830 121.000
44.50824 153.000
44.52819 131.000
44.54814 140.000
44.56808 138.000
44.58803 130.000
44.60798 140.000
44.62793 120.000
44.64787 134.000
44.66782 116.000
44.68777 107.000
44.70771 118.000
44.72766 111.000
44.74761 105.000
44.76755 119.000
44.78750 113.000
44.80745 132.000
44.82740 133.000
44.84734 103.000
44.86729 122.000
44.88724 133.000
44.90718 129.000
44.92713 116.000
44.94708 137.000
44.96702 162.000
44.98697 191.000
45.00692 149.000
45.02686 161.000
45.04681 164.000
45.06676 172.000
45.08671 179.000
45.10665 172.000
45.12660 182.000
45.14655 154.000
45.16649 172.000
45.18644 174.000
45.20639 147.000
45.22633 139.000
45.24628 151.000
45.26623 149.000
45.28618 142.000
45.30612 133.000
45.32607 117.000
45.34602 112.000
45.36596 127.000
45.38591 128.000
45.40586 131.000
45.42580 120.000
45.44575 124.000
45.46570 110.000
45.48565 117.000
45.50559 123.000
45.52554 106.000
45.54549 109.000
45.56543 110.000
45.58538 124.000
45.60533 130.000
45.62527 111.000
45.64522 113.000
45.66517 119.000
45.68511 116.000
45.70506 106.000
45.72501 97.000
45.74496 112.000
45.76490 87.000
45.78485 109.000
45.80480 109.000
45.82474 90.000
45.84469 105.000
45.86464 112.000
45.88458 115.000
45.90453 112.000
45.92448 102.000
45.94443 123.000
45.96437 114.000
45.98432 108.000
46.00427 128.000
46.02421 106.000
46.04416 102.000
46.06411 105.000
46.08405 115.000
46.10400 108.000
46.12395 112.000
46.14389 125.000
46.16384 103.000
46.18379 86.000
46.20374 103.000
46.22368 133.000
46.24363 112.000
46.26358 113.000
46.28352 122.000
46.30347 120.000
46.32342 106.000
46.34336 107.000
46.36331 128.000
46.38326 130.000
46.40321 139.000
46.42315 126.000
46.44310 124.000
46.46305 150.000
46.48299 150.000
46.50294 132.000
46.52289 145.000
46.54283 133.000
46.56278 117.000
46.58273 134.000
46.60267 122.000
46.62262 141.000
46.64257 133.000
46.66252 139.000
46.68246 136.000
46.70241 135.000
46.72236 116.000
46.74230 135.000
46.76225 125.000
46.78220 133.000
46.80214 126.000
46.82209 136.000
46.84204 148.000
46.86199 149.000
46.88193 125.000
46.90188 108.000
46.92183 130.000
46.94177 116.000
46.96172 136.000
46.98167 111.000
47.00161 107.000
47.02156 120.000
47.04151 123.000
47.06146 90.000
47.08140 105.000
47.10135 114.000
47.12130 133.000
47.14124 119.000
47.16119 113.000
47.18114 102.000
47.20108 111.000
47.22103 97.000
47.24098 128.000
47.26092 129.000
47.28087 94.000
47.30082 124.000
47.32077 138.000
47.34071 115.000
47.36066 106.000
47.38061 130.000
47.40055 109.000
47.42050 131.000
47.44045 124.000
47.46039 121.000
47.48034 127.000
47.50029 106.000
47.52024 108.000
47.54018 122.000
47.56013 119.000
47.58008 115.000
47.60002 113.000
47.61997 120.000
47.63992 109.000
47.65986 131.000
47.67981 98.000
47.69976 109.000
47.71970 124.000
47.73965 129.000
47.75960 125.000
47.77955 104.000
47.79949 123.000
47.81944 115.000
47.83939 108.000
47.85933 126.000
47.87928 123.000
47.89923 123.000
47.91917 129.000
47.93912 125.000
47.95907 103.000
47.97902 116.000
47.99896 114.000
48.01891 120.000
48.03886 107.000
48.05880 108.000
48.07875 109.000
48.09870 111.000
48.11864 115.000
48.13859 107.000
48.15854 127.000
48.17848 113.000
48.19843 100.000
48.21838 105.000
48.23833 126.000
48.25827 121.000
48.27822 109.000
48.29817 119.000
48.31811 108.000
48.33806 129.000
48.35801 109.000
48.37795 116.000
48.39790 119.000
48.41785 133.000
48.43780 106.000
48.45774 110.000
48.47769 119.000
48.49764 116.000
48.51758 151.000
48.53753 127.000
48.55748 122.000
48.57742 149.000
48.59737 127.000
48.61732 119.000
48.63726 139.000
48.65721 150.000
48.67716 142.000
48.69711 162.000
48.71705 146.000
48.73700 175.000
48.75695 165.000
48.77689 161.000
48.79684 172.000
48.81679 162.000
48.83673 159.000
48.85668 164.000
48.87663 149.000
48.89658 135.000
48.91652 154.000
48.93647 162.000
48.95642 141.000
48.97636 147.000
48.99631 150.000
49.01626 132.000
49.03620 147.000
49.05615 114.000
49.07610 127.000
49.09605 123.000
49.11599 128.000
49.13594 122.000
49.15589 148.000
49.17583 117.000
49.19578 112.000
49.21573 133.000
49.23567 129.000
49.25562 105.000
49.27557 123.000
49.29551 123.000
49.31546 116.000
49.33541 103.000
49.35536 115.000
49.37530 114.000
49.39525 94.000
49.41520 114.000
49.43514 107.000
49.45509 102.000
49.47504 109.000
49.49498 96.000
49.51493 89.000
49.53488 121.000
49.55483 117.000
49.57477 100.000
49.59472 92.000
49.61467 103.000
49.63461 119.000
49.65456 126.000
49.67451 108.000
49.69445 119.000
49.71440 124.000
49.73435 103.000
49.75429 100.000
49.77424 120.000
49.79419 135.000
49.81414 89.000
49.83408 107.000
49.85403 114.000
49.87398 112.000
49.89392 113.000
49.91387 110.000
49.93382 124.000
49.95376 129.000
49.97371 125.000
49.99366 103.000
50.01361 114.000
50.03355 90.000
50.05350 112.000
50.07345 124.000
50.09339 127.000
50.11334 100.000
50.13329 116.000
50.15323 127.000
50.17318 137.000
50.19313 129.000
50.21307 115.000
50.23302 111.000
50.25297 109.000
50.27292 100.000
50.29286 113.000
50.31281 117.000
50.33276 124.000
50.35270 113.000
50.37265 113.000
50.39260 102.000
50.41254 119.000
50.43249 111.000
50.45244 121.000
50.47239 117.000
50.49233 124.000
50.51228 117.000
50.53223 118.000
50.55217 134.000
50.57212 117.000
50.59207 117.000
50.61201 138.000
50.63196 122.000
50.65191 123.000
50.67186 123.000
50.69180 141.000
50.71175 134.000
50.73170 124.000
50.75164 130.000
50.77159 141.000
50.79154 136.000
50.81148 151.000
50.83143 125.000
50.85138 159.000
50.87132 134.000
50.89127 134.000
50.91122 142.000
50.93117 125.000
50.95111 161.000
50.97106 143.000
50.99101 144.000
51.01095 141.000
51.03090 130.000
51.05085 137.000
51.07079 124.000
51.09074 148.000
51.11069 131.000
51.13064 150.000
51.15058 141.000
51.17053 136.000
51.19048 126.000
51.21042 131.000
51.23037 120.000
51.25032 114.000
51.27026 112.000
51.29021 126.000
51.31016 110.000
51.33010 105.000
51.35005 103.000
51.37000 105.000
51.38995 98.000
51.40989 105.000
51.42984 131.000
51.44979 114.000
51.46973 123.000
51.48968 100.000
51.50963 123.000
51.52957 107.000
51.54952 123.000
51.56947 129.000
51.58942 100.000
51.60936 120.000
51.62931 120.000
51.64926 121.000
51.66920 109.000
51.68915 111.000
51.70910 117.000
51.72904 91.000
51.74899 107.000
51.76894 124.000
51.78888 89.000
51.80883 85.000
51.82878 106.000
51.84873 101.000
51.86867 111.000
51.88862 110.000
51.90857 109.000
51.92851 109.000
51.94846 109.000
51.96841 118.000
51.98835 106.000
52.00830 111.000
52.02825 86.000
52.04820 128.000
52.06814 102.000
52.08809 98.000
52.10804 101.000
52.12798 104.000
52.14793 101.000
52.16788 106.000
52.18782 101.000
52.20777 127.000
52.22772 112.000
52.24767 89.000
52.26761 96.000
52.28756 103.000
52.30751 80.000
52.32745 100.000
52.34740 116.000
52.36735 117.000
52.38729 109.000
52.40724 119.000
52.42719 133.000
52.44713 114.000
52.46708 118.000
52.48703 106.000
52.50698 110.000
52.52692 108.000
52.54687 112.000
52.56682 129.000
52.58676 106.000
52.60671 107.000
52.62666 130.000
52.64660 115.000
52.66655 115.000
52.68650 101.000
52.70645 105.000
52.72639 138.000
52.74634 121.000
52.76629 130.000
52.78623 101.000
52.80618 123.000
52.82613 123.000
52.84607 126.000
52.86602 117.000
52.88597 115.000
52.90591 120.000
52.92586 113.000
52.94581 124.000
52.96576 136.000
52.98570 103.000
53.00565 122.000
53.02560 113.000
53.04554 128.000
53.06549 152.000
53.08544 135.000
53.10538 123.000
53.12533 122.000
53.14528 116.000
53.16523 131.000
53.18517 158.000
53.20512 140.000
53.22507 124.000
53.24501 143.000
53.26496 135.000
53.28491 128.000
53.30485 126.000
53.32480 129.000
53.34475 123.000
53.36469 105.000
53.38464 112.000
53.40459 118.000
53.42454 129.000
53.44448 152.000
53.46443 130.000
53.48438 127.000
53.50432 155.000
53.52427 121.000
53.54422 156.000
53.56416 133.000
53.58411 152.000
53.60406 176.000
53.62401 182.000
53.64395 224.000
53.66390 244.000
53.68385 293.000
53.70379 326.000
53.72374 359.000
53.74369 333.000
53.76363 303.000
53.78358 280.000
53.80353 265.000
53.82348 225.000
53.84342 265.000
53.86337 262.000
53.88332 251.000
53.90326 222.000
53.92321 164.000
53.94316 179.000
53.96310 168.000
53.98305 154.000
54.00300 151.000
54.02294 138.000
54.04289 123.000
54.06284 126.000
54.08279 110.000
54.10273 110.000
54.12268 128.000
54.14263 123.000
54.16257 120.000
54.18252 122.000
54.20247 130.000
54.22241 111.000
54.24236 121.000
54.26231 112.000
54.28226 113.000
54.30220 107.000
54.32215 112.000
54.34210 126.000
54.36204 97.000
54.38199 124.000
54.40194 118.000
54.42188 98.000
54.44183 113.000
54.46178 128.000
54.48172 110.000
54.50167 97.000
54.52162 120.000
54.54157 124.000
54.56151 100.000
54.58146 104.000
54.60141 121.000
54.62135 102.000
54.64130 123.000
54.66125 112.000
54.68119 127.000
54.70114 133.000
54.72109 119.000
54.74104 108.000
54.76098 104.000
54.78093 131.000
54.80088 144.000
54.82082 121.000
54.84077 136.000
54.86072 127.000
54.88066 136.000
54.90061 151.000
54.92056 142.000
54.94050 147.000
54.96045 139.000
54.98040 135.000
55.00035 145.000
55.02029 126.000
55.04024 148.000
55.06019 138.000
55.08013 156.000
55.10008 156.000
55.12003 133.000
55.13997 148.000
55.15992 168.000
55.17987 153.000
55.19982 151.000
55.21976 159.000
55.23971 155.000
55.25966 172.000
55.27960 156.000
55.29955 159.000
55.31950 162.000
55.33944 159.000
55.35939 144.000
55.37934 170.000
55.39929 152.000
55.41923 146.000
55.43918 133.000
55.45913 119.000
55.47907 146.000
55.49902 137.000
55.51897 126.000
55.53891 132.000
55.55886 126.000
55.57881 113.000
55.59875 134.000
55.61870 114.000
55.63865 138.000
55.65860 127.000
55.67854 125.000
55.69849 125.000
55.71844 138.000
55.73838 93.000
55.75833 113.000
55.77828 124.000
55.79822 102.000
55.81817 119.000
55.83812 111.000
55.85807 113.000
55.87801 119.000
55.89796 134.000
55.91791 123.000
55.93785 117.000
55.95780 108.000
55.97775 134.000
55.99769 114.000
56.01764 112.000
56.03759 115.000
56.05753 112.000
56.07748 104.000
56.09743 102.000
56.11738 121.000
56.13732 136.000
56.15727 118.000
56.17722 125.000
56.19716 107.000
56.21711 114.000
56.23706 116.000
56.25700 99.000
56.27695 116.000
56.29690 131.000
56.31685 112.000
56.33679 120.000
56.35674 118.000
56.37669 121.000
56.39663 123.000
56.41658 115.000
56.43653 114.000
56.45647 117.000
56.47642 102.000
56.49637 101.000
56.51631 96.000
56.53626 115.000
56.55621 82.000
56.57616 114.000
56.59610 130.000
56.61605 127.000
56.63600 127.000
56.65594 109.000
56.67589 109.000
56.69584 132.000
56.71578 104.000
56.73573 117.000
56.75568 132.000
56.77563 135.000
56.79557 130.000
56.81552 131.000
56.83547 125.000
56.85541 128.000
56.87536 115.000
56.89531 125.000
56.91525 144.000
56.93520 134.000
56.95515 150.000
56.97510 130.000
56.99504 147.000
57.01499 135.000
57.03494 160.000
57.05488 148.000
57.07483 179.000
57.09478 192.000
57.11472 218.000
57.13467 256.000
57.15462 269.000
57.17456 288.000
57.19451 395.000
57.21446 475.000
57.23441 567.000
57.25435 690.000
57.27430 783.000
57.29425 765.000
57.31419 633.000
57.33414 593.000
57.35409 523.000
57.37403 519.000
57.39398 500.000
57.41393 490.000
57.43388 484.000
57.45382 469.000
57.47377 409.000
57.49372 327.000
57.51366 285.000
57.53361 247.000
57.55356 211.000
57.57350 182.000
57.59345 172.000
57.61340 165.000
57.63334 141.000
57.65329 148.000
57.67324 150.000
57.69319 122.000
57.71313 136.000
57.73308 138.000
57.75303 109.000
57.77297 132.000
57.79292 111.000
57.81287 131.000
57.83281 135.000
57.85276 122.000
57.87271 125.000
57.89266 128.000
57.91260 134.000
57.93255 103.000
57.95250 129.000
57.97244 146.000
57.99239 134.000
58.01234 131.000
58.03228 124.000
58.05223 118.000
58.07218 117.000
58.09212 120.000
58.11207 116.000
58.13202 127.000
58.15197 136.000
58.17191 139.000
58.19186 136.000
58.21181 144.000
58.23175 132.000
58.25170 115.000
58.27165 157.000
58.29159 129.000
58.31154 126.000
58.33149 128.000
58.35144 125.000
58.37138 131.000
58.39133 126.000
58.41128 112.000
58.43122 111.000
58.45117 127.000
58.47112 118.000
58.49106 113.000
58.51101 115.000
58.53096 112.000
58.55090 113.000
58.57085 114.000
58.59080 131.000
58.61075 117.000
58.63069 115.000
58.65064 94.000
58.67059 122.000
58.69053 127.000
58.71048 102.000
58.73043 114.000
58.75037 110.000
58.77032 100.000
58.79027 117.000
58.81022 119.000
58.83016 104.000
58.85011 109.000
58.87006 127.000
58.89000 121.000
58.90995 118.000
58.92990 112.000
58.94984 116.000
58.96979 119.000
58.98974 113.000
59.00969 117.000
59.02963 118.000
59.04958 103.000
59.06953 112.000
59.08947 131.000
59.10942 120.000
59.12937 96.000
59.14931 116.000
59.16926 132.000
59.18921 124.000
59.20915 107.000
59.22910 103.000
59.24905 121.000
59.26900 127.000
59.28894 116.000
59.30889 137.000
59.32884 130.000
59.34878 123.000
59.36873 111.000
59.38868 117.000
59.40862 123.000
59.42857 106.000
59.44852 134.000
59.46847 142.000
59.48841 131.000
59.50836 114.000
59.52831 128.000
59.54825 124.000
59.56820 121.000
59.58815 129.000
59.60809 129.000
59.62804 116.000
59.64799 118.000
59.66793 124.000
59.68788 122.000
59.70783 167.000
59.72778 149.000
59.74772 135.000
59.76767 158.000
59.78762 171.000
59.80756 173.000
59.82751 195.000
59.84746 184.000
59.86740 196.000
59.88735 181.000
59.90730 210.000
59.92725 194.000
59.94719 203.000
59.96714 220.000
59.98709 214.000
60.00703 193.000
60.02698 205.000
60.04693 180.000
60.06687 183.000
60.08682 147.000
60.10677 176.000
60.12671 151.000
60.14666 165.000
60.16661 158.000
60.18656 154.000
60.20650 138.000
60.22645 152.000
60.24640 153.000
60.26634 138.000
60.28629 137.000
60.30624 107.000
60.32618 142.000
60.34613 127.000
60.36608 148.000
60.38603 136.000
60.40597 123.000
60.42592 106.000
60.44587 119.000
60.46581 132.000
60.48576 136.000
60.50571 128.000
60.52565 135.000
60.54560 122.000
60.56555 115.000
60.58550 119.000
60.60544 147.000
60.62539 144.000
60.64534 112.000
60.66528 120.000
60.68523 130.000
60.70518 138.000
60.72512 126.000
60.74507 126.000
60.76502 130.000
60.78496 123.000
60.80491 145.000
60.82486 110.000
60.84481 131.000
60.86475 134.000
60.88470 136.000
60.90465 131.000
60.92459 142.000
60.94454 139.000
60.96449 133.000
60.98443 143.000
61.00438 157.000
61.02433 158.000
61.04428 163.000
61.06422 154.000
61.08417 129.000
61.10412 168.000
61.12406 163.000
61.14401 169.000
61.16396 189.000
61.18390 182.000
61.20385 159.000
61.22380 177.000
61.24374 186.000
61.26369 178.000
61.28364 155.000
61.30359 172.000
61.32353 182.000
61.34348 184.000
61.36343 179.000
61.38337 189.000
61.40332 184.000
61.42327 193.000
61.44321 194.000
61.46316 190.000
61.48311 200.000
61.50306 215.000
61.52300 192.000
61.54295 189.000
61.56290 164.000
61.58284 174.000
61.60279 180.000
61.62274 178.000
61.64268 180.000
61.66263 198.000
61.68258 173.000
61.70252 155.000
61.72247 174.000
61.74242 155.000
61.76237 152.000
61.78231 198.000
61.80226 150.000
61.82221 150.000
61.84215 161.000
61.86210 141.000
61.88205 143.000
61.90199 153.000
61.92194 168.000
61.94189 145.000
61.96184 161.000
61.98178 161.000
62.00173 157.000
62.02168 157.000
62.04162 153.000
62.06157 142.000
62.08152 140.000
62.10146 158.000
62.12141 167.000
62.14136 182.000
62.16131 160.000
62.18125 155.000
62.20120 171.000
62.22115 169.000
62.24109 155.000
62.26104 178.000
62.28099 153.000
62.30093 147.000
62.32088 174.000
62.34083 157.000
62.36077 143.000
62.38072 152.000
62.40067 158.000
62.42062 173.000
62.44056 163.000
62.46051 151.000
62.48046 176.000
62.50040 171.000
62.52035 185.000
62.54030 171.000
62.56024 203.000
62.58019 149.000
62.60014 183.000
62.62009 210.000
62.64003 191.000
62.65998 181.000
62.67993 226.000
62.69987 236.000
62.71982 253.000
62.73977 272.000
62.75971 267.000
62.77966 354.000
62.79961 393.000
62.81955 510.000
62.83950 547.000
62.85945 715.000
62.87940 868.000
62.89934 1001.000
62.91929 962.000
62.93924 920.000
62.95918 761.000
62.97913 641.000
62.99908 605.000
63.01902 575.000
63.03897 618.000
63.05892 656.000
63.07887 596.000
63.09881 635.000
63.11876 553.000
63.13871 425.000
63.15865 372.000
63.17860 298.000
63.19855 264.000
63.21849 228.000
63.23844 201.000
63.25839 173.000
63.27833 171.000
63.29828 160.000
63.31823 157.000
63.33818 123.000
63.35812 131.000
63.37807 131.000
63.39802 123.000
63.41796 126.000
63.43791 113.000
63.45786 124.000
63.47780 130.000
63.49775 118.000
63.51770 118.000
63.53765 106.000
63.55759 114.000
63.57754 141.000
63.59749 120.000
63.61743 115.000
63.63738 127.000
63.65733 93.000
63.67727 124.000
63.69722 102.000
63.71717 125.000
63.73712 112.000
63.75706 125.000
63.77701 126.000
63.79696 163.000
63.81690 117.000
63.83685 134.000
63.85680 124.000
63.87674 150.000
63.89669 143.000
63.91664 141.000
63.93658 135.000
63.95653 131.000
63.97648 143.000
63.99643 131.000
64.01637 131.000
64.03632 119.000
64.05627 129.000
64.07621 114.000
64.09616 126.000
64.11611 116.000
64.13605 109.000
64.15600 111.000
64.17595 111.000
64.19590 110.000
64.21584 114.000
64.23579 113.000
64.25574 118.000
64.27568 111.000
64.29563 112.000
64.31558 99.000
64.33552 120.000
64.35547 113.000
64.37542 137.000
64.39536 116.000
64.41531 133.000
64.43526 101.000
64.45521 117.000
64.47515 119.000
64.49510 116.000
64.51505 101.000
64.53499 104.000
64.55494 113.000
64.57489 109.000
64.59483 104.000
64.61478 115.000
64.63473 109.000
64.65468 106.000
64.67462 104.000
64.69457 131.000
64.71452 96.000
64.73446 130.000
64.75441 110.000
64.77436 107.000
64.79430 125.000
64.81425 122.000
64.83420 105.000
64.85414 113.000
64.87409 121.000
64.89404 119.000
64.91399 107.000
64.93393 121.000
64.95388 107.000
64.97383 137.000
64.99377 104.000
65.01372 122.000
65.03367 120.000
65.05361 125.000
65.07356 119.000
65.09351 117.000
65.11346 133.000
65.13340 124.000
65.15335 123.000
65.17330 127.000
65.19324 126.000
65.21319 119.000
65.23314 119.000
65.25308 111.000
65.27303 115.000
65.29298 115.000
65.31293 114.000
65.33287 132.000
65.35282 89.000
65.37277 128.000
65.39271 141.000
65.41266 106.000
65.43261 127.000
65.45255 124.000
65.47250 115.000
65.49245 120.000
65.51239 118.000
65.53234 120.000
65.55229 122.000
65.57224 131.000
65.59218 146.000
65.61213 139.000
65.63208 153.000
65.65202 137.000
65.67197 152.000
65.69192 126.000
65.71186 158.000
65.73181 153.000
65.75176 157.000
65.77171 157.000
65.79165 159.000
65.81160 148.000
65.83155 157.000
65.85149 164.000
65.87144 140.000
65.89139 161.000
65.91133 154.000
65.93128 162.000
65.95123 132.000
65.97117 148.000
65.99112 158.000
66.01107 150.000
66.03102 160.000
66.05096 164.000
66.07091 158.000
66.09086 157.000
66.11080 177.000
66.13075 177.000
66.15070 170.000
66.17064 193.000
66.19059 191.000
66.21054 187.000
66.23049 173.000
66.25043 153.000
66.27038 166.000
66.29033 163.000
66.31027 160.000
66.33022 154.000
66.35017 172.000
66.37011 150.000
66.39006 147.000
66.41001 142.000
66.42995 132.000
66.44990 142.000
66.46985 136.000
66.48980 129.000
66.50974 128.000
66.52969 117.000
66.54964 117.000
66.56958 122.000
66.58953 117.000
66.60948 108.000
66.62942 129.000
66.64937 112.000
66.66932 95.000
66.68927 129.000
66.70921 109.000
66.72916 107.000
66.74911 113.000
66.76905 114.000
66.78900 118.000
66.80895 106.000
66.82889 94.000
66.84884 119.000
66.86879 95.000
66.88874 112.000
66.90868 116.000
66.92863 132.000
66.94858 130.000
66.96852 105.000
66.98847 120.000
67.00842 112.000
67.02836 99.000
67.04831 121.000
67.06826 119.000
67.08820 103.000
67.10815 86.000
67.12810 113.000
67.14805 106.000
67.16799 122.000
67.18794 99.000
67.20789 109.000
67.22783 114.000
67.24778 114.000
67.26773 129.000
67.28767 118.000
67.30762 133.000
67.32757 123.000
67.34752 96.000
67.36746 123.000
67.38741 101.000
67.40736 119.000
67.42730 96.000
67.44725 117.000
67.46720 104.000
67.48714 121.000
67.50709 126.000
67.52704 129.000
67.54698 109.000
67.56693 126.000
67.58688 100.000
67.60683 114.000
67.62677 151.000
67.64672 106.000
67.66667 106.000
67.68661 137.000
67.70656 138.000
67.72651 126.000
67.74645 111.000
67.76640 117.000
67.78635 143.000
67.80630 124.000
67.82624 134.000
67.84619 114.000
67.86614 119.000
67.88608 119.000
67.90603 118.000
67.92598 113.000
67.94592 114.000
67.96587 122.000
67.98582 132.000
68.00576 126.000
68.02571 117.000
68.04566 141.000
68.06561 134.000
68.08555 111.000
68.10550 113.000
68.12545 135.000
68.14539 146.000
68.16534 122.000
68.18529 129.000
68.20523 107.000
68.22518 127.000
68.24513 108.000
68.26508 135.000
68.28502 120.000
68.30497 138.000
68.32492 103.000
68.34486 124.000
68.36481 135.000
68.38476 130.000
68.40470 114.000
68.42465 118.000
68.44460 108.000
68.46455 118.000
68.48449 108.000
68.50444 115.000
68.52439 105.000
68.54433 96.000
68.56428 103.000
68.58423 108.000
68.60417 86.000
68.62412 127.000
68.64407 100.000
68.66401 107.000
68.68396 115.000
68.70391 128.000
68.72386 97.000
68.74380 111.000
68.76375 98.000
68.78370 123.000
68.80364 98.000
68.82359 111.000
68.84354 132.000
68.86348 109.000
68.88343 117.000
68.90338 93.000
68.92333 115.000
68.94327 96.000
68.96322 113.000
68.98317 115.000
69.00311 92.000
69.02306 101.000
69.04301 94.000
69.06295 107.000
69.08290 96.000
69.10285 90.000
69.12279 111.000
69.14274 118.000
69.16269 107.000
69.18264 116.000
69.20258 96.000
69.22253 99.000
69.24248 107.000
69.26242 101.000
69.28237 108.000
69.30232 101.000
69.32226 122.000
69.34221 120.000
69.36216 104.000
69.38211 97.000
69.40205 112.000
69.42200 127.000
69.44195 98.000
69.46189 115.000
69.48184 114.000
69.50179 115.000
69.52173 118.000
69.54168 109.000
69.56163 103.000
69.58157 98.000
69.60152 102.000
69.62147 107.000
69.64142 118.000
69.66136 118.000
69.68131 117.000
69.70126 102.000
69.72120 100.000
69.74115 117.000
69.76110 88.000
69.78104 109.000
69.80099 100.000
69.82094 121.000
69.84089 112.000
69.86083 97.000
69.88078 103.000
69.90073 106.000
69.92067 90.000
69.94062 117.000
69.96057 98.000
69.98051 102.000
70.00046 114.000
70.02041 108.000
70.04035 113.000
70.06030 105.000
70.08025 108.000
70.10020 109.000
70.12014 95.000
70.14009 101.000
70.16004 111.000
70.17998 102.000
70.19993 105.000
70.21988 92.000
70.23982 86.000
70.25977 98.000
70.27972 106.000
70.29967 100.000
70.31961 92.000
70.33956 97.000
70.35951 77.000
70.37945 96.000
70.39940 111.000
70.41935 101.000
70.43929 92.000
70.45924 115.000
70.47919 95.000
70.49914 93.000
70.51908 103.000
70.53903 109.000
70.55898 109.000
70.57892 105.000
70.59887 110.000
70.61882 113.000
70.63876 92.000
70.65871 96.000
70.67866 116.000
70.69860 107.000
70.71855 111.000
70.73850 108.000
70.75845 105.000
70.77839 103.000
70.79834 95.000
70.81829 93.000
70.83823 119.000
70.85818 100.000
70.87813 131.000
70.89807 114.000
70.91802 110.000
70.93797 91.000
70.95792 120.000
70.97786 105.000
70.99781 100.000
71.01776 109.000
71.03770 112.000
71.05765 105.000
71.07760 116.000
71.09754 99.000
71.11749 108.000
71.13744 134.000
71.15738 106.000
71.17733 106.000
71.19728 127.000
71.21723 127.000
71.23717 120.000
71.25712 130.000
71.27707 155.000
71.29701 136.000
71.31696 159.000
71.33691 165.000
71.35685 151.000
71.37680 155.000
71.39675 179.000
71.41670 156.000
71.43664 136.000
71.45659 158.000
71.47654 148.000
71.49648 132.000
71.51643 147.000
71.53638 164.000
71.55632 154.000
71.57627 138.000
71.59622 165.000
71.61616 151.000
71.63611 163.000
71.65606 143.000
71.67601 132.000
71.69595 112.000
71.71590 115.000
71.73585 133.000
71.75579 104.000
71.77574 131.000
71.79569 138.000
71.81563 135.000
71.83558 110.000
71.85553 104.000
71.87548 113.000
71.89542 109.000
71.91537 86.000
71.93532 104.000
71.95526 111.000
71.97521 107.000
71.99516 108.000
72.01510 122.000
72.03505 114.000
72.05500 85.000
72.07495 103.000
72.09489 96.000
72.11484 111.000
72.13479 124.000
72.15473 110.000
72.17468 123.000
72.19463 109.000
72.21457 112.000
72.23452 131.000
72.25447 120.000
72.27441 105.000
72.29436 119.000
72.31431 122.000
72.33426 114.000
72.35420 112.000
72.37415 124.000
72.39410 119.000
72.41404 120.000
72.43399 97.000
72.45394 122.000
72.47388 111.000
72.49383 118.000
72.51378 108.000
72.53373 110.000
72.55367 122.000
72.57362 117.000
72.59357 87.000
72.61351 109.000
72.63346 97.000
72.65341 100.000
72.67335 110.000
72.69330 113.000
72.71325 114.000
72.73319 116.000
72.75314 115.000
72.77309 101.000
72.79304 120.000
72.81298 94.000
72.83293 114.000
72.85288 110.000
72.87282 120.000
72.89277 114.000
72.91272 99.000
72.93266 120.000
72.95261 121.000
72.97256 105.000
72.99251 118.000
73.01245 110.000
73.03240 111.000
73.05235 118.000
73.07229 100.000
73.09224 106.000
73.11219 94.000
73.13213 106.000
73.15208 101.000
73.17203 114.000
73.19197 96.000
73.21192 107.000
73.23187 106.000
73.25182 114.000
73.27176 98.000
73.29171 101.000
73.31166 99.000
73.33160 114.000
73.35155 109.000
73.37150 107.000
73.39144 103.000
73.41139 109.000
73.43134 118.000
73.45129 116.000
73.47123 110.000
73.49118 104.000
73.51113 91.000
73.53107 109.000
73.55102 95.000
73.57097 93.000
73.59091 119.000
73.61086 120.000
73.63081 103.000
73.65076 98.000
73.67070 125.000
73.69065 97.000
73.71060 116.000
73.73054 110.000
73.75049 115.000
73.77044 105.000
73.79038 111.000
73.81033 120.000
73.83028 102.000
73.85022 104.000
73.87017 102.000
73.89012 120.000
73.91007 125.000
73.93001 130.000
73.94996 108.000
73.96991 130.000
73.98985 116.000
74.00980 111.000
74.02975 129.000
74.04969 109.000
74.06964 117.000
74.08959 106.000
74.10954 109.000
74.12948 145.000
74.14943 97.000
74.16938 126.000
74.18932 139.000
74.20927 133.000
74.22922 121.000
74.24916 123.000
74.26911 132.000
74.28906 144.000
74.30900 168.000
74.32895 159.000
74.34890 218.000
74.36885 212.000
74.38879 198.000
74.40874 230.000
74.42869 237.000
74.44863 255.000
74.46858 246.000
74.48853 200.000
74.50847 208.000
74.52842 218.000
74.54837 221.000
74.56832 166.000
74.58826 186.000
74.60821 176.000
74.62816 195.000
74.64810 198.000
74.66805 209.000
74.68800 202.000
74.70794 179.000
74.72789 152.000
74.74784 135.000
74.76778 155.000
74.78773 148.000
74.80768 115.000
74.82763 134.000
74.84757 134.000
74.86752 127.000
74.88747 118.000
74.90741 117.000
74.92736 102.000
74.94731 122.000
74.96725 111.000
74.98720 103.000
75.00715 103.000
75.02710 120.000
75.04704 115.000
75.06699 118.000
75.08694 107.000
75.10688 102.000
75.12683 133.000
75.14678 100.000
75.16672 135.000
75.18667 125.000
75.20662 119.000
75.22657 108.000
75.24651 96.000
75.26646 129.000
75.28641 125.000
75.30635 110.000
75.32630 118.000
75.34625 142.000
75.36619 126.000
75.38614 154.000
75.40609 161.000
75.42603 169.000
75.44598 154.000
75.46593 169.000
75.48588 147.000
75.50582 177.000
75.52577 141.000
75.54572 141.000
75.56566 132.000
75.58561 134.000
75.60556 135.000
75.62550 154.000
75.64545 134.000
75.66540 133.000
75.68535 131.000
75.70529 135.000
75.72524 132.000
75.74519 132.000
75.76513 131.000
75.78508 122.000
75.80503 111.000
75.82497 114.000
75.84492 111.000
75.86487 109.000
75.88481 118.000
75.90476 124.000
75.92471 106.000
75.94466 97.000
75.96460 103.000
75.98455 107.000
76.00450 89.000
76.02444 110.000
76.04439 85.000
76.06434 95.000
76.08428 96.000
76.10423 107.000
76.12418 106.000
76.14413 106.000
76.16407 91.000
76.18402 116.000
76.20397 98.000
76.22391 107.000
76.24386 99.000
76.26381 94.000
76.28375 96.000
76.30370 106.000
76.32365 86.000
76.34359 93.000
76.36354 87.000
76.38349 101.000
76.40344 109.000
76.42338 101.000
76.44333 108.000
76.46328 94.000
76.48322 81.000
76.50317 90.000
76.52312 102.000
76.54306 109.000
76.56301 96.000
76.58296 114.000
76.60291 116.000
76.62285 111.000
76.64280 118.000
76.66275 119.000
76.68269 111.000
76.70264 113.000
76.72259 109.000
76.74253 127.000
76.76248 107.000
76.78243 101.000
76.80238 93.000
76.82232 96.000
76.84227 106.000
76.86222 106.000
76.88216 98.000
76.90211 109.000
76.92206 109.000
76.94200 110.000
76.96195 94.000
76.98190 121.000
77.00184 100.000
77.02179 112.000
77.04174 113.000
77.06169 112.000
77.08163 124.000
77.10158 95.000
77.12153 97.000
77.14147 90.000
77.16142 96.000
77.18137 114.000
77.20131 110.000
77.22126 101.000
77.24121 107.000
77.26116 107.000
77.28110 113.000
77.30105 108.000
77.32100 116.000
77.34094 116.000
77.36089 119.000
77.38084 96.000
77.40078 90.000
77.42073 92.000
77.44068 102.000
77.46062 101.000
77.48057 80.000
77.50052 100.000
77.52047 88.000
77.54041 110.000
77.56036 117.000
77.58031 101.000
77.60025 77.000
77.62020 109.000
77.64015 95.000
77.66009 98.000
77.68004 107.000
77.69999 96.000
77.71994 105.000
77.73988 98.000
77.75983 97.000
77.77978 109.000
77.79972 107.000
77.81967 101.000
77.83962 106.000
77.85956 93.000
77.87951 92.000
77.89946 94.000
77.91940 111.000
77.93935 98.000
77.95930 101.000
77.97925 95.000
77.99919 108.000
78.01914 90.000
78.03909 132.000
78.05903 82.000
78.07898 105.000
78.09893 113.000
78.11887 100.000
78.13882 96.000
78.15877 98.000
78.17872 102.000
78.19866 102.000
78.21861 87.000
78.23856 99.000
78.25850 122.000
78.27845 104.000
78.29840 89.000
78.31834 97.000
78.33829 125.000
78.35824 85.000
78.37819 98.000
78.39813 107.000
78.41808 91.000
78.43803 90.000
78.45797 104.000
78.47792 118.000
78.49787 106.000
78.51781 87.000
78.53776 105.000
78.55771 105.000
78.57765 94.000
78.59760 105.000
78.61755 102.000
78.63750 119.000
78.65744 115.000
78.67739 84.000
78.69734 84.000
78.71728 98.000
78.73723 119.000
78.75718 112.000
78.77712 104.000
78.79707 115.000
78.81702 92.000
78.83697 97.000
78.85691 128.000
78.87686 106.000
78.89681 95.000
78.91675 84.000
78.93670 111.000
78.95665 111.000
78.97659 111.000
78.99654 102.000
79.01649 117.000
79.03643 88.000
79.05638 120.000
79.07633 114.000
79.09628 123.000
79.11622 114.000
79.13617 95.000
79.15612 81.000
79.17606 112.000
79.19601 123.000
79.21596 117.000
79.23590 106.000
79.25585 109.000
79.27580 101.000
79.29575 114.000
79.31569 106.000
79.33564 138.000
79.35559 116.000
79.37553 135.000
79.39548 115.000
79.41543 134.000
79.43537 119.000
79.45532 140.000
79.47527 145.000
79.49521 144.000
79.51516 154.000
79.53511 143.000
79.55506 126.000
79.57500 114.000
79.59495 108.000
79.61490 113.000
79.63484 126.000
79.65479 113.000
79.67474 138.000
79.69468 130.000
79.71463 118.000
79.73458 115.000
79.75453 118.000
79.77447 108.000
79.79442 120.000
79.81437 91.000
79.83431 106.000
79.85426 107.000
79.87421 118.000
79.89415 99.000
79.91410 107.000
79.93405 110.000
79.95399 86.000
79.97394 99.000
79.99389 93.000
80.01384 98.000
80.03378 109.000
80.05373 110.000
80.07368 91.000
80.09362 112.000
80.11357 111.000
80.13352 101.000
80.15346 96.000
80.17341 88.000
80.19336 100.000
80.21331 97.000
80.23325 109.000
80.25320 105.000
80.27315 94.000
80.29309 113.000
80.31304 96.000
80.33299 96.000
80.35293 99.000
80.37288 96.000
80.39283 79.000
80.41278 115.000
80.43272 111.000
80.45267 107.000
80.47262 97.000
80.49256 106.000
80.51251 94.000
80.53246 110.000
80.55240 94.000
80.57235 94.000
80.59230 96.000
80.61224 115.000
80.63219 93.000
80.65214 104.000
80.67209 121.000
80.69203 130.000
80.71198 87.000
80.73193 112.000
80.75187 92.000
80.77182 95.000
80.79177 95.000
80.81171 90.000
80.83166 106.000
80.85161 86.000
80.87156 105.000
80.89150 95.000
80.91145 90.000
80.93140 86.000
80.95134 88.000
80.97129 121.000
80.99124 104.000
81.01118 111.000
81.03113 96.000
81.05108 93.000
81.07102 95.000
81.09097 95.000
81.11092 99.000
81.13087 106.000
81.15081 114.000
81.17076 82.000
81.19071 90.000
81.21065 89.000
81.23060 79.000
81.25055 111.000
81.27049 115.000
81.29044 96.000
81.31039 79.000
81.33034 96.000
81.35028 85.000
81.37023 100.000
81.39018 86.000
81.41012 107.000
81.43007 107.000
81.45002 92.000
81.46996 98.000
81.48991 109.000
81.50986 96.000
81.52980 92.000
81.54975 102.000
81.56970 94.000
81.58965 101.000
81.60959 91.000
81.62954 82.000
81.64949 112.000
81.66943 109.000
81.68938 91.000
81.70933 99.000
81.72927 101.000
81.74922 88.000
81.76917 104.000
81.78912 124.000
81.80906 109.000
81.82901 89.000
81.84896 83.000
81.86890 105.000
81.88885 95.000
81.90880 93.000
81.92874 103.000
81.94869 108.000
81.96864 101.000
81.98859 109.000
82.00853 88.000
82.02848 101.000
82.04843 104.000
82.06837 101.000
82.08832 107.000
82.10827 79.000
82.12821 91.000
82.14816 109.000
82.16811 107.000
82.18805 84.000
82.20800 96.000
82.22795 105.000
82.24790 123.000
82.26784 98.000
82.28779 103.000
82.30774 111.000
82.32768 103.000
82.34763 100.000
82.36758 102.000
82.38752 108.000
82.40747 126.000
82.42742 96.000
82.44737 120.000
82.46731 126.000
82.48726 125.000
82.50721 103.000
82.52715 112.000
82.54710 115.000
82.56705 115.000
82.58699 129.000
82.60694 108.000
82.62689 104.000
82.64683 101.000
82.66678 112.000
82.68673 109.000
82.70668 102.000
82.72662 100.000
82.74657 101.000
82.76652 104.000
82.78646 89.000
82.80641 106.000
82.82636 93.000
82.84630 106.000
82.86625 107.000
82.88620 93.000
82.90615 102.000
82.92609 102.000
82.94604 97.000
82.96599 116.000
82.98593 105.000
83.00588 118.000
83.02583 105.000
83.04577 103.000
83.06572 134.000
83.08567 92.000
83.10561 100.000
83.12556 104.000
83.14551 105.000
83.16546 100.000
83.18540 115.000
83.20535 103.000
83.22530 96.000
83.24524 109.000
83.26519 109.000
83.28514 119.000
83.30508 108.000
83.32503 117.000
83.34498 107.000
83.36493 97.000
83.38487 100.000
83.40482 98.000
83.42477 119.000
83.44471 107.000
83.46466 93.000
83.48461 110.000
83.50455 103.000
83.52450 99.000
83.54445 104.000
83.56440 106.000
83.58434 114.000
83.60429 108.000
83.62424 87.000
83.64418 117.000
83.66413 114.000
83.68408 112.000
83.70402 100.000
83.72397 116.000
83.74392 116.000
83.76386 105.000
83.78381 109.000
83.80376 102.000
83.82371 110.000
83.84365 99.000
83.86360 116.000
83.88355 113.000
83.90349 125.000
83.92344 106.000
83.94339 118.000
83.96333 111.000
83.98328 105.000
84.00323 115.000
84.02318 109.000
84.04312 100.000
84.06307 104.000
84.08302 101.000
84.10296 118.000
84.12291 127.000
84.14286 98.000
84.16280 103.000
84.18275 107.000
84.20270 103.000
84.22264 98.000
84.24259 109.000
84.26254 108.000
84.28249 98.000
84.30243 99.000
84.32238 129.000
84.34233 92.000
84.36227 104.000
84.38222 112.000
84.40217 112.000
84.42211 86.000
84.44206 103.000
84.46201 109.000
84.48196 99.000
84.50190 118.000
84.52185 102.000
84.54180 127.000
84.56174 103.000
84.58169 88.000
84.60164 98.000
84.62158 122.000
84.64153 116.000
84.66148 125.000
84.68142 115.000
84.70137 113.000
84.72132 108.000
84.74127 109.000
84.76121 124.000
84.78116 102.000
84.80111 103.000
84.82105 95.000
84.84100 128.000
84.86095 81.000
84.88089 121.000
84.90084 107.000
84.92079 103.000
84.94074 99.000
84.96068 117.000
84.98063 120.000
85.00058 87.000
85.02052 108.000
85.04047 102.000
85.06042 108.000
85.08036 87.000
85.10031 108.000
85.12026 109.000
85.14021 107.000
85.16015 95.000
85.18010 100.000
85.20005 89.000
85.21999 98.000
85.23994 95.000
85.25989 91.000
85.27983 108.000
85.29978 96.000
85.31973 95.000
85.33967 102.000
85.35962 88.000
85.37957 98.000
85.39952 100.000
85.41946 106.000
85.43941 108.000
85.45936 90.000
85.47930 85.000
85.49925 89.000
85.51920 93.000
85.53914 102.000
85.55909 103.000
85.57904 95.000
85.59899 85.000
85.61893 105.000
85.63888 115.000
85.65883 77.000
85.67877 96.000
85.69872 99.000
85.71867 92.000
85.73861 83.000
85.75856 87.000
85.77851 106.000
85.79845 90.000
85.81840 90.000
85.83835 86.000
85.85830 110.000
85.87824 93.000
85.89819 108.000
85.91814 104.000
85.93808 95.000
85.95803 96.000
85.97798 102.000
85.99792 85.000
86.01787 101.000
86.03782 90.000
86.05777 104.000
86.07771 84.000
86.09766 94.000
86.11761 94.000
86.13755 110.000
86.15750 96.000
86.17745 116.000
86.19739 88.000
86.21734 102.000
86.23729 94.000
86.25723 85.000
86.27718 113.000
86.29713 93.000
86.31708 101.000
86.33702 99.000
86.35697 119.000
86.37692 96.000
86.39686 84.000
86.41681 107.000
86.43676 105.000
86.45670 88.000
86.47665 99.000
86.49660 125.000
86.51655 111.000
86.53649 106.000
86.55644 90.000
86.57639 118.000
86.59633 120.000
86.61628 114.000
86.63623 101.000
86.65617 105.000
86.67612 108.000
86.69607 98.000
86.71602 85.000
86.73596 105.000
86.75591 111.000
86.77586 102.000
86.79580 94.000
86.81575 107.000
86.83570 107.000
86.85564 130.000
86.87559 124.000
86.89554 85.000
86.91548 95.000
86.93543 90.000
86.95538 100.000
86.97533 119.000
86.99527 99.000
87.01522 102.000
87.03517 90.000
87.05511 101.000
87.07506 93.000
87.09501 118.000
87.11495 102.000
87.13490 112.000
87.15485 116.000
87.17480 108.000
87.19474 145.000
87.21469 144.000
87.23464 134.000
87.25458 142.000
87.27453 167.000
87.29448 152.000
87.31442 168.000
87.33437 143.000
87.35432 133.000
87.37426 156.000
87.39421 149.000
87.41416 152.000
87.43411 138.000
87.45405 139.000
87.47400 132.000
87.49395 131.000
87.51389 134.000
87.53384 126.000
87.55379 116.000
87.57373 150.000
87.59368 133.000
87.61363 114.000
87.63358 115.000
87.65352 135.000
87.67347 121.000
87.69342 119.000
87.71336 125.000
87.73331 104.000
87.75326 106.000
87.77320 102.000
87.79315 113.000
87.81310 94.000
87.83304 107.000
87.85299 107.000
87.87294 103.000
87.89289 110.000
87.91283 95.000
87.93278 78.000
87.95273 105.000
87.97267 104.000
87.99262 83.000
88.01257 111.000
88.03251 100.000
88.05246 92.000
88.07241 113.000
88.09236 95.000
88.11230 113.000
88.13225 98.000
88.15220 96.000
88.17214 110.000
88.19209 109.000
88.21204 110.000
88.23198 103.000
88.25193 97.000
88.27188 73.000
88.29183 102.000
88.31177 102.000
88.33172 89.000
88.35167 106.000
88.37161 124.000
88.39156 112.000
88.41151 111.000
88.43145 114.000
88.45140 95.000
88.47135 103.000
88.49129 107.000
88.51124 99.000
88.53119 89.000
88.55114 91.000
88.57108 101.000
88.59103 106.000
88.61098 124.000
88.63092 119.000
88.65087 86.000
88.67082 103.000
88.69076 122.000
88.71071 108.000
88.73066 91.000
88.75061 110.000
88.77055 87.000
88.79050 111.000
88.81045 112.000
88.83039 92.000
88.85034 110.000
88.87029 97.000
88.89023 113.000
88.91018 86.000
88.93013 116.000
88.95007 110.000
88.97002 114.000
88.98997 113.000
89.00992 118.000
89.02986 102.000
89.04981 108.000
89.06976 101.000
89.08970 103.000
89.10965 104.000
89.12960 102.000
89.14954 110.000
89.16949 90.000
89.18944 112.000
89.20939 92.000
89.22933 108.000
89.24928 116.000
89.26923 101.000
89.28917 124.000
89.30912 119.000
89.32907 116.000
89.34901 103.000
89.36896 105.000
89.38891 110.000
89.40885 135.000
89.42880 105.000
89.44875 89.000
89.46870 112.000
89.48864 105.000
89.50859 95.000
89.52854 83.000
89.54848 108.000
89.56843 102.000
89.58838 104.000
89.60832 112.000
89.62827 108.000
89.64822 113.000
89.66817 125.000
89.68811 126.000
89.70806 128.000
89.72801 116.000
89.74795 100.000
89.76790 117.000
89.78785 112.000
89.80779 125.000
89.82774 116.000
89.84769 130.000
89.86764 109.000
89.88758 102.000
89.90753 137.000
89.92748 109.000
89.94742 148.000
89.96737 136.000
89.98732 133.000
90.00726 131.000
