10.00000 445.000
10.01995 442.000
10.03989 444.000
10.05984 402.000
10.07979 450.000
10.09973 411.000
10.11968 458.000
10.13963 417.000
10.15958 464.000
10.17952 445.000
10.19947 444.000
10.21942 416.000
10.23936 439.000
10.25931 417.000
10.27926 468.000
10.29920 460.000
10.31915 403.000
10.33910 466.000
10.35905 444.000
10.37899 464.000
10.39894 441.000
10.41889 435.000
10.43883 402.000
10.45878 445.000
10.47873 452.000
10.49867 421.000
10.51862 418.000
10.53857 447.000
10.55851 478.000
10.57846 445.000
10.59841 444.000
10.61836 440.000
10.63830 458.000
10.65825 459.000
10.67820 385.000
10.69814 438.000
10.71809 433.000
10.73804 408.000
10.75798 485.000
10.77793 478.000
10.79788 464.000
10.81783 424.000
10.83777 460.000
10.85772 438.000
10.87767 424.000
10.89761 469.000
10.91756 430.000
10.93751 467.000
10.95745 432.000
10.97740 408.000
10.99735 460.000
11.01730 439.000
11.03724 468.000
11.05719 469.000
11.07714 446.000
11.09708 431.000
11.11703 434.000
11.13698 426.000
11.15692 451.000
11.17687 426.000
11.19682 443.000
11.21676 461.000
11.23671 414.000
11.25666 428.000
11.27661 428.000
11.29655 428.000
11.31650 419.000
11.33645 473.000
11.35639 438.000
11.37634 425.000
11.39629 444.000
11.41623 426.000
11.43618 404.000
11.45613 444.000
11.47608 444.000
11.49602 449.000
11.51597 433.000
11.53592 448.000
11.55586 450.000
11.57581 454.000
11.59576 388.000
11.61570 448.000
11.63565 455.000
11.65560 399.000
11.67554 479.000
11.69549 434.000
11.71544 486.000
11.73539 438.000
11.75533 438.000
11.77528 468.000
11.79523 446.000
11.81517 402.000
11.83512 463.000
11.85507 438.000
11.87501 461.000
11.89496 448.000
11.91491 459.000
11.93486 473.000
11.95480 481.000
11.97475 466.000
11.99470 419.000
12.01464 417.000
12.03459 395.000
12.05454 440.000
12.07448 435.000
12.09443 444.000
12.11438 410.000
12.13432 448.000
12.15427 400.000
12.17422 430.000
12.19417 442.000
12.21411 461.000
12.23406 439.000
12.25401 415.000
12.27395 447.000
12.29390 461.000
12.31385 436.000
12.33379 413.000
12.35374 423.000
12.37369 465.000
12.39364 436.000
12.41358 428.000
12.43353 454.000
12.45348 446.000
12.47342 455.000
12.49337 458.000
12.51332 462.000
12.53326 439.000
12.55321 468.000
12.57316 469.000
12.59311 471.000
12.61305 445.000
12.63300 457.000
12.65295 416.000
12.67289 442.000
12.69284 471.000
12.71279 419.000
12.73273 453.000
12.75268 429.000
12.77263 456.000
12.79257 453.000
12.81252 439.000
12.83247 441.000
12.85242 412.000
12.87236 453.000
12.89231 488.000
12.91226 464.000
12.93220 411.000
12.95215 456.000
12.97210 462.000
12.99204 433.000
13.01199 427.000
13.03194 433.000
13.05189 427.000
13.07183 445.000
13.09178 457.000
13.11173 445.000
13.13167 457.000
13.15162 453.000
13.17157 421.000
13.19151 436.000
13.21146 475.000
13.23141 448.000
13.25135 438.000
13.27130 450.000
13.29125 433.000
13.31120 438.000
13.33114 478.000
13.35109 442.000
13.37104 445.000
13.39098 456.000
13.41093 412.000
13.43088 465.000
13.45082 435.000
13.47077 500.000
13.49072 485.000
13.51067 431.000
13.53061 485.000
13.55056 426.000
13.57051 418.000
13.59045 453.000
13.61040 450.000
13.63035 469.000
13.65029 452.000
13.67024 455.000
13.69019 489.000
13.71013 435.000
13.73008 455.000
13.75003 475.000
13.76998 427.000
13.78992 418.000
13.80987 466.000
13.82982 469.000
13.84976 477.000
13.86971 446.000
13.88966 468.000
13.90960 447.000
13.92955 471.000
13.94950 442.000
13.96945 429.000
13.98939 472.000
14.00934 435.000
14.02929 458.000
14.04923 413.000
14.06918 453.000
14.08913 465.000
14.10907 433.000
14.12902 471.000
14.14897 444.000
14.16892 449.000
14.18886 466.000
14.20881 465.000
14.22876 426.000
14.24870 427.000
14.26865 474.000
14.28860 437.000
14.30854 422.000
14.32849 458.000
14.34844 425.000
14.36838 469.000
14.38833 469.000
14.40828 440.000
14.42823 414.000
14.44817 465.000
14.46812 433.000
14.48807 442.000
14.50801 445.000
14.52796 474.000
14.54791 434.000
14.56785 423.000
14.58780 438.000
14.60775 468.000
14.62770 438.000
14.64764 429.000
14.66759 463.000
14.68754 451.000
14.70748 426.000
14.72743 455.000
14.74738 432.000
14.76732 388.000
14.78727 447.000
14.80722 472.000
14.82716 441.000
14.84711 464.000
14.86706 468.000
14.88701 455.000
14.90695 494.000
14.92690 470.000
14.94685 510.000
14.96679 458.000
14.98674 464.000
15.00669 459.000
15.02663 442.000
15.04658 488.000
15.06653 474.000
15.08648 451.000
15.10642 460.000
15.12637 426.000
15.14632 510.000
15.16626 432.000
15.18621 464.000
15.20616 486.000
15.22610 455.000
15.24605 429.000
15.26600 459.000
15.28594 457.000
15.30589 501.000
15.32584 503.000
15.34579 478.000
15.36573 491.000
15.38568 469.000
15.40563 491.000
15.42557 476.000
15.44552 503.000
15.46547 466.000
15.48541 495.000
15.50536 444.000
15.52531 507.000
15.54526 557.000
15.56520 524.000
15.58515 531.000
15.60510 533.000
15.62504 569.000
15.64499 629.000
15.66494 657.000
15.68488 752.000
15.70483 840.000
15.72478 929.000
15.74472 1193.000
15.76467 1661.000
15.78462 2475.000
15.80457 3625.000
15.82451 4918.000
15.84446 5329.000
15.86441 4663.000
15.88435 3215.000
15.90430 2009.000
15.92425 1035.000
15.94419 678.000
15.96414 638.000
15.98409 539.000
16.00404 524.000
16.02398 526.000
16.04393 489.000
16.06388 494.000
16.08382 503.000
16.10377 506.000
16.12372 456.000
16.14366 457.000
16.16361 496.000
16.18356 469.000
16.20351 483.000
16.22345 489.000
16.24340 494.000
16.26335 470.000
16.28329 476.000
16.30324 478.000
16.32319 453.000
16.34313 498.000
16.36308 478.000
16.38303 453.000
16.40297 466.000
16.42292 476.000
16.44287 476.000
16.46282 461.000
16.48276 508.000
16.50271 475.000
16.52266 449.000
16.54260 435.000
16.56255 448.000
16.58250 471.000
16.60244 432.000
16.62239 468.000
16.64234 441.000
16.66229 467.000
16.68223 482.000
16.70218 442.000
16.72213 459.000
16.74207 462.000
16.76202 543.000
16.78197 510.000
16.80191 489.000
16.82186 545.000
16.84181 551.000
16.86175 548.000
16.88170 519.000
16.90165 498.000
16.92160 476.000
16.94154 478.000
16.96149 442.000
16.98144 481.000
17.00138 443.000
17.02133 466.000
17.04128 449.000
17.06122 440.000
17.08117 465.000
17.10112 475.000
17.12107 427.000
17.14101 466.000
17.16096 458.000
17.18091 467.000
17.20085 463.000
17.22080 461.000
17.24075 434.000
17.26069 446.000
17.28064 527.000
17.30059 441.000
17.32053 440.000
17.34048 474.000
17.36043 430.000
17.38038 449.000
17.40032 483.000
17.42027 471.000
17.44022 455.000
17.46016 453.000
17.48011 440.000
17.50006 504.000
17.52000 475.000
17.53995 467.000
17.55990 447.000
17.57985 486.000
17.59979 489.000
17.61974 479.000
17.63969 432.000
17.65963 450.000
17.67958 451.000
17.69953 494.000
17.71947 442.000
17.73942 484.000
17.75937 486.000
17.77932 438.000
17.79926 456.000
17.81921 409.000
17.83916 432.000
17.85910 434.000
17.87905 438.000
17.89900 471.000
17.91894 471.000
17.93889 455.000
17.95884 484.000
17.97878 424.000
17.99873 407.000
18.01868 437.000
18.03863 426.000
18.05857 482.000
18.07852 471.000
18.09847 450.000
18.11841 451.000
18.13836 434.000
18.15831 456.000
18.17825 458.000
18.19820 402.000
18.21815 426.000
18.23810 451.000
18.25804 474.000
18.27799 484.000
18.29794 465.000
18.31788 450.000
18.33783 471.000
18.35778 441.000
18.37772 440.000
18.39767 456.000
18.41762 445.000
18.43756 434.000
18.45751 469.000
18.47746 439.000
18.49741 454.000
18.51735 446.000
18.53730 460.000
18.55725 472.000
18.57719 463.000
18.59714 467.000
18.61709 456.000
18.63703 460.000
18.65698 462.000
18.67693 451.000
18.69688 443.000
18.71682 428.000
18.73677 466.000
18.75672 458.000
18.77666 480.000
18.79661 428.000
18.81656 478.000
18.83650 456.000
18.85645 468.000
18.87640 448.000
18.89634 476.000
18.91629 495.000
18.93624 410.000
18.95619 447.000
18.97613 469.000
18.99608 426.000
19.01603 484.000
19.03597 429.000
19.05592 449.000
19.07587 440.000
19.09581 427.000
19.11576 439.000
19.13571 444.000
19.15566 454.000
19.17560 455.000
19.19555 468.000
19.21550 421.000
19.23544 443.000
19.25539 471.000
19.27534 461.000
19.29528 453.000
19.31523 447.000
19.33518 437.000
19.35513 452.000
19.37507 469.000
19.39502 453.000
19.41497 426.000
19.43491 514.000
19.45486 485.000
19.47481 462.000
19.49475 437.000
19.51470 485.000
19.53465 474.000
19.55459 428.000
19.57454 517.000
19.59449 456.000
19.61444 442.000
19.63438 457.000
19.65433 436.000
19.67428 420.000
19.69422 472.000
19.71417 449.000
19.73412 482.000
19.75406 448.000
19.77401 473.000
19.79396 482.000
19.81391 457.000
19.83385 466.000
19.85380 416.000
19.87375 482.000
19.89369 467.000
19.91364 472.000
19.93359 460.000
19.95353 483.000
19.97348 451.000
19.99343 448.000
20.01337 418.000
20.03332 476.000
20.05327 460.000
20.07322 485.000
20.09316 481.000
20.11311 460.000
20.13306 471.000
20.15300 491.000
20.17295 480.000
20.19290 461.000
20.21284 461.000
20.23279 511.000
20.25274 485.000
20.27269 454.000
20.29263 445.000
20.31258 456.000
20.33253 406.000
20.35247 471.000
20.37242 475.000
20.39237 471.000
20.41231 490.000
20.43226 428.000
20.45221 464.000
20.47215 446.000
20.49210 483.000
20.51205 475.000
20.53200 493.000
20.55194 485.000
20.57189 455.000
20.59184 485.000
20.61178 467.000
20.63173 465.000
20.65168 429.000
20.67162 482.000
20.69157 412.000
20.71152 508.000
20.73147 454.000
20.75141 504.000
20.77136 480.000
20.79131 446.000
20.81125 448.000
20.83120 499.000
20.85115 498.000
20.87109 472.000
20.89104 532.000
20.91099 451.000
20.93094 466.000
20.95088 484.000
20.97083 513.000
20.99078 528.000
21.01072 529.000
21.03067 518.000
21.05062 602.000
21.07056 658.000
21.09051 621.000
21.11046 629.000
21.13040 626.000
21.15035 607.000
21.17030 576.000
21.19025 538.000
21.21019 522.000
21.23014 480.000
21.25009 517.000
21.27003 473.000
21.28998 474.000
21.30993 431.000
21.32987 470.000
21.34982 471.000
21.36977 470.000
21.38972 422.000
21.40966 486.000
21.42961 466.000
21.44956 410.000
21.46950 445.000
21.48945 449.000
21.50940 454.000
21.52934 495.000
21.54929 449.000
21.56924 478.000
21.58918 445.000
21.60913 478.000
21.62908 527.000
21.64903 454.000
21.66897 467.000
21.68892 484.000
21.70887 442.000
21.72881 454.000
21.74876 502.000
21.76871 492.000
21.78865 455.000
21.80860 498.000
21.82855 464.000
21.84850 480.000
21.86844 440.000
21.88839 503.000
21.90834 462.000
21.92828 471.000
21.94823 460.000
21.96818 516.000
21.98812 479.000
22.00807 470.000
22.02802 434.000
22.04796 471.000
22.06791 471.000
22.08786 455.000
22.10781 503.000
22.12775 443.000
22.14770 466.000
22.16765 448.000
22.18759 477.000
22.20754 423.000
22.22749 468.000
22.24743 466.000
22.26738 491.000
22.28733 488.000
22.30728 452.000
22.32722 503.000
22.34717 499.000
22.36712 484.000
22.38706 454.000
22.40701 468.000
22.42696 492.000
22.44690 476.000
22.46685 477.000
22.48680 468.000
22.50675 479.000
22.52669 480.000
22.54664 471.000
22.56659 444.000
22.58653 438.000
22.60648 452.000
22.62643 467.000
22.64637 465.000
22.66632 480.000
22.68627 462.000
22.70621 495.000
22.72616 467.000
22.74611 452.000
22.76606 436.000
22.78600 496.000
22.80595 505.000
22.82590 486.000
22.84584 487.000
22.86579 463.000
22.88574 449.000
22.90568 449.000
22.92563 457.000
22.94558 453.000
22.96553 471.000
22.98547 440.000
23.00542 470.000
23.02537 456.000
23.04531 482.000
23.06526 487.000
23.08521 449.000
23.10515 492.000
23.12510 449.000
23.14505 457.000
23.16499 454.000
23.18494 482.000
23.20489 475.000
23.22484 494.000
23.24478 502.000
23.26473 451.000
23.28468 497.000
23.30462 462.000
23.32457 463.000
23.34452 470.000
23.36446 468.000
23.38441 478.000
23.40436 496.000
23.42431 470.000
23.44425 480.000
23.46420 477.000
23.48415 475.000
23.50409 485.000
23.52404 477.000
23.54399 469.000
23.56393 472.000
23.58388 433.000
23.60383 471.000
23.62377 466.000
23.64372 469.000
23.66367 474.000
23.68362 478.000
23.70356 444.000
23.72351 510.000
23.74346 432.000
23.76340 475.000
23.78335 475.000
23.80330 497.000
23.82324 470.000
23.84319 513.000
23.86314 483.000
23.88309 455.000
23.90303 420.000
23.92298 485.000
23.94293 478.000
23.96287 474.000
23.98282 424.000
24.00277 480.000
24.02271 483.000
24.04266 448.000
24.06261 499.000
24.08256 457.000
24.10250 451.000
24.12245 452.000
24.14240 486.000
24.16234 503.000
24.18229 461.000
24.20224 468.000
24.22218 468.000
24.24213 476.000
24.26208 513.000
24.28202 472.000
24.30197 431.000
24.32192 476.000
24.34187 494.000
24.36181 459.000
24.38176 478.000
24.40171 512.000
24.42165 484.000
24.44160 447.000
24.46155 472.000
24.48149 482.000
24.50144 498.000
24.52139 469.000
24.54134 458.000
24.56128 470.000
24.58123 458.000
24.60118 465.000
24.62112 449.000
24.64107 516.000
24.66102 455.000
24.68096 492.000
24.70091 456.000
24.72086 491.000
24.74080 501.000
24.76075 473.000
24.78070 483.000
24.80065 445.000
24.82059 470.000
24.84054 471.000
24.86049 496.000
24.88043 504.000
24.90038 494.000
24.92033 492.000
24.94027 508.000
24.96022 558.000
24.98017 520.000
25.00012 533.000
25.02006 561.000
25.04001 512.000
25.05996 513.000
25.07990 496.000
25.09985 489.000
25.11980 510.000
25.13974 493.000
25.15969 494.000
25.17964 419.000
25.19958 440.000
25.21953 505.000
25.23948 484.000
25.25943 476.000
25.27937 479.000
25.29932 474.000
25.31927 472.000
25.33921 511.000
25.35916 502.000
25.37911 466.000
25.39905 463.000
25.41900 496.000
25.43895 478.000
25.45890 472.000
25.47884 442.000
25.49879 491.000
25.51874 430.000
25.53868 458.000
25.55863 452.000
25.57858 535.000
25.59852 458.000
25.61847 488.000
25.63842 481.000
25.65837 495.000
25.67831 492.000
25.69826 453.000
25.71821 477.000
25.73815 464.000
25.75810 461.000
25.77805 457.000
25.79799 516.000
25.81794 464.000
25.83789 463.000
25.85783 445.000
25.87778 500.000
25.89773 456.000
25.91768 503.000
25.93762 505.000
25.95757 475.000
25.97752 476.000
25.99746 530.000
26.01741 504.000
26.03736 503.000
26.05730 492.000
26.07725 494.000
26.09720 482.000
26.11715 481.000
26.13709 472.000
26.15704 457.000
26.17699 462.000
26.19693 479.000
26.21688 440.000
26.23683 480.000
26.25677 513.000
26.27672 463.000
26.29667 490.000
26.31661 491.000
26.33656 514.000
26.35651 518.000
26.37646 438.000
26.39640 504.000
26.41635 474.000
26.43630 491.000
26.45624 487.000
26.47619 482.000
26.49614 517.000
26.51608 482.000
26.53603 459.000
26.55598 458.000
26.57593 504.000
26.59587 478.000
26.61582 526.000
26.63577 495.000
26.65571 527.000
26.67566 492.000
26.69561 500.000
26.71555 456.000
26.73550 472.000
26.75545 500.000
26.77539 514.000
26.79534 457.000
26.81529 490.000
26.83524 495.000
26.85518 487.000
26.87513 463.000
26.89508 507.000
26.91502 461.000
26.93497 482.000
26.95492 507.000
26.97486 509.000
26.99481 480.000
27.01476 484.000
27.03471 473.000
27.05465 512.000
27.07460 467.000
27.09455 463.000
27.11449 485.000
27.13444 510.000
27.15439 520.000
27.17433 522.000
27.19428 499.000
27.21423 486.000
27.23417 543.000
27.25412 509.000
27.27407 487.000
27.29402 548.000
27.31396 522.000
27.33391 520.000
27.35386 485.000
27.37380 504.000
27.39375 485.000
27.41370 485.000
27.43364 512.000
27.45359 516.000
27.47354 492.000
27.49349 495.000
27.51343 485.000
27.53338 483.000
27.55333 481.000
27.57327 491.000
27.59322 498.000
27.61317 500.000
27.63311 512.000
27.65306 486.000
27.67301 476.000
27.69296 445.000
27.71290 495.000
27.73285 503.000
27.75280 465.000
27.77274 493.000
27.79269 505.000
27.81264 479.000
27.83258 488.000
27.85253 478.000
27.87248 479.000
27.89242 499.000
27.91237 465.000
27.93232 461.000
27.95227 514.000
27.97221 489.000
27.99216 483.000
28.01211 514.000
28.03205 480.000
28.05200 484.000
28.07195 499.000
28.09189 509.000
28.11184 510.000
28.13179 528.000
28.15174 480.000
28.17168 488.000
28.19163 492.000
28.21158 497.000
28.23152 522.000
28.25147 507.000
28.27142 546.000
28.29136 504.000
28.31131 537.000
28.33126 525.000
28.35120 524.000
28.37115 518.000
28.39110 533.000
28.41105 518.000
28.43099 524.000
28.45094 536.000
28.47089 504.000
28.49083 519.000
28.51078 494.000
28.53073 498.000
28.55067 455.000
28.57062 513.000
28.59057 489.000
28.61052 539.000
28.63046 500.000
28.65041 475.000
28.67036 524.000
28.69030 451.000
28.71025 469.000
28.73020 462.000
28.75014 502.000
28.77009 503.000
28.79004 461.000
28.80998 469.000
28.82993 509.000
28.84988 484.000
28.86983 535.000
28.88977 509.000
28.90972 489.000
28.92967 481.000
28.94961 470.000
28.96956 464.000
28.98951 482.000
29.00945 521.000
29.02940 497.000
29.04935 467.000
29.06930 473.000
29.08924 466.000
29.10919 497.000
29.12914 503.000
29.14908 503.000
29.16903 518.000
29.18898 505.000
29.20892 491.000
29.22887 495.000
29.24882 552.000
29.26877 533.000
29.28871 626.000
29.30866 588.000
29.32861 693.000
29.34855 673.000
29.36850 662.000
29.38845 653.000
29.40839 586.000
29.42834 639.000
29.44829 627.000
29.46823 579.000
29.48818 573.000
29.50813 556.000
29.52808 550.000
29.54802 520.000
29.56797 549.000
29.58792 534.000
29.60786 525.000
29.62781 508.000
29.64776 535.000
29.66770 499.000
29.68765 485.000
29.70760 476.000
29.72755 486.000
29.74749 529.000
29.76744 473.000
29.78739 501.000
29.80733 541.000
29.82728 501.000
29.84723 499.000
29.86717 488.000
29.88712 483.000
29.90707 508.000
29.92701 516.000
29.94696 531.000
29.96691 463.000
29.98686 536.000
30.00680 535.000
30.02675 511.000
30.04670 496.000
30.06664 491.000
30.08659 477.000
30.10654 498.000
30.12648 477.000
30.14643 510.000
30.16638 513.000
30.18633 498.000
30.20627 486.000
30.22622 537.000
30.24617 549.000
30.26611 523.000
30.28606 497.000
30.30601 505.000
30.32595 500.000
30.34590 522.000
30.36585 493.000
30.38579 493.000
30.40574 477.000
30.42569 517.000
30.44564 464.000
30.46558 485.000
30.48553 506.000
30.50548 525.000
30.52542 491.000
30.54537 513.000
30.56532 523.000
30.58526 523.000
30.60521 485.000
30.62516 494.000
30.64511 525.000
30.66505 493.000
30.68500 482.000
30.70495 511.000
30.72489 578.000
30.74484 530.000
30.76479 549.000
30.78473 492.000
30.80468 556.000
30.82463 491.000
30.84458 495.000
30.86452 494.000
30.88447 482.000
30.90442 550.000
30.92436 527.000
30.94431 477.000
30.96426 511.000
30.98420 490.000
31.00415 558.000
31.02410 468.000
31.04404 480.000
31.06399 520.000
31.08394 495.000
31.10389 496.000
31.12383 515.000
31.14378 501.000
31.16373 537.000
31.18367 504.000
31.20362 467.000
31.22357 491.000
31.24351 480.000
31.26346 493.000
31.28341 530.000
31.30336 532.000
31.32330 518.000
31.34325 482.000
31.36320 527.000
31.38314 523.000
31.40309 523.000
31.42304 510.000
31.44298 523.000
31.46293 515.000
31.48288 522.000
31.50282 524.000
31.52277 554.000
31.54272 551.000
31.56267 548.000
31.58261 545.000
31.60256 555.000
31.62251 545.000
31.64245 500.000
31.66240 527.000
31.68235 526.000
31.70229 522.000
31.72224 525.000
31.74219 509.000
31.76214 522.000
31.78208 501.000
31.80203 541.000
31.82198 563.000
31.84192 578.000
31.86187 558.000
31.88182 602.000
31.90176 529.000
31.92171 628.000
31.94166 693.000
31.96160 760.000
31.98155 847.000
32.00150 923.000
32.02145 966.000
32.04139 861.000
32.06134 787.000
32.08129 747.000
32.10123 714.000
32.12118 692.000
32.14113 616.000
32.16107 529.000
32.18102 549.000
32.20097 546.000
32.22092 507.000
32.24086 532.000
32.26081 524.000
32.28076 546.000
32.30070 548.000
32.32065 599.000
32.34060 545.000
32.36054 601.000
32.38049 637.000
32.40044 793.000
32.42039 845.000
32.44033 909.000
32.46028 991.000
32.48023 957.000
32.50017 951.000
32.52012 872.000
32.54007 874.000
32.56001 796.000
32.57996 695.000
32.59991 701.000
32.61985 688.000
32.63980 579.000
32.65975 554.000
32.67970 533.000
32.69964 533.000
32.71959 538.000
32.73954 549.000
32.75948 520.000
32.77943 520.000
32.79938 529.000
32.81932 540.000
32.83927 516.000
32.85922 501.000
32.87917 533.000
32.89911 525.000
32.91906 492.000
32.93901 526.000
32.95895 551.000
32.97890 493.000
32.99885 506.000
33.01879 491.000
33.03874 516.000
33.05869 513.000
33.07863 538.000
33.09858 466.000
33.11853 529.000
33.13848 537.000
33.15842 486.000
33.17837 460.000
33.19832 496.000
33.21826 491.000
33.23821 510.000
33.25816 483.000
33.27810 510.000
33.29805 491.000
33.31800 481.000
33.33795 516.000
33.35789 492.000
33.37784 493.000
33.39779 539.000
33.41773 508.000
33.43768 529.000
33.45763 517.000
33.47757 486.000
33.49752 521.000
33.51747 535.000
33.53741 511.000
33.55736 464.000
33.57731 503.000
33.59726 521.000
33.61720 508.000
33.63715 502.000
33.65710 512.000
33.67704 538.000
33.69699 532.000
33.71694 537.000
33.73688 487.000
33.75683 486.000
33.77678 530.000
33.79673 476.000
33.81667 514.000
33.83662 517.000
33.85657 503.000
33.87651 546.000
33.89646 526.000
33.91641 485.000
33.93635 522.000
33.95630 529.000
33.97625 508.000
33.99620 528.000
34.01614 513.000
34.03609 516.000
34.05604 511.000
34.07598 506.000
34.09593 525.000
34.11588 584.000
34.13582 508.000
34.15577 523.000
34.17572 575.000
34.19566 517.000
34.21561 532.000
34.23556 511.000
34.25551 513.000
34.27545 528.000
34.29540 508.000
34.31535 535.000
34.33529 554.000
34.35524 556.000
34.37519 510.000
34.39513 515.000
34.41508 558.000
34.43503 555.000
34.45498 529.000
34.47492 538.000
34.49487 563.000
34.51482 559.000
34.53476 560.000
34.55471 539.000
34.57466 573.000
34.59460 626.000
34.61455 611.000
34.63450 599.000
34.65444 663.000
34.67439 645.000
34.69434 733.000
34.71429 738.000
34.73423 733.000
34.75418 741.000
34.77413 781.000
34.79407 834.000
34.81402 832.000
34.83397 810.000
34.85391 844.000
34.87386 773.000
34.89381 770.000
34.91376 734.000
34.93370 709.000
34.95365 644.000
34.97360 637.000
34.99354 649.000
35.01349 683.000
35.03344 670.000
35.05338 636.000
35.07333 654.000
35.09328 640.000
35.11322 655.000
35.13317 696.000
35.15312 672.000
35.17307 657.000
35.19301 778.000
35.21296 834.000
35.23291 852.000
35.25285 956.000
35.27280 999.000
35.29275 1067.000
35.31269 1315.000
35.33264 1454.000
35.35259 1887.000
35.37254 2336.000
35.39248 2935.000
35.41243 3042.000
35.43238 3138.000
35.45232 3411.000
35.47227 4098.000
35.49222 4897.000
35.51216 5182.000
35.53211 5007.000
35.55206 4847.000
35.57201 4290.000
35.59195 3958.000
35.61190 3522.000
35.63185 3021.000
35.65179 2428.000
35.67174 1957.000
35.69169 1524.000
35.71163 1291.000
35.73158 1114.000
35.75153 980.000
35.77147 949.000
35.79142 922.000
35.81137 964.000
35.83132 977.000
35.85126 1033.000
35.87121 1107.000
35.89116 1203.000
35.91110 1165.000
35.93105 1052.000
35.95100 897.000
35.97094 875.000
35.99089 848.000
36.01084 735.000
36.03079 615.000
36.05073 621.000
36.07068 575.000
36.09063 609.000
36.11057 579.000
36.13052 588.000
36.15047 590.000
36.17041 627.000
36.19036 582.000
36.21031 569.000
36.23025 579.000
36.25020 592.000
36.27015 570.000
36.29010 613.000
36.31004 594.000
36.32999 503.000
36.34994 575.000
36.36988 571.000
36.38983 530.000
36.40978 579.000
36.42972 609.000
36.44967 590.000
36.46962 586.000
36.48957 572.000
36.50951 549.000
36.52946 593.000
36.54941 626.000
36.56935 560.000
36.58930 599.000
36.60925 546.000
36.62919 557.000
36.64914 582.000
36.66909 567.000
36.68903 525.000
36.70898 609.000
36.72893 598.000
36.74888 579.000
36.76882 586.000
36.78877 590.000
36.80872 636.000
36.82866 612.000
36.84861 585.000
36.86856 653.000
36.88850 655.000
36.90845 628.000
36.92840 613.000
36.94835 626.000
36.96829 663.000
36.98824 684.000
37.00819 780.000
37.02813 807.000
37.04808 947.000
37.06803 1096.000
37.08797 1220.000
37.10792 1270.000
37.12787 1354.000
37.14781 1351.000
37.16776 1244.000
37.18771 1207.000
37.20766 1196.000
37.22760 1087.000
37.24755 1006.000
37.26750 855.000
37.28744 799.000
37.30739 701.000
37.32734 681.000
37.34728 699.000
37.36723 611.000
37.38718 604.000
37.40713 609.000
37.42707 570.000
37.44702 606.000
37.46697 571.000
37.48691 613.000
37.50686 577.000
37.52681 572.000
37.54675 558.000
37.56670 568.000
37.58665 535.000
37.60660 552.000
37.62654 562.000
37.64649 579.000
37.66644 553.000
37.68638 571.000
37.70633 613.000
37.72628 536.000
37.74622 577.000
37.76617 567.000
37.78612 531.000
37.80606 545.000
37.82601 592.000
37.84596 566.000
37.86591 591.000
37.88585 576.000
37.90580 579.000
37.92575 572.000
37.94569 613.000
37.96564 583.000
37.98559 583.000
38.00553 592.000
38.02548 633.000
38.04543 605.000
38.06538 566.000
38.08532 626.000
38.10527 590.000
38.12522 632.000
38.14516 592.000
38.16511 650.000
38.18506 633.000
38.20500 641.000
38.22495 698.000
38.24490 710.000
38.26484 688.000
38.28479 749.000
38.30474 741.000
38.32469 793.000
38.34463 827.000
38.36458 885.000
38.38453 901.000
38.40447 1039.000
38.42442 1044.000
38.44437 1172.000
38.46431 1217.000
38.48426 1441.000
38.50421 1618.000
38.52416 1939.000
38.54410 2448.000
38.56405 2895.000
38.58400 3585.000
38.60394 4162.000
38.62389 4655.000
38.64384 4885.000
38.66378 4877.000
38.68373 4845.000
38.70368 4489.000
38.72362 4306.000
38.74357 3898.000
38.76352 3368.000
38.78347 2945.000
38.80341 2613.000
38.82336 2248.000
38.84331 2000.000
38.86325 1875.000
38.88320 1746.000
38.90315 1765.000
38.92309 1682.000
38.94304 1739.000
38.96299 1565.000
38.98294 1687.000
39.00288 1604.000
39.02283 1488.000
39.04278 1355.000
39.06272 1192.000
39.08267 1064.000
39.10262 1101.000
39.12256 964.000
39.14251 856.000
39.16246 797.000
39.18241 750.000
39.20235 744.000
39.22230 722.000
39.24225 773.000
39.26219 707.000
39.28214 763.000
39.30209 821.000
39.32203 856.000
39.34198 871.000
39.36193 1015.000
39.38187 1249.000
39.40182 1328.000
39.42177 1503.000
39.44172 1558.000
39.46166 1548.000
39.48161 1516.000
39.50156 1375.000
39.52150 1240.000
39.54145 1209.000
39.56140 1040.000
39.58134 957.000
39.60129 825.000
39.62124 782.000
39.64119 697.000
39.66113 599.000
39.68108 574.000
39.70103 580.000
39.72097 566.000
39.74092 609.000
39.76087 515.000
39.78081 564.000
39.80076 575.000
39.82071 531.000
39.84065 570.000
39.86060 534.000
39.88055 546.000
39.90050 568.000
39.92044 523.000
39.94039 521.000
39.96034 564.000
39.98028 539.000
40.00023 564.000
40.02018 543.000
40.04012 530.000
40.06007 522.000
40.08002 525.000
40.09997 504.000
40.11991 586.000
40.13986 519.000
40.15981 544.000
40.17975 533.000
40.19970 530.000
40.21965 484.000
40.23959 536.000
40.25954 500.000
40.27949 524.000
40.29943 518.000
40.31938 485.000
40.33933 513.000
40.35928 492.000
40.37922 481.000
40.39917 494.000
40.41912 502.000
40.43906 515.000
40.45901 524.000
40.47896 519.000
40.49890 519.000
40.51885 555.000
40.53880 509.000
40.55875 498.000
40.57869 494.000
40.59864 480.000
40.61859 487.000
40.63853 538.000
40.65848 532.000
40.67843 490.000
40.69837 510.000
40.71832 522.000
40.73827 492.000
40.75822 518.000
40.77816 499.000
40.79811 535.000
40.81806 493.000
40.83800 502.000
40.85795 547.000
40.87790 477.000
40.89784 538.000
40.91779 507.000
40.93774 467.000
40.95768 495.000
40.97763 489.000
40.99758 516.000
41.01753 529.000
41.03747 507.000
41.05742 468.000
41.07737 526.000
41.09731 502.000
41.11726 481.000
41.13721 555.000
41.15715 523.000
41.17710 497.000
41.19705 533.000
41.21700 521.000
41.23694 563.000
41.25689 504.000
41.27684 504.000
41.29678 514.000
41.31673 478.000
41.33668 461.000
41.35662 502.000
41.37657 520.000
41.39652 490.000
41.41646 500.000
41.43641 507.000
41.45636 490.000
41.47631 513.000
41.49625 504.000
41.51620 538.000
41.53615 513.000
41.55609 511.000
41.57604 523.000
41.59599 525.000
41.61593 548.000
41.63588 513.000
41.65583 495.000
41.67578 514.000
41.69572 533.000
41.71567 514.000
41.73562 491.000
41.75556 531.000
41.77551 518.000
41.79546 487.000
41.81540 510.000
41.83535 498.000
41.85530 493.000
41.87524 465.000
41.89519 512.000
41.91514 536.000
41.93509 494.000
41.95503 516.000
41.97498 492.000
41.99493 514.000
42.01487 563.000
42.03482 500.000
42.05477 512.000
42.07471 524.000
42.09466 508.000
42.11461 487.000
42.13456 481.000
42.15450 517.000
42.17445 489.000
42.19440 449.000
42.21434 504.000
42.23429 486.000
42.25424 522.000
42.27418 507.000
42.29413 523.000
42.31408 470.000
42.33403 496.000
42.35397 529.000
42.37392 532.000
42.39387 490.000
42.41381 521.000
42.43376 486.000
42.45371 529.000
42.47365 498.000
42.49360 576.000
42.51355 471.000
42.53349 521.000
42.55344 555.000
42.57339 511.000
42.59334 526.000
42.61328 541.000
42.63323 536.000
42.65318 548.000
42.67312 566.000
42.69307 512.000
42.71302 510.000
42.73296 555.000
42.75291 586.000
42.77286 580.000
42.79281 597.000
42.81275 611.000
42.83270 601.000
42.85265 573.000
42.87259 684.000
42.89254 671.000
42.91249 682.000
42.93243 746.000
42.95238 760.000
42.97233 828.000
42.99227 847.000
43.01222 917.000
43.03217 1019.000
43.05212 1071.000
43.07206 1109.000
43.09201 1153.000
43.11196 1161.000
43.13190 1213.000
43.15185 1214.000
43.17180 1263.000
43.19174 1234.000
43.21169 1221.000
43.23164 1196.000
43.25159 1098.000
43.27153 1134.000
43.29148 1032.000
43.31143 959.000
43.33137 894.000
43.35132 903.000
43.37127 865.000
43.39121 815.000
43.41116 779.000
43.43111 801.000
43.45105 785.000
43.47100 833.000
43.49095 818.000
43.51090 837.000
43.53084 917.000
43.55079 907.000
43.57074 868.000
43.59068 859.000
43.61063 849.000
43.63058 810.000
43.65052 788.000
43.67047 723.000
43.69042 690.000
43.71037 690.000
43.73031 614.000
43.75026 592.000
43.77021 570.000
43.79015 574.000
43.81010 536.000
43.83005 524.000
43.84999 544.000
43.86994 549.000
43.88989 511.000
43.90984 528.000
43.92978 555.000
43.94973 512.000
43.96968 496.000
43.98962 497.000
44.00957 485.000
44.02952 538.000
44.04946 469.000
44.06941 528.000
44.08936 511.000
44.10930 517.000
44.12925 468.000
44.14920 499.000
44.16915 518.000
44.18909 507.000
44.20904 509.000
44.22899 535.000
44.24893 504.000
44.26888 500.000
44.28883 499.000
44.30877 533.000
44.32872 478.000
44.34867 549.000
44.36862 505.000
44.38856 512.000
44.40851 510.000
44.42846 490.000
44.44840 491.000
44.46835 498.000
44.48830 547.000
44.50824 504.000
44.52819 520.000
44.54814 565.000
44.56808 507.000
44.58803 496.000
44.60798 497.000
44.62793 517.000
44.64787 510.000
44.66782 473.000
44.68777 524.000
44.70771 529.000
44.72766 536.000
44.74761 524.000
44.76755 544.000
44.78750 520.000
44.80745 504.000
44.82740 532.000
44.84734 508.000
44.86729 525.000
44.88724 502.000
44.90718 562.000
44.92713 541.000
44.94708 579.000
44.96702 525.000
44.98697 519.000
45.00692 503.000
45.02686 548.000
45.04681 525.000
45.06676 514.000
45.08671 504.000
45.10665 540.000
45.12660 521.000
45.14655 507.000
45.16649 508.000
45.18644 506.000
45.20639 504.000
45.22633 510.000
45.24628 538.000
45.26623 538.000
45.28618 486.000
45.30612 478.000
45.32607 505.000
45.34602 497.000
45.36596 472.000
45.38591 525.000
45.40586 484.000
45.42580 507.000
45.44575 554.000
45.46570 521.000
45.48565 505.000
45.50559 535.000
45.52554 498.000
45.54549 562.000
45.56543 523.000
45.58538 523.000
45.60533 536.000
45.62527 539.000
45.64522 453.000
45.66517 559.000
45.68511 521.000
45.70506 519.000
45.72501 511.000
45.74496 526.000
45.76490 462.000
45.78485 525.000
45.80480 520.000
45.82474 488.000
45.84469 500.000
45.86464 519.000
45.88458 541.000
45.90453 494.000
45.92448 485.000
45.94443 504.000
45.96437 533.000
45.98432 522.000
46.00427 507.000
46.02421 510.000
46.04416 526.000
46.06411 518.000
46.08405 506.000
46.10400 526.000
46.12395 531.000
46.14389 548.000
46.16384 544.000
46.18379 582.000
46.20374 617.000
46.22368 607.000
46.24363 634.000
46.26358 627.000
46.28352 605.000
46.30347 620.000
46.32342 601.000
46.34336 601.000
46.36331 546.000
46.38326 568.000
46.40321 549.000
46.42315 578.000
46.44310 535.000
46.46305 554.000
46.48299 541.000
46.50294 496.000
46.52289 514.000
46.54283 509.000
46.56278 482.000
46.58273 512.000
46.60267 508.000
46.62262 472.000
46.64257 513.000
46.66252 475.000
46.68246 513.000
46.70241 545.000
46.72236 505.000
46.74230 512.000
46.76225 496.000
46.78220 502.000
46.80214 504.000
46.82209 490.000
46.84204 492.000
46.86199 483.000
46.88193 504.000
46.90188 514.000
46.92183 511.000
46.94177 495.000
46.96172 520.000
46.98167 477.000
47.00161 474.000
47.02156 500.000
47.04151 472.000
47.06146 526.000
47.08140 508.000
47.10135 521.000
47.12130 483.000
47.14124 523.000
47.16119 489.000
47.18114 514.000
47.20108 490.000
47.22103 488.000
47.24098 501.000
47.26092 486.000
47.28087 486.000
47.30082 501.000
47.32077 515.000
47.34071 537.000
47.36066 480.000
47.38061 464.000
47.40055 509.000
47.42050 488.000
47.44045 526.000
47.46039 507.000
47.48034 516.000
47.50029 493.000
47.52024 485.000
47.54018 500.000
47.56013 494.000
47.58008 503.000
47.60002 521.000
47.61997 565.000
47.63992 493.000
47.65986 538.000
47.67981 495.000
47.69976 538.000
47.71970 513.000
47.73965 501.000
47.75960 552.000
47.77955 522.000
47.79949 505.000
47.81944 579.000
47.83939 547.000
47.85933 508.000
47.87928 529.000
47.89923 524.000
47.91917 540.000
47.93912 523.000
47.95907 500.000
47.97902 555.000
47.99896 553.000
48.01891 552.000
48.03886 604.000
48.05880 591.000
48.07875 562.000
48.09870 603.000
48.11864 592.000
48.13859 538.000
48.15854 536.000
48.17848 532.000
48.19843 512.000
48.21838 581.000
48.23833 501.000
48.25827 547.000
48.27822 542.000
48.29817 567.000
48.31811 554.000
48.33806 564.000
48.35801 580.000
48.37795 569.000
48.39790 564.000
48.41785 589.000
48.43780 561.000
48.45774 594.000
48.47769 587.000
48.49764 651.000
48.51758 590.000
48.53753 670.000
48.55748 684.000
48.57742 672.000
48.59737 735.000
48.61732 787.000
48.63726 886.000
48.65721 971.000
48.67716 1033.000
48.69711 1162.000
48.71705 1272.000
48.73700 1549.000
48.75695 1730.000
48.77689 1948.000
48.79684 2301.000
48.81679 2368.000
48.83673 2473.000
48.85668 2491.000
48.87663 2514.000
48.89658 2281.000
48.91652 2115.000
48.93647 1987.000
48.95642 1939.000
48.97636 1754.000
48.99631 1559.000
49.01626 1483.000
49.03620 1241.000
49.05615 1145.000
49.07610 873.000
49.09605 848.000
49.11599 756.000
49.13594 758.000
49.15589 692.000
49.17583 624.000
49.19578 639.000
49.21573 614.000
49.23567 561.000
49.25562 570.000
49.27557 584.000
49.29551 563.000
49.31546 552.000
49.33541 534.000
49.35536 543.000
49.37530 564.000
49.39525 514.000
49.41520 545.000
49.43514 573.000
49.45509 525.000
49.47504 483.000
49.49498 531.000
49.51493 592.000
49.53488 549.000
49.55483 571.000
49.57477 543.000
49.59472 543.000
49.61467 568.000
49.63461 518.000
49.65456 496.000
49.67451 523.000
49.69445 460.000
49.71440 516.000
49.73435 523.000
49.75429 545.000
49.77424 555.000
49.79419 551.000
49.81414 497.000
49.83408 500.000
49.85403 475.000
49.87398 525.000
49.89392 501.000
49.91387 502.000
49.93382 531.000
49.95376 549.000
49.97371 570.000
49.99366 515.000
50.01361 573.000
50.03355 501.000
50.05350 476.000
50.07345 542.000
50.09339 571.000
50.11334 552.000
50.13329 537.000
50.15323 523.000
50.17318 543.000
50.19313 548.000
50.21307 530.000
50.23302 528.000
50.25297 497.000
50.27292 516.000
50.29286 508.000
50.31281 458.000
50.33276 551.000
50.35270 506.000
50.37265 521.000
50.39260 559.000
50.41254 453.000
50.43249 520.000
50.45244 513.000
50.47239 496.000
50.49233 480.000
50.51228 514.000
50.53223 486.000
50.55217 482.000
50.57212 490.000
50.59207 516.000
50.61201 491.000
50.63196 502.000
50.65191 485.000
50.67186 501.000
50.69180 527.000
50.71175 508.000
50.73170 509.000
50.75164 531.000
50.77159 520.000
50.79154 496.000
50.81148 480.000
50.83143 527.000
50.85138 518.000
50.87132 505.000
50.89127 504.000
50.91122 528.000
50.93117 525.000
50.95111 469.000
50.97106 525.000
50.99101 515.000
51.01095 504.000
51.03090 519.000
51.05085 499.000
51.07079 513.000
51.09074 516.000
51.11069 462.000
51.13064 546.000
51.15058 493.000
51.17053 499.000
51.19048 543.000
51.21042 574.000
51.23037 572.000
51.25032 557.000
51.27026 547.000
51.29021 559.000
51.31016 561.000
51.33010 533.000
51.35005 565.000
51.37000 513.000
51.38995 533.000
51.40989 549.000
51.42984 532.000
51.44979 528.000
51.46973 507.000
51.48968 513.000
51.50963 508.000
51.52957 516.000
51.54952 487.000
51.56947 551.000
51.58942 532.000
51.60936 490.000
51.62931 487.000
51.64926 510.000
51.66920 492.000
51.68915 506.000
51.70910 481.000
51.72904 497.000
51.74899 511.000
51.76894 535.000
51.78888 505.000
51.80883 498.000
51.82878 516.000
51.84873 539.000
51.86867 502.000
51.88862 523.000
51.90857 541.000
51.92851 541.000
51.94846 517.000
51.96841 546.000
51.98835 550.000
52.00830 504.000
52.02825 578.000
52.04820 573.000
52.06814 547.000
52.08809 582.000
52.10804 597.000
52.12798 557.000
52.14793 559.000
52.16788 540.000
52.18782 578.000
52.20777 550.000
52.22772 538.000
52.24767 532.000
52.26761 569.000
52.28756 507.000
52.30751 519.000
52.32745 515.000
52.34740 528.000
52.36735 497.000
52.38729 512.000
52.40724 520.000
52.42719 504.000
52.44713 557.000
52.46708 555.000
52.48703 536.000
52.50698 507.000
52.52692 483.000
52.54687 515.000
52.56682 536.000
52.58676 540.000
52.60671 499.000
52.62666 499.000
52.64660 533.000
52.66655 531.000
52.68650 506.000
52.70645 506.000
52.72639 519.000
52.74634 505.000
52.76629 548.000
52.78623 511.000
52.80618 569.000
52.82613 486.000
52.84607 552.000
52.86602 534.000
52.88597 522.000
52.90591 578.000
52.92586 527.000
52.94581 541.000
52.96576 531.000
52.98570 520.000
53.00565 555.000
53.02560 540.000
53.04554 555.000
53.06549 548.000
53.08544 527.000
53.10538 572.000
53.12533 618.000
53.14528 655.000
53.16523 674.000
53.18517 650.000
53.20512 638.000
53.22507 665.000
53.24501 612.000
53.26496 685.000
53.28491 771.000
53.30485 695.000
53.32480 748.000
53.34475 751.000
53.36469 713.000
53.38464 734.000
53.40459 708.000
53.42454 757.000
53.44448 726.000
53.46443 673.000
53.48438 722.000
53.50432 673.000
53.52427 690.000
53.54422 668.000
53.56416 651.000
53.58411 618.000
53.60406 674.000
53.62401 613.000
53.64395 643.000
53.66390 618.000
53.68385 608.000
53.70379 594.000
53.72374 581.000
53.74369 588.000
53.76363 558.000
53.78358 541.000
53.80353 542.000
53.82348 509.000
53.84342 577.000
53.86337 524.000
53.88332 538.000
53.90326 537.000
53.92321 489.000
53.94316 514.000
53.96310 515.000
53.98305 503.000
54.00300 498.000
54.02294 533.000
54.04289 514.000
54.06284 522.000
54.08279 541.000
54.10273 506.000
54.12268 509.000
54.14263 466.000
54.16257 475.000
54.18252 525.000
54.20247 532.000
54.22241 514.000
54.24236 517.000
54.26231 523.000
54.28226 484.000
54.30220 537.000
54.32215 523.000
54.34210 467.000
54.36204 511.000
54.38199 508.000
54.40194 515.000
54.42188 517.000
54.44183 509.000
54.46178 530.000
54.48172 509.000
54.50167 527.000
54.52162 485.000
54.54157 500.000
54.56151 505.000
54.58146 498.000
54.60141 503.000
54.62135 511.000
54.64130 513.000
54.66125 513.000
54.68119 470.000
54.70114 533.000
54.72109 477.000
54.74104 520.000
54.76098 495.000
54.78093 512.000
54.80088 516.000
54.82082 506.000
54.84077 571.000
54.86072 526.000
54.88066 558.000
54.90061 518.000
54.92056 462.000
54.94050 521.000
54.96045 496.000
54.98040 503.000
55.00035 530.000
55.02029 501.000
55.04024 497.000
55.06019 576.000
55.08013 507.000
55.10008 531.000
55.12003 497.000
55.13997 499.000
55.15992 484.000
55.17987 519.000
55.19982 520.000
55.21976 536.000
55.23971 502.000
55.25966 530.000
55.27960 483.000
55.29955 511.000
55.31950 521.000
55.33944 505.000
55.35939 532.000
55.37934 506.000
55.39929 498.000
55.41923 521.000
55.43918 553.000
55.45913 497.000
55.47907 557.000
55.49902 528.000
55.51897 505.000
55.53891 549.000
55.55886 515.000
55.57881 501.000
55.59875 479.000
55.61870 495.000
55.63865 522.000
55.65860 528.000
55.67854 524.000
55.69849 564.000
55.71844 518.000
55.73838 534.000
55.75833 517.000
55.77828 496.000
55.79822 461.000
55.81817 475.000
55.83812 517.000
55.85807 493.000
55.87801 538.000
55.89796 525.000
55.91791 506.000
55.93785 468.000
55.95780 499.000
55.97775 513.000
55.99769 512.000
56.01764 498.000
56.03759 500.000
56.05753 545.000
56.07748 495.000
56.09743 464.000
56.11738 463.000
56.13732 448.000
56.15727 517.000
56.17722 499.000
56.19716 543.000
56.21711 523.000
56.23706 498.000
56.25700 536.000
56.27695 495.000
56.29690 529.000
56.31685 541.000
56.33679 498.000
56.35674 517.000
56.37669 545.000
56.39663 514.000
56.41658 486.000
56.43653 524.000
56.45647 525.000
56.47642 526.000
56.49637 526.000
56.51631 488.000
56.53626 550.000
56.55621 521.000
56.57616 532.000
56.59610 518.000
56.61605 509.000
56.63600 556.000
56.65594 514.000
56.67589 543.000
56.69584 498.000
56.71578 542.000
56.73573 579.000
56.75568 540.000
56.77563 494.000
56.79557 530.000
56.81552 548.000
56.83547 531.000
56.85541 536.000
56.87536 532.000
56.89531 517.000
56.91525 540.000
56.93520 560.000
56.95515 501.000
56.97510 526.000
56.99504 492.000
57.01499 537.000
57.03494 502.000
57.05488 512.000
57.07483 529.000
57.09478 544.000
57.11472 541.000
57.13467 485.000
57.15462 546.000
57.17456 573.000
57.19451 513.000
57.21446 512.000
57.23441 518.000
57.25435 514.000
57.27430 528.000
57.29425 475.000
57.31419 508.000
57.33414 496.000
57.35409 542.000
57.37403 493.000
57.39398 540.000
57.41393 541.000
57.43388 521.000
57.45382 508.000
57.47377 547.000
57.49372 511.000
57.51366 542.000
57.53361 534.000
57.55356 501.000
57.57350 519.000
57.59345 506.000
57.61340 507.000
57.63334 523.000
57.65329 576.000
57.67324 540.000
57.69319 484.000
57.71313 513.000
57.73308 554.000
57.75303 553.000
57.77297 530.000
57.79292 506.000
57.81287 529.000
57.83281 562.000
57.85276 575.000
57.87271 558.000
57.89266 561.000
57.91260 558.000
57.93255 556.000
57.95250 592.000
57.97244 630.000
57.99239 634.000
58.01234 621.000
58.03228 637.000
58.05223 684.000
58.07218 756.000
58.09212 727.000
58.11207 889.000
58.13202 947.000
58.15197 969.000
58.17191 1067.000
58.19186 1082.000
58.21181 1022.000
58.23175 1088.000
58.25170 1103.000
58.27165 1030.000
58.29159 980.000
58.31154 960.000
58.33149 929.000
58.35144 863.000
58.37138 810.000
58.39133 870.000
58.41128 752.000
58.43122 743.000
58.45117 715.000
58.47112 606.000
58.49106 611.000
58.51101 618.000
58.53096 575.000
58.55090 557.000
58.57085 533.000
58.59080 570.000
58.61075 537.000
58.63069 586.000
58.65064 509.000
58.67059 577.000
58.69053 544.000
58.71048 504.000
58.73043 442.000
58.75037 546.000
58.77032 543.000
58.79027 536.000
58.81022 533.000
58.83016 553.000
58.85011 510.000
58.87006 533.000
58.89000 534.000
58.90995 563.000
58.92990 488.000
58.94984 506.000
58.96979 544.000
58.98974 500.000
59.00969 511.000
59.02963 550.000
59.04958 503.000
59.06953 492.000
59.08947 511.000
59.10942 516.000
59.12937 505.000
59.14931 542.000
59.16926 541.000
59.18921 520.000
59.20915 545.000
59.22910 542.000
59.24905 527.000
59.26900 477.000
59.28894 563.000
59.30889 524.000
59.32884 530.000
59.34878 535.000
59.36873 526.000
59.38868 493.000
59.40862 556.000
59.42857 482.000
59.44852 518.000
59.46847 527.000
59.48841 520.000
59.50836 505.000
59.52831 515.000
59.54825 515.000
59.56820 496.000
59.58815 529.000
59.60809 517.000
59.62804 489.000
59.64799 502.000
59.66793 533.000
59.68788 529.000
59.70783 506.000
59.72778 510.000
59.74772 527.000
59.76767 506.000
59.78762 543.000
59.80756 503.000
59.82751 544.000
59.84746 512.000
59.86740 495.000
59.88735 536.000
59.90730 558.000
59.92725 503.000
59.94719 533.000
59.96714 519.000
59.98709 595.000
60.00703 526.000
60.02698 546.000
60.04693 503.000
60.06687 488.000
60.08682 524.000
60.10677 494.000
60.12671 518.000
60.14666 514.000
60.16661 553.000
60.18656 535.000
60.20650 499.000
60.22645 526.000
60.24640 515.000
60.26634 532.000
60.28629 545.000
60.30624 559.000
60.32618 489.000
60.34613 516.000
60.36608 531.000
60.38603 524.000
60.40597 532.000
60.42592 550.000
60.44587 565.000
60.46581 508.000
60.48576 553.000
60.50571 556.000
60.52565 502.000
60.54560 549.000
60.56555 538.000
60.58550 483.000
60.60544 517.000
60.62539 519.000
60.64534 475.000
60.66528 537.000
60.68523 534.000
60.70518 532.000
60.72512 507.000
60.74507 543.000
60.76502 533.000
60.78496 487.000
60.80491 496.000
60.82486 503.000
60.84481 572.000
60.86475 541.000
60.88470 540.000
60.90465 525.000
60.92459 558.000
60.94454 479.000
60.96449 512.000
60.98443 533.000
61.00438 545.000
61.02433 521.000
61.04428 555.000
61.06422 520.000
61.08417 542.000
61.10412 570.000
61.12406 551.000
61.14401 575.000
61.16396 591.000
61.18390 611.000
61.20385 606.000
61.22380 606.000
61.24374 648.000
61.26369 599.000
61.28364 610.000
61.30359 619.000
61.32353 672.000
61.34348 631.000
61.36343 675.000
61.38337 685.000
61.40332 742.000
61.42327 838.000
61.44321 928.000
61.46316 994.000
61.48311 1151.000
61.50306 1199.000
61.52300 1239.000
61.54295 1247.000
61.56290 1219.000
61.58284 1206.000
61.60279 1189.000
61.62274 1176.000
61.64268 1064.000
61.66263 1095.000
61.68258 1014.000
61.70252 990.000
61.72247 964.000
61.74242 943.000
61.76237 881.000
61.78231 822.000
61.80226 773.000
61.82221 738.000
61.84215 707.000
61.86210 718.000
61.88205 682.000
61.90199 705.000
61.92194 689.000
61.94189 658.000
61.96184 683.000
61.98178 692.000
62.00173 770.000
62.02168 747.000
62.04162 811.000
62.06157 849.000
62.08152 853.000
62.10146 896.000
62.12141 842.000
62.14136 833.000
62.16131 778.000
62.18125 796.000
62.20120 810.000
62.22115 775.000
62.24109 807.000
62.26104 717.000
62.28099 769.000
62.30093 756.000
62.32088 689.000
62.34083 742.000
62.36077 699.000
62.38072 614.000
62.40067 696.000
62.42062 694.000
62.44056 650.000
62.46051 743.000
62.48046 685.000
62.50040 788.000
62.52035 772.000
62.54030 772.000
62.56024 792.000
62.58019 803.000
62.60014 826.000
62.62009 886.000
62.64003 877.000
62.65998 882.000
62.67993 811.000
62.69987 915.000
62.71982 836.000
62.73977 857.000
62.75971 859.000
62.77966 801.000
62.79961 771.000
62.81955 799.000
62.83950 773.000
62.85945 745.000
62.87940 719.000
62.89934 699.000
62.91929 714.000
62.93924 657.000
62.95918 640.000
62.97913 608.000
62.99908 629.000
63.01902 572.000
63.03897 581.000
63.05892 596.000
63.07887 572.000
63.09881 577.000
63.11876 565.000
63.13871 545.000
63.15865 534.000
63.17860 569.000
63.19855 548.000
63.21849 566.000
63.23844 553.000
63.25839 554.000
63.27833 530.000
63.29828 530.000
63.31823 502.000
63.33818 503.000
63.35812 530.000
63.37807 584.000
63.39802 560.000
63.41796 534.000
63.43791 512.000
63.45786 538.000
63.47780 501.000
63.49775 525.000
63.51770 534.000
63.53765 538.000
63.55759 540.000
63.57754 523.000
63.59749 500.000
63.61743 538.000
63.63738 500.000
63.65733 560.000
63.67727 547.000
63.69722 548.000
63.71717 536.000
63.73712 505.000
63.75706 529.000
63.77701 502.000
63.79696 521.000
63.81690 552.000
63.83685 553.000
63.85680 549.000
63.87674 508.000
63.89669 559.000
63.91664 547.000
63.93658 519.000
63.95653 544.000
63.97648 523.000
63.99643 555.000
64.01637 499.000
64.03632 563.000
64.05627 577.000
64.07621 559.000
64.09616 500.000
64.11611 539.000
64.13605 516.000
64.15600 578.000
64.17595 578.000
64.19590 548.000
64.21584 579.000
64.23579 592.000
64.25574 562.000
64.27568 563.000
64.29563 625.000
64.31558 605.000
64.33552 604.000
64.35547 663.000
64.37542 720.000
64.39536 708.000
64.41531 799.000
64.43526 778.000
64.45521 784.000
64.47515 827.000
64.49510 730.000
64.51505 780.000
64.53499 746.000
64.55494 827.000
64.57489 797.000
64.59483 767.000
64.61478 744.000
64.63473 717.000
64.65468 661.000
64.67462 637.000
64.69457 653.000
64.71452 647.000
64.73446 607.000
64.75441 645.000
64.77436 596.000
64.79430 608.000
64.81425 557.000
64.83420 572.000
64.85414 546.000
64.87409 521.000
64.89404 550.000
64.91399 548.000
64.93393 575.000
64.95388 576.000
64.97383 571.000
64.99377 549.000
65.01372 589.000
65.03367 560.000
65.05361 561.000
65.07356 566.000
65.09351 562.000
65.11346 559.000
65.13340 532.000
65.15335 549.000
65.17330 584.000
65.19324 551.000
65.21319 582.000
65.23314 576.000
65.25308 565.000
65.27303 523.000
65.29298 560.000
65.31293 609.000
65.33287 592.000
65.35282 608.000
65.37277 575.000
65.39271 621.000
65.41266 609.000
65.43261 674.000
65.45255 718.000
65.47250 693.000
65.49245 719.000
65.51239 765.000
65.53234 785.000
65.55229 836.000
65.57224 815.000
65.59218 837.000
65.61213 878.000
65.63208 854.000
65.65202 863.000
65.67197 863.000
65.69192 896.000
65.71186 939.000
65.73181 873.000
65.75176 910.000
65.77171 914.000
65.79165 936.000
65.81160 862.000
65.83155 903.000
65.85149 914.000
65.87144 889.000
65.89139 813.000
65.91133 821.000
65.93128 788.000
65.95123 835.000
65.97117 736.000
65.99112 768.000
66.01107 791.000
66.03102 744.000
66.05096 746.000
66.07091 735.000
66.09086 746.000
66.11080 758.000
66.13075 740.000
66.15070 770.000
66.17064 847.000
66.19059 818.000
66.21054 963.000
66.23049 975.000
66.25043 933.000
66.27038 971.000
66.29033 1091.000
66.31027 1095.000
66.33022 1118.000
66.35017 1090.000
66.37011 1050.000
66.39006 1042.000
66.41001 1004.000
66.42995 989.000
66.44990 969.000
66.46985 955.000
66.48980 900.000
66.50974 907.000
66.52969 857.000
66.54964 828.000
66.56958 800.000
66.58953 756.000
66.60948 737.000
66.62942 671.000
66.64937 668.000
66.66932 635.000
66.68927 641.000
66.70921 693.000
66.72916 620.000
66.74911 671.000
66.76905 672.000
66.78900 675.000
66.80895 735.000
66.82889 713.000
66.84884 714.000
66.86879 715.000
66.88874 715.000
66.90868 709.000
66.92863 727.000
66.94858 740.000
66.96852 741.000
66.98847 718.000
67.00842 698.000
67.02836 653.000
67.04831 622.000
67.06826 672.000
67.08820 643.000
67.10815 663.000
67.12810 668.000
67.14805 619.000
67.16799 629.000
67.18794 612.000
67.20789 573.000
67.22783 625.000
67.24778 611.000
67.26773 582.000
67.28767 576.000
67.30762 567.000
67.32757 559.000
67.34752 541.000
67.36746 556.000
67.38741 563.000
67.40736 557.000
67.42730 562.000
67.44725 590.000
67.46720 567.000
67.48714 585.000
67.50709 606.000
67.52704 588.000
67.54698 589.000
67.56693 663.000
67.58688 640.000
67.60683 674.000
67.62677 640.000
67.64672 687.000
67.66667 772.000
67.68661 747.000
67.70656 850.000
67.72651 784.000
67.74645 831.000
67.76640 827.000
67.78635 925.000
67.80630 894.000
67.82624 875.000
67.84619 980.000
67.86614 999.000
67.88608 963.000
67.90603 1053.000
67.92598 1043.000
67.94592 1069.000
67.96587 1026.000
67.98582 1072.000
68.00576 1036.000
68.02571 1093.000
68.04566 1025.000
68.06561 992.000
68.08555 1032.000
68.10550 992.000
68.12545 978.000
68.14539 909.000
68.16534 904.000
68.18529 900.000
68.20523 875.000
68.22518 822.000
68.24513 804.000
68.26508 748.000
68.28502 774.000
68.30497 717.000
68.32492 664.000
68.34486 692.000
68.36481 635.000
68.38476 659.000
68.40470 641.000
68.42465 593.000
68.44460 585.000
68.46455 568.000
68.48449 527.000
68.50444 557.000
68.52439 553.000
68.54433 523.000
68.56428 538.000
68.58423 529.000
68.60417 557.000
68.62412 500.000
68.64407 537.000
68.66401 520.000
68.68396 557.000
68.70391 542.000
68.72386 509.000
68.74380 510.000
68.76375 533.000
68.78370 581.000
68.80364 559.000
68.82359 503.000
68.84354 553.000
68.86348 514.000
68.88343 513.000
68.90338 534.000
68.92333 548.000
68.94327 529.000
68.96322 495.000
68.98317 542.000
69.00311 522.000
69.02306 595.000
69.04301 559.000
69.06295 543.000
69.08290 532.000
69.10285 540.000
69.12279 500.000
69.14274 534.000
69.16269 549.000
69.18264 492.000
69.20258 501.000
69.22253 528.000
69.24248 542.000
69.26242 536.000
69.28237 544.000
69.30232 511.000
69.32226 526.000
69.34221 529.000
69.36216 588.000
69.38211 509.000
69.40205 543.000
69.42200 532.000
69.44195 485.000
69.46189 501.000
69.48184 493.000
69.50179 502.000
69.52173 513.000
69.54168 522.000
69.56163 558.000
69.58157 517.000
69.60152 488.000
69.62147 542.000
69.64142 520.000
69.66136 515.000
69.68131 494.000
69.70126 537.000
69.72120 558.000
69.74115 504.000
69.76110 526.000
69.78104 517.000
69.80099 497.000
69.82094 540.000
69.84089 524.000
69.86083 469.000
69.88078 556.000
69.90073 540.000
69.92067 502.000
69.94062 528.000
69.96057 533.000
69.98051 485.000
70.00046 509.000
70.02041 526.000
70.04035 522.000
70.06030 513.000
70.08025 512.000
70.10020 499.000
70.12014 474.000
70.14009 526.000
70.16004 503.000
70.17998 543.000
70.19993 556.000
70.21988 513.000
70.23982 478.000
70.25977 481.000
70.27972 593.000
70.29967 489.000
70.31961 497.000
70.33956 522.000
70.35951 539.000
70.37945 549.000
70.39940 509.000
70.41935 596.000
70.43929 532.000
70.45924 510.000
70.47919 531.000
70.49914 516.000
70.51908 509.000
70.53903 526.000
70.55898 494.000
70.57892 497.000
70.59887 498.000
70.61882 513.000
70.63876 501.000
70.65871 506.000
70.67866 485.000
70.69860 537.000
70.71855 483.000
70.73850 527.000
70.75845 518.000
70.77839 550.000
70.79834 474.000
70.81829 501.000
70.83823 515.000
70.85818 527.000
70.87813 452.000
70.89807 488.000
70.91802 514.000
70.93797 515.000
70.95792 500.000
70.97786 531.000
70.99781 500.000
71.01776 524.000
71.03770 528.000
71.05765 532.000
71.07760 535.000
71.09754 524.000
71.11749 533.000
71.13744 495.000
71.15738 478.000
71.17733 537.000
71.19728 523.000
71.21723 544.000
71.23717 538.000
71.25712 512.000
71.27707 544.000
71.29701 545.000
71.31696 525.000
71.33691 491.000
71.35685 490.000
71.37680 529.000
71.39675 508.000
71.41670 495.000
71.43664 507.000
71.45659 497.000
71.47654 511.000
71.49648 518.000
71.51643 525.000
71.53638 477.000
71.55632 532.000
71.57627 512.000
71.59622 543.000
71.61616 487.000
71.63611 530.000
71.65606 547.000
71.67601 542.000
71.69595 510.000
71.71590 533.000
71.73585 519.000
71.75579 523.000
71.77574 540.000
71.79569 503.000
71.81563 551.000
71.83558 508.000
71.85553 553.000
71.87548 535.000
71.89542 537.000
71.91537 560.000
71.93532 526.000
71.95526 541.000
71.97521 512.000
71.99516 524.000
72.01510 570.000
72.03505 518.000
72.05500 533.000
72.07495 548.000
72.09489 544.000
72.11484 541.000
72.13479 557.000
72.15473 562.000
72.17468 646.000
72.19463 581.000
72.21457 622.000
72.23452 615.000
72.25447 634.000
72.27441 679.000
72.29436 709.000
72.31431 735.000
72.33426 775.000
72.35420 739.000
72.37415 776.000
72.39410 749.000
72.41404 714.000
72.43399 703.000
72.45394 729.000
72.47388 658.000
72.49383 644.000
72.51378 688.000
72.53373 608.000
72.55367 645.000
72.57362 686.000
72.59357 638.000
72.61351 674.000
72.63346 619.000
72.65341 606.000
72.67335 580.000
72.69330 577.000
72.71325 569.000
72.73319 525.000
72.75314 564.000
72.77309 515.000
72.79304 584.000
72.81298 539.000
72.83293 493.000
72.85288 518.000
72.87282 521.000
72.89277 535.000
72.91272 488.000
72.93266 538.000
72.95261 517.000
72.97256 540.000
72.99251 526.000
73.01245 529.000
73.03240 477.000
73.05235 527.000
73.07229 528.000
73.09224 557.000
73.11219 547.000
73.13213 556.000
73.15208 566.000
73.17203 543.000
73.19197 518.000
73.21192 515.000
73.23187 545.000
73.25182 515.000
73.27176 508.000
73.29171 550.000
73.31166 512.000
73.33160 502.000
73.35155 524.000
73.37150 530.000
73.39144 532.000
73.41139 475.000
73.43134 547.000
73.45129 565.000
73.47123 487.000
73.49118 548.000
73.51113 508.000
73.53107 582.000
73.55102 516.000
73.57097 511.000
73.59091 555.000
73.61086 534.000
73.63081 555.000
73.65076 491.000
73.67070 569.000
73.69065 569.000
73.71060 607.000
73.73054 608.000
73.75049 549.000
73.77044 602.000
73.79038 611.000
73.81033 559.000
73.83028 605.000
73.85022 633.000
73.87017 572.000
73.89012 623.000
73.91007 545.000
73.93001 568.000
73.94996 584.000
73.96991 599.000
73.98985 562.000
74.00980 593.000
74.02975 528.000
74.04969 568.000
74.06964 572.000
74.08959 571.000
74.10954 574.000
74.12948 526.000
74.14943 571.000
74.16938 542.000
74.18932 519.000
74.20927 525.000
74.22922 515.000
74.24916 557.000
74.26911 512.000
74.28906 528.000
74.30900 495.000
74.32895 557.000
74.34890 504.000
74.36885 576.000
74.38879 536.000
74.40874 509.000
74.42869 531.000
74.44863 511.000
74.46858 539.000
74.48853 559.000
74.50847 529.000
74.52842 561.000
74.54837 542.000
74.56832 524.000
74.58826 533.000
74.60821 553.000
74.62816 536.000
74.64810 604.000
74.66805 550.000
74.68800 566.000
74.70794 576.000
74.72789 604.000
74.74784 587.000
74.76778 557.000
74.78773 604.000
74.80768 645.000
74.82763 663.000
74.84757 709.000
74.86752 789.000
74.88747 803.000
74.90741 804.000
74.92736 760.000
74.94731 808.000
74.96725 750.000
74.98720 790.000
75.00715 756.000
75.02710 756.000
75.04704 758.000
75.06699 751.000
75.08694 827.000
75.10688 804.000
75.12683 827.000
75.14678 833.000
75.16672 912.000
75.18667 909.000
75.20662 851.000
75.22657 900.000
75.24651 855.000
75.26646 795.000
75.28641 781.000
75.30635 756.000
75.32630 750.000
75.34625 766.000
75.36619 750.000
75.38614 771.000
75.40609 753.000
75.42603 704.000
75.44598 686.000
75.46593 696.000
75.48588 657.000
75.50582 661.000
75.52577 638.000
75.54572 629.000
75.56566 656.000
75.58561 587.000
75.60556 606.000
75.62550 603.000
75.64545 573.000
75.66540 538.000
75.68535 534.000
75.70529 573.000
75.72524 578.000
75.74519 538.000
75.76513 540.000
75.78508 553.000
75.80503 541.000
75.82497 534.000
75.84492 522.000
75.86487 568.000
75.88481 513.000
75.90476 558.000
75.92471 573.000
75.94466 515.000
75.96460 526.000
75.98455 558.000
76.00450 571.000
76.02444 567.000
76.04439 532.000
76.06434 539.000
76.08428 527.000
76.10423 604.000
76.12418 536.000
76.14413 590.000
76.16407 574.000
76.18402 501.000
76.20397 527.000
76.22391 542.000
76.24386 541.000
76.26381 554.000
76.28375 521.000
76.30370 564.000
76.32365 540.000
76.34359 526.000
76.36354 544.000
76.38349 539.000
76.40344 534.000
76.42338 531.000
76.44333 528.000
76.46328 505.000
76.48322 513.000
76.50317 501.000
76.52312 527.000
76.54306 497.000
76.56301 541.000
76.58296 543.000
76.60291 512.000
76.62285 526.000
76.64280 523.000
76.66275 580.000
76.68269 540.000
76.70264 535.000
76.72259 544.000
76.74253 501.000
76.76248 524.000
76.78243 521.000
76.80238 489.000
76.82232 511.000
76.84227 492.000
76.86222 513.000
76.88216 542.000
76.90211 544.000
76.92206 514.000
76.94200 530.000
76.96195 496.000
76.98190 512.000
77.00184 517.000
77.02179 518.000
77.04174 543.000
77.06169 494.000
77.08163 499.000
77.10158 558.000
77.12153 498.000
77.14147 515.000
77.16142 510.000
77.18137 545.000
77.20131 519.000
77.22126 560.000
77.24121 564.000
77.26116 513.000
77.28110 482.000
77.30105 537.000
77.32100 497.000
77.34094 531.000
77.36089 525.000
77.38084 524.000
77.40078 496.000
77.42073 484.000
77.44068 497.000
77.46062 512.000
77.48057 515.000
77.50052 550.000
77.52047 546.000
77.54041 512.000
77.56036 523.000
77.58031 552.000
77.60025 516.000
77.62020 521.000
77.64015 519.000
77.66009 532.000
77.68004 508.000
77.69999 496.000
77.71994 507.000
77.73988 526.000
77.75983 532.000
77.77978 522.000
77.79972 448.000
77.81967 503.000
77.83962 509.000
77.85956 557.000
77.87951 528.000
77.89946 543.000
77.91940 529.000
77.93935 560.000
77.95930 535.000
77.97925 545.000
77.99919 513.000
78.01914 535.000
78.03909 558.000
78.05903 557.000
78.07898 558.000
78.09893 559.000
78.11887 567.000
78.13882 562.000
78.15877 573.000
78.17872 544.000
78.19866 595.000
78.21861 601.000
78.23856 606.000
78.25850 586.000
78.27845 651.000
78.29840 653.000
78.31834 664.000
78.33829 657.000
78.35824 637.000
78.37819 662.000
78.39813 651.000
78.41808 644.000
78.43803 640.000
78.45797 612.000
78.47792 648.000
78.49787 616.000
78.51781 615.000
78.53776 593.000
78.55771 576.000
78.57765 590.000
78.59760 607.000
78.61755 578.000
78.63750 569.000
78.65744 595.000
78.67739 618.000
78.69734 535.000
78.71728 539.000
78.73723 520.000
78.75718 522.000
78.77712 551.000
78.79707 558.000
78.81702 526.000
78.83697 524.000
78.85691 593.000
78.87686 538.000
78.89681 559.000
78.91675 593.000
78.93670 556.000
78.95665 582.000
78.97659 595.000
78.99654 602.000
79.01649 595.000
79.03643 588.000
79.05638 597.000
79.07633 581.000
79.09628 585.000
79.11622 608.000
79.13617 642.000
79.15612 603.000
79.17606 609.000
79.19601 603.000
79.21596 615.000
79.23590 580.000
79.25585 558.000
79.27580 601.000
79.29575 586.000
79.31569 553.000
79.33564 562.000
79.35559 564.000
79.37553 559.000
79.39548 539.000
79.41543 573.000
79.43537 540.000
79.45532 591.000
79.47527 553.000
79.49521 556.000
79.51516 558.000
79.53511 588.000
79.55506 542.000
79.57500 534.000
79.59495 507.000
79.61490 541.000
79.63484 526.000
79.65479 517.000
79.67474 563.000
79.69468 557.000
79.71463 497.000
79.73458 506.000
79.75453 524.000
79.77447 536.000
79.79442 533.000
79.81437 508.000
79.83431 541.000
79.85426 556.000
79.87421 538.000
79.89415 539.000
79.91410 535.000
79.93405 504.000
79.95399 545.000
79.97394 528.000
79.99389 501.000
80.01384 504.000
80.03378 537.000
80.05373 553.000
80.07368 550.000
80.09362 539.000
80.11357 562.000
80.13352 582.000
80.15346 563.000
80.17341 585.000
80.19336 567.000
80.21331 621.000
80.23325 595.000
80.25320 582.000
80.27315 649.000
80.29309 579.000
80.31304 594.000
80.33299 571.000
80.35293 579.000
80.37288 573.000
80.39283 590.000
80.41278 610.000
80.43272 600.000
80.45267 564.000
80.47262 541.000
80.49256 557.000
80.51251 557.000
80.53246 577.000
80.55240 592.000
80.57235 558.000
80.59230 581.000
80.61224 571.000
80.63219 574.000
80.65214 529.000
80.67209 536.000
80.69203 511.000
80.71198 547.000
80.73193 498.000
80.75187 504.000
80.77182 518.000
80.79177 499.000
80.81171 533.000
80.83166 535.000
80.85161 552.000
80.87156 507.000
80.89150 503.000
80.91145 543.000
80.93140 492.000
80.95134 520.000
80.97129 517.000
80.99124 583.000
81.01118 516.000
81.03113 534.000
81.05108 560.000
81.07102 524.000
81.09097 524.000
81.11092 540.000
81.13087 524.000
81.15081 511.000
81.17076 561.000
81.19071 529.000
81.21065 532.000
81.23060 578.000
81.25055 535.000
81.27049 493.000
81.29044 511.000
81.31039 557.000
81.33034 552.000
81.35028 544.000
81.37023 545.000
81.39018 514.000
81.41012 530.000
81.43007 517.000
81.45002 495.000
81.46996 543.000
81.48991 520.000
81.50986 526.000
81.52980 473.000
81.54975 541.000
81.56970 539.000
81.58965 497.000
81.60959 507.000
81.62954 495.000
81.64949 495.000
81.66943 490.000
81.68938 523.000
81.70933 542.000
81.72927 540.000
81.74922 517.000
81.76917 538.000
81.78912 525.000
81.80906 531.000
81.82901 501.000
81.84896 520.000
81.86890 528.000
81.88885 513.000
81.90880 509.000
81.92874 523.000
81.94869 531.000
81.96864 541.000
81.98859 501.000
82.00853 558.000
82.02848 531.000
82.04843 520.000
82.06837 506.000
82.08832 522.000
82.10827 558.000
82.12821 527.000
82.14816 535.000
82.16811 509.000
82.18805 554.000
82.20800 527.000
82.22795 507.000
82.24790 553.000
82.26784 582.000
82.28779 571.000
82.30774 572.000
82.32768 569.000
82.34763 577.000
82.36758 570.000
82.38752 638.000
82.40747 636.000
82.42742 608.000
82.44737 654.000
82.46731 623.000
82.48726 625.000
82.50721 646.000
82.52715 686.000
82.54710 765.000
82.56705 683.000
82.58699 659.000
82.60694 699.000
82.62689 698.000
82.64683 675.000
82.66678 669.000
82.68673 657.000
82.70668 697.000
82.72662 677.000
82.74657 666.000
82.76652 720.000
82.78646 730.000
82.80641 678.000
82.82636 627.000
82.84630 691.000
82.86625 708.000
82.88620 663.000
82.90615 659.000
82.92609 658.000
82.94604 614.000
82.96599 630.000
82.98593 647.000
83.00588 609.000
83.02583 590.000
83.04577 651.000
83.06572 623.000
83.08567 641.000
83.10561 623.000
83.12556 560.000
83.14551 575.000
83.16546 573.000
83.18540 601.000
83.20535 621.000
83.22530 607.000
83.24524 622.000
83.26519 562.000
83.28514 652.000
83.30508 603.000
83.32503 560.000
83.34498 614.000
83.36493 562.000
83.38487 560.000
83.40482 577.000
83.42477 587.000
83.44471 641.000
83.46466 584.000
83.48461 656.000
83.50455 590.000
83.52450 651.000
83.54445 571.000
83.56440 642.000
83.58434 679.000
83.60429 647.000
83.62424 615.000
83.64418 621.000
83.66413 607.000
83.68408 638.000
83.70402 609.000
83.72397 604.000
83.74392 652.000
83.76386 619.000
83.78381 575.000
83.80376 592.000
83.82371 607.000
83.84365 623.000
83.86360 586.000
83.88355 566.000
83.90349 583.000
83.92344 644.000
83.94339 589.000
83.96333 558.000
83.98328 600.000
84.00323 614.000
84.02318 550.000
84.04312 565.000
84.06307 574.000
84.08302 577.000
84.10296 526.000
84.12291 570.000
84.14286 529.000
84.16280 570.000
84.18275 549.000
84.20270 579.000
84.22264 522.000
84.24259 519.000
84.26254 559.000
84.28249 547.000
84.30243 530.000
84.32238 557.000
84.34233 565.000
84.36227 518.000
84.38222 566.000
84.40217 516.000
84.42211 538.000
84.44206 569.000
84.46201 547.000
84.48196 560.000
84.50190 550.000
84.52185 534.000
84.54180 507.000
84.56174 547.000
84.58169 505.000
84.60164 557.000
84.62158 492.000
84.64153 531.000
84.66148 584.000
84.68142 548.000
84.70137 549.000
84.72132 586.000
84.74127 556.000
84.76121 571.000
84.78116 586.000
84.80111 602.000
84.82105 550.000
84.84100 570.000
84.86095 563.000
84.88089 589.000
84.90084 597.000
84.92079 602.000
84.94074 556.000
84.96068 609.000
84.98063 595.000
85.00058 612.000
85.02052 601.000
85.04047 551.000
85.06042 608.000
85.08036 601.000
85.10031 569.000
85.12026 580.000
85.14021 562.000
85.16015 597.000
85.18010 573.000
85.20005 563.000
85.21999 564.000
85.23994 566.000
85.25989 508.000
85.27983 563.000
85.29978 596.000
85.31973 509.000
85.33967 541.000
85.35962 545.000
85.37957 526.000
85.39952 509.000
85.41946 493.000
85.43941 574.000
85.45936 546.000
85.47930 536.000
85.49925 536.000
85.51920 549.000
85.53914 529.000
85.55909 550.000
85.57904 507.000
85.59899 519.000
85.61893 511.000
85.63888 522.000
85.65883 507.000
85.67877 513.000
85.69872 506.000
85.71867 532.000
85.73861 498.000
85.75856 516.000
85.77851 518.000
85.79845 507.000
85.81840 462.000
85.83835 500.000
85.85830 555.000
85.87824 559.000
85.89819 496.000
85.91814 509.000
85.93808 497.000
85.95803 545.000
85.97798 544.000
85.99792 557.000
86.01787 480.000
86.03782 547.000
86.05777 535.000
86.07771 523.000
86.09766 526.000
86.11761 539.000
86.13755 530.000
86.15750 550.000
86.17745 513.000
86.19739 541.000
86.21734 543.000
86.23729 562.000
86.25723 548.000
86.27718 488.000
86.29713 512.000
86.31708 551.000
86.33702 527.000
86.35697 500.000
86.37692 520.000
86.39686 565.000
86.41681 531.000
86.43676 539.000
86.45670 512.000
86.47665 544.000
86.49660 514.000
86.51655 551.000
86.53649 518.000
86.55644 545.000
86.57639 561.000
86.59633 508.000
86.61628 527.000
86.63623 527.000
86.65617 544.000
86.67612 551.000
86.69607 571.000
86.71602 545.000
86.73596 558.000
86.75591 544.000
86.77586 583.000
86.79580 565.000
86.81575 571.000
86.83570 558.000
86.85564 555.000
86.87559 541.000
86.89554 506.000
86.91548 520.000
86.93543 571.000
86.95538 556.000
86.97533 524.000
86.99527 515.000
87.01522 552.000
87.03517 596.000
87.05511 550.000
87.07506 582.000
87.09501 562.000
87.11495 553.000
87.13490 564.000
87.15485 543.000
87.17480 539.000
87.19474 559.000
87.21469 565.000
87.23464 549.000
87.25458 551.000
87.27453 556.000
87.29448 552.000
87.31442 575.000
87.33437 574.000
87.35432 535.000
87.37426 560.000
87.39421 538.000
87.41416 525.000
87.43411 565.000
87.45405 535.000
87.47400 566.000
87.49395 555.000
87.51389 553.000
87.53384 516.000
87.55379 556.000
87.57373 540.000
87.59368 528.000
87.61363 529.000
87.63358 531.000
87.65352 557.000
87.67347 548.000
87.69342 539.000
87.71336 497.000
87.73331 518.000
87.75326 568.000
87.77320 588.000
87.79315 565.000
87.81310 527.000
87.83304 546.000
87.85299 506.000
87.87294 514.000
87.89289 533.000
87.91283 496.000
87.93278 520.000
87.95273 467.000
87.97267 548.000
87.99262 523.000
88.01257 530.000
88.03251 502.000
88.05246 537.000
88.07241 574.000
88.09236 531.000
88.11230 524.000
88.13225 532.000
88.15220 505.000
88.17214 507.000
88.19209 510.000
88.21204 529.000
88.23198 502.000
88.25193 545.000
88.27188 527.000
88.29183 500.000
88.31177 543.000
88.33172 500.000
88.35167 516.000
88.37161 551.000
88.39156 500.000
88.41151 544.000
88.43145 496.000
88.45140 492.000
88.47135 561.000
88.49129 536.000
88.51124 499.000
88.53119 525.000
88.55114 496.000
88.57108 526.000
88.59103 565.000
88.61098 487.000
88.63092 572.000
88.65087 531.000
88.67082 518.000
88.69076 539.000
88.71071 507.000
88.73066 533.000
88.75061 536.000
88.77055 565.000
88.79050 545.000
88.81045 524.000
88.83039 511.000
88.85034 524.000
88.87029 530.000
88.89023 522.000
88.91018 571.000
88.93013 486.000
88.95007 546.000
88.97002 526.000
88.98997 511.000
89.00992 521.000
89.02986 519.000
89.04981 547.000
89.06976 539.000
89.08970 561.000
89.10965 555.000
89.12960 575.000
89.14954 570.000
89.16949 556.000
89.18944 557.000
89.20939 541.000
89.22933 500.000
89.24928 570.000
89.26923 566.000
89.28917 545.000
89.30912 537.000
89.32907 549.000
89.34901 585.000
89.36896 562.000
89.38891 590.000
89.40885 601.000
89.42880 605.000
89.44875 568.000
89.46870 577.000
89.48864 601.000
89.50859 569.000
89.52854 597.000
89.54848 602.000
89.56843 586.000
89.58838 627.000
89.60832 602.000
89.62827 636.000
89.64822 563.000
89.66817 648.000
89.68811 599.000
89.70806 633.000
89.72801 597.000
89.74795 559.000
89.76790 585.000
89.78785 627.000
89.80779 604.000
89.82774 555.000
89.84769 533.000
89.86764 611.000
89.88758 612.000
89.90753 572.000
89.92748 613.000
89.94742 639.000
89.96737 634.000
89.98732 619.000
90.00726 606.000
