10.00000 112.000
10.01995 132.000
10.03989 115.000
10.05984 128.000
10.07979 112.000
10.09973 92.000
10.11968 116.000
10.13963 117.000
10.15958 99.000
10.17952 108.000
10.19947 85.000
10.21942 115.000
10.23936 95.000
10.25931 108.000
10.27926 113.000
10.29920 99.000
10.31915 96.000
10.33910 99.000
10.35905 114.000
10.37899 96.000
10.39894 102.000
10.41889 111.000
10.43883 110.000
10.45878 138.000
10.47873 121.000
10.49867 101.000
10.51862 128.000
10.53857 112.000
10.55851 108.000
10.57846 108.000
10.59841 114.000
10.61836 120.000
10.63830 107.000
10.65825 103.000
10.67820 113.000
10.69814 101.000
10.71809 102.000
10.73804 137.000
10.75798 90.000
10.77793 102.000
10.79788 116.000
10.81783 106.000
10.83777 125.000
10.85772 96.000
10.87767 91.000
10.89761 119.000
10.91756 110.000
10.93751 110.000
10.95745 131.000
10.97740 123.000
10.99735 116.000
11.01730 117.000
11.03724 125.000
11.05719 127.000
11.07714 124.000
11.09708 107.000
11.11703 111.000
11.13698 133.000
11.15692 120.000
11.17687 127.000
11.19682 119.000
11.21676 116.000
11.23671 127.000
11.25666 104.000
11.27661 115.000
11.29655 125.000
11.31650 127.000
11.33645 122.000
11.35639 118.000
11.37634 137.000
11.39629 107.000
11.41623 119.000
11.43618 120.000
11.45613 134.000
11.47608 122.000
11.49602 123.000
11.51597 126.000
11.53592 115.000
11.55586 130.000
11.57581 121.000
11.59576 129.000
11.61570 125.000
11.63565 148.000
11.65560 140.000
11.67554 122.000
11.69549 137.000
11.71544 127.000
11.73539 125.000
11.75533 102.000
11.77528 130.000
11.79523 129.000
11.81517 129.000
11.83512 123.000
11.85507 137.000
11.87501 120.000
11.89496 105.000
11.91491 109.000
11.93486 143.000
11.95480 123.000
11.97475 124.000
11.99470 122.000
12.01464 108.000
12.03459 118.000
12.05454 123.000
12.07448 135.000
12.09443 134.000
12.11438 134.000
12.13432 103.000
12.15427 116.000
12.17422 143.000
12.19417 133.000
12.21411 129.000
12.23406 135.000
12.25401 142.000
12.27395 135.000
12.29390 126.000
12.31385 147.000
12.33379 140.000
12.35374 121.000
12.37369 131.000
12.39364 117.000
12.41358 115.000
12.43353 144.000
12.45348 155.000
12.47342 141.000
12.49337 133.000
12.51332 121.000
12.53326 131.000
12.55321 125.000
12.57316 138.000
12.59311 141.000
12.61305 144.000
12.63300 125.000
12.65295 130.000
12.67289 132.000
12.69284 131.000
12.71279 165.000
12.73273 169.000
12.75268 127.000
12.77263 149.000
12.79257 134.000
12.81252 137.000
12.83247 148.000
12.85242 152.000
12.87236 122.000
12.89231 142.000
12.91226 141.000
12.93220 127.000
12.95215 129.000
12.97210 157.000
12.99204 158.000
13.01199 143.000
13.03194 163.000
13.05189 142.000
13.07183 152.000
13.09178 152.000
13.11173 143.000
13.13167 162.000
13.15162 152.000
13.17157 148.000
13.19151 156.000
13.21146 133.000
13.23141 141.000
13.25135 149.000
13.27130 151.000
13.29125 153.000
13.31120 148.000
13.33114 130.000
13.35109 141.000
13.37104 150.000
13.39098 172.000
13.41093 152.000
13.43088 136.000
13.45082 154.000
13.47077 132.000
13.49072 131.000
13.51067 140.000
13.53061 144.000
13.55056 138.000
13.57051 159.000
13.59045 137.000
13.61040 147.000
13.63035 144.000
13.65029 162.000
13.67024 152.000
13.69019 136.000
13.71013 171.000
13.73008 162.000
13.75003 178.000
13.76998 142.000
13.78992 138.000
13.80987 141.000
13.82982 152.000
13.84976 175.000
13.86971 164.000
13.88966 143.000
13.90960 145.000
13.92955 166.000
13.94950 143.000
13.96945 149.000
13.98939 165.000
14.00934 176.000
14.02929 156.000
14.04923 186.000
14.06918 175.000
14.08913 182.000
14.10907 158.000
14.12902 175.000
14.14897 150.000
14.16892 165.000
14.18886 151.000
14.20881 155.000
14.22876 174.000
14.24870 163.000
14.26865 189.000
14.28860 166.000
14.30854 184.000
14.32849 163.000
14.34844 164.000
14.36838 156.000
14.38833 160.000
14.40828 161.000
14.42823 169.000
14.44817 166.000
14.46812 157.000
14.48807 194.000
14.50801 182.000
14.52796 164.000
14.54791 166.000
14.56785 177.000
14.58780 184.000
14.60775 181.000
14.62770 177.000
14.64764 169.000
14.66759 177.000
14.68754 165.000
14.70748 164.000
14.72743 174.000
14.74738 169.000
14.76732 180.000
14.78727 169.000
14.80722 178.000
14.82716 170.000
14.84711 182.000
14.86706 159.000
14.88701 176.000
14.90695 188.000
14.92690 180.000
14.94685 185.000
14.96679 185.000
14.98674 194.000
15.00669 178.000
15.02663 175.000
15.04658 184.000
15.06653 183.000
15.08648 167.000
15.10642 187.000
15.12637 183.000
15.14632 174.000
15.16626 196.000
15.18621 201.000
15.20616 196.000
15.22610 196.000
15.24605 182.000
15.26600 203.000
15.28594 184.000
15.30589 193.000
15.32584 187.000
15.34579 187.000
15.36573 204.000
15.38568 204.000
15.40563 183.000
15.42557 183.000
15.44552 187.000
15.46547 185.000
15.48541 178.000
15.50536 204.000
15.52531 208.000
15.54526 192.000
15.56520 207.000
15.58515 216.000
15.60510 197.000
15.62504 219.000
15.64499 189.000
15.66494 183.000
15.68488 179.000
15.70483 203.000
15.72478 201.000
15.74472 242.000
15.76467 213.000
15.78462 208.000
15.80457 212.000
15.82451 231.000
15.84446 212.000
15.86441 212.000
15.88435 215.000
15.90430 238.000
15.92425 242.000
15.94419 217.000
15.96414 201.000
15.98409 215.000
16.00404 227.000
16.02398 218.000
16.04393 206.000
16.06388 205.000
16.08382 199.000
16.10377 205.000
16.12372 211.000
16.14366 201.000
16.16361 224.000
16.18356 227.000
16.20351 208.000
16.22345 240.000
16.24340 219.000
16.26335 225.000
16.28329 205.000
16.30324 222.000
16.32319 240.000
16.34313 250.000
16.36308 210.000
16.38303 217.000
16.40297 224.000
16.42292 243.000
16.44287 224.000
16.46282 228.000
16.48276 225.000
16.50271 252.000
16.52266 222.000
16.54260 232.000
16.56255 248.000
16.58250 258.000
16.60244 223.000
16.62239 225.000
16.64234 241.000
16.66229 255.000
16.68223 229.000
16.70218 230.000
16.72213 263.000
16.74207 208.000
16.76202 220.000
16.78197 256.000
16.80191 252.000
16.82186 235.000
16.84181 258.000
16.86175 257.000
16.88170 242.000
16.90165 229.000
16.92160 261.000
16.94154 250.000
16.96149 251.000
16.98144 271.000
17.00138 248.000
17.02133 277.000
17.04128 255.000
17.06122 270.000
17.08117 253.000
17.10112 276.000
17.12107 274.000
17.14101 263.000
17.16096 249.000
17.18091 269.000
17.20085 278.000
17.22080 240.000
17.24075 276.000
17.26069 285.000
17.28064 235.000
17.30059 277.000
17.32053 267.000
17.34048 278.000
17.36043 275.000
17.38038 257.000
17.40032 244.000
17.42027 284.000
17.44022 248.000
17.46016 270.000
17.48011 270.000
17.50006 288.000
17.52000 250.000
17.53995 284.000
17.55990 279.000
17.57985 273.000
17.59979 287.000
17.61974 271.000
17.63969 288.000
17.65963 294.000
17.67958 303.000
17.69953 308.000
17.71947 285.000
17.73942 267.000
17.75937 280.000
17.77932 282.000
17.79926 297.000
17.81921 287.000
17.83916 299.000
17.85910 315.000
17.87905 304.000
17.89900 299.000
17.91894 306.000
17.93889 314.000
17.95884 350.000
17.97878 311.000
17.99873 332.000
18.01868 318.000
18.03863 339.000
18.05857 338.000
18.07852 352.000
18.09847 356.000
18.11841 343.000
18.13836 353.000
18.15831 336.000
18.17825 323.000
18.19820 350.000
18.21815 339.000
18.23810 296.000
18.25804 315.000
18.27799 293.000
18.29794 283.000
18.31788 285.000
18.33783 341.000
18.35778 307.000
18.37772 318.000
18.39767 323.000
18.41762 319.000
18.43756 304.000
18.45751 316.000
18.47746 310.000
18.49741 306.000
18.51735 310.000
18.53730 337.000
18.55725 340.000
18.57719 287.000
18.59714 317.000
18.61709 345.000
18.63703 300.000
18.65698 310.000
18.67693 303.000
18.69688 335.000
18.71682 335.000
18.73677 329.000
18.75672 354.000
18.77666 314.000
18.79661 368.000
18.81656 298.000
18.83650 351.000
18.85645 328.000
18.87640 342.000
18.89634 320.000
18.91629 340.000
18.93624 306.000
18.95619 335.000
18.97613 345.000
18.99608 363.000
19.01603 334.000
19.03597 332.000
19.05592 320.000
19.07587 336.000
19.09581 363.000
19.11576 335.000
19.13571 351.000
19.15566 350.000
19.17560 342.000
19.19555 337.000
19.21550 378.000
19.23544 317.000
19.25539 355.000
19.27534 356.000
19.29528 379.000
19.31523 341.000
19.33518 351.000
19.35513 359.000
19.37507 374.000
19.39502 342.000
19.41497 348.000
19.43491 321.000
19.45486 371.000
19.47481 335.000
19.49475 357.000
19.51470 380.000
19.53465 319.000
19.55459 366.000
19.57454 357.000
19.59449 347.000
19.61444 391.000
19.63438 358.000
19.65433 377.000
19.67428 364.000
19.69422 342.000
19.71417 366.000
19.73412 347.000
19.75406 370.000
19.77401 362.000
19.79396 353.000
19.81391 394.000
19.83385 362.000
19.85380 371.000
19.87375 359.000
19.89369 369.000
19.91364 400.000
19.93359 397.000
19.95353 388.000
19.97348 376.000
19.99343 384.000
20.01337 365.000
20.03332 432.000
20.05327 380.000
20.07322 409.000
20.09316 411.000
20.11311 376.000
20.13306 386.000
20.15300 403.000
20.17295 368.000
20.19290 384.000
20.21284 372.000
20.23279 370.000
20.25274 383.000
20.27269 380.000
20.29263 437.000
20.31258 360.000
20.33253 400.000
20.35247 409.000
20.37242 414.000
20.39237 400.000
20.41231 442.000
20.43226 384.000
20.45221 385.000
20.47215 427.000
20.49210 370.000
20.51205 423.000
20.53200 373.000
20.55194 401.000
20.57189 397.000
20.59184 405.000
20.61178 401.000
20.63173 404.000
20.65168 417.000
20.67162 400.000
20.69157 432.000
20.71152 409.000
20.73147 361.000
20.75141 396.000
20.77136 426.000
20.79131 411.000
20.81125 434.000
20.83120 403.000
20.85115 417.000
20.87109 407.000
20.89104 463.000
20.91099 462.000
20.93094 411.000
20.95088 410.000
20.97083 409.000
20.99078 427.000
21.01072 417.000
21.03067 409.000
21.05062 424.000
21.07056 428.000
21.09051 425.000
21.11046 426.000
21.13040 444.000
21.15035 405.000
21.17030 445.000
21.19025 434.000
21.21019 386.000
21.23014 393.000
21.25009 426.000
21.27003 450.000
21.28998 399.000
21.30993 450.000
21.32987 420.000
21.34982 414.000
21.36977 427.000
21.38972 445.000
21.40966 429.000
21.42961 440.000
21.44956 447.000
21.46950 419.000
21.48945 418.000
21.50940 448.000
21.52934 441.000
21.54929 440.000
21.56924 464.000
21.58918 446.000
21.60913 461.000
21.62908 420.000
21.64903 442.000
21.66897 478.000
21.68892 396.000
21.70887 442.000
21.72881 453.000
21.74876 426.000
21.76871 404.000
21.78865 430.000
21.80860 421.000
21.82855 446.000
21.84850 416.000
21.86844 464.000
21.88839 431.000
21.90834 438.000
21.92828 453.000
21.94823 450.000
21.96818 445.000
21.98812 410.000
22.00807 451.000
22.02802 423.000
22.04796 420.000
22.06791 456.000
22.08786 456.000
22.10781 449.000
22.12775 465.000
22.14770 430.000
22.16765 479.000
22.18759 456.000
22.20754 419.000
22.22749 451.000
22.24743 435.000
22.26738 487.000
22.28733 460.000
22.30728 472.000
22.32722 464.000
22.34717 456.000
22.36712 501.000
22.38706 460.000
22.40701 477.000
22.42696 473.000
22.44690 476.000
22.46685 471.000
22.48680 468.000
22.50675 461.000
22.52669 474.000
22.54664 454.000
22.56659 443.000
22.58653 451.000
22.60648 434.000
22.62643 473.000
22.64637 487.000
22.66632 470.000
22.68627 468.000
22.70621 472.000
22.72616 482.000
22.74611 473.000
22.76606 437.000
22.78600 503.000
22.80595 485.000
22.82590 488.000
22.84584 456.000
22.86579 516.000
22.88574 480.000
22.90568 502.000
22.92563 451.000
22.94558 541.000
22.96553 456.000
22.98547 454.000
23.00542 463.000
23.02537 513.000
23.04531 487.000
23.06526 470.000
23.08521 470.000
23.10515 454.000
23.12510 461.000
23.14505 491.000
23.16499 486.000
23.18494 477.000
23.20489 483.000
23.22484 474.000
23.24478 518.000
23.26473 480.000
23.28468 525.000
23.30462 535.000
23.32457 493.000
23.34452 497.000
23.36446 507.000
23.38441 469.000
23.40436 495.000
23.42431 491.000
23.44425 524.000
23.46420 519.000
23.48415 504.000
23.50409 479.000
23.52404 478.000
23.54399 452.000
23.56393 536.000
23.58388 527.000
23.60383 523.000
23.62377 467.000
23.64372 493.000
23.66367 505.000
23.68362 517.000
23.70356 476.000
23.72351 502.000
23.74346 501.000
23.76340 493.000
23.78335 530.000
23.80330 505.000
23.82324 522.000
23.84319 532.000
23.86314 520.000
23.88309 481.000
23.90303 519.000
23.92298 495.000
23.94293 487.000
23.96287 566.000
23.98282 504.000
24.00277 537.000
24.02271 496.000
24.04266 533.000
24.06261 501.000
24.08256 501.000
24.10250 514.000
24.12245 519.000
24.14240 508.000
24.16234 482.000
24.18229 561.000
24.20224 510.000
24.22218 514.000
24.24213 542.000
24.26208 543.000
24.28202 496.000
24.30197 499.000
24.32192 537.000
24.34187 549.000
24.36181 511.000
24.38176 530.000
24.40171 552.000
24.42165 540.000
24.44160 557.000
24.46155 506.000
24.48149 539.000
24.50144 549.000
24.52139 590.000
24.54134 513.000
24.56128 539.000
24.58123 571.000
24.60118 538.000
24.62112 485.000
24.64107 520.000
24.66102 545.000
24.68096 524.000
24.70091 530.000
24.72086 581.000
24.74080 553.000
24.76075 559.000
24.78070 534.000
24.80065 556.000
24.82059 551.000
24.84054 531.000
24.86049 548.000
24.88043 553.000
24.90038 552.000
24.92033 567.000
24.94027 570.000
24.96022 536.000
24.98017 556.000
25.00012 516.000
25.02006 565.000
25.04001 543.000
25.05996 554.000
25.07990 583.000
25.09985 563.000
25.11980 573.000
25.13974 572.000
25.15969 574.000
25.17964 573.000
25.19958 558.000
25.21953 604.000
25.23948 592.000
25.25943 619.000
25.27937 561.000
25.29932 600.000
25.31927 554.000
25.33921 586.000
25.35916 576.000
25.37911 604.000
25.39905 560.000
25.41900 539.000
25.43895 595.000
25.45890 592.000
25.47884 603.000
25.49879 549.000
25.51874 608.000
25.53868 565.000
25.55863 565.000
25.57858 576.000
25.59852 581.000
25.61847 612.000
25.63842 583.000
25.65837 612.000
25.67831 584.000
25.69826 574.000
25.71821 604.000
25.73815 563.000
25.75810 590.000
25.77805 607.000
25.79799 592.000
25.81794 612.000
25.83789 602.000
25.85783 638.000
25.87778 560.000
25.89773 575.000
25.91768 637.000
25.93762 590.000
25.95757 571.000
25.97752 573.000
25.99746 607.000
26.01741 634.000
26.03736 573.000
26.05730 625.000
26.07725 579.000
26.09720 616.000
26.11715 597.000
26.13709 611.000
26.15704 642.000
26.17699 568.000
26.19693 618.000
26.21688 563.000
26.23683 688.000
26.25677 626.000
26.27672 620.000
26.29667 631.000
26.31661 601.000
26.33656 640.000
26.35651 599.000
26.37646 635.000
26.39640 616.000
26.41635 611.000
26.43630 679.000
26.45624 597.000
26.47619 625.000
26.49614 631.000
26.51608 592.000
26.53603 606.000
26.55598 635.000
26.57593 661.000
26.59587 563.000
26.61582 635.000
26.63577 650.000
26.65571 649.000
26.67566 629.000
26.69561 629.000
26.71555 620.000
26.73550 683.000
26.75545 644.000
26.77539 678.000
26.79534 669.000
26.81529 651.000
26.83524 693.000
26.85518 633.000
26.87513 662.000
26.89508 629.000
26.91502 633.000
26.93497 638.000
26.95492 668.000
26.97486 631.000
26.99481 685.000
27.01476 656.000
27.03471 622.000
27.05465 651.000
27.07460 680.000
27.09455 669.000
27.11449 695.000
27.13444 644.000
27.15439 655.000
27.17433 639.000
27.19428 726.000
27.21423 637.000
27.23417 683.000
27.25412 650.000
27.27407 652.000
27.29402 629.000
27.31396 644.000
27.33391 666.000
27.35386 704.000
27.37380 712.000
27.39375 673.000
27.41370 642.000
27.43364 633.000
27.45359 653.000
27.47354 696.000
27.49349 661.000
27.51343 684.000
27.53338 649.000
27.55333 658.000
27.57327 643.000
27.59322 660.000
27.61317 699.000
27.63311 696.000
27.65306 690.000
27.67301 677.000
27.69296 688.000
27.71290 696.000
27.73285 700.000
27.75280 673.000
27.77274 683.000
27.79269 704.000
27.81264 676.000
27.83258 684.000
27.85253 717.000
27.87248 691.000
27.89242 721.000
27.91237 705.000
27.93232 666.000
27.95227 671.000
27.97221 676.000
27.99216 699.000
28.01211 698.000
28.03205 707.000
28.05200 685.000
28.07195 718.000
28.09189 683.000
28.11184 687.000
28.13179 697.000
28.15174 687.000
28.17168 711.000
28.19163 671.000
28.21158 662.000
28.23152 697.000
28.25147 690.000
28.27142 669.000
28.29136 658.000
28.31131 731.000
28.33126 694.000
28.35120 720.000
28.37115 702.000
28.39110 726.000
28.41105 721.000
28.43099 741.000
28.45094 689.000
28.47089 738.000
28.49083 696.000
28.51078 737.000
28.53073 675.000
28.55067 692.000
28.57062 743.000
28.59057 663.000
28.61052 705.000
28.63046 762.000
28.65041 706.000
28.67036 653.000
28.69030 744.000
28.71025 733.000
28.73020 704.000
28.75014 729.000
28.77009 723.000
28.79004 702.000
28.80998 719.000
28.82993 672.000
28.84988 673.000
28.86983 728.000
28.88977 698.000
28.90972 657.000
28.92967 711.000
28.94961 736.000
28.96956 718.000
28.98951 705.000
29.00945 693.000
29.02940 726.000
29.04935 756.000
29.06930 732.000
29.08924 688.000
29.10919 692.000
29.12914 691.000
29.14908 746.000
29.16903 751.000
29.18898 787.000
29.20892 724.000
29.22887 740.000
29.24882 701.000
29.26877 686.000
29.28871 732.000
29.30866 721.000
29.32861 738.000
29.34855 740.000
29.36850 735.000
29.38845 722.000
29.40839 730.000
29.42834 735.000
29.44829 701.000
29.46823 728.000
29.48818 715.000
29.50813 704.000
29.52808 760.000
29.54802 765.000
29.56797 728.000
29.58792 781.000
29.60786 764.000
29.62781 782.000
29.64776 698.000
29.66770 747.000
29.68765 767.000
29.70760 746.000
29.72755 754.000
29.74749 762.000
29.76744 829.000
29.78739 776.000
29.80733 802.000
29.82728 886.000
29.84723 896.000
29.86717 937.000
29.88712 939.000
29.90707 1090.000
29.92701 1003.000
29.94696 1075.000
29.96691 1029.000
29.98686 1010.000
30.00680 970.000
30.02675 906.000
30.04670 869.000
30.06664 895.000
30.08659 749.000
30.10654 806.000
30.12648 803.000
30.14643 698.000
30.16638 758.000
30.18633 713.000
30.20627 677.000
30.22622 709.000
30.24617 710.000
30.26611 739.000
30.28606 753.000
30.30601 729.000
30.32595 734.000
30.34590 699.000
30.36585 713.000
30.38579 672.000
30.40574 677.000
30.42569 690.000
30.44564 765.000
30.46558 704.000
30.48553 722.000
30.50548 728.000
30.52542 755.000
30.54537 757.000
30.56532 762.000
30.58526 730.000
30.60521 735.000
30.62516 746.000
30.64511 721.000
30.66505 709.000
30.68500 721.000
30.70495 717.000
30.72489 704.000
30.74484 701.000
30.76479 687.000
30.78473 686.000
30.80468 669.000
30.82463 697.000
30.84458 715.000
30.86452 717.000
30.88447 766.000
30.90442 707.000
30.92436 726.000
30.94431 703.000
30.96426 700.000
30.98420 733.000
31.00415 638.000
31.02410 737.000
31.04404 693.000
31.06399 697.000
31.08394 674.000
31.10389 721.000
31.12383 746.000
31.14378 777.000
31.16373 710.000
31.18367 737.000
31.20362 719.000
31.22357 737.000
31.24351 668.000
31.26346 715.000
31.28341 725.000
31.30336 695.000
31.32330 725.000
31.34325 682.000
31.36320 652.000
31.38314 737.000
31.40309 707.000
31.42304 712.000
31.44298 742.000
31.46293 701.000
31.48288 717.000
31.50282 672.000
31.52277 683.000
31.54272 698.000
31.56267 700.000
31.58261 747.000
31.60256 732.000
31.62251 688.000
31.64245 749.000
31.66240 730.000
31.68235 702.000
31.70229 673.000
31.72224 697.000
31.74219 731.000
31.76214 713.000
31.78208 705.000
31.80203 689.000
31.82198 763.000
31.84192 734.000
31.86187 687.000
31.88182 722.000
31.90176 734.000
31.92171 739.000
31.94166 750.000
31.96160 747.000
31.98155 784.000
32.00150 787.000
32.02145 777.000
32.04139 844.000
32.06134 829.000
32.08129 818.000
32.10123 862.000
32.12118 930.000
32.14113 910.000
32.16107 899.000
32.18102 922.000
32.20097 826.000
32.22092 826.000
32.24086 792.000
32.26081 776.000
32.28076 747.000
32.30070 837.000
32.32065 688.000
32.34060 692.000
32.36054 714.000
32.38049 722.000
32.40044 669.000
32.42039 652.000
32.44033 684.000
32.46028 665.000
32.48023 680.000
32.50017 680.000
32.52012 638.000
32.54007 658.000
32.56001 637.000
32.57996 711.000
32.59991 693.000
32.61985 686.000
32.63980 685.000
32.65975 672.000
32.67970 638.000
32.69964 675.000
32.71959 677.000
32.73954 656.000
32.75948 729.000
32.77943 636.000
32.79938 660.000
32.81932 657.000
32.83927 691.000
32.85922 665.000
32.87917 687.000
32.89911 635.000
32.91906 650.000
32.93901 644.000
32.95895 671.000
32.97890 681.000
32.99885 685.000
33.01879 668.000
33.03874 646.000
33.05869 706.000
33.07863 677.000
33.09858 662.000
33.11853 651.000
33.13848 624.000
33.15842 632.000
33.17837 647.000
33.19832 645.000
33.21826 667.000
33.23821 663.000
33.25816 646.000
33.27810 655.000
33.29805 665.000
33.31800 653.000
33.33795 655.000
33.35789 670.000
33.37784 655.000
33.39779 661.000
33.41773 671.000
33.43768 672.000
33.45763 672.000
33.47757 666.000
33.49752 650.000
33.51747 664.000
33.53741 633.000
33.55736 655.000
33.57731 660.000
33.59726 670.000
33.61720 636.000
33.63715 661.000
33.65710 697.000
33.67704 621.000
33.69699 676.000
33.71694 657.000
33.73688 624.000
33.75683 650.000
33.77678 685.000
33.79673 619.000
33.81667 670.000
33.83662 700.000
33.85657 641.000
33.87651 626.000
33.89646 613.000
33.91641 646.000
33.93635 662.000
33.95630 625.000
33.97625 624.000
33.99620 616.000
34.01614 676.000
34.03609 674.000
34.05604 702.000
34.07598 632.000
34.09593 654.000
34.11588 657.000
34.13582 654.000
34.15577 641.000
34.17572 678.000
34.19566 635.000
34.21561 632.000
34.23556 651.000
34.25551 635.000
34.27545 642.000
34.29540 648.000
34.31535 669.000
34.33529 672.000
34.35524 663.000
34.37519 646.000
34.39513 671.000
34.41508 667.000
34.43503 661.000
34.45498 644.000
34.47492 631.000
34.49487 708.000
34.51482 670.000
34.53476 634.000
34.55471 693.000
34.57466 667.000
34.59460 649.000
34.61455 698.000
34.63450 696.000
34.65444 682.000
34.67439 767.000
34.69434 737.000
34.71429 761.000
34.73423 798.000
34.75418 761.000
34.77413 817.000
34.79407 789.000
34.81402 886.000
34.83397 876.000
34.85391 925.000
34.87386 993.000
34.89381 1103.000
34.91376 1090.000
34.93370 1205.000
34.95365 1328.000
34.97360 1400.000
34.99354 1587.000
35.01349 1792.000
35.03344 1859.000
35.05338 2094.000
35.07333 2277.000
35.09328 2589.000
35.11322 2805.000
35.13317 2893.000
35.15312 3025.000
35.17307 3270.000
35.19301 3312.000
35.21296 3424.000
35.23291 3382.000
35.25285 3389.000
35.27280 3445.000
35.29275 3375.000
35.31269 3139.000
35.33264 3244.000
35.35259 2980.000
35.37254 2684.000
35.39248 2322.000
35.41243 2021.000
35.43238 1832.000
35.45232 1530.000
35.47227 1332.000
35.49222 1117.000
35.51216 1028.000
35.53211 878.000
35.55206 818.000
35.57201 765.000
35.59195 748.000
35.61190 754.000
35.63185 734.000
35.65179 714.000
35.67174 710.000
35.69169 658.000
35.71163 665.000
35.73158 688.000
35.75153 614.000
35.77147 674.000
35.79142 596.000
35.81137 611.000
35.83132 633.000
35.85126 665.000
35.87121 677.000
35.89116 688.000
35.91110 650.000
35.93105 635.000
35.95100 639.000
35.97094 650.000
35.99089 601.000
36.01084 608.000
36.03079 582.000
36.05073 660.000
36.07068 608.000
36.09063 587.000
36.11057 624.000
36.13052 628.000
36.15047 592.000
36.17041 642.000
36.19036 601.000
36.21031 607.000
36.23025 621.000
36.25020 617.000
36.27015 680.000
36.29010 612.000
36.31004 610.000
36.32999 631.000
36.34994 620.000
36.36988 609.000
36.38983 614.000
36.40978 663.000
36.42972 637.000
36.44967 649.000
36.46962 633.000
36.48957 640.000
36.50951 661.000
36.52946 619.000
36.54941 672.000
36.56935 650.000
36.58930 678.000
36.60925 724.000
36.62919 709.000
36.64914 674.000
36.66909 683.000
36.68903 780.000
36.70898 730.000
36.72893 797.000
36.74888 902.000
36.76882 855.000
36.78877 974.000
36.80872 1061.000
36.82866 1015.000
36.84861 1120.000
36.86856 1042.000
36.88850 1048.000
36.90845 1025.000
36.92840 1012.000
36.94835 950.000
36.96829 916.000
36.98824 925.000
37.00819 856.000
37.02813 752.000
37.04808 762.000
37.06803 687.000
37.08797 697.000
37.10792 705.000
37.12787 603.000
37.14781 622.000
37.16776 627.000
37.18771 612.000
37.20766 603.000
37.22760 635.000
37.24755 575.000
37.26750 608.000
37.28744 635.000
37.30739 649.000
37.32734 629.000
37.34728 598.000
37.36723 611.000
37.38718 590.000
37.40713 616.000
37.42707 584.000
37.44702 598.000
37.46697 637.000
37.48691 652.000
37.50686 611.000
37.52681 614.000
37.54675 585.000
37.56670 603.000
37.58665 657.000
37.60660 654.000
37.62654 628.000
37.64649 648.000
37.66644 590.000
37.68638 639.000
37.70633 672.000
37.72628 634.000
37.74622 708.000
37.76617 769.000
37.78612 702.000
37.80606 740.000
37.82601 725.000
37.84596 774.000
37.86591 714.000
37.88585 713.000
37.90580 791.000
37.92575 841.000
37.94569 798.000
37.96564 854.000
37.98559 843.000
38.00553 931.000
38.02548 976.000
38.04543 981.000
38.06538 1063.000
38.08532 1198.000
38.10527 1310.000
38.12522 1339.000
38.14516 1534.000
38.16511 1660.000
38.18506 1777.000
38.20500 1983.000
38.22495 2231.000
38.24490 2504.000
38.26484 2628.000
38.28479 2806.000
38.30474 2940.000
38.32469 3022.000
38.34463 3000.000
38.36458 2940.000
38.38453 2743.000
38.40447 2362.000
38.42442 2262.000
38.44437 2114.000
38.46431 1819.000
38.48426 1652.000
38.50421 1444.000
38.52416 1312.000
38.54410 1260.000
38.56405 1126.000
38.58400 1113.000
38.60394 1156.000
38.62389 1198.000
38.64384 1177.000
38.66378 1115.000
38.68373 1176.000
38.70368 1198.000
38.72362 1166.000
38.74357 1109.000
38.76352 1064.000
38.78347 1039.000
38.80341 985.000
38.82336 909.000
38.84331 830.000
38.86325 822.000
38.88320 824.000
38.90315 700.000
38.92309 764.000
38.94304 659.000
38.96299 685.000
38.98294 643.000
39.00288 669.000
39.02283 676.000
39.04278 628.000
39.06272 623.000
39.08267 642.000
39.10262 603.000
39.12256 567.000
39.14251 594.000
39.16246 582.000
39.18241 621.000
39.20235 570.000
39.22230 568.000
39.24225 555.000
39.26219 575.000
39.28214 615.000
39.30209 595.000
39.32203 580.000
39.34198 568.000
39.36193 571.000
39.38187 594.000
39.40182 552.000
39.42177 621.000
39.44172 602.000
39.46166 621.000
39.48161 571.000
39.50156 567.000
39.52150 575.000
39.54145 551.000
39.56140 547.000
39.58134 552.000
39.60129 559.000
39.62124 529.000
39.64119 564.000
39.66113 601.000
39.68108 597.000
39.70103 555.000
39.72097 571.000
39.74092 588.000
39.76087 582.000
39.78081 578.000
39.80076 563.000
39.82071 593.000
39.84065 592.000
39.86060 572.000
39.88055 527.000
39.90050 577.000
39.92044 604.000
39.94039 636.000
39.96034 575.000
39.98028 576.000
40.00023 569.000
40.02018 591.000
40.04012 603.000
40.06007 566.000
40.08002 532.000
40.09997 572.000
40.11991 567.000
40.13986 574.000
40.15981 585.000
40.17975 551.000
40.19970 530.000
40.21965 574.000
40.23959 564.000
40.25954 593.000
40.27949 568.000
40.29943 577.000
40.31938 577.000
40.33933 540.000
40.35928 593.000
40.37922 562.000
40.39917 562.000
40.41912 590.000
40.43906 550.000
40.45901 595.000
40.47896 550.000
40.49890 495.000
40.51885 568.000
40.53880 575.000
40.55875 551.000
40.57869 577.000
40.59864 522.000
40.61859 536.000
40.63853 566.000
40.65848 565.000
40.67843 548.000
40.69837 578.000
40.71832 551.000
40.73827 588.000
40.75822 523.000
40.77816 583.000
40.79811 540.000
40.81806 584.000
40.83800 565.000
40.85795 592.000
40.87790 569.000
40.89784 575.000
40.91779 587.000
40.93774 589.000
40.95768 516.000
40.97763 564.000
40.99758 532.000
41.01753 560.000
41.03747 555.000
41.05742 590.000
41.07737 550.000
41.09731 545.000
41.11726 584.000
41.13721 595.000
41.15715 576.000
41.17710 585.000
41.19705 566.000
41.21700 562.000
41.23694 513.000
41.25689 593.000
41.27684 586.000
41.29678 587.000
41.31673 550.000
41.33668 565.000
41.35662 594.000
41.37657 529.000
41.39652 538.000
41.41646 576.000
41.43641 542.000
41.45636 556.000
41.47631 523.000
41.49625 609.000
41.51620 564.000
41.53615 604.000
41.55609 532.000
41.57604 569.000
41.59599 581.000
41.61593 567.000
41.63588 598.000
41.65583 558.000
41.67578 562.000
41.69572 590.000
41.71567 543.000
41.73562 588.000
41.75556 514.000
41.77551 535.000
41.79546 552.000
41.81540 563.000
41.83535 589.000
41.85530 545.000
41.87524 569.000
41.89519 543.000
41.91514 552.000
41.93509 582.000
41.95503 550.000
41.97498 588.000
41.99493 571.000
42.01487 587.000
42.03482 580.000
42.05477 535.000
42.07471 520.000
42.09466 545.000
42.11461 568.000
42.13456 582.000
42.15450 570.000
42.17445 550.000
42.19440 640.000
42.21434 606.000
42.23429 561.000
42.25424 568.000
42.27418 548.000
42.29413 549.000
42.31408 565.000
42.33403 573.000
42.35397 571.000
42.37392 619.000
42.39387 607.000
42.41381 586.000
42.43376 622.000
42.45371 636.000
42.47365 630.000
42.49360 568.000
42.51355 629.000
42.53349 635.000
42.55344 627.000
42.57339 614.000
42.59334 679.000
42.61328 626.000
42.63323 702.000
42.65318 690.000
42.67312 739.000
42.69307 740.000
42.71302 749.000
42.73296 819.000
42.75291 893.000
42.77286 963.000
42.79281 934.000
42.81275 1064.000
42.83270 1143.000
42.85265 1138.000
42.87259 1172.000
42.89254 1211.000
42.91249 1194.000
42.93243 1171.000
42.95238 1235.000
42.97233 1162.000
42.99227 1218.000
43.01222 1186.000
43.03217 1106.000
43.05212 1053.000
43.07206 1123.000
43.09201 935.000
43.11196 905.000
43.13190 824.000
43.15185 811.000
43.17180 711.000
43.19174 695.000
43.21169 673.000
43.23164 686.000
43.25159 584.000
43.27153 594.000
43.29148 618.000
43.31143 560.000
43.33137 584.000
43.35132 603.000
43.37127 595.000
43.39121 592.000
43.41116 609.000
43.43111 564.000
43.45105 579.000
43.47100 558.000
43.49095 571.000
43.51090 577.000
43.53084 555.000
43.55079 589.000
43.57074 552.000
43.59068 533.000
43.61063 599.000
43.63058 541.000
43.65052 585.000
43.67047 502.000
43.69042 529.000
43.71037 559.000
43.73031 570.000
43.75026 545.000
43.77021 502.000
43.79015 545.000
43.81010 561.000
43.83005 545.000
43.84999 539.000
43.86994 529.000
43.88989 528.000
43.90984 545.000
43.92978 522.000
43.94973 551.000
43.96968 520.000
43.98962 515.000
44.00957 588.000
44.02952 558.000
44.04946 567.000
44.06941 538.000
44.08936 592.000
44.10930 589.000
44.12925 504.000
44.14920 562.000
44.16915 563.000
44.18909 560.000
44.20904 548.000
44.22899 519.000
44.24893 584.000
44.26888 549.000
44.28883 565.000
44.30877 528.000
44.32872 547.000
44.34867 502.000
44.36862 500.000
44.38856 504.000
44.40851 554.000
44.42846 535.000
44.44840 559.000
44.46835 498.000
44.48830 558.000
44.50824 489.000
44.52819 558.000
44.54814 511.000
44.56808 519.000
44.58803 521.000
44.60798 500.000
44.62793 552.000
44.64787 568.000
44.66782 534.000
44.68777 518.000
44.70771 489.000
44.72766 528.000
44.74761 569.000
44.76755 560.000
44.78750 527.000
44.80745 507.000
44.82740 552.000
44.84734 514.000
44.86729 555.000
44.88724 547.000
44.90718 498.000
44.92713 521.000
44.94708 494.000
44.96702 538.000
44.98697 531.000
45.00692 549.000
45.02686 506.000
45.04681 525.000
45.06676 523.000
45.08671 482.000
45.10665 519.000
45.12660 537.000
45.14655 485.000
45.16649 524.000
45.18644 525.000
45.20639 500.000
45.22633 517.000
45.24628 514.000
45.26623 584.000
45.28618 540.000
45.30612 505.000
45.32607 528.000
45.34602 533.000
45.36596 508.000
45.38591 497.000
45.40586 511.000
45.42580 528.000
45.44575 483.000
45.46570 499.000
45.48565 509.000
45.50559 504.000
45.52554 497.000
45.54549 540.000
45.56543 505.000
45.58538 509.000
45.60533 533.000
45.62527 496.000
45.64522 539.000
45.66517 507.000
45.68511 588.000
45.70506 511.000
45.72501 511.000
45.74496 519.000
45.76490 555.000
45.78485 549.000
45.80480 500.000
45.82474 517.000
45.84469 532.000
45.86464 558.000
45.88458 570.000
45.90453 556.000
45.92448 600.000
45.94443 533.000
45.96437 616.000
45.98432 558.000
46.00427 524.000
46.02421 551.000
46.04416 543.000
46.06411 529.000
46.08405 487.000
46.10400 529.000
46.12395 526.000
46.14389 519.000
46.16384 509.000
46.18379 495.000
46.20374 528.000
46.22368 546.000
46.24363 553.000
46.26358 545.000
46.28352 530.000
46.30347 490.000
46.32342 495.000
46.34336 471.000
46.36331 511.000
46.38326 502.000
46.40321 483.000
46.42315 493.000
46.44310 503.000
46.46305 571.000
46.48299 516.000
46.50294 510.000
46.52289 511.000
46.54283 494.000
46.56278 499.000
46.58273 483.000
46.60267 522.000
46.62262 504.000
46.64257 529.000
46.66252 462.000
46.68246 511.000
46.70241 469.000
46.72236 476.000
46.74230 490.000
46.76225 483.000
46.78220 541.000
46.80214 482.000
46.82209 493.000
46.84204 492.000
46.86199 507.000
46.88193 515.000
46.90188 513.000
46.92183 513.000
46.94177 499.000
46.96172 494.000
46.98167 555.000
47.00161 480.000
47.02156 532.000
47.04151 506.000
47.06146 491.000
47.08140 486.000
47.10135 501.000
47.12130 546.000
47.14124 495.000
47.16119 478.000
47.18114 491.000
47.20108 537.000
47.22103 516.000
47.24098 531.000
47.26092 496.000
47.28087 535.000
47.30082 483.000
47.32077 465.000
47.34071 537.000
47.36066 514.000
47.38061 509.000
47.40055 483.000
47.42050 485.000
47.44045 503.000
47.46039 494.000
47.48034 508.000
47.50029 479.000
47.52024 500.000
47.54018 510.000
47.56013 478.000
47.58008 461.000
47.60002 480.000
47.61997 499.000
47.63992 547.000
47.65986 469.000
47.67981 481.000
47.69976 506.000
47.71970 504.000
47.73965 503.000
47.75960 513.000
47.77955 499.000
47.79949 489.000
47.81944 498.000
47.83939 478.000
47.85933 442.000
47.87928 544.000
47.89923 523.000
47.91917 482.000
47.93912 480.000
47.95907 494.000
47.97902 500.000
47.99896 506.000
48.01891 535.000
48.03886 518.000
48.05880 494.000
48.07875 528.000
48.09870 500.000
48.11864 502.000
48.13859 572.000
48.15854 526.000
48.17848 524.000
48.19843 525.000
48.21838 547.000
48.23833 509.000
48.25827 553.000
48.27822 553.000
48.29817 568.000
48.31811 606.000
48.33806 572.000
48.35801 626.000
48.37795 644.000
48.39790 704.000
48.41785 708.000
48.43780 722.000
48.45774 779.000
48.47769 853.000
48.49764 886.000
48.51758 891.000
48.53753 1010.000
48.55748 1021.000
48.57742 1054.000
48.59737 1165.000
48.61732 1100.000
48.63726 1127.000
48.65721 1090.000
48.67716 1124.000
48.69711 1028.000
48.71705 940.000
48.73700 912.000
48.75695 850.000
48.77689 909.000
48.79684 826.000
48.81679 727.000
48.83673 693.000
48.85668 662.000
48.87663 635.000
48.89658 596.000
48.91652 605.000
48.93647 588.000
48.95642 595.000
48.97636 537.000
48.99631 534.000
49.01626 521.000
49.03620 482.000
49.05615 539.000
49.07610 546.000
49.09605 516.000
49.11599 546.000
49.13594 513.000
49.15589 498.000
49.17583 526.000
49.19578 525.000
49.21573 526.000
49.23567 534.000
49.25562 523.000
49.27557 509.000
49.29551 485.000
49.31546 531.000
49.33541 490.000
49.35536 505.000
49.37530 504.000
49.39525 487.000
49.41520 505.000
49.43514 482.000
49.45509 499.000
49.47504 520.000
49.49498 463.000
49.51493 481.000
49.53488 520.000
49.55483 534.000
49.57477 507.000
49.59472 490.000
49.61467 461.000
49.63461 503.000
49.65456 483.000
49.67451 483.000
49.69445 492.000
49.71440 482.000
49.73435 498.000
49.75429 493.000
49.77424 496.000
49.79419 506.000
49.81414 454.000
49.83408 457.000
49.85403 499.000
49.87398 479.000
49.89392 494.000
49.91387 469.000
49.93382 457.000
49.95376 491.000
49.97371 492.000
49.99366 516.000
50.01361 523.000
50.03355 458.000
50.05350 439.000
50.07345 481.000
50.09339 514.000
50.11334 439.000
50.13329 494.000
50.15323 478.000
50.17318 524.000
50.19313 502.000
50.21307 503.000
50.23302 487.000
50.25297 440.000
50.27292 449.000
50.29286 488.000
50.31281 451.000
50.33276 462.000
50.35270 510.000
50.37265 457.000
50.39260 446.000
50.41254 473.000
50.43249 467.000
50.45244 492.000
50.47239 474.000
50.49233 512.000
50.51228 496.000
50.53223 469.000
50.55217 514.000
50.57212 465.000
50.59207 588.000
50.61201 512.000
50.63196 494.000
50.65191 482.000
50.67186 488.000
50.69180 510.000
50.71175 492.000
50.73170 508.000
50.75164 498.000
50.77159 465.000
50.79154 487.000
50.81148 497.000
50.83143 524.000
50.85138 500.000
50.87132 500.000
50.89127 500.000
50.91122 491.000
50.93117 523.000
50.95111 510.000
50.97106 527.000
50.99101 495.000
51.01095 502.000
51.03090 496.000
51.05085 527.000
51.07079 520.000
51.09074 487.000
51.11069 498.000
51.13064 468.000
51.15058 494.000
51.17053 485.000
51.19048 533.000
51.21042 491.000
51.23037 506.000
51.25032 495.000
51.27026 456.000
51.29021 487.000
51.31016 468.000
51.33010 476.000
51.35005 468.000
51.37000 526.000
51.38995 525.000
51.40989 527.000
51.42984 453.000
51.44979 456.000
51.46973 445.000
51.48968 513.000
51.50963 486.000
51.52957 466.000
51.54952 465.000
51.56947 456.000
51.58942 465.000
51.60936 502.000
51.62931 450.000
51.64926 474.000
51.66920 479.000
51.68915 487.000
51.70910 484.000
51.72904 501.000
51.74899 496.000
51.76894 494.000
51.78888 546.000
51.80883 460.000
51.82878 455.000
51.84873 473.000
51.86867 487.000
51.88862 495.000
51.90857 477.000
51.92851 485.000
51.94846 485.000
51.96841 526.000
51.98835 483.000
52.00830 462.000
52.02825 448.000
52.04820 442.000
52.06814 474.000
52.08809 498.000
52.10804 456.000
52.12798 542.000
52.14793 474.000
52.16788 486.000
52.18782 484.000
52.20777 494.000
52.22772 491.000
52.24767 497.000
52.26761 471.000
52.28756 495.000
52.30751 474.000
52.32745 487.000
52.34740 481.000
52.36735 448.000
52.38729 483.000
52.40724 450.000
52.42719 489.000
52.44713 480.000
52.46708 538.000
52.48703 481.000
52.50698 482.000
52.52692 488.000
52.54687 471.000
52.56682 506.000
52.58676 489.000
52.60671 560.000
52.62666 515.000
52.64660 442.000
52.66655 516.000
52.68650 516.000
52.70645 547.000
52.72639 522.000
52.74634 569.000
52.76629 542.000
52.78623 590.000
52.80618 542.000
52.82613 576.000
52.84607 530.000
52.86602 598.000
52.88597 600.000
52.90591 596.000
52.92586 645.000
52.94581 608.000
52.96576 569.000
52.98570 660.000
53.00565 648.000
53.02560 636.000
53.04554 638.000
53.06549 600.000
53.08544 615.000
53.10538 628.000
53.12533 631.000
53.14528 622.000
53.16523 608.000
53.18517 575.000
53.20512 586.000
53.22507 598.000
53.24501 571.000
53.26496 542.000
53.28491 553.000
53.30485 546.000
53.32480 559.000
53.34475 558.000
53.36469 541.000
53.38464 561.000
53.40459 585.000
53.42454 619.000
53.44448 611.000
53.46443 597.000
53.48438 601.000
53.50432 637.000
53.52427 597.000
53.54422 584.000
53.56416 614.000
53.58411 575.000
53.60406 584.000
53.62401 540.000
53.64395 559.000
53.66390 520.000
53.68385 557.000
53.70379 502.000
53.72374 507.000
53.74369 499.000
53.76363 494.000
53.78358 512.000
53.80353 475.000
53.82348 462.000
53.84342 451.000
53.86337 463.000
53.88332 445.000
53.90326 454.000
53.92321 472.000
53.94316 437.000
53.96310 437.000
53.98305 489.000
54.00300 489.000
54.02294 486.000
54.04289 488.000
54.06284 452.000
54.08279 489.000
54.10273 472.000
54.12268 457.000
54.14263 479.000
54.16257 490.000
54.18252 468.000
54.20247 446.000
54.22241 478.000
54.24236 496.000
54.26231 477.000
54.28226 467.000
54.30220 493.000
54.32215 486.000
54.34210 486.000
54.36204 455.000
54.38199 448.000
54.40194 474.000
54.42188 443.000
54.44183 486.000
54.46178 468.000
54.48172 492.000
54.50167 477.000
54.52162 499.000
54.54157 477.000
54.56151 475.000
54.58146 483.000
54.60141 451.000
54.62135 466.000
54.64130 485.000
54.66125 465.000
54.68119 490.000
54.70114 452.000
54.72109 460.000
54.74104 485.000
54.76098 473.000
54.78093 460.000
54.80088 438.000
54.82082 456.000
54.84077 437.000
54.86072 460.000
54.88066 489.000
54.90061 464.000
54.92056 495.000
54.94050 462.000
54.96045 468.000
54.98040 452.000
55.00035 486.000
55.02029 447.000
55.04024 452.000
55.06019 524.000
55.08013 450.000
55.10008 495.000
55.12003 451.000
55.13997 436.000
55.15992 470.000
55.17987 468.000
55.19982 469.000
55.21976 475.000
55.23971 456.000
55.25966 442.000
55.27960 500.000
55.29955 472.000
55.31950 483.000
55.33944 450.000
55.35939 447.000
55.37934 468.000
55.39929 485.000
55.41923 471.000
55.43918 405.000
55.45913 485.000
55.47907 490.000
55.49902 486.000
55.51897 463.000
55.53891 481.000
55.55886 459.000
55.57881 511.000
55.59875 470.000
55.61870 497.000
55.63865 477.000
55.65860 446.000
55.67854 453.000
55.69849 477.000
55.71844 483.000
55.73838 478.000
55.75833 504.000
55.77828 461.000
55.79822 482.000
55.81817 477.000
55.83812 515.000
55.85807 474.000
55.87801 451.000
55.89796 453.000
55.91791 461.000
55.93785 445.000
55.95780 509.000
55.97775 474.000
55.99769 495.000
56.01764 494.000
56.03759 486.000
56.05753 503.000
56.07748 487.000
56.09743 496.000
56.11738 475.000
56.13732 487.000
56.15727 471.000
56.17722 474.000
56.19716 456.000
56.21711 474.000
56.23706 493.000
56.25700 502.000
56.27695 474.000
56.29690 458.000
56.31685 508.000
56.33679 506.000
56.35674 449.000
56.37669 490.000
56.39663 507.000
56.41658 482.000
56.43653 511.000
56.45647 444.000
56.47642 486.000
56.49637 480.000
56.51631 488.000
56.53626 472.000
56.55621 465.000
56.57616 497.000
56.59610 447.000
56.61605 474.000
56.63600 498.000
56.65594 474.000
56.67589 490.000
56.69584 468.000
56.71578 492.000
56.73573 489.000
56.75568 561.000
56.77563 536.000
56.79557 523.000
56.81552 515.000
56.83547 585.000
56.85541 529.000
56.87536 532.000
56.89531 604.000
56.91525 613.000
56.93520 610.000
56.95515 700.000
56.97510 731.000
56.99504 789.000
57.01499 809.000
57.03494 807.000
57.05488 814.000
57.07483 748.000
57.09478 834.000
57.11472 717.000
57.13467 744.000
57.15462 736.000
57.17456 673.000
57.19451 680.000
57.21446 629.000
57.23441 640.000
57.25435 603.000
57.27430 631.000
57.29425 525.000
57.31419 501.000
57.33414 503.000
57.35409 508.000
57.37403 508.000
57.39398 470.000
57.41393 517.000
57.43388 485.000
57.45382 512.000
57.47377 531.000
57.49372 488.000
57.51366 499.000
57.53361 481.000
57.55356 521.000
57.57350 518.000
57.59345 523.000
57.61340 513.000
57.63334 572.000
57.65329 537.000
57.67324 483.000
57.69319 535.000
57.71313 617.000
57.73308 599.000
57.75303 653.000
57.77297 692.000
57.79292 649.000
57.81287 710.000
57.83281 727.000
57.85276 748.000
57.87271 707.000
57.89266 790.000
57.91260 776.000
57.93255 770.000
57.95250 802.000
57.97244 776.000
57.99239 754.000
58.01234 716.000
58.03228 683.000
58.05223 686.000
58.07218 659.000
58.09212 614.000
58.11207 545.000
58.13202 596.000
58.15197 560.000
58.17191 542.000
58.19186 546.000
58.21181 542.000
58.23175 502.000
58.25170 518.000
58.27165 479.000
58.29159 529.000
58.31154 462.000
58.33149 488.000
58.35144 499.000
58.37138 498.000
58.39133 526.000
58.41128 476.000
58.43122 510.000
58.45117 478.000
58.47112 460.000
58.49106 469.000
58.51101 453.000
58.53096 471.000
58.55090 478.000
58.57085 480.000
58.59080 493.000
58.61075 496.000
58.63069 453.000
58.65064 460.000
58.67059 471.000
58.69053 503.000
58.71048 454.000
58.73043 513.000
58.75037 518.000
58.77032 458.000
58.79027 497.000
58.81022 469.000
58.83016 473.000
58.85011 463.000
58.87006 470.000
58.89000 455.000
58.90995 477.000
58.92990 499.000
58.94984 470.000
58.96979 488.000
58.98974 475.000
59.00969 495.000
59.02963 466.000
59.04958 459.000
59.06953 457.000
59.08947 485.000
59.10942 487.000
59.12937 474.000
59.14931 500.000
59.16926 448.000
59.18921 462.000
59.20915 470.000
59.22910 487.000
59.24905 478.000
59.26900 507.000
59.28894 456.000
59.30889 439.000
59.32884 473.000
59.34878 458.000
59.36873 467.000
59.38868 481.000
59.40862 491.000
59.42857 453.000
59.44852 486.000
59.46847 463.000
59.48841 465.000
59.50836 487.000
59.52831 488.000
59.54825 487.000
59.56820 501.000
59.58815 452.000
59.60809 450.000
59.62804 482.000
59.64799 473.000
59.66793 439.000
59.68788 489.000
59.70783 481.000
59.72778 476.000
59.74772 438.000
59.76767 412.000
59.78762 440.000
59.80756 462.000
59.82751 437.000
59.84746 499.000
59.86740 435.000
59.88735 422.000
59.90730 454.000
59.92725 480.000
59.94719 469.000
59.96714 448.000
59.98709 451.000
60.00703 464.000
60.02698 489.000
60.04693 472.000
60.06687 474.000
60.08682 465.000
60.10677 485.000
60.12671 451.000
60.14666 454.000
60.16661 472.000
60.18656 468.000
60.20650 446.000
60.22645 437.000
60.24640 497.000
60.26634 445.000
60.28629 474.000
60.30624 489.000
60.32618 481.000
60.34613 472.000
60.36608 479.000
60.38603 454.000
60.40597 452.000
60.42592 478.000
60.44587 489.000
60.46581 458.000
60.48576 494.000
60.50571 460.000
60.52565 464.000
60.54560 453.000
60.56555 441.000
60.58550 492.000
60.60544 494.000
60.62539 499.000
60.64534 484.000
60.66528 494.000
60.68523 496.000
60.70518 469.000
60.72512 473.000
60.74507 490.000
60.76502 475.000
60.78496 486.000
60.80491 530.000
60.82486 503.000
60.84481 494.000
60.86475 484.000
60.88470 507.000
60.90465 510.000
60.92459 509.000
60.94454 515.000
60.96449 525.000
60.98443 551.000
61.00438 534.000
61.02433 543.000
61.04428 614.000
61.06422 576.000
61.08417 597.000
61.10412 637.000
61.12406 646.000
61.14401 695.000
61.16396 687.000
61.18390 821.000
61.20385 800.000
61.22380 892.000
61.24374 868.000
61.26369 907.000
61.28364 945.000
61.30359 877.000
61.32353 947.000
61.34348 836.000
61.36343 814.000
61.38337 796.000
61.40332 797.000
61.42327 804.000
61.44321 822.000
61.46316 713.000
61.48311 705.000
61.50306 656.000
61.52300 612.000
61.54295 620.000
61.56290 583.000
61.58284 538.000
61.60279 530.000
61.62274 524.000
61.64268 515.000
61.66263 516.000
61.68258 490.000
61.70252 526.000
61.72247 496.000
61.74242 460.000
61.76237 492.000
61.78231 464.000
61.80226 486.000
61.82221 476.000
61.84215 501.000
61.86210 497.000
61.88205 489.000
61.90199 525.000
61.92194 453.000
61.94189 481.000
61.96184 489.000
61.98178 481.000
62.00173 487.000
62.02168 497.000
62.04162 530.000
62.06157 475.000
62.08152 498.000
62.10146 503.000
62.12141 484.000
62.14136 496.000
62.16131 532.000
62.18125 544.000
62.20120 525.000
62.22115 551.000
62.24109 592.000
62.26104 586.000
62.28099 621.000
62.30093 681.000
62.32088 671.000
62.34083 655.000
62.36077 722.000
62.38072 715.000
62.40067 810.000
62.42062 791.000
62.44056 722.000
62.46051 811.000
62.48046 799.000
62.50040 853.000
62.52035 882.000
62.54030 827.000
62.56024 876.000
62.58019 899.000
62.60014 915.000
62.62009 1004.000
62.64003 1020.000
62.65998 1013.000
62.67993 1009.000
62.69987 991.000
62.71982 939.000
62.73977 872.000
62.75971 786.000
62.77966 783.000
62.79961 791.000
62.81955 770.000
62.83950 720.000
62.85945 707.000
62.87940 665.000
62.89934 639.000
62.91929 606.000
62.93924 626.000
62.95918 548.000
62.97913 549.000
62.99908 496.000
63.01902 500.000
63.03897 495.000
63.05892 489.000
63.07887 487.000
63.09881 538.000
63.11876 457.000
63.13871 480.000
63.15865 468.000
63.17860 454.000
63.19855 489.000
63.21849 466.000
63.23844 496.000
63.25839 490.000
63.27833 481.000
63.29828 469.000
63.31823 477.000
63.33818 465.000
63.35812 455.000
63.37807 461.000
63.39802 470.000
63.41796 475.000
63.43791 524.000
63.45786 484.000
63.47780 451.000
63.49775 493.000
63.51770 424.000
63.53765 465.000
63.55759 491.000
63.57754 473.000
63.59749 490.000
63.61743 457.000
63.63738 465.000
63.65733 455.000
63.67727 467.000
63.69722 450.000
63.71717 463.000
63.73712 468.000
63.75706 468.000
63.77701 494.000
63.79696 507.000
63.81690 497.000
63.83685 427.000
63.85680 445.000
63.87674 501.000
63.89669 466.000
63.91664 441.000
63.93658 496.000
63.95653 489.000
63.97648 481.000
63.99643 459.000
64.01637 427.000
64.03632 481.000
64.05627 447.000
64.07621 426.000
64.09616 512.000
64.11611 483.000
64.13605 499.000
64.15600 460.000
64.17595 444.000
64.19590 490.000
64.21584 497.000
64.23579 461.000
64.25574 457.000
64.27568 469.000
64.29563 459.000
64.31558 487.000
64.33552 471.000
64.35547 483.000
64.37542 492.000
64.39536 470.000
64.41531 470.000
64.43526 457.000
64.45521 481.000
64.47515 480.000
64.49510 496.000
64.51505 431.000
64.53499 468.000
64.55494 478.000
64.57489 480.000
64.59483 457.000
64.61478 474.000
64.63473 472.000
64.65468 466.000
64.67462 452.000
64.69457 532.000
64.71452 493.000
64.73446 501.000
64.75441 499.000
64.77436 460.000
64.79430 516.000
64.81425 506.000
64.83420 515.000
64.85414 486.000
64.87409 517.000
64.89404 511.000
64.91399 529.000
64.93393 532.000
64.95388 532.000
64.97383 527.000
64.99377 506.000
65.01372 479.000
65.03367 569.000
65.05361 561.000
65.07356 535.000
65.09351 570.000
65.11346 592.000
65.13340 567.000
65.15335 593.000
65.17330 564.000
65.19324 634.000
65.21319 611.000
65.23314 664.000
65.25308 646.000
65.27303 713.000
65.29298 659.000
65.31293 685.000
65.33287 651.000
65.35282 718.000
65.37277 710.000
65.39271 656.000
65.41266 666.000
65.43261 672.000
65.45255 711.000
65.47250 672.000
65.49245 674.000
65.51239 664.000
65.53234 656.000
65.55229 598.000
65.57224 611.000
65.59218 621.000
65.61213 609.000
65.63208 529.000
65.65202 587.000
65.67197 611.000
65.69192 580.000
65.71186 568.000
65.73181 546.000
65.75176 575.000
65.77171 533.000
65.79165 582.000
65.81160 585.000
65.83155 588.000
65.85149 584.000
65.87144 579.000
65.89139 575.000
65.91133 617.000
65.93128 603.000
65.95123 655.000
65.97117 671.000
65.99112 638.000
66.01107 714.000
66.03102 733.000
66.05096 791.000
66.07091 793.000
66.09086 796.000
66.11080 797.000
66.13075 797.000
66.15070 829.000
66.17064 805.000
66.19059 754.000
66.21054 694.000
66.23049 742.000
66.25043 692.000
66.27038 694.000
66.29033 659.000
66.31027 685.000
66.33022 626.000
66.35017 584.000
66.37011 616.000
66.39006 564.000
66.41001 593.000
66.42995 602.000
66.44990 544.000
66.46985 542.000
66.48980 536.000
66.50974 551.000
66.52969 489.000
66.54964 542.000
66.56958 476.000
66.58953 447.000
66.60948 508.000
66.62942 488.000
66.64937 494.000
66.66932 514.000
66.68927 483.000
66.70921 484.000
66.72916 476.000
66.74911 471.000
66.76905 471.000
66.78900 498.000
66.80895 504.000
66.82889 463.000
66.84884 465.000
66.86879 485.000
66.88874 510.000
66.90868 497.000
66.92863 498.000
66.94858 475.000
66.96852 517.000
66.98847 484.000
67.00842 502.000
67.02836 478.000
67.04831 444.000
67.06826 499.000
67.08820 479.000
67.10815 498.000
67.12810 494.000
67.14805 530.000
67.16799 548.000
67.18794 563.000
67.20789 490.000
67.22783 538.000
67.24778 527.000
67.26773 571.000
67.28767 590.000
67.30762 565.000
67.32757 646.000
67.34752 651.000
67.36746 681.000
67.38741 628.000
67.40736 655.000
67.42730 671.000
67.44725 681.000
67.46720 696.000
67.48714 766.000
67.50709 693.000
67.52704 705.000
67.54698 726.000
67.56693 768.000
67.58688 718.000
67.60683 756.000
67.62677 769.000
67.64672 746.000
67.66667 798.000
67.68661 876.000
67.70656 753.000
67.72651 746.000
67.74645 789.000
67.76640 739.000
67.78635 769.000
67.80630 748.000
67.82624 674.000
67.84619 700.000
67.86614 673.000
67.88608 667.000
67.90603 644.000
67.92598 634.000
67.94592 619.000
67.96587 595.000
67.98582 584.000
68.00576 531.000
68.02571 592.000
68.04566 565.000
68.06561 534.000
68.08555 497.000
68.10550 512.000
68.12545 510.000
68.14539 503.000
68.16534 520.000
68.18529 454.000
68.20523 463.000
68.22518 464.000
68.24513 487.000
68.26508 494.000
68.28502 490.000
68.30497 459.000
68.32492 452.000
68.34486 423.000
68.36481 459.000
68.38476 447.000
68.40470 471.000
68.42465 496.000
68.44460 448.000
68.46455 491.000
68.48449 443.000
68.50444 458.000
68.52439 438.000
68.54433 465.000
68.56428 465.000
68.58423 480.000
68.60417 454.000
68.62412 458.000
68.64407 453.000
68.66401 475.000
68.68396 455.000
68.70391 451.000
68.72386 452.000
68.74380 470.000
68.76375 463.000
68.78370 453.000
68.80364 492.000
68.82359 413.000
68.84354 441.000
68.86348 456.000
68.88343 440.000
68.90338 446.000
68.92333 490.000
68.94327 471.000
68.96322 441.000
68.98317 467.000
69.00311 406.000
69.02306 430.000
69.04301 489.000
69.06295 470.000
69.08290 456.000
69.10285 491.000
69.12279 436.000
69.14274 445.000
69.16269 453.000
69.18264 468.000
69.20258 469.000
69.22253 404.000
69.24248 431.000
69.26242 461.000
69.28237 447.000
69.30232 413.000
69.32226 461.000
69.34221 441.000
69.36216 423.000
69.38211 452.000
69.40205 437.000
69.42200 479.000
69.44195 471.000
69.46189 440.000
69.48184 431.000
69.50179 445.000
69.52173 438.000
69.54168 450.000
69.56163 476.000
69.58157 471.000
69.60152 462.000
69.62147 453.000
69.64142 480.000
69.66136 445.000
69.68131 497.000
69.70126 420.000
69.72120 448.000
69.74115 443.000
69.76110 475.000
69.78104 455.000
69.80099 476.000
69.82094 470.000
69.84089 477.000
69.86083 472.000
69.88078 390.000
69.90073 434.000
69.92067 468.000
69.94062 444.000
69.96057 480.000
69.98051 470.000
70.00046 438.000
70.02041 431.000
70.04035 454.000
70.06030 440.000
70.08025 491.000
70.10020 428.000
70.12014 444.000
70.14009 450.000
70.16004 467.000
70.17998 451.000
70.19993 428.000
70.21988 453.000
70.23982 453.000
70.25977 395.000
70.27972 463.000
70.29967 451.000
70.31961 438.000
70.33956 454.000
70.35951 441.000
70.37945 432.000
70.39940 471.000
70.41935 428.000
70.43929 490.000
70.45924 467.000
70.47919 474.000
70.49914 436.000
70.51908 477.000
70.53903 468.000
70.55898 471.000
70.57892 433.000
70.59887 448.000
70.61882 470.000
70.63876 442.000
70.65871 428.000
70.67866 472.000
70.69860 412.000
70.71855 420.000
70.73850 454.000
70.75845 443.000
70.77839 442.000
70.79834 468.000
70.81829 429.000
70.83823 434.000
70.85818 426.000
70.87813 449.000
70.89807 464.000
70.91802 453.000
70.93797 458.000
70.95792 462.000
70.97786 459.000
70.99781 429.000
71.01776 469.000
71.03770 463.000
71.05765 430.000
71.07760 471.000
71.09754 462.000
71.11749 485.000
71.13744 502.000
71.15738 449.000
71.17733 472.000
71.19728 498.000
71.21723 495.000
71.23717 485.000
71.25712 465.000
71.27707 455.000
71.29701 482.000
71.31696 458.000
71.33691 492.000
71.35685 436.000
71.37680 445.000
71.39675 508.000
71.41670 487.000
71.43664 462.000
71.45659 481.000
71.47654 486.000
71.49648 515.000
71.51643 482.000
71.53638 460.000
71.55632 410.000
71.57627 465.000
71.59622 462.000
71.61616 450.000
71.63611 436.000
71.65606 473.000
71.67601 449.000
71.69595 447.000
71.71590 495.000
71.73585 447.000
71.75579 470.000
71.77574 476.000
71.79569 472.000
71.81563 463.000
71.83558 505.000
71.85553 503.000
71.87548 469.000
71.89542 522.000
71.91537 511.000
71.93532 530.000
71.95526 528.000
71.97521 571.000
71.99516 571.000
72.01510 620.000
72.03505 581.000
72.05500 602.000
72.07495 556.000
72.09489 613.000
72.11484 587.000
72.13479 578.000
72.15473 569.000
72.17468 578.000
72.19463 590.000
72.21457 571.000
72.23452 590.000
72.25447 541.000
72.27441 532.000
72.29436 531.000
72.31431 534.000
72.33426 526.000
72.35420 546.000
72.37415 483.000
72.39410 503.000
72.41404 488.000
72.43399 457.000
72.45394 450.000
72.47388 480.000
72.49383 482.000
72.51378 459.000
72.53373 408.000
72.55367 474.000
72.57362 476.000
72.59357 477.000
72.61351 470.000
72.63346 444.000
72.65341 483.000
72.67335 450.000
72.69330 460.000
72.71325 437.000
72.73319 455.000
72.75314 439.000
72.77309 451.000
72.79304 440.000
72.81298 458.000
72.83293 471.000
72.85288 457.000
72.87282 468.000
72.89277 435.000
72.91272 440.000
72.93266 421.000
72.95261 409.000
72.97256 463.000
72.99251 474.000
73.01245 457.000
73.03240 451.000
73.05235 454.000
73.07229 428.000
73.09224 458.000
73.11219 450.000
73.13213 469.000
73.15208 456.000
73.17203 427.000
73.19197 452.000
73.21192 452.000
73.23187 442.000
73.25182 455.000
73.27176 424.000
73.29171 443.000
73.31166 427.000
73.33160 452.000
73.35155 434.000
73.37150 458.000
73.39144 462.000
73.41139 450.000
73.43134 471.000
73.45129 459.000
73.47123 457.000
73.49118 473.000
73.51113 453.000
73.53107 437.000
73.55102 447.000
73.57097 411.000
73.59091 499.000
73.61086 460.000
73.63081 431.000
73.65076 447.000
73.67070 463.000
73.69065 486.000
73.71060 464.000
73.73054 423.000
73.75049 453.000
73.77044 488.000
73.79038 429.000
73.81033 428.000
73.83028 469.000
73.85022 442.000
73.87017 455.000
73.89012 455.000
73.91007 456.000
73.93001 503.000
73.94996 465.000
73.96991 457.000
73.98985 434.000
74.00980 471.000
74.02975 489.000
74.04969 458.000
74.06964 477.000
74.08959 475.000
74.10954 468.000
74.12948 547.000
74.14943 534.000
74.16938 551.000
74.18932 540.000
74.20927 497.000
74.22922 547.000
74.24916 518.000
74.26911 562.000
74.28906 540.000
74.30900 538.000
74.32895 592.000
74.34890 481.000
74.36885 532.000
74.38879 510.000
74.40874 528.000
74.42869 505.000
74.44863 577.000
74.46858 559.000
74.48853 514.000
74.50847 545.000
74.52842 532.000
74.54837 571.000
74.56832 579.000
74.58826 563.000
74.60821 575.000
74.62816 635.000
74.64810 697.000
74.66805 621.000
74.68800 610.000
74.70794 635.000
74.72789 579.000
74.74784 642.000
74.76778 599.000
74.78773 596.000
74.80768 638.000
74.82763 666.000
74.84757 663.000
74.86752 651.000
74.88747 683.000
74.90741 677.000
74.92736 738.000
74.94731 708.000
74.96725 645.000
74.98720 693.000
75.00715 683.000
75.02710 702.000
75.04704 599.000
75.06699 622.000
75.08694 654.000
75.10688 606.000
75.12683 597.000
75.14678 606.000
75.16672 555.000
75.18667 582.000
75.20662 591.000
75.22657 592.000
75.24651 589.000
75.26646 594.000
75.28641 540.000
75.30635 550.000
75.32630 535.000
75.34625 516.000
75.36619 484.000
75.38614 478.000
75.40609 489.000
75.42603 485.000
75.44598 510.000
75.46593 502.000
75.48588 475.000
75.50582 480.000
75.52577 474.000
75.54572 484.000
75.56566 475.000
75.58561 447.000
75.60556 432.000
75.62550 442.000
75.64545 478.000
75.66540 442.000
75.68535 422.000
75.70529 475.000
75.72524 510.000
75.74519 439.000
75.76513 482.000
75.78508 452.000
75.80503 432.000
75.82497 443.000
75.84492 433.000
75.86487 407.000
75.88481 451.000
75.90476 446.000
75.92471 424.000
75.94466 469.000
75.96460 457.000
75.98455 427.000
76.00450 434.000
76.02444 456.000
76.04439 439.000
76.06434 438.000
76.08428 463.000
76.10423 450.000
76.12418 442.000
76.14413 436.000
76.16407 458.000
76.18402 424.000
76.20397 457.000
76.22391 412.000
76.24386 449.000
76.26381 470.000
76.28375 448.000
76.30370 428.000
76.32365 400.000
76.34359 469.000
76.36354 408.000
76.38349 449.000
76.40344 427.000
76.42338 424.000
76.44333 481.000
76.46328 444.000
76.48322 429.000
76.50317 456.000
76.52312 491.000
76.54306 429.000
76.56301 436.000
76.58296 454.000
76.60291 449.000
76.62285 435.000
76.64280 471.000
76.66275 425.000
76.68269 419.000
76.70264 435.000
76.72259 432.000
76.74253 430.000
76.76248 398.000
76.78243 408.000
76.80238 446.000
76.82232 418.000
76.84227 398.000
76.86222 438.000
76.88216 477.000
76.90211 417.000
76.92206 445.000
76.94200 450.000
76.96195 439.000
76.98190 425.000
77.00184 418.000
77.02179 421.000
77.04174 443.000
77.06169 472.000
77.08163 441.000
77.10158 455.000
77.12153 467.000
77.14147 463.000
77.16142 442.000
77.18137 433.000
77.20131 429.000
77.22126 448.000
77.24121 438.000
77.26116 439.000
77.28110 431.000
77.30105 430.000
77.32100 442.000
77.34094 412.000
77.36089 432.000
77.38084 428.000
77.40078 461.000
77.42073 429.000
77.44068 431.000
77.46062 423.000
77.48057 408.000
77.50052 461.000
77.52047 452.000
77.54041 469.000
77.56036 445.000
77.58031 389.000
77.60025 435.000
77.62020 450.000
77.64015 469.000
77.66009 461.000
77.68004 436.000
77.69999 406.000
77.71994 463.000
77.73988 466.000
77.75983 456.000
77.77978 442.000
77.79972 443.000
77.81967 456.000
77.83962 409.000
77.85956 443.000
77.87951 431.000
77.89946 442.000
77.91940 440.000
77.93935 479.000
77.95930 447.000
77.97925 489.000
77.99919 455.000
78.01914 437.000
78.03909 457.000
78.05903 477.000
78.07898 444.000
78.09893 417.000
78.11887 420.000
78.13882 429.000
78.15877 453.000
78.17872 431.000
78.19866 445.000
78.21861 435.000
78.23856 463.000
78.25850 403.000
78.27845 471.000
78.29840 437.000
78.31834 424.000
78.33829 429.000
78.35824 403.000
78.37819 417.000
78.39813 444.000
78.41808 441.000
78.43803 463.000
78.45797 425.000
78.47792 466.000
78.49787 455.000
78.51781 416.000
78.53776 475.000
78.55771 437.000
78.57765 419.000
78.59760 457.000
78.61755 472.000
78.63750 479.000
78.65744 502.000
78.67739 439.000
78.69734 472.000
78.71728 461.000
78.73723 491.000
78.75718 488.000
78.77712 484.000
78.79707 504.000
78.81702 488.000
78.83697 472.000
78.85691 467.000
78.87686 472.000
78.89681 498.000
78.91675 502.000
78.93670 514.000
78.95665 511.000
78.97659 515.000
78.99654 517.000
79.01649 503.000
79.03643 507.000
79.05638 474.000
79.07633 504.000
79.09628 510.000
79.11622 522.000
79.13617 497.000
79.15612 501.000
79.17606 504.000
79.19601 468.000
79.21596 518.000
79.23590 513.000
79.25585 517.000
79.27580 469.000
79.29575 494.000
79.31569 471.000
79.33564 471.000
79.35559 494.000
79.37553 487.000
79.39548 450.000
79.41543 468.000
79.43537 491.000
79.45532 455.000
79.47527 457.000
79.49521 455.000
79.51516 458.000
79.53511 441.000
79.55506 466.000
79.57500 468.000
79.59495 433.000
79.61490 425.000
79.63484 444.000
79.65479 376.000
79.67474 464.000
79.69468 453.000
79.71463 433.000
79.73458 416.000
79.75453 414.000
79.77447 437.000
79.79442 444.000
79.81437 409.000
79.83431 479.000
79.85426 441.000
79.87421 470.000
79.89415 449.000
79.91410 436.000
79.93405 449.000
79.95399 489.000
79.97394 458.000
79.99389 435.000
80.01384 453.000
80.03378 479.000
80.05373 473.000
80.07368 537.000
80.09362 519.000
80.11357 497.000
80.13352 510.000
80.15346 519.000
80.17341 509.000
80.19336 483.000
80.21331 503.000
80.23325 457.000
80.25320 466.000
80.27315 462.000
80.29309 461.000
80.31304 408.000
80.33299 513.000
80.35293 452.000
80.37288 440.000
80.39283 457.000
80.41278 457.000
80.43272 462.000
80.45267 464.000
80.47262 440.000
80.49256 453.000
80.51251 455.000
80.53246 444.000
80.55240 482.000
80.57235 440.000
80.59230 463.000
80.61224 427.000
80.63219 448.000
80.65214 415.000
80.67209 465.000
80.69203 497.000
80.71198 420.000
80.73193 451.000
80.75187 431.000
80.77182 463.000
80.79177 425.000
80.81171 459.000
80.83166 431.000
80.85161 475.000
80.87156 447.000
80.89150 431.000
80.91145 447.000
80.93140 422.000
80.95134 467.000
80.97129 416.000
80.99124 462.000
81.01118 430.000
81.03113 401.000
81.05108 448.000
81.07102 475.000
81.09097 448.000
81.11092 368.000
81.13087 407.000
81.15081 399.000
81.17076 413.000
81.19071 409.000
81.21065 480.000
81.23060 438.000
81.25055 440.000
81.27049 458.000
81.29044 421.000
81.31039 435.000
81.33034 452.000
81.35028 440.000
81.37023 434.000
81.39018 391.000
81.41012 470.000
81.43007 466.000
81.45002 458.000
81.46996 438.000
81.48991 463.000
81.50986 462.000
81.52980 461.000
81.54975 433.000
81.56970 454.000
81.58965 437.000
81.60959 457.000
81.62954 449.000
81.64949 447.000
81.66943 472.000
81.68938 404.000
81.70933 421.000
81.72927 450.000
81.74922 465.000
81.76917 441.000
81.78912 420.000
81.80906 430.000
81.82901 428.000
81.84896 437.000
81.86890 436.000
81.88885 464.000
81.90880 449.000
81.92874 471.000
81.94869 458.000
81.96864 411.000
81.98859 452.000
82.00853 494.000
82.02848 482.000
82.04843 452.000
82.06837 462.000
82.08832 472.000
82.10827 487.000
82.12821 463.000
82.14816 498.000
82.16811 517.000
82.18805 507.000
82.20800 528.000
82.22795 550.000
82.24790 507.000
82.26784 502.000
82.28779 498.000
82.30774 540.000
82.32768 491.000
82.34763 535.000
82.36758 542.000
82.38752 556.000
82.40747 589.000
82.42742 552.000
82.44737 577.000
82.46731 574.000
82.48726 635.000
82.50721 552.000
82.52715 575.000
82.54710 560.000
82.56705 610.000
82.58699 538.000
82.60694 570.000
82.62689 590.000
82.64683 537.000
82.66678 599.000
82.68673 520.000
82.70668 534.000
82.72662 521.000
82.74657 533.000
82.76652 450.000
82.78646 569.000
82.80641 508.000
82.82636 476.000
82.84630 487.000
82.86625 476.000
82.88620 502.000
82.90615 492.000
82.92609 482.000
82.94604 458.000
82.96599 453.000
82.98593 478.000
83.00588 488.000
83.02583 507.000
83.04577 462.000
83.06572 464.000
83.08567 444.000
83.10561 488.000
83.12556 473.000
83.14551 480.000
83.16546 494.000
83.18540 470.000
83.20535 468.000
83.22530 451.000
83.24524 448.000
83.26519 465.000
83.28514 466.000
83.30508 453.000
83.32503 524.000
83.34498 459.000
83.36493 487.000
83.38487 456.000
83.40482 477.000
83.42477 508.000
83.44471 492.000
83.46466 487.000
83.48461 500.000
83.50455 541.000
83.52450 523.000
83.54445 485.000
83.56440 485.000
83.58434 477.000
83.60429 525.000
83.62424 520.000
83.64418 479.000
83.66413 525.000
83.68408 490.000
83.70402 475.000
83.72397 464.000
83.74392 472.000
83.76386 454.000
83.78381 481.000
83.80376 459.000
83.82371 446.000
83.84365 461.000
83.86360 451.000
83.88355 475.000
83.90349 527.000
83.92344 459.000
83.94339 436.000
83.96333 430.000
83.98328 465.000
84.00323 450.000
84.02318 432.000
84.04312 403.000
84.06307 484.000
84.08302 440.000
84.10296 435.000
84.12291 453.000
84.14286 427.000
84.16280 413.000
84.18275 416.000
84.20270 460.000
84.22264 462.000
84.24259 421.000
84.26254 418.000
84.28249 473.000
84.30243 457.000
84.32238 457.000
84.34233 472.000
84.36227 454.000
84.38222 415.000
84.40217 447.000
84.42211 400.000
84.44206 444.000
84.46201 466.000
84.48196 428.000
84.50190 421.000
84.52185 428.000
84.54180 457.000
84.56174 458.000
84.58169 412.000
84.60164 475.000
84.62158 442.000
84.64153 451.000
84.66148 450.000
84.68142 458.000
84.70137 442.000
84.72132 419.000
84.74127 433.000
84.76121 450.000
84.78116 450.000
84.80111 472.000
84.82105 452.000
84.84100 429.000
84.86095 440.000
84.88089 417.000
84.90084 408.000
84.92079 435.000
84.94074 428.000
84.96068 459.000
84.98063 447.000
85.00058 408.000
85.02052 405.000
85.04047 442.000
85.06042 425.000
85.08036 446.000
85.10031 445.000
85.12026 396.000
85.14021 437.000
85.16015 425.000
85.18010 435.000
85.20005 437.000
85.21999 431.000
85.23994 431.000
85.25989 471.000
85.27983 422.000
85.29978 458.000
85.31973 416.000
85.33967 423.000
85.35962 379.000
85.37957 422.000
85.39952 437.000
85.41946 447.000
85.43941 401.000
85.45936 456.000
85.47930 432.000
85.49925 445.000
85.51920 439.000
85.53914 450.000
85.55909 418.000
85.57904 416.000
85.59899 386.000
85.61893 436.000
85.63888 462.000
85.65883 445.000
85.67877 453.000
85.69872 453.000
85.71867 446.000
85.73861 460.000
85.75856 436.000
85.77851 408.000
85.79845 454.000
85.81840 434.000
85.83835 401.000
85.85830 475.000
85.87824 459.000
85.89819 431.000
85.91814 455.000
85.93808 440.000
85.95803 442.000
85.97798 424.000
85.99792 481.000
86.01787 427.000
86.03782 424.000
86.05777 446.000
86.07771 505.000
86.09766 428.000
86.11761 440.000
86.13755 446.000
86.15750 450.000
86.17745 427.000
86.19739 448.000
86.21734 451.000
86.23729 449.000
86.25723 457.000
86.27718 462.000
86.29713 430.000
86.31708 455.000
86.33702 438.000
86.35697 479.000
86.37692 447.000
86.39686 465.000
86.41681 410.000
86.43676 440.000
86.45670 429.000
86.47665 428.000
86.49660 461.000
86.51655 487.000
86.53649 450.000
86.55644 472.000
86.57639 474.000
86.59633 467.000
86.61628 460.000
86.63623 484.000
86.65617 510.000
86.67612 444.000
86.69607 482.000
86.71602 468.000
86.73596 478.000
86.75591 455.000
86.77586 436.000
86.79580 467.000
86.81575 439.000
86.83570 447.000
86.85564 492.000
86.87559 471.000
86.89554 432.000
86.91548 444.000
86.93543 482.000
86.95538 448.000
86.97533 426.000
86.99527 478.000
87.01522 454.000
87.03517 471.000
87.05511 419.000
87.07506 488.000
87.09501 472.000
87.11495 472.000
87.13490 485.000
87.15485 481.000
87.17480 500.000
87.19474 467.000
87.21469 483.000
87.23464 460.000
87.25458 463.000
87.27453 512.000
87.29448 444.000
87.31442 456.000
87.33437 471.000
87.35432 487.000
87.37426 448.000
87.39421 447.000
87.41416 451.000
87.43411 463.000
87.45405 438.000
87.47400 447.000
87.49395 501.000
87.51389 431.000
87.53384 479.000
87.55379 431.000
87.57373 467.000
87.59368 446.000
87.61363 412.000
87.63358 450.000
87.65352 465.000
87.67347 446.000
87.69342 427.000
87.71336 418.000
87.73331 442.000
87.75326 412.000
87.77320 428.000
87.79315 414.000
87.81310 454.000
87.83304 441.000
87.85299 423.000
87.87294 473.000
87.89289 427.000
87.91283 445.000
87.93278 457.000
87.95273 448.000
87.97267 453.000
87.99262 456.000
88.01257 428.000
88.03251 436.000
88.05246 422.000
88.07241 396.000
88.09236 430.000
88.11230 450.000
88.13225 422.000
88.15220 445.000
88.17214 414.000
88.19209 405.000
88.21204 458.000
88.23198 442.000
88.25193 445.000
88.27188 441.000
88.29183 455.000
88.31177 445.000
88.33172 462.000
88.35167 449.000
88.37161 415.000
88.39156 411.000
88.41151 447.000
88.43145 458.000
88.45140 426.000
88.47135 398.000
88.49129 441.000
88.51124 437.000
88.53119 450.000
88.55114 433.000
88.57108 452.000
88.59103 424.000
88.61098 440.000
88.63092 481.000
88.65087 447.000
88.67082 451.000
88.69076 467.000
88.71071 453.000
88.73066 440.000
88.75061 449.000
88.77055 468.000
88.79050 446.000
88.81045 443.000
88.83039 456.000
88.85034 494.000
88.87029 475.000
88.89023 451.000
88.91018 468.000
88.93013 451.000
88.95007 495.000
88.97002 443.000
88.98997 484.000
89.00992 459.000
89.02986 485.000
89.04981 501.000
89.06976 459.000
89.08970 472.000
89.10965 530.000
89.12960 443.000
89.14954 472.000
89.16949 475.000
89.18944 513.000
89.20939 523.000
89.22933 491.000
89.24928 488.000
89.26923 508.000
89.28917 501.000
89.30912 530.000
89.32907 512.000
89.34901 471.000
89.36896 514.000
89.38891 534.000
89.40885 481.000
89.42880 530.000
89.44875 491.000
89.46870 535.000
89.48864 508.000
89.50859 501.000
89.52854 522.000
89.54848 493.000
89.56843 458.000
89.58838 463.000
89.60832 513.000
89.62827 485.000
89.64822 472.000
89.66817 495.000
89.68811 463.000
89.70806 478.000
89.72801 499.000
89.74795 505.000
89.76790 495.000
89.78785 484.000
89.80779 474.000
89.82774 429.000
89.84769 501.000
89.86764 485.000
89.88758 452.000
89.90753 513.000
89.92748 491.000
89.94742 503.000
89.96737 512.000
89.98732 495.000
90.00726 554.000
