10.00000 91.000
10.01995 95.000
10.03989 95.000
10.05984 87.000
10.07979 90.000
10.09973 83.000
10.11968 90.000
10.13963 83.000
10.15958 91.000
10.17952 90.000
10.19947 77.000
10.21942 105.000
10.23936 83.000
10.25931 107.000
10.27926 93.000
10.29920 94.000
10.31915 89.000
10.33910 87.000
10.35905 114.000
10.37899 104.000
10.39894 95.000
10.41889 96.000
10.43883 104.000
10.45878 73.000
10.47873 82.000
10.49867 91.000
10.51862 85.000
10.53857 94.000
10.55851 110.000
10.57846 91.000
10.59841 87.000
10.61836 101.000
10.63830 87.000
10.65825 94.000
10.67820 115.000
10.69814 86.000
10.71809 94.000
10.73804 94.000
10.75798 89.000
10.77793 89.000
10.79788 98.000
10.81783 85.000
10.83777 115.000
10.85772 104.000
10.87767 91.000
10.89761 84.000
10.91756 100.000
10.93751 91.000
10.95745 88.000
10.97740 99.000
10.99735 103.000
11.01730 95.000
11.03724 87.000
11.05719 102.000
11.07714 97.000
11.09708 100.000
11.11703 99.000
11.13698 106.000
11.15692 105.000
11.17687 96.000
11.19682 114.000
11.21676 94.000
11.23671 92.000
11.25666 91.000
11.27661 105.000
11.29655 109.000
11.31650 93.000
11.33645 108.000
11.35639 93.000
11.37634 101.000
11.39629 110.000
11.41623 98.000
11.43618 101.000
11.45613 108.000
11.47608 95.000
11.49602 106.000
11.51597 131.000
11.53592 107.000
11.55586 103.000
11.57581 94.000
11.59576 124.000
11.61570 90.000
11.63565 96.000
11.65560 97.000
11.67554 109.000
11.69549 115.000
11.71544 117.000
11.73539 97.000
11.75533 120.000
11.77528 120.000
11.79523 125.000
11.81517 111.000
11.83512 112.000
11.85507 108.000
11.87501 110.000
11.89496 94.000
11.91491 122.000
11.93486 120.000
11.95480 104.000
11.97475 120.000
11.99470 110.000
12.01464 104.000
12.03459 111.000
12.05454 102.000
12.07448 118.000
12.09443 135.000
12.11438 102.000
12.13432 117.000
12.15427 108.000
12.17422 138.000
12.19417 109.000
12.21411 106.000
12.23406 123.000
12.25401 112.000
12.27395 134.000
12.29390 115.000
12.31385 117.000
12.33379 138.000
12.35374 119.000
12.37369 119.000
12.39364 129.000
12.41358 133.000
12.43353 127.000
12.45348 110.000
12.47342 120.000
12.49337 131.000
12.51332 122.000
12.53326 118.000
12.55321 123.000
12.57316 131.000
12.59311 109.000
12.61305 129.000
12.63300 112.000
12.65295 145.000
12.67289 119.000
12.69284 133.000
12.71279 146.000
12.73273 130.000
12.75268 128.000
12.77263 135.000
12.79257 112.000
12.81252 126.000
12.83247 114.000
12.85242 118.000
12.87236 115.000
12.89231 122.000
12.91226 128.000
12.93220 149.000
12.95215 135.000
12.97210 118.000
12.99204 107.000
13.01199 131.000
13.03194 147.000
13.05189 136.000
13.07183 122.000
13.09178 131.000
13.11173 119.000
13.13167 135.000
13.15162 121.000
13.17157 133.000
13.19151 113.000
13.21146 134.000
13.23141 135.000
13.25135 144.000
13.27130 116.000
13.29125 132.000
13.31120 120.000
13.33114 131.000
13.35109 132.000
13.37104 147.000
13.39098 133.000
13.41093 128.000
13.43088 130.000
13.45082 152.000
13.47077 122.000
13.49072 152.000
13.51067 146.000
13.53061 139.000
13.55056 121.000
13.57051 137.000
13.59045 149.000
13.61040 127.000
13.63035 128.000
13.65029 150.000
13.67024 157.000
13.69019 138.000
13.71013 150.000
13.73008 143.000
13.75003 118.000
13.76998 169.000
13.78992 144.000
13.80987 149.000
13.82982 142.000
13.84976 143.000
13.86971 134.000
13.88966 141.000
13.90960 139.000
13.92955 142.000
13.94950 131.000
13.96945 148.000
13.98939 134.000
14.00934 143.000
14.02929 154.000
14.04923 134.000
14.06918 133.000
14.08913 175.000
14.10907 135.000
14.12902 142.000
14.14897 168.000
14.16892 155.000
14.18886 155.000
14.20881 150.000
14.22876 138.000
14.24870 165.000
14.26865 138.000
14.28860 132.000
14.30854 152.000
14.32849 154.000
14.34844 151.000
14.36838 153.000
14.38833 129.000
14.40828 134.000
14.42823 141.000
14.44817 125.000
14.46812 153.000
14.48807 164.000
14.50801 165.000
14.52796 135.000
14.54791 150.000
14.56785 136.000
14.58780 147.000
14.60775 138.000
14.62770 168.000
14.64764 150.000
14.66759 158.000
14.68754 125.000
14.70748 140.000
14.72743 167.000
14.74738 140.000
14.76732 166.000
14.78727 141.000
14.80722 156.000
14.82716 137.000
14.84711 156.000
14.86706 165.000
14.88701 136.000
14.90695 151.000
14.92690 175.000
14.94685 157.000
14.96679 151.000
14.98674 160.000
15.00669 143.000
15.02663 165.000
15.04658 141.000
15.06653 153.000
15.08648 150.000
15.10642 183.000
15.12637 151.000
15.14632 166.000
15.16626 165.000
15.18621 170.000
15.20616 177.000
15.22610 153.000
15.24605 143.000
15.26600 159.000
15.28594 142.000
15.30589 182.000
15.32584 150.000
15.34579 167.000
15.36573 154.000
15.38568 152.000
15.40563 194.000
15.42557 167.000
15.44552 194.000
15.46547 180.000
15.48541 161.000
15.50536 198.000
15.52531 140.000
15.54526 191.000
15.56520 164.000
15.58515 179.000
15.60510 165.000
15.62504 159.000
15.64499 170.000
15.66494 163.000
15.68488 174.000
15.70483 168.000
15.72478 177.000
15.74472 168.000
15.76467 162.000
15.78462 194.000
15.80457 182.000
15.82451 174.000
15.84446 181.000
15.86441 175.000
15.88435 176.000
15.90430 182.000
15.92425 180.000
15.94419 192.000
15.96414 202.000
15.98409 194.000
16.00404 181.000
16.02398 180.000
16.04393 169.000
16.06388 187.000
16.08382 174.000
16.10377 189.000
16.12372 168.000
16.14366 204.000
16.16361 174.000
16.18356 170.000
16.20351 188.000
16.22345 204.000
16.24340 207.000
16.26335 186.000
16.28329 229.000
16.30324 201.000
16.32319 201.000
16.34313 169.000
16.36308 211.000
16.38303 226.000
16.40297 220.000
16.42292 206.000
16.44287 207.000
16.46282 217.000
16.48276 185.000
16.50271 224.000
16.52266 225.000
16.54260 230.000
16.56255 198.000
16.58250 217.000
16.60244 227.000
16.62239 205.000
16.64234 207.000
16.66229 206.000
16.68223 250.000
16.70218 220.000
16.72213 223.000
16.74207 232.000
16.76202 199.000
16.78197 249.000
16.80191 217.000
16.82186 239.000
16.84181 197.000
16.86175 238.000
16.88170 222.000
16.90165 230.000
16.92160 224.000
16.94154 246.000
16.96149 243.000
16.98144 237.000
17.00138 248.000
17.02133 245.000
17.04128 262.000
17.06122 229.000
17.08117 249.000
17.10112 259.000
17.12107 285.000
17.14101 255.000
17.16096 243.000
17.18091 237.000
17.20085 264.000
17.22080 272.000
17.24075 278.000
17.26069 253.000
17.28064 280.000
17.30059 277.000
17.32053 273.000
17.34048 272.000
17.36043 258.000
17.38038 253.000
17.40032 264.000
17.42027 265.000
17.44022 287.000
17.46016 279.000
17.48011 294.000
17.50006 293.000
17.52000 304.000
17.53995 277.000
17.55990 290.000
17.57985 313.000
17.59979 294.000
17.61974 296.000
17.63969 298.000
17.65963 283.000
17.67958 287.000
17.69953 322.000
17.71947 321.000
17.73942 293.000
17.75937 290.000
17.77932 327.000
17.79926 299.000
17.81921 272.000
17.83916 303.000
17.85910 301.000
17.87905 312.000
17.89900 332.000
17.91894 321.000
17.93889 276.000
17.95884 334.000
17.97878 312.000
17.99873 323.000
18.01868 308.000
18.03863 324.000
18.05857 341.000
18.07852 369.000
18.09847 345.000
18.11841 303.000
18.13836 340.000
18.15831 320.000
18.17825 339.000
18.19820 355.000
18.21815 340.000
18.23810 306.000
18.25804 366.000
18.27799 341.000
18.29794 336.000
18.31788 345.000
18.33783 351.000
18.35778 375.000
18.37772 352.000
18.39767 326.000
18.41762 344.000
18.43756 321.000
18.45751 353.000
18.47746 353.000
18.49741 360.000
18.51735 326.000
18.53730 385.000
18.55725 377.000
18.57719 372.000
18.59714 373.000
18.61709 408.000
18.63703 353.000
18.65698 388.000
18.67693 384.000
18.69688 378.000
18.71682 380.000
18.73677 374.000
18.75672 392.000
18.77666 419.000
18.79661 383.000
18.81656 370.000
18.83650 401.000
18.85645 377.000
18.87640 394.000
18.89634 400.000
18.91629 407.000
18.93624 378.000
18.95619 378.000
18.97613 418.000
18.99608 377.000
19.01603 417.000
19.03597 392.000
19.05592 411.000
19.07587 407.000
19.09581 379.000
19.11576 407.000
19.13571 446.000
19.15566 441.000
19.17560 410.000
19.19555 458.000
19.21550 424.000
19.23544 413.000
19.25539 367.000
19.27534 433.000
19.29528 453.000
19.31523 428.000
19.33518 427.000
19.35513 436.000
19.37507 445.000
19.39502 436.000
19.41497 457.000
19.43491 424.000
19.45486 387.000
19.47481 425.000
19.49475 459.000
19.51470 494.000
19.53465 443.000
19.55459 455.000
19.57454 409.000
19.59449 439.000
19.61444 409.000
19.63438 471.000
19.65433 452.000
19.67428 419.000
19.69422 461.000
19.71417 475.000
19.73412 440.000
19.75406 438.000
19.77401 454.000
19.79396 492.000
19.81391 443.000
19.83385 464.000
19.85380 508.000
19.87375 470.000
19.89369 474.000
19.91364 467.000
19.93359 438.000
19.95353 468.000
19.97348 496.000
19.99343 479.000
20.01337 460.000
20.03332 470.000
20.05327 476.000
20.07322 447.000
20.09316 453.000
20.11311 493.000
20.13306 428.000
20.15300 542.000
20.17295 512.000
20.19290 483.000
20.21284 507.000
20.23279 456.000
20.25274 512.000
20.27269 501.000
20.29263 493.000
20.31258 491.000
20.33253 481.000
20.35247 502.000
20.37242 495.000
20.39237 494.000
20.41231 508.000
20.43226 522.000
20.45221 491.000
20.47215 495.000
20.49210 456.000
20.51205 528.000
20.53200 462.000
20.55194 472.000
20.57189 486.000
20.59184 494.000
20.61178 528.000
20.63173 532.000
20.65168 509.000
20.67162 482.000
20.69157 497.000
20.71152 544.000
20.73147 512.000
20.75141 529.000
20.77136 496.000
20.79131 529.000
20.81125 510.000
20.83120 506.000
20.85115 512.000
20.87109 520.000
20.89104 491.000
20.91099 530.000
20.93094 482.000
20.95088 532.000
20.97083 510.000
20.99078 501.000
21.01072 579.000
21.03067 565.000
21.05062 536.000
21.07056 515.000
21.09051 570.000
21.11046 536.000
21.13040 501.000
21.15035 537.000
21.17030 463.000
21.19025 586.000
21.21019 579.000
21.23014 529.000
21.25009 572.000
21.27003 512.000
21.28998 537.000
21.30993 533.000
21.32987 565.000
21.34982 502.000
21.36977 524.000
21.38972 539.000
21.40966 518.000
21.42961 563.000
21.44956 541.000
21.46950 564.000
21.48945 460.000
21.50940 588.000
21.52934 554.000
21.54929 544.000
21.56924 598.000
21.58918 526.000
21.60913 551.000
21.62908 540.000
21.64903 546.000
21.66897 569.000
21.68892 523.000
21.70887 574.000
21.72881 554.000
21.74876 560.000
21.76871 534.000
21.78865 573.000
21.80860 555.000
21.82855 564.000
21.84850 544.000
21.86844 583.000
21.88839 550.000
21.90834 539.000
21.92828 533.000
21.94823 521.000
21.96818 549.000
21.98812 596.000
22.00807 584.000
22.02802 601.000
22.04796 573.000
22.06791 539.000
22.08786 581.000
22.10781 605.000
22.12775 592.000
22.14770 566.000
22.16765 574.000
22.18759 559.000
22.20754 599.000
22.22749 587.000
22.24743 589.000
22.26738 581.000
22.28733 586.000
22.30728 550.000
22.32722 590.000
22.34717 571.000
22.36712 588.000
22.38706 580.000
22.40701 578.000
22.42696 585.000
22.44690 643.000
22.46685 610.000
22.48680 568.000
22.50675 568.000
22.52669 589.000
22.54664 590.000
22.56659 570.000
22.58653 625.000
22.60648 597.000
22.62643 600.000
22.64637 582.000
22.66632 621.000
22.68627 609.000
22.70621 604.000
22.72616 617.000
22.74611 592.000
22.76606 597.000
22.78600 608.000
22.80595 602.000
22.82590 603.000
22.84584 577.000
22.86579 600.000
22.88574 610.000
22.90568 626.000
22.92563 570.000
22.94558 630.000
22.96553 659.000
22.98547 663.000
23.00542 614.000
23.02537 607.000
23.04531 703.000
23.06526 596.000
23.08521 662.000
23.10515 625.000
23.12510 613.000
23.14505 594.000
23.16499 671.000
23.18494 649.000
23.20489 644.000
23.22484 615.000
23.24478 601.000
23.26473 559.000
23.28468 624.000
23.30462 667.000
23.32457 608.000
23.34452 671.000
23.36446 648.000
23.38441 658.000
23.40436 611.000
23.42431 679.000
23.44425 660.000
23.46420 655.000
23.48415 657.000
23.50409 683.000
23.52404 669.000
23.54399 663.000
23.56393 688.000
23.58388 630.000
23.60383 661.000
23.62377 685.000
23.64372 643.000
23.66367 699.000
23.68362 692.000
23.70356 620.000
23.72351 683.000
23.74346 654.000
23.76340 733.000
23.78335 648.000
23.80330 674.000
23.82324 704.000
23.84319 706.000
23.86314 658.000
23.88309 680.000
23.90303 636.000
23.92298 700.000
23.94293 700.000
23.96287 721.000
23.98282 694.000
24.00277 745.000
24.02271 738.000
24.04266 742.000
24.06261 704.000
24.08256 719.000
24.10250 715.000
24.12245 716.000
24.14240 703.000
24.16234 674.000
24.18229 750.000
24.20224 699.000
24.22218 744.000
24.24213 775.000
24.26208 695.000
24.28202 726.000
24.30197 772.000
24.32192 742.000
24.34187 735.000
24.36181 701.000
24.38176 703.000
24.40171 755.000
24.42165 722.000
24.44160 708.000
24.46155 791.000
24.48149 735.000
24.50144 735.000
24.52139 778.000
24.54134 785.000
24.56128 747.000
24.58123 732.000
24.60118 758.000
24.62112 772.000
24.64107 794.000
24.66102 782.000
24.68096 778.000
24.70091 793.000
24.72086 753.000
24.74080 840.000
24.76075 810.000
24.78070 743.000
24.80065 844.000
24.82059 754.000
24.84054 777.000
24.86049 761.000
24.88043 774.000
24.90038 794.000
24.92033 779.000
24.94027 865.000
24.96022 823.000
24.98017 785.000
25.00012 795.000
25.02006 797.000
25.04001 823.000
25.05996 797.000
25.07990 812.000
25.09985 867.000
25.11980 843.000
25.13974 828.000
25.15969 789.000
25.17964 805.000
25.19958 858.000
25.21953 833.000
25.23948 872.000
25.25943 848.000
25.27937 814.000
25.29932 861.000
25.31927 852.000
25.33921 827.000
25.35916 814.000
25.37911 843.000
25.39905 861.000
25.41900 905.000
25.43895 871.000
25.45890 869.000
25.47884 835.000
25.49879 843.000
25.51874 875.000
25.53868 856.000
25.55863 906.000
25.57858 890.000
25.59852 889.000
25.61847 903.000
25.63842 892.000
25.65837 860.000
25.67831 899.000
25.69826 897.000
25.71821 897.000
25.73815 888.000
25.75810 927.000
25.77805 933.000
25.79799 882.000
25.81794 922.000
25.83789 943.000
25.85783 962.000
25.87778 915.000
25.89773 941.000
25.91768 919.000
25.93762 924.000
25.95757 973.000
25.97752 948.000
25.99746 939.000
26.01741 976.000
26.03736 990.000
26.05730 962.000
26.07725 923.000
26.09720 952.000
26.11715 971.000
26.13709 1026.000
26.15704 963.000
26.17699 967.000
26.19693 973.000
26.21688 998.000
26.23683 1030.000
26.25677 975.000
26.27672 992.000
26.29667 947.000
26.31661 1014.000
26.33656 992.000
26.35651 1015.000
26.37646 999.000
26.39640 967.000
26.41635 977.000
26.43630 1007.000
26.45624 987.000
26.47619 1008.000
26.49614 1003.000
26.51608 1013.000
26.53603 1043.000
26.55598 1020.000
26.57593 1032.000
26.59587 1007.000
26.61582 1040.000
26.63577 1034.000
26.65571 1072.000
26.67566 1063.000
26.69561 993.000
26.71555 1089.000
26.73550 1077.000
26.75545 1097.000
26.77539 1035.000
26.79534 1120.000
26.81529 1070.000
26.83524 1052.000
26.85518 1017.000
26.87513 1108.000
26.89508 1074.000
26.91502 1051.000
26.93497 1011.000
26.95492 1044.000
26.97486 1068.000
26.99481 1084.000
27.01476 1099.000
27.03471 1113.000
27.05465 1042.000
27.07460 1117.000
27.09455 1104.000
27.11449 1086.000
27.13444 1092.000
27.15439 1081.000
27.17433 1159.000
27.19428 1127.000
27.21423 1157.000
27.23417 1181.000
27.25412 1158.000
27.27407 1185.000
27.29402 1125.000
27.31396 1153.000
27.33391 1127.000
27.35386 1156.000
27.37380 1159.000
27.39375 1161.000
27.41370 1204.000
27.43364 1042.000
27.45359 1170.000
27.47354 1184.000
27.49349 1169.000
27.51343 1125.000
27.53338 1147.000
27.55333 1205.000
27.57327 1128.000
27.59322 1145.000
27.61317 1202.000
27.63311 1190.000
27.65306 1172.000
27.67301 1160.000
27.69296 1202.000
27.71290 1185.000
27.73285 1171.000
27.75280 1271.000
27.77274 1196.000
27.79269 1219.000
27.81264 1164.000
27.83258 1220.000
27.85253 1193.000
27.87248 1258.000
27.89242 1217.000
27.91237 1208.000
27.93232 1225.000
27.95227 1230.000
27.97221 1144.000
27.99216 1232.000
28.01211 1279.000
28.03205 1240.000
28.05200 1240.000
28.07195 1185.000
28.09189 1221.000
28.11184 1215.000
28.13179 1265.000
28.15174 1229.000
28.17168 1268.000
28.19163 1226.000
28.21158 1294.000
28.23152 1214.000
28.25147 1187.000
28.27142 1283.000
28.29136 1199.000
28.31131 1272.000
28.33126 1239.000
28.35120 1205.000
28.37115 1229.000
28.39110 1265.000
28.41105 1304.000
28.43099 1247.000
28.45094 1325.000
28.47089 1314.000
28.49083 1315.000
28.51078 1240.000
28.53073 1283.000
28.55067 1234.000
28.57062 1255.000
28.59057 1317.000
28.61052 1312.000
28.63046 1250.000
28.65041 1284.000
28.67036 1284.000
28.69030 1302.000
28.71025 1224.000
28.73020 1361.000
28.75014 1308.000
28.77009 1347.000
28.79004 1313.000
28.80998 1249.000
28.82993 1309.000
28.84988 1279.000
28.86983 1245.000
28.88977 1299.000
28.90972 1259.000
28.92967 1234.000
28.94961 1293.000
28.96956 1334.000
28.98951 1313.000
29.00945 1277.000
29.02940 1323.000
29.04935 1281.000
29.06930 1249.000
29.08924 1289.000
29.10919 1304.000
29.12914 1345.000
29.14908 1343.000
29.16903 1298.000
29.18898 1250.000
29.20892 1205.000
29.22887 1251.000
29.24882 1322.000
29.26877 1307.000
29.28871 1319.000
29.30866 1266.000
29.32861 1323.000
29.34855 1306.000
29.36850 1314.000
29.38845 1317.000
29.40839 1280.000
29.42834 1230.000
29.44829 1339.000
29.46823 1295.000
29.48818 1337.000
29.50813 1233.000
29.52808 1296.000
29.54802 1267.000
29.56797 1405.000
29.58792 1342.000
29.60786 1250.000
29.62781 1249.000
29.64776 1256.000
29.66770 1251.000
29.68765 1258.000
29.70760 1314.000
29.72755 1295.000
29.74749 1342.000
29.76744 1301.000
29.78739 1306.000
29.80733 1244.000
29.82728 1294.000
29.84723 1365.000
29.86717 1236.000
29.88712 1354.000
29.90707 1272.000
29.92701 1345.000
29.94696 1291.000
29.96691 1333.000
29.98686 1295.000
30.00680 1252.000
30.02675 1285.000
30.04670 1271.000
30.06664 1287.000
30.08659 1364.000
30.10654 1351.000
30.12648 1372.000
30.14643 1282.000
30.16638 1266.000
30.18633 1245.000
30.20627 1279.000
30.22622 1366.000
30.24617 1358.000
30.26611 1299.000
30.28606 1285.000
30.30601 1233.000
30.32595 1275.000
30.34590 1297.000
30.36585 1266.000
30.38579 1336.000
30.40574 1284.000
30.42569 1272.000
30.44564 1327.000
30.46558 1311.000
30.48553 1233.000
30.50548 1253.000
30.52542 1202.000
30.54537 1336.000
30.56532 1293.000
30.58526 1280.000
30.60521 1261.000
30.62516 1257.000
30.64511 1269.000
30.66505 1256.000
30.68500 1245.000
30.70495 1315.000
30.72489 1217.000
30.74484 1276.000
30.76479 1225.000
30.78473 1301.000
30.80468 1220.000
30.82463 1262.000
30.84458 1234.000
30.86452 1290.000
30.88447 1211.000
30.90442 1205.000
30.92436 1246.000
30.94431 1240.000
30.96426 1275.000
30.98420 1268.000
31.00415 1231.000
31.02410 1239.000
31.04404 1270.000
31.06399 1262.000
31.08394 1307.000
31.10389 1210.000
31.12383 1161.000
31.14378 1256.000
31.16373 1304.000
31.18367 1254.000
31.20362 1224.000
31.22357 1246.000
31.24351 1198.000
31.26346 1252.000
31.28341 1247.000
31.30336 1203.000
31.32330 1245.000
31.34325 1261.000
31.36320 1195.000
31.38314 1212.000
31.40309 1240.000
31.42304 1265.000
31.44298 1214.000
31.46293 1194.000
31.48288 1260.000
31.50282 1270.000
31.52277 1247.000
31.54272 1219.000
31.56267 1164.000
31.58261 1231.000
31.60256 1206.000
31.62251 1216.000
31.64245 1192.000
31.66240 1163.000
31.68235 1222.000
31.70229 1173.000
31.72224 1180.000
31.74219 1208.000
31.76214 1202.000
31.78208 1167.000
31.80203 1148.000
31.82198 1221.000
31.84192 1180.000
31.86187 1171.000
31.88182 1218.000
31.90176 1202.000
31.92171 1157.000
31.94166 1151.000
31.96160 1222.000
31.98155 1108.000
32.00150 1220.000
32.02145 1107.000
32.04139 1201.000
32.06134 1187.000
32.08129 1117.000
32.10123 1108.000
32.12118 1121.000
32.14113 1182.000
32.16107 1158.000
32.18102 1123.000
32.20097 1102.000
32.22092 1142.000
32.24086 1200.000
32.26081 1140.000
32.28076 1109.000
32.30070 1163.000
32.32065 1179.000
32.34060 1163.000
32.36054 1140.000
32.38049 1059.000
32.40044 1116.000
32.42039 1083.000
32.44033 1137.000
32.46028 1085.000
32.48023 1139.000
32.50017 1074.000
32.52012 1096.000
32.54007 1093.000
32.56001 1079.000
32.57996 1086.000
32.59991 1134.000
32.61985 1031.000
32.63980 1134.000
32.65975 1134.000
32.67970 1059.000
32.69964 1073.000
32.71959 1078.000
32.73954 1102.000
32.75948 1077.000
32.77943 994.000
32.79938 1041.000
32.81932 1042.000
32.83927 1066.000
32.85922 1057.000
32.87917 1096.000
32.89911 1111.000
32.91906 1051.000
32.93901 1060.000
32.95895 1088.000
32.97890 1047.000
32.99885 1076.000
33.01879 1050.000
33.03874 1059.000
33.05869 1036.000
33.07863 1033.000
33.09858 1059.000
33.11853 1045.000
33.13848 1037.000
33.15842 1086.000
33.17837 1018.000
33.19832 1033.000
33.21826 1062.000
33.23821 994.000
33.25816 1037.000
33.27810 995.000
33.29805 1017.000
33.31800 1043.000
33.33795 995.000
33.35789 987.000
33.37784 1012.000
33.39779 959.000
33.41773 1088.000
33.43768 987.000
33.45763 976.000
33.47757 1024.000
33.49752 993.000
33.51747 984.000
33.53741 996.000
33.55736 1022.000
33.57731 1009.000
33.59726 978.000
33.61720 1023.000
33.63715 983.000
33.65710 990.000
33.67704 921.000
33.69699 994.000
33.71694 914.000
33.73688 998.000
33.75683 996.000
33.77678 1009.000
33.79673 1016.000
33.81667 954.000
33.83662 960.000
33.85657 1004.000
33.87651 954.000
33.89646 918.000
33.91641 930.000
33.93635 965.000
33.95630 967.000
33.97625 916.000
33.99620 941.000
34.01614 914.000
34.03609 943.000
34.05604 938.000
34.07598 942.000
34.09593 883.000
34.11588 934.000
34.13582 967.000
34.15577 897.000
34.17572 865.000
34.19566 954.000
34.21561 911.000
34.23556 951.000
34.25551 943.000
34.27545 913.000
34.29540 923.000
34.31535 923.000
34.33529 916.000
34.35524 909.000
34.37519 952.000
34.39513 888.000
34.41508 909.000
34.43503 887.000
34.45498 920.000
34.47492 926.000
34.49487 929.000
34.51482 861.000
34.53476 929.000
34.55471 954.000
34.57466 899.000
34.59460 929.000
34.61455 890.000
34.63450 988.000
34.65444 905.000
34.67439 927.000
34.69434 881.000
34.71429 863.000
34.73423 893.000
34.75418 904.000
34.77413 843.000
34.79407 868.000
34.81402 864.000
34.83397 892.000
34.85391 805.000
34.87386 900.000
34.89381 839.000
34.91376 940.000
34.93370 912.000
34.95365 817.000
34.97360 854.000
34.99354 848.000
35.01349 875.000
35.03344 833.000
35.05338 869.000
35.07333 896.000
35.09328 877.000
35.11322 815.000
35.13317 874.000
35.15312 884.000
35.17307 845.000
35.19301 877.000
35.21296 896.000
35.23291 848.000
35.25285 900.000
35.27280 876.000
35.29275 838.000
35.31269 810.000
35.33264 872.000
35.35259 820.000
35.37254 825.000
35.39248 881.000
35.41243 857.000
35.43238 839.000
35.45232 826.000
35.47227 814.000
35.49222 815.000
35.51216 827.000
35.53211 786.000
35.55206 817.000
35.57201 837.000
35.59195 825.000
35.61190 835.000
35.63185 844.000
35.65179 796.000
35.67174 834.000
35.69169 861.000
35.71163 796.000
35.73158 845.000
35.75153 804.000
35.77147 790.000
35.79142 784.000
35.81137 752.000
35.83132 795.000
35.85126 748.000
35.87121 788.000
35.89116 786.000
35.91110 785.000
35.93105 843.000
35.95100 761.000
35.97094 767.000
35.99089 777.000
36.01084 829.000
36.03079 773.000
36.05073 795.000
36.07068 817.000
36.09063 747.000
36.11057 730.000
36.13052 790.000
36.15047 775.000
36.17041 770.000
36.19036 791.000
36.21031 776.000
36.23025 784.000
36.25020 808.000
36.27015 761.000
36.29010 815.000
36.31004 804.000
36.32999 756.000
36.34994 817.000
36.36988 785.000
36.38983 804.000
36.40978 734.000
36.42972 748.000
36.44967 730.000
36.46962 774.000
36.48957 753.000
36.50951 754.000
36.52946 729.000
36.54941 766.000
36.56935 790.000
36.58930 711.000
36.60925 740.000
36.62919 761.000
36.64914 749.000
36.66909 760.000
36.68903 764.000
36.70898 767.000
36.72893 742.000
36.74888 761.000
36.76882 753.000
36.78877 743.000
36.80872 728.000
36.82866 740.000
36.84861 771.000
36.86856 755.000
36.88850 761.000
36.90845 757.000
36.92840 756.000
36.94835 778.000
36.96829 752.000
36.98824 777.000
37.00819 745.000
37.02813 751.000
37.04808 786.000
37.06803 728.000
37.08797 739.000
37.10792 763.000
37.12787 737.000
37.14781 698.000
37.16776 758.000
37.18771 710.000
37.20766 696.000
37.22760 742.000
37.24755 778.000
37.26750 703.000
37.28744 789.000
37.30739 758.000
37.32734 766.000
37.34728 714.000
37.36723 754.000
37.38718 778.000
37.40713 745.000
37.42707 719.000
37.44702 741.000
37.46697 723.000
37.48691 740.000
37.50686 729.000
37.52681 728.000
37.54675 750.000
37.56670 756.000
37.58665 733.000
37.60660 761.000
37.62654 731.000
37.64649 734.000
37.66644 756.000
37.68638 742.000
37.70633 768.000
37.72628 723.000
37.74622 738.000
37.76617 694.000
37.78612 736.000
37.80606 752.000
37.82601 706.000
37.84596 756.000
37.86591 731.000
37.88585 756.000
37.90580 723.000
37.92575 744.000
37.94569 761.000
37.96564 711.000
37.98559 761.000
38.00553 697.000
38.02548 775.000
38.04543 751.000
38.06538 789.000
38.08532 733.000
38.10527 742.000
38.12522 762.000
38.14516 714.000
38.16511 724.000
38.18506 737.000
38.20500 746.000
38.22495 690.000
38.24490 718.000
38.26484 776.000
38.28479 723.000
38.30474 714.000
38.32469 740.000
38.34463 763.000
38.36458 725.000
38.38453 724.000
38.40447 758.000
38.42442 765.000
38.44437 778.000
38.46431 768.000
38.48426 704.000
38.50421 723.000
38.52416 741.000
38.54410 734.000
38.56405 734.000
38.58400 741.000
38.60394 756.000
38.62389 688.000
38.64384 724.000
38.66378 790.000
38.68373 739.000
38.70368 762.000
38.72362 776.000
38.74357 735.000
38.76352 744.000
38.78347 721.000
38.80341 737.000
38.82336 757.000
38.84331 774.000
38.86325 769.000
38.88320 764.000
38.90315 756.000
38.92309 730.000
38.94304 733.000
38.96299 732.000
38.98294 744.000
39.00288 738.000
39.02283 704.000
39.04278 745.000
39.06272 726.000
39.08267 763.000
39.10262 770.000
39.12256 759.000
39.14251 756.000
39.16246 757.000
39.18241 772.000
39.20235 713.000
39.22230 742.000
39.24225 764.000
39.26219 733.000
39.28214 725.000
39.30209 743.000
39.32203 791.000
39.34198 750.000
39.36193 697.000
39.38187 768.000
39.40182 717.000
39.42177 776.000
39.44172 832.000
39.46166 787.000
39.48161 722.000
39.50156 736.000
39.52150 762.000
39.54145 744.000
39.56140 815.000
39.58134 799.000
39.60129 747.000
39.62124 728.000
39.64119 764.000
39.66113 724.000
39.68108 817.000
39.70103 765.000
39.72097 721.000
39.74092 773.000
39.76087 737.000
39.78081 723.000
39.80076 746.000
39.82071 702.000
39.84065 779.000
39.86060 773.000
39.88055 761.000
39.90050 766.000
39.92044 768.000
39.94039 760.000
39.96034 818.000
39.98028 772.000
40.00023 776.000
40.02018 759.000
40.04012 701.000
40.06007 719.000
40.08002 762.000
40.09997 750.000
40.11991 743.000
40.13986 766.000
40.15981 734.000
40.17975 745.000
40.19970 737.000
40.21965 749.000
40.23959 793.000
40.25954 768.000
40.27949 793.000
40.29943 779.000
40.31938 804.000
40.33933 748.000
40.35928 725.000
40.37922 790.000
40.39917 736.000
40.41912 767.000
40.43906 698.000
40.45901 726.000
40.47896 699.000
40.49890 744.000
40.51885 743.000
40.53880 753.000
40.55875 743.000
40.57869 751.000
40.59864 742.000
40.61859 735.000
40.63853 728.000
40.65848 824.000
40.67843 765.000
40.69837 761.000
40.71832 712.000
40.73827 758.000
40.75822 729.000
40.77816 753.000
40.79811 751.000
40.81806 753.000
40.83800 821.000
40.85795 735.000
40.87790 735.000
40.89784 700.000
40.91779 698.000
40.93774 737.000
40.95768 697.000
40.97763 805.000
40.99758 761.000
41.01753 762.000
41.03747 742.000
41.05742 738.000
41.07737 762.000
41.09731 796.000
41.11726 788.000
41.13721 756.000
41.15715 720.000
41.17710 754.000
41.19705 785.000
41.21700 748.000
41.23694 766.000
41.25689 724.000
41.27684 716.000
41.29678 735.000
41.31673 701.000
41.33668 758.000
41.35662 750.000
41.37657 797.000
41.39652 742.000
41.41646 767.000
41.43641 768.000
41.45636 721.000
41.47631 692.000
41.49625 737.000
41.51620 747.000
41.53615 742.000
41.55609 711.000
41.57604 734.000
41.59599 739.000
41.61593 739.000
41.63588 717.000
41.65583 764.000
41.67578 748.000
41.69572 746.000
41.71567 736.000
41.73562 713.000
41.75556 748.000
41.77551 711.000
41.79546 725.000
41.81540 722.000
41.83535 677.000
41.85530 769.000
41.87524 731.000
41.89519 771.000
41.91514 729.000
41.93509 641.000
41.95503 725.000
41.97498 707.000
41.99493 684.000
42.01487 731.000
42.03482 706.000
42.05477 699.000
42.07471 725.000
42.09466 730.000
42.11461 703.000
42.13456 655.000
42.15450 699.000
42.17445 731.000
42.19440 711.000
42.21434 682.000
42.23429 746.000
42.25424 711.000
42.27418 774.000
42.29413 712.000
42.31408 719.000
42.33403 744.000
42.35397 727.000
42.37392 691.000
42.39387 722.000
42.41381 777.000
42.43376 775.000
42.45371 706.000
42.47365 664.000
42.49360 685.000
42.51355 696.000
42.53349 715.000
42.55344 709.000
42.57339 696.000
42.59334 714.000
42.61328 698.000
42.63323 705.000
42.65318 717.000
42.67312 633.000
42.69307 694.000
42.71302 717.000
42.73296 691.000
42.75291 708.000
42.77286 727.000
42.79281 705.000
42.81275 678.000
42.83270 659.000
42.85265 682.000
42.87259 682.000
42.89254 721.000
42.91249 745.000
42.93243 679.000
42.95238 674.000
42.97233 696.000
42.99227 692.000
43.01222 680.000
43.03217 735.000
43.05212 661.000
43.07206 679.000
43.09201 730.000
43.11196 666.000
43.13190 676.000
43.15185 693.000
43.17180 637.000
43.19174 693.000
43.21169 664.000
43.23164 737.000
43.25159 693.000
43.27153 719.000
43.29148 634.000
43.31143 673.000
43.33137 661.000
43.35132 717.000
43.37127 720.000
43.39121 675.000
43.41116 664.000
43.43111 686.000
43.45105 651.000
43.47100 611.000
43.49095 683.000
43.51090 680.000
43.53084 631.000
43.55079 695.000
43.57074 628.000
43.59068 697.000
43.61063 657.000
43.63058 678.000
43.65052 710.000
43.67047 673.000
43.69042 691.000
43.71037 641.000
43.73031 657.000
43.75026 652.000
43.77021 656.000
43.79015 603.000
43.81010 700.000
43.83005 613.000
43.84999 666.000
43.86994 648.000
43.88989 663.000
43.90984 618.000
43.92978 633.000
43.94973 734.000
43.96968 601.000
43.98962 609.000
44.00957 627.000
44.02952 609.000
44.04946 703.000
44.06941 620.000
44.08936 597.000
44.10930 623.000
44.12925 644.000
44.14920 613.000
44.16915 610.000
44.18909 632.000
44.20904 578.000
44.22899 592.000
44.24893 597.000
44.26888 639.000
44.28883 644.000
44.30877 638.000
44.32872 609.000
44.34867 640.000
44.36862 580.000
44.38856 631.000
44.40851 621.000
44.42846 617.000
44.44840 657.000
44.46835 637.000
44.48830 632.000
44.50824 582.000
44.52819 586.000
44.54814 603.000
44.56808 592.000
44.58803 560.000
44.60798 628.000
44.62793 608.000
44.64787 648.000
44.66782 644.000
44.68777 575.000
44.70771 614.000
44.72766 632.000
44.74761 564.000
44.76755 613.000
44.78750 528.000
44.80745 604.000
44.82740 600.000
44.84734 600.000
44.86729 562.000
44.88724 581.000
44.90718 588.000
44.92713 610.000
44.94708 629.000
44.96702 599.000
44.98697 652.000
45.00692 561.000
45.02686 562.000
45.04681 601.000
45.06676 585.000
45.08671 581.000
45.10665 582.000
45.12660 576.000
45.14655 551.000
45.16649 546.000
45.18644 573.000
45.20639 556.000
45.22633 598.000
45.24628 573.000
45.26623 652.000
45.28618 585.000
45.30612 604.000
45.32607 604.000
45.34602 666.000
45.36596 594.000
45.38591 526.000
45.40586 588.000
45.42580 527.000
45.44575 555.000
45.46570 585.000
45.48565 559.000
45.50559 588.000
45.52554 586.000
45.54549 561.000
45.56543 605.000
45.58538 566.000
45.60533 573.000
45.62527 516.000
45.64522 555.000
45.66517 549.000
45.68511 555.000
45.70506 540.000
45.72501 591.000
45.74496 567.000
45.76490 537.000
45.78485 566.000
45.80480 546.000
45.82474 573.000
45.84469 597.000
45.86464 552.000
45.88458 544.000
45.90453 537.000
45.92448 498.000
45.94443 521.000
45.96437 524.000
45.98432 527.000
46.00427 528.000
46.02421 564.000
46.04416 541.000
46.06411 494.000
46.08405 549.000
46.10400 532.000
46.12395 526.000
46.14389 516.000
46.16384 529.000
46.18379 517.000
46.20374 542.000
46.22368 577.000
46.24363 554.000
46.26358 541.000
46.28352 558.000
46.30347 514.000
46.32342 512.000
46.34336 513.000
46.36331 553.000
46.38326 502.000
46.40321 526.000
46.42315 540.000
46.44310 502.000
46.46305 517.000
46.48299 547.000
46.50294 510.000
46.52289 568.000
46.54283 493.000
46.56278 504.000
46.58273 522.000
46.60267 496.000
46.62262 556.000
46.64257 559.000
46.66252 518.000
46.68246 492.000
46.70241 518.000
46.72236 512.000
46.74230 517.000
46.76225 524.000
46.78220 511.000
46.80214 527.000
46.82209 530.000
46.84204 493.000
46.86199 527.000
46.88193 563.000
46.90188 501.000
46.92183 503.000
46.94177 529.000
46.96172 519.000
46.98167 519.000
47.00161 515.000
47.02156 509.000
47.04151 546.000
47.06146 512.000
47.08140 481.000
47.10135 490.000
47.12130 532.000
47.14124 485.000
47.16119 491.000
47.18114 534.000
47.20108 492.000
47.22103 492.000
47.24098 492.000
47.26092 491.000
47.28087 495.000
47.30082 526.000
47.32077 495.000
47.34071 502.000
47.36066 502.000
47.38061 466.000
47.40055 480.000
47.42050 508.000
47.44045 514.000
47.46039 541.000
47.48034 487.000
47.50029 513.000
47.52024 495.000
47.54018 487.000
47.56013 485.000
47.58008 486.000
47.60002 493.000
47.61997 482.000
47.63992 462.000
47.65986 512.000
47.67981 500.000
47.69976 476.000
47.71970 465.000
47.73965 540.000
47.75960 455.000
47.77955 495.000
47.79949 511.000
47.81944 518.000
47.83939 475.000
47.85933 472.000
47.87928 469.000
47.89923 512.000
47.91917 538.000
47.93912 490.000
47.95907 500.000
47.97902 496.000
47.99896 450.000
48.01891 469.000
48.03886 469.000
48.05880 444.000
48.07875 483.000
48.09870 493.000
48.11864 511.000
48.13859 508.000
48.15854 476.000
48.17848 473.000
48.19843 456.000
48.21838 500.000
48.23833 463.000
48.25827 436.000
48.27822 467.000
48.29817 461.000
48.31811 452.000
48.33806 471.000
48.35801 468.000
48.37795 477.000
48.39790 509.000
48.41785 461.000
48.43780 468.000
48.45774 468.000
48.47769 482.000
48.49764 476.000
48.51758 479.000
48.53753 442.000
48.55748 462.000
48.57742 528.000
48.59737 430.000
48.61732 488.000
48.63726 473.000
48.65721 471.000
48.67716 483.000
48.69711 437.000
48.71705 443.000
48.73700 459.000
48.75695 450.000
48.77689 455.000
48.79684 451.000
48.81679 455.000
48.83673 482.000
48.85668 471.000
48.87663 467.000
48.89658 447.000
48.91652 428.000
48.93647 469.000
48.95642 458.000
48.97636 445.000
48.99631 444.000
49.01626 427.000
49.03620 416.000
49.05615 486.000
49.07610 434.000
49.09605 453.000
49.11599 403.000
49.13594 431.000
49.15589 414.000
49.17583 465.000
49.19578 453.000
49.21573 452.000
49.23567 485.000
49.25562 455.000
49.27557 428.000
49.29551 447.000
49.31546 456.000
49.33541 417.000
49.35536 448.000
49.37530 450.000
49.39525 477.000
49.41520 472.000
49.43514 460.000
49.45509 440.000
49.47504 461.000
49.49498 504.000
49.51493 459.000
49.53488 444.000
49.55483 488.000
49.57477 453.000
49.59472 477.000
49.61467 450.000
49.63461 414.000
49.65456 466.000
49.67451 462.000
49.69445 391.000
49.71440 450.000
49.73435 417.000
49.75429 431.000
49.77424 427.000
49.79419 453.000
49.81414 440.000
49.83408 459.000
49.85403 450.000
49.87398 502.000
49.89392 461.000
49.91387 423.000
49.93382 437.000
49.95376 427.000
49.97371 471.000
49.99366 457.000
50.01361 421.000
50.03355 437.000
50.05350 441.000
50.07345 442.000
50.09339 450.000
50.11334 451.000
50.13329 431.000
50.15323 432.000
50.17318 424.000
50.19313 440.000
50.21307 446.000
50.23302 445.000
50.25297 458.000
50.27292 442.000
50.29286 445.000
50.31281 465.000
50.33276 409.000
50.35270 434.000
50.37265 431.000
50.39260 431.000
50.41254 383.000
50.43249 401.000
50.45244 436.000
50.47239 425.000
50.49233 427.000
50.51228 427.000
50.53223 403.000
50.55217 431.000
50.57212 450.000
50.59207 415.000
50.61201 459.000
50.63196 407.000
50.65191 457.000
50.67186 432.000
50.69180 459.000
50.71175 391.000
50.73170 438.000
50.75164 413.000
50.77159 386.000
50.79154 394.000
50.81148 413.000
50.83143 425.000
50.85138 410.000
50.87132 426.000
50.89127 420.000
50.91122 415.000
50.93117 415.000
50.95111 397.000
50.97106 418.000
50.99101 431.000
51.01095 397.000
51.03090 471.000
51.05085 425.000
51.07079 454.000
51.09074 409.000
51.11069 432.000
51.13064 470.000
51.15058 463.000
51.17053 433.000
51.19048 427.000
51.21042 453.000
51.23037 446.000
51.25032 372.000
51.27026 472.000
51.29021 403.000
51.31016 418.000
51.33010 419.000
51.35005 429.000
51.37000 439.000
51.38995 370.000
51.40989 444.000
51.42984 391.000
51.44979 431.000
51.46973 446.000
51.48968 433.000
51.50963 409.000
51.52957 423.000
51.54952 393.000
51.56947 423.000
51.58942 463.000
51.60936 439.000
51.62931 443.000
51.64926 402.000
51.66920 450.000
51.68915 375.000
51.70910 421.000
51.72904 418.000
51.74899 431.000
51.76894 363.000
51.78888 442.000
51.80883 404.000
51.82878 426.000
51.84873 432.000
51.86867 438.000
51.88862 386.000
51.90857 424.000
51.92851 420.000
51.94846 398.000
51.96841 453.000
51.98835 392.000
52.00830 416.000
52.02825 433.000
52.04820 377.000
52.06814 402.000
52.08809 421.000
52.10804 450.000
52.12798 418.000
52.14793 411.000
52.16788 369.000
52.18782 415.000
52.20777 387.000
52.22772 411.000
52.24767 429.000
52.26761 419.000
52.28756 413.000
52.30751 417.000
52.32745 435.000
52.34740 424.000
52.36735 379.000
52.38729 414.000
52.40724 413.000
52.42719 443.000
52.44713 419.000
52.46708 421.000
52.48703 425.000
52.50698 401.000
52.52692 383.000
52.54687 394.000
52.56682 402.000
52.58676 380.000
52.60671 398.000
52.62666 391.000
52.64660 406.000
52.66655 384.000
52.68650 398.000
52.70645 431.000
52.72639 402.000
52.74634 398.000
52.76629 380.000
52.78623 392.000
52.80618 404.000
52.82613 403.000
52.84607 450.000
52.86602 385.000
52.88597 413.000
52.90591 401.000
52.92586 415.000
52.94581 400.000
52.96576 372.000
52.98570 424.000
53.00565 429.000
53.02560 422.000
53.04554 387.000
53.06549 387.000
53.08544 414.000
53.10538 432.000
53.12533 404.000
53.14528 426.000
53.16523 426.000
53.18517 358.000
53.20512 377.000
53.22507 397.000
53.24501 388.000
53.26496 428.000
53.28491 393.000
53.30485 398.000
53.32480 459.000
53.34475 404.000
53.36469 385.000
53.38464 394.000
53.40459 371.000
53.42454 394.000
53.44448 410.000
53.46443 397.000
53.48438 391.000
53.50432 360.000
53.52427 410.000
53.54422 424.000
53.56416 389.000
53.58411 402.000
53.60406 411.000
53.62401 381.000
53.64395 378.000
53.66390 397.000
53.68385 386.000
53.70379 419.000
53.72374 390.000
53.74369 393.000
53.76363 395.000
53.78358 427.000
53.80353 397.000
53.82348 375.000
53.84342 437.000
53.86337 367.000
53.88332 412.000
53.90326 396.000
53.92321 364.000
53.94316 400.000
53.96310 397.000
53.98305 439.000
54.00300 358.000
54.02294 382.000
54.04289 378.000
54.06284 389.000
54.08279 378.000
54.10273 411.000
54.12268 380.000
54.14263 404.000
54.16257 376.000
54.18252 373.000
54.20247 406.000
54.22241 411.000
54.24236 375.000
54.26231 393.000
54.28226 385.000
54.30220 389.000
54.32215 397.000
54.34210 432.000
54.36204 416.000
54.38199 382.000
54.40194 374.000
54.42188 355.000
54.44183 368.000
54.46178 388.000
54.48172 387.000
54.50167 404.000
54.52162 389.000
54.54157 388.000
54.56151 378.000
54.58146 413.000
54.60141 389.000
54.62135 367.000
54.64130 337.000
54.66125 352.000
54.68119 410.000
54.70114 386.000
54.72109 372.000
54.74104 376.000
54.76098 418.000
54.78093 398.000
54.80088 365.000
54.82082 406.000
54.84077 381.000
54.86072 392.000
54.88066 414.000
54.90061 365.000
54.92056 379.000
54.94050 374.000
54.96045 360.000
54.98040 365.000
55.00035 386.000
55.02029 394.000
55.04024 401.000
55.06019 363.000
55.08013 394.000
55.10008 369.000
55.12003 399.000
55.13997 411.000
55.15992 384.000
55.17987 376.000
55.19982 383.000
55.21976 366.000
55.23971 353.000
55.25966 372.000
55.27960 375.000
55.29955 375.000
55.31950 373.000
55.33944 373.000
55.35939 373.000
55.37934 381.000
55.39929 388.000
55.41923 406.000
55.43918 371.000
55.45913 363.000
55.47907 391.000
55.49902 337.000
55.51897 403.000
55.53891 365.000
55.55886 395.000
55.57881 371.000
55.59875 410.000
55.61870 379.000
55.63865 380.000
55.65860 344.000
55.67854 365.000
55.69849 377.000
55.71844 370.000
55.73838 361.000
55.75833 356.000
55.77828 357.000
55.79822 345.000
55.81817 367.000
55.83812 373.000
55.85807 371.000
55.87801 361.000
55.89796 348.000
55.91791 391.000
55.93785 355.000
55.95780 350.000
55.97775 364.000
55.99769 364.000
56.01764 354.000
56.03759 333.000
56.05753 357.000
56.07748 350.000
56.09743 321.000
56.11738 383.000
56.13732 353.000
56.15727 361.000
56.17722 364.000
56.19716 393.000
56.21711 353.000
56.23706 354.000
56.25700 384.000
56.27695 345.000
56.29690 348.000
56.31685 347.000
56.33679 346.000
56.35674 354.000
56.37669 376.000
56.39663 372.000
56.41658 365.000
56.43653 395.000
56.45647 352.000
56.47642 341.000
56.49637 324.000
56.51631 367.000
56.53626 363.000
56.55621 369.000
56.57616 345.000
56.59610 396.000
56.61605 359.000
56.63600 383.000
56.65594 321.000
56.67589 351.000
56.69584 366.000
56.71578 353.000
56.73573 349.000
56.75568 356.000
56.77563 350.000
56.79557 321.000
56.81552 360.000
56.83547 339.000
56.85541 342.000
56.87536 362.000
56.89531 347.000
56.91525 345.000
56.93520 353.000
56.95515 351.000
56.97510 388.000
56.99504 366.000
57.01499 343.000
57.03494 326.000
57.05488 352.000
57.07483 359.000
57.09478 360.000
57.11472 349.000
57.13467 321.000
57.15462 338.000
57.17456 340.000
57.19451 383.000
57.21446 346.000
57.23441 323.000
57.25435 341.000
57.27430 341.000
57.29425 354.000
57.31419 357.000
57.33414 353.000
57.35409 377.000
57.37403 346.000
57.39398 324.000
57.41393 339.000
57.43388 354.000
57.45382 311.000
57.47377 371.000
57.49372 346.000
57.51366 353.000
57.53361 339.000
57.55356 368.000
57.57350 343.000
57.59345 359.000
57.61340 324.000
57.63334 357.000
57.65329 377.000
57.67324 397.000
57.69319 371.000
57.71313 339.000
57.73308 342.000
57.75303 360.000
57.77297 369.000
57.79292 367.000
57.81287 322.000
57.83281 343.000
57.85276 349.000
57.87271 355.000
57.89266 368.000
57.91260 346.000
57.93255 357.000
57.95250 345.000
57.97244 345.000
57.99239 344.000
58.01234 377.000
58.03228 365.000
58.05223 343.000
58.07218 337.000
58.09212 333.000
58.11207 348.000
58.13202 328.000
58.15197 359.000
58.17191 326.000
58.19186 382.000
58.21181 337.000
58.23175 344.000
58.25170 333.000
58.27165 321.000
58.29159 351.000
58.31154 304.000
58.33149 345.000
58.35144 337.000
58.37138 347.000
58.39133 346.000
58.41128 329.000
58.43122 355.000
58.45117 331.000
58.47112 336.000
58.49106 341.000
58.51101 319.000
58.53096 330.000
58.55090 311.000
58.57085 350.000
58.59080 302.000
58.61075 321.000
58.63069 337.000
58.65064 325.000
58.67059 317.000
58.69053 342.000
58.71048 372.000
58.73043 320.000
58.75037 330.000
58.77032 338.000
58.79027 325.000
58.81022 315.000
58.83016 346.000
58.85011 379.000
58.87006 333.000
58.89000 334.000
58.90995 311.000
58.92990 322.000
58.94984 304.000
58.96979 367.000
58.98974 361.000
59.00969 330.000
59.02963 351.000
59.04958 323.000
59.06953 338.000
59.08947 320.000
59.10942 313.000
59.12937 325.000
59.14931 365.000
59.16926 319.000
59.18921 368.000
59.20915 359.000
59.22910 368.000
59.24905 353.000
59.26900 344.000
59.28894 352.000
59.30889 353.000
59.32884 330.000
59.34878 329.000
59.36873 327.000
59.38868 320.000
59.40862 344.000
59.42857 382.000
59.44852 331.000
59.46847 328.000
59.48841 346.000
59.50836 313.000
59.52831 349.000
59.54825 328.000
59.56820 346.000
59.58815 318.000
59.60809 329.000
59.62804 320.000
59.64799 323.000
59.66793 330.000
59.68788 323.000
59.70783 355.000
59.72778 328.000
59.74772 339.000
59.76767 324.000
59.78762 340.000
59.80756 325.000
59.82751 323.000
59.84746 304.000
59.86740 305.000
59.88735 363.000
59.90730 323.000
59.92725 323.000
59.94719 337.000
59.96714 326.000
59.98709 307.000
60.00703 306.000
60.02698 299.000
60.04693 328.000
60.06687 298.000
60.08682 350.000
60.10677 324.000
60.12671 342.000
60.14666 324.000
60.16661 332.000
60.18656 311.000
60.20650 326.000
60.22645 321.000
60.24640 316.000
60.26634 344.000
60.28629 324.000
60.30624 315.000
60.32618 322.000
60.34613 289.000
60.36608 313.000
60.38603 314.000
60.40597 344.000
60.42592 342.000
60.44587 308.000
60.46581 295.000
60.48576 299.000
60.50571 287.000
60.52565 294.000
60.54560 326.000
60.56555 320.000
60.58550 314.000
60.60544 310.000
60.62539 284.000
60.64534 304.000
60.66528 304.000
60.68523 289.000
60.70518 291.000
60.72512 306.000
60.74507 327.000
60.76502 330.000
60.78496 267.000
60.80491 343.000
60.82486 287.000
60.84481 269.000
60.86475 323.000
60.88470 325.000
60.90465 290.000
60.92459 351.000
60.94454 296.000
60.96449 258.000
60.98443 309.000
61.00438 333.000
61.02433 335.000
61.04428 301.000
61.06422 285.000
61.08417 297.000
61.10412 316.000
61.12406 343.000
61.14401 303.000
61.16396 312.000
61.18390 303.000
61.20385 333.000
61.22380 274.000
61.24374 321.000
61.26369 308.000
61.28364 292.000
61.30359 314.000
61.32353 285.000
61.34348 294.000
61.36343 306.000
61.38337 317.000
61.40332 327.000
61.42327 278.000
61.44321 321.000
61.46316 302.000
61.48311 338.000
61.50306 318.000
61.52300 311.000
61.54295 313.000
61.56290 308.000
61.58284 305.000
61.60279 297.000
61.62274 289.000
61.64268 281.000
61.66263 309.000
61.68258 307.000
61.70252 270.000
61.72247 298.000
61.74242 344.000
61.76237 329.000
61.78231 303.000
61.80226 337.000
61.82221 290.000
61.84215 284.000
61.86210 315.000
61.88205 292.000
61.90199 284.000
61.92194 312.000
61.94189 278.000
61.96184 339.000
61.98178 291.000
62.00173 307.000
62.02168 285.000
62.04162 285.000
62.06157 341.000
62.08152 299.000
62.10146 297.000
62.12141 307.000
62.14136 303.000
62.16131 309.000
62.18125 280.000
62.20120 327.000
62.22115 276.000
62.24109 305.000
62.26104 286.000
62.28099 330.000
62.30093 296.000
62.32088 275.000
62.34083 293.000
62.36077 279.000
62.38072 315.000
62.40067 307.000
62.42062 295.000
62.44056 299.000
62.46051 322.000
62.48046 267.000
62.50040 277.000
62.52035 273.000
62.54030 274.000
62.56024 290.000
62.58019 307.000
62.60014 281.000
62.62009 325.000
62.64003 287.000
62.65998 276.000
62.67993 304.000
62.69987 294.000
62.71982 316.000
62.73977 280.000
62.75971 326.000
62.77966 317.000
62.79961 318.000
62.81955 258.000
62.83950 302.000
62.85945 291.000
62.87940 294.000
62.89934 276.000
62.91929 258.000
62.93924 284.000
62.95918 261.000
62.97913 307.000
62.99908 282.000
63.01902 313.000
63.03897 301.000
63.05892 272.000
63.07887 302.000
63.09881 303.000
63.11876 286.000
63.13871 288.000
63.15865 262.000
63.17860 298.000
63.19855 316.000
63.21849 269.000
63.23844 330.000
63.25839 276.000
63.27833 313.000
63.29828 258.000
63.31823 317.000
63.33818 300.000
63.35812 282.000
63.37807 270.000
63.39802 277.000
63.41796 299.000
63.43791 298.000
63.45786 300.000
63.47780 306.000
63.49775 339.000
63.51770 282.000
63.53765 275.000
63.55759 275.000
63.57754 287.000
63.59749 313.000
63.61743 279.000
63.63738 288.000
63.65733 274.000
63.67727 306.000
63.69722 309.000
63.71717 284.000
63.73712 307.000
63.75706 315.000
63.77701 288.000
63.79696 322.000
63.81690 315.000
63.83685 310.000
63.85680 287.000
63.87674 297.000
63.89669 322.000
63.91664 275.000
63.93658 287.000
63.95653 276.000
63.97648 271.000
63.99643 314.000
64.01637 296.000
64.03632 302.000
64.05627 274.000
64.07621 294.000
64.09616 303.000
64.11611 282.000
64.13605 300.000
64.15600 302.000
64.17595 308.000
64.19590 271.000
64.21584 306.000
64.23579 308.000
64.25574 256.000
64.27568 274.000
64.29563 268.000
64.31558 298.000
64.33552 287.000
64.35547 312.000
64.37542 292.000
64.39536 259.000
64.41531 269.000
64.43526 284.000
64.45521 289.000
64.47515 282.000
64.49510 268.000
64.51505 276.000
64.53499 313.000
64.55494 267.000
64.57489 309.000
64.59483 296.000
64.61478 298.000
64.63473 304.000
64.65468 278.000
64.67462 295.000
64.69457 277.000
64.71452 270.000
64.73446 286.000
64.75441 294.000
64.77436 285.000
64.79430 275.000
64.81425 294.000
64.83420 289.000
64.85414 279.000
64.87409 311.000
64.89404 281.000
64.91399 307.000
64.93393 290.000
64.95388 271.000
64.97383 264.000
64.99377 288.000
65.01372 231.000
65.03367 298.000
65.05361 269.000
65.07356 291.000
65.09351 289.000
65.11346 280.000
65.13340 279.000
65.15335 251.000
65.17330 262.000
65.19324 273.000
65.21319 276.000
65.23314 335.000
65.25308 302.000
65.27303 291.000
65.29298 289.000
65.31293 278.000
65.33287 270.000
65.35282 262.000
65.37277 275.000
65.39271 243.000
65.41266 266.000
65.43261 290.000
65.45255 301.000
65.47250 285.000
65.49245 333.000
65.51239 264.000
65.53234 299.000
65.55229 280.000
65.57224 315.000
65.59218 294.000
65.61213 269.000
65.63208 267.000
65.65202 297.000
65.67197 279.000
65.69192 308.000
65.71186 254.000
65.73181 274.000
65.75176 290.000
65.77171 277.000
65.79165 264.000
65.81160 282.000
65.83155 302.000
65.85149 302.000
65.87144 299.000
65.89139 305.000
65.91133 277.000
65.93128 292.000
65.95123 313.000
65.97117 275.000
65.99112 285.000
66.01107 302.000
66.03102 255.000
66.05096 272.000
66.07091 287.000
66.09086 287.000
66.11080 264.000
66.13075 297.000
66.15070 297.000
66.17064 279.000
66.19059 258.000
66.21054 274.000
66.23049 285.000
66.25043 262.000
66.27038 270.000
66.29033 286.000
66.31027 272.000
66.33022 270.000
66.35017 260.000
66.37011 260.000
66.39006 272.000
66.41001 272.000
66.42995 303.000
66.44990 285.000
66.46985 297.000
66.48980 258.000
66.50974 262.000
66.52969 235.000
66.54964 274.000
66.56958 267.000
66.58953 282.000
66.60948 308.000
66.62942 258.000
66.64937 258.000
66.66932 245.000
66.68927 268.000
66.70921 273.000
66.72916 304.000
66.74911 244.000
66.76905 269.000
66.78900 279.000
66.80895 255.000
66.82889 293.000
66.84884 264.000
66.86879 263.000
66.88874 253.000
66.90868 270.000
66.92863 301.000
66.94858 246.000
66.96852 244.000
66.98847 242.000
67.00842 294.000
67.02836 301.000
67.04831 263.000
67.06826 270.000
67.08820 258.000
67.10815 269.000
67.12810 267.000
67.14805 286.000
67.16799 294.000
67.18794 268.000
67.20789 290.000
67.22783 250.000
67.24778 276.000
67.26773 246.000
67.28767 254.000
67.30762 259.000
67.32757 281.000
67.34752 274.000
67.36746 239.000
67.38741 269.000
67.40736 290.000
67.42730 285.000
67.44725 278.000
67.46720 269.000
67.48714 277.000
67.50709 285.000
67.52704 287.000
67.54698 293.000
67.56693 260.000
67.58688 272.000
67.60683 297.000
67.62677 274.000
67.64672 284.000
67.66667 297.000
67.68661 268.000
67.70656 266.000
67.72651 278.000
67.74645 303.000
67.76640 271.000
67.78635 270.000
67.80630 284.000
67.82624 259.000
67.84619 258.000
67.86614 275.000
67.88608 283.000
67.90603 254.000
67.92598 269.000
67.94592 266.000
67.96587 251.000
67.98582 286.000
68.00576 248.000
68.02571 266.000
68.04566 285.000
68.06561 282.000
68.08555 279.000
68.10550 275.000
68.12545 297.000
68.14539 255.000
68.16534 273.000
68.18529 279.000
68.20523 257.000
68.22518 265.000
68.24513 293.000
68.26508 262.000
68.28502 256.000
68.30497 260.000
68.32492 270.000
68.34486 276.000
68.36481 284.000
68.38476 265.000
68.40470 262.000
68.42465 274.000
68.44460 247.000
68.46455 268.000
68.48449 264.000
68.50444 260.000
68.52439 253.000
68.54433 282.000
68.56428 258.000
68.58423 269.000
68.60417 258.000
68.62412 300.000
68.64407 254.000
68.66401 267.000
68.68396 256.000
68.70391 238.000
68.72386 249.000
68.74380 273.000
68.76375 265.000
68.78370 246.000
68.80364 238.000
68.82359 277.000
68.84354 266.000
68.86348 248.000
68.88343 267.000
68.90338 242.000
68.92333 267.000
68.94327 268.000
68.96322 249.000
68.98317 304.000
69.00311 259.000
69.02306 211.000
69.04301 238.000
69.06295 264.000
69.08290 255.000
69.10285 233.000
69.12279 276.000
69.14274 264.000
69.16269 289.000
69.18264 274.000
69.20258 270.000
69.22253 250.000
69.24248 249.000
69.26242 275.000
69.28237 258.000
69.30232 268.000
69.32226 272.000
69.34221 286.000
69.36216 273.000
69.38211 246.000
69.40205 244.000
69.42200 261.000
69.44195 272.000
69.46189 299.000
69.48184 267.000
69.50179 262.000
69.52173 245.000
69.54168 258.000
69.56163 289.000
69.58157 283.000
69.60152 268.000
69.62147 269.000
69.64142 256.000
69.66136 268.000
69.68131 266.000
69.70126 295.000
69.72120 259.000
69.74115 291.000
69.76110 253.000
69.78104 257.000
69.80099 248.000
69.82094 249.000
69.84089 225.000
69.86083 262.000
69.88078 251.000
69.90073 277.000
69.92067 243.000
69.94062 281.000
69.96057 256.000
69.98051 267.000
70.00046 272.000
70.02041 279.000
70.04035 264.000
70.06030 282.000
70.08025 245.000
70.10020 258.000
70.12014 252.000
70.14009 245.000
70.16004 255.000
70.17998 257.000
70.19993 264.000
70.21988 257.000
70.23982 253.000
70.25977 258.000
70.27972 278.000
70.29967 237.000
70.31961 234.000
70.33956 259.000
70.35951 256.000
70.37945 235.000
70.39940 237.000
70.41935 256.000
70.43929 258.000
70.45924 269.000
70.47919 279.000
70.49914 265.000
70.51908 299.000
70.53903 278.000
70.55898 257.000
70.57892 246.000
70.59887 285.000
70.61882 246.000
70.63876 271.000
70.65871 260.000
70.67866 260.000
70.69860 254.000
70.71855 248.000
70.73850 264.000
70.75845 274.000
70.77839 251.000
70.79834 258.000
70.81829 258.000
70.83823 259.000
70.85818 258.000
70.87813 275.000
70.89807 282.000
70.91802 253.000
70.93797 258.000
70.95792 245.000
70.97786 270.000
70.99781 288.000
71.01776 240.000
71.03770 285.000
71.05765 246.000
71.07760 266.000
71.09754 268.000
71.11749 282.000
71.13744 262.000
71.15738 290.000
71.17733 261.000
71.19728 269.000
71.21723 261.000
71.23717 233.000
71.25712 238.000
71.27707 240.000
71.29701 265.000
71.31696 259.000
71.33691 277.000
71.35685 255.000
71.37680 250.000
71.39675 250.000
71.41670 254.000
71.43664 262.000
71.45659 273.000
71.47654 267.000
71.49648 274.000
71.51643 261.000
71.53638 250.000
71.55632 293.000
71.57627 240.000
71.59622 246.000
71.61616 266.000
71.63611 234.000
71.65606 253.000
71.67601 255.000
71.69595 271.000
71.71590 263.000
71.73585 260.000
71.75579 254.000
71.77574 277.000
71.79569 253.000
71.81563 263.000
71.83558 250.000
71.85553 257.000
71.87548 224.000
71.89542 255.000
71.91537 230.000
71.93532 250.000
71.95526 225.000
71.97521 241.000
71.99516 272.000
72.01510 249.000
72.03505 280.000
72.05500 255.000
72.07495 265.000
72.09489 251.000
72.11484 257.000
72.13479 251.000
72.15473 243.000
72.17468 259.000
72.19463 279.000
72.21457 263.000
72.23452 288.000
72.25447 242.000
72.27441 269.000
72.29436 276.000
72.31431 253.000
72.33426 241.000
72.35420 261.000
72.37415 250.000
72.39410 265.000
72.41404 288.000
72.43399 269.000
72.45394 242.000
72.47388 247.000
72.49383 280.000
72.51378 247.000
72.53373 274.000
72.55367 275.000
72.57362 264.000
72.59357 298.000
72.61351 247.000
72.63346 242.000
72.65341 282.000
72.67335 270.000
72.69330 256.000
72.71325 249.000
72.73319 258.000
72.75314 259.000
72.77309 282.000
72.79304 280.000
72.81298 265.000
72.83293 226.000
72.85288 261.000
72.87282 251.000
72.89277 261.000
72.91272 271.000
72.93266 230.000
72.95261 284.000
72.97256 248.000
72.99251 264.000
73.01245 258.000
73.03240 238.000
73.05235 261.000
73.07229 272.000
73.09224 249.000
73.11219 241.000
73.13213 265.000
73.15208 267.000
73.17203 226.000
73.19197 220.000
73.21192 261.000
73.23187 259.000
73.25182 234.000
73.27176 229.000
73.29171 261.000
73.31166 250.000
73.33160 271.000
73.35155 266.000
73.37150 281.000
73.39144 240.000
73.41139 258.000
73.43134 255.000
73.45129 264.000
73.47123 255.000
73.49118 243.000
73.51113 254.000
73.53107 242.000
73.55102 258.000
73.57097 262.000
73.59091 249.000
73.61086 266.000
73.63081 255.000
73.65076 270.000
73.67070 279.000
73.69065 253.000
73.71060 286.000
73.73054 270.000
73.75049 261.000
73.77044 246.000
73.79038 267.000
73.81033 248.000
73.83028 239.000
73.85022 264.000
73.87017 265.000
73.89012 262.000
73.91007 247.000
73.93001 204.000
73.94996 279.000
73.96991 263.000
73.98985 264.000
74.00980 228.000
74.02975 246.000
74.04969 275.000
74.06964 287.000
74.08959 266.000
74.10954 245.000
74.12948 267.000
74.14943 273.000
74.16938 249.000
74.18932 231.000
74.20927 238.000
74.22922 246.000
74.24916 251.000
74.26911 242.000
74.28906 279.000
74.30900 259.000
74.32895 249.000
74.34890 268.000
74.36885 238.000
74.38879 250.000
74.40874 255.000
74.42869 219.000
74.44863 287.000
74.46858 255.000
74.48853 271.000
74.50847 258.000
74.52842 272.000
74.54837 253.000
74.56832 271.000
74.58826 250.000
74.60821 268.000
74.62816 239.000
74.64810 227.000
74.66805 224.000
74.68800 234.000
74.70794 249.000
74.72789 283.000
74.74784 284.000
74.76778 260.000
74.78773 242.000
74.80768 247.000
74.82763 272.000
74.84757 283.000
74.86752 268.000
74.88747 267.000
74.90741 263.000
74.92736 239.000
74.94731 274.000
74.96725 245.000
74.98720 270.000
75.00715 262.000
75.02710 273.000
75.04704 224.000
75.06699 223.000
75.08694 286.000
75.10688 258.000
75.12683 250.000
75.14678 246.000
75.16672 256.000
75.18667 262.000
75.20662 248.000
75.22657 250.000
75.24651 249.000
75.26646 246.000
75.28641 221.000
75.30635 264.000
75.32630 272.000
75.34625 250.000
75.36619 269.000
75.38614 254.000
75.40609 259.000
75.42603 242.000
75.44598 246.000
75.46593 226.000
75.48588 255.000
75.50582 228.000
75.52577 253.000
75.54572 256.000
75.56566 263.000
75.58561 259.000
75.60556 268.000
75.62550 279.000
75.64545 247.000
75.66540 276.000
75.68535 233.000
75.70529 256.000
75.72524 261.000
75.74519 255.000
75.76513 273.000
75.78508 229.000
75.80503 263.000
75.82497 214.000
75.84492 267.000
75.86487 250.000
75.88481 230.000
75.90476 246.000
75.92471 239.000
75.94466 256.000
75.96460 258.000
75.98455 255.000
76.00450 261.000
76.02444 250.000
76.04439 256.000
76.06434 244.000
76.08428 249.000
76.10423 232.000
76.12418 263.000
76.14413 233.000
76.16407 239.000
76.18402 262.000
76.20397 243.000
76.22391 252.000
76.24386 252.000
76.26381 271.000
76.28375 249.000
76.30370 233.000
76.32365 264.000
76.34359 239.000
76.36354 262.000
76.38349 221.000
76.40344 269.000
76.42338 252.000
76.44333 251.000
76.46328 261.000
76.48322 262.000
76.50317 280.000
76.52312 255.000
76.54306 278.000
76.56301 254.000
76.58296 243.000
76.60291 245.000
76.62285 267.000
76.64280 238.000
76.66275 252.000
76.68269 247.000
76.70264 232.000
76.72259 256.000
76.74253 261.000
76.76248 256.000
76.78243 264.000
76.80238 252.000
76.82232 243.000
76.84227 288.000
76.86222 264.000
76.88216 263.000
76.90211 258.000
76.92206 281.000
76.94200 242.000
76.96195 247.000
76.98190 255.000
77.00184 247.000
77.02179 262.000
77.04174 254.000
77.06169 260.000
77.08163 225.000
77.10158 240.000
77.12153 271.000
77.14147 240.000
77.16142 267.000
77.18137 260.000
77.20131 239.000
77.22126 253.000
77.24121 283.000
77.26116 227.000
77.28110 242.000
77.30105 244.000
77.32100 246.000
77.34094 238.000
77.36089 267.000
77.38084 256.000
77.40078 260.000
77.42073 261.000
77.44068 253.000
77.46062 236.000
77.48057 240.000
77.50052 245.000
77.52047 264.000
77.54041 254.000
77.56036 257.000
77.58031 254.000
77.60025 222.000
77.62020 246.000
77.64015 255.000
77.66009 237.000
77.68004 240.000
77.69999 228.000
77.71994 276.000
77.73988 253.000
77.75983 236.000
77.77978 256.000
77.79972 245.000
77.81967 270.000
77.83962 213.000
77.85956 248.000
77.87951 234.000
77.89946 263.000
77.91940 271.000
77.93935 259.000
77.95930 285.000
77.97925 233.000
77.99919 281.000
78.01914 260.000
78.03909 246.000
78.05903 235.000
78.07898 226.000
78.09893 246.000
78.11887 297.000
78.13882 251.000
78.15877 238.000
78.17872 245.000
78.19866 262.000
78.21861 247.000
78.23856 249.000
78.25850 245.000
78.27845 278.000
78.29840 248.000
78.31834 263.000
78.33829 240.000
78.35824 252.000
78.37819 243.000
78.39813 264.000
78.41808 276.000
78.43803 284.000
78.45797 252.000
78.47792 266.000
78.49787 271.000
78.51781 255.000
78.53776 284.000
78.55771 284.000
78.57765 249.000
78.59760 285.000
78.61755 241.000
78.63750 259.000
78.65744 227.000
78.67739 272.000
78.69734 274.000
78.71728 230.000
78.73723 246.000
78.75718 253.000
78.77712 248.000
78.79707 264.000
78.81702 238.000
78.83697 270.000
78.85691 243.000
78.87686 258.000
78.89681 256.000
78.91675 224.000
78.93670 244.000
78.95665 263.000
78.97659 244.000
78.99654 264.000
79.01649 242.000
79.03643 257.000
79.05638 265.000
79.07633 247.000
79.09628 284.000
79.11622 232.000
79.13617 248.000
79.15612 268.000
79.17606 244.000
79.19601 244.000
79.21596 252.000
79.23590 264.000
79.25585 256.000
79.27580 265.000
79.29575 244.000
79.31569 240.000
79.33564 259.000
79.35559 258.000
79.37553 270.000
79.39548 238.000
79.41543 269.000
79.43537 271.000
79.45532 233.000
79.47527 248.000
79.49521 257.000
79.51516 250.000
79.53511 254.000
79.55506 224.000
79.57500 253.000
79.59495 250.000
79.61490 261.000
79.63484 273.000
79.65479 229.000
79.67474 221.000
79.69468 242.000
79.71463 259.000
79.73458 247.000
79.75453 277.000
79.77447 255.000
79.79442 255.000
79.81437 220.000
79.83431 251.000
79.85426 251.000
79.87421 252.000
79.89415 286.000
79.91410 264.000
79.93405 259.000
79.95399 275.000
79.97394 238.000
79.99389 293.000
80.01384 259.000
80.03378 227.000
80.05373 256.000
80.07368 242.000
80.09362 241.000
80.11357 250.000
80.13352 235.000
80.15346 262.000
80.17341 257.000
80.19336 245.000
80.21331 241.000
80.23325 248.000
80.25320 256.000
80.27315 275.000
80.29309 273.000
80.31304 237.000
80.33299 234.000
80.35293 247.000
80.37288 223.000
80.39283 246.000
80.41278 263.000
80.43272 230.000
80.45267 260.000
80.47262 251.000
80.49256 238.000
80.51251 264.000
80.53246 270.000
80.55240 218.000
80.57235 256.000
80.59230 239.000
80.61224 247.000
80.63219 238.000
80.65214 257.000
80.67209 241.000
80.69203 250.000
80.71198 227.000
80.73193 253.000
80.75187 260.000
80.77182 260.000
80.79177 229.000
80.81171 244.000
80.83166 257.000
80.85161 248.000
80.87156 257.000
80.89150 270.000
80.91145 235.000
80.93140 292.000
80.95134 260.000
80.97129 268.000
80.99124 274.000
81.01118 262.000
81.03113 248.000
81.05108 251.000
81.07102 249.000
81.09097 272.000
81.11092 253.000
81.13087 239.000
81.15081 257.000
81.17076 244.000
81.19071 260.000
81.21065 274.000
81.23060 260.000
81.25055 253.000
81.27049 239.000
81.29044 256.000
81.31039 250.000
81.33034 257.000
81.35028 254.000
81.37023 222.000
81.39018 268.000
81.41012 230.000
81.43007 253.000
81.45002 249.000
81.46996 234.000
81.48991 271.000
81.50986 260.000
81.52980 240.000
81.54975 257.000
81.56970 268.000
81.58965 243.000
81.60959 250.000
81.62954 255.000
81.64949 273.000
81.66943 243.000
81.68938 231.000
81.70933 249.000
81.72927 261.000
81.74922 245.000
81.76917 253.000
81.78912 268.000
81.80906 256.000
81.82901 266.000
81.84896 247.000
81.86890 262.000
81.88885 288.000
81.90880 258.000
81.92874 233.000
81.94869 277.000
81.96864 239.000
81.98859 248.000
82.00853 243.000
82.02848 252.000
82.04843 242.000
82.06837 268.000
82.08832 231.000
82.10827 245.000
82.12821 265.000
82.14816 268.000
82.16811 275.000
82.18805 258.000
82.20800 259.000
82.22795 231.000
82.24790 251.000
82.26784 277.000
82.28779 248.000
82.30774 222.000
82.32768 251.000
82.34763 273.000
82.36758 261.000
82.38752 256.000
82.40747 253.000
82.42742 256.000
82.44737 273.000
82.46731 258.000
82.48726 278.000
82.50721 239.000
82.52715 228.000
82.54710 231.000
82.56705 246.000
82.58699 259.000
82.60694 242.000
82.62689 247.000
82.64683 254.000
82.66678 242.000
82.68673 273.000
82.70668 262.000
82.72662 242.000
82.74657 238.000
82.76652 276.000
82.78646 257.000
82.80641 232.000
82.82636 214.000
82.84630 287.000
82.86625 248.000
82.88620 256.000
82.90615 269.000
82.92609 269.000
82.94604 255.000
82.96599 248.000
82.98593 285.000
83.00588 227.000
83.02583 273.000
83.04577 276.000
83.06572 252.000
83.08567 274.000
83.10561 248.000
83.12556 245.000
83.14551 266.000
83.16546 246.000
83.18540 242.000
83.20535 302.000
83.22530 238.000
83.24524 268.000
83.26519 248.000
83.28514 295.000
83.30508 256.000
83.32503 256.000
83.34498 235.000
83.36493 251.000
83.38487 230.000
83.40482 254.000
83.42477 229.000
83.44471 237.000
83.46466 222.000
83.48461 282.000
83.50455 283.000
83.52450 259.000
83.54445 260.000
83.56440 254.000
83.58434 261.000
83.60429 235.000
83.62424 271.000
83.64418 271.000
83.66413 232.000
83.68408 270.000
83.70402 273.000
83.72397 251.000
83.74392 249.000
83.76386 252.000
83.78381 240.000
83.80376 229.000
83.82371 275.000
83.84365 235.000
83.86360 234.000
83.88355 279.000
83.90349 270.000
83.92344 253.000
83.94339 269.000
83.96333 247.000
83.98328 253.000
84.00323 269.000
84.02318 252.000
84.04312 273.000
84.06307 273.000
84.08302 250.000
84.10296 250.000
84.12291 229.000
84.14286 257.000
84.16280 227.000
84.18275 255.000
84.20270 231.000
84.22264 251.000
84.24259 267.000
84.26254 256.000
84.28249 237.000
84.30243 257.000
84.32238 236.000
84.34233 266.000
84.36227 239.000
84.38222 269.000
84.40217 228.000
84.42211 293.000
84.44206 256.000
84.46201 264.000
84.48196 256.000
84.50190 291.000
84.52185 265.000
84.54180 291.000
84.56174 240.000
84.58169 250.000
84.60164 230.000
84.62158 242.000
84.64153 273.000
84.66148 254.000
84.68142 246.000
84.70137 227.000
84.72132 251.000
84.74127 244.000
84.76121 261.000
84.78116 262.000
84.80111 234.000
84.82105 241.000
84.84100 290.000
84.86095 241.000
84.88089 259.000
84.90084 240.000
84.92079 254.000
84.94074 253.000
84.96068 273.000
84.98063 258.000
85.00058 289.000
85.02052 259.000
85.04047 249.000
85.06042 262.000
85.08036 247.000
85.10031 279.000
85.12026 256.000
85.14021 248.000
85.16015 243.000
85.18010 265.000
85.20005 273.000
85.21999 254.000
85.23994 262.000
85.25989 246.000
85.27983 237.000
85.29978 272.000
85.31973 247.000
85.33967 277.000
85.35962 251.000
85.37957 265.000
85.39952 289.000
85.41946 265.000
85.43941 239.000
85.45936 277.000
85.47930 254.000
85.49925 249.000
85.51920 246.000
85.53914 261.000
85.55909 265.000
85.57904 253.000
85.59899 270.000
85.61893 258.000
85.63888 246.000
85.65883 250.000
85.67877 252.000
85.69872 248.000
85.71867 262.000
85.73861 246.000
85.75856 269.000
85.77851 237.000
85.79845 263.000
85.81840 263.000
85.83835 249.000
85.85830 242.000
85.87824 258.000
85.89819 264.000
85.91814 230.000
85.93808 249.000
85.95803 271.000
85.97798 258.000
85.99792 237.000
86.01787 270.000
86.03782 268.000
86.05777 255.000
86.07771 257.000
86.09766 254.000
86.11761 256.000
86.13755 279.000
86.15750 287.000
86.17745 260.000
86.19739 270.000
86.21734 280.000
86.23729 258.000
86.25723 237.000
86.27718 250.000
86.29713 247.000
86.31708 243.000
86.33702 253.000
86.35697 264.000
86.37692 250.000
86.39686 245.000
86.41681 226.000
86.43676 221.000
86.45670 267.000
86.47665 256.000
86.49660 259.000
86.51655 262.000
86.53649 234.000
86.55644 255.000
86.57639 261.000
86.59633 238.000
86.61628 247.000
86.63623 256.000
86.65617 272.000
86.67612 259.000
86.69607 229.000
86.71602 247.000
86.73596 247.000
86.75591 266.000
86.77586 236.000
86.79580 280.000
86.81575 258.000
86.83570 244.000
86.85564 237.000
86.87559 270.000
86.89554 276.000
86.91548 234.000
86.93543 256.000
86.95538 223.000
86.97533 261.000
86.99527 254.000
87.01522 224.000
87.03517 246.000
87.05511 261.000
87.07506 233.000
87.09501 247.000
87.11495 258.000
87.13490 246.000
87.15485 253.000
87.17480 256.000
87.19474 246.000
87.21469 251.000
87.23464 232.000
87.25458 256.000
87.27453 265.000
87.29448 264.000
87.31442 244.000
87.33437 232.000
87.35432 252.000
87.37426 244.000
87.39421 254.000
87.41416 240.000
87.43411 249.000
87.45405 222.000
87.47400 252.000
87.49395 251.000
87.51389 215.000
87.53384 257.000
87.55379 226.000
87.57373 297.000
87.59368 235.000
87.61363 225.000
87.63358 254.000
87.65352 249.000
87.67347 230.000
87.69342 244.000
87.71336 237.000
87.73331 264.000
87.75326 272.000
87.77320 208.000
87.79315 267.000
87.81310 255.000
87.83304 256.000
87.85299 243.000
87.87294 238.000
87.89289 230.000
87.91283 233.000
87.93278 250.000
87.95273 244.000
87.97267 258.000
87.99262 247.000
88.01257 263.000
88.03251 248.000
88.05246 243.000
88.07241 243.000
88.09236 278.000
88.11230 216.000
88.13225 275.000
88.15220 233.000
88.17214 223.000
88.19209 261.000
88.21204 260.000
88.23198 236.000
88.25193 243.000
88.27188 230.000
88.29183 266.000
88.31177 226.000
88.33172 248.000
88.35167 251.000
88.37161 236.000
88.39156 253.000
88.41151 228.000
88.43145 259.000
88.45140 258.000
88.47135 264.000
88.49129 239.000
88.51124 249.000
88.53119 237.000
88.55114 236.000
88.57108 246.000
88.59103 250.000
88.61098 259.000
88.63092 257.000
88.65087 235.000
88.67082 223.000
88.69076 267.000
88.71071 235.000
88.73066 234.000
88.75061 247.000
88.77055 227.000
88.79050 256.000
88.81045 240.000
88.83039 240.000
88.85034 223.000
88.87029 245.000
88.89023 245.000
88.91018 239.000
88.93013 248.000
88.95007 251.000
88.97002 253.000
88.98997 253.000
89.00992 257.000
89.02986 266.000
89.04981 256.000
89.06976 241.000
89.08970 257.000
89.10965 280.000
89.12960 267.000
89.14954 243.000
89.16949 219.000
89.18944 241.000
89.20939 233.000
89.22933 273.000
89.24928 254.000
89.26923 241.000
89.28917 242.000
89.30912 238.000
89.32907 256.000
89.34901 245.000
89.36896 275.000
89.38891 258.000
89.40885 245.000
89.42880 250.000
89.44875 246.000
89.46870 277.000
89.48864 277.000
89.50859 272.000
89.52854 243.000
89.54848 241.000
89.56843 263.000
89.58838 263.000
89.60832 243.000
89.62827 255.000
89.64822 248.000
89.66817 238.000
89.68811 241.000
89.70806 256.000
89.72801 230.000
89.74795 240.000
89.76790 246.000
89.78785 251.000
89.80779 250.000
89.82774 258.000
89.84769 239.000
89.86764 249.000
89.88758 224.000
89.90753 230.000
89.92748 229.000
89.94742 247.000
89.96737 218.000
89.98732 276.000
90.00726 243.000
