10.00000 38.000
10.01995 23.000
10.03989 18.000
10.05984 23.000
10.07979 23.000
10.09973 21.000
10.11968 40.000
10.13963 19.000
10.15958 19.000
10.17952 18.000
10.19947 23.000
10.21942 26.000
10.23936 22.000
10.25931 27.000
10.27926 27.000
10.29920 19.000
10.31915 12.000
10.33910 24.000
10.35905 23.000
10.37899 27.000
10.39894 22.000
10.41889 27.000
10.43883 23.000
10.45878 26.000
10.47873 25.000
10.49867 20.000
10.51862 20.000
10.53857 31.000
10.55851 15.000
10.57846 23.000
10.59841 28.000
10.61836 17.000
10.63830 21.000
10.65825 18.000
10.67820 19.000
10.69814 18.000
10.71809 25.000
10.73804 20.000
10.75798 22.000
10.77793 25.000
10.79788 27.000
10.81783 30.000
10.83777 21.000
10.85772 18.000
10.87767 23.000
10.89761 20.000
10.91756 24.000
10.93751 19.000
10.95745 22.000
10.97740 31.000
10.99735 21.000
11.01730 25.000
11.03724 19.000
11.05719 17.000
11.07714 28.000
11.09708 15.000
11.11703 26.000
11.13698 27.000
11.15692 22.000
11.17687 21.000
11.19682 27.000
11.21676 23.000
11.23671 30.000
11.25666 19.000
11.27661 24.000
11.29655 23.000
11.31650 18.000
11.33645 22.000
11.35639 17.000
11.37634 21.000
11.39629 16.000
11.41623 14.000
11.43618 18.000
11.45613 21.000
11.47608 14.000
11.49602 23.000
11.51597 17.000
11.53592 30.000
11.55586 26.000
11.57581 28.000
11.59576 25.000
11.61570 19.000
11.63565 23.000
11.65560 22.000
11.67554 24.000
11.69549 16.000
11.71544 26.000
11.73539 13.000
11.75533 12.000
11.77528 32.000
11.79523 15.000
11.81517 18.000
11.83512 25.000
11.85507 26.000
11.87501 23.000
11.89496 27.000
11.91491 14.000
11.93486 26.000
11.95480 23.000
11.97475 25.000
11.99470 26.000
12.01464 15.000
12.03459 22.000
12.05454 20.000
12.07448 21.000
12.09443 22.000
12.11438 20.000
12.13432 18.000
12.15427 16.000
12.17422 30.000
12.19417 17.000
12.21411 22.000
12.23406 17.000
12.25401 27.000
12.27395 20.000
12.29390 19.000
12.31385 20.000
12.33379 15.000
12.35374 17.000
12.37369 27.000
12.39364 25.000
12.41358 20.000
12.43353 25.000
12.45348 23.000
12.47342 26.000
12.49337 16.000
12.51332 28.000
12.53326 14.000
12.55321 20.000
12.57316 24.000
12.59311 24.000
12.61305 16.000
12.63300 17.000
12.65295 22.000
12.67289 16.000
12.69284 22.000
12.71279 23.000
12.73273 23.000
12.75268 27.000
12.77263 20.000
12.79257 21.000
12.81252 32.000
12.83247 32.000
12.85242 36.000
12.87236 27.000
12.89231 25.000
12.91226 19.000
12.93220 27.000
12.95215 24.000
12.97210 24.000
12.99204 28.000
13.01199 27.000
13.03194 26.000
13.05189 25.000
13.07183 18.000
13.09178 23.000
13.11173 24.000
13.13167 29.000
13.15162 17.000
13.17157 33.000
13.19151 28.000
13.21146 30.000
13.23141 29.000
13.25135 21.000
13.27130 28.000
13.29125 21.000
13.31120 15.000
13.33114 31.000
13.35109 21.000
13.37104 22.000
13.39098 21.000
13.41093 24.000
13.43088 26.000
13.45082 27.000
13.47077 22.000
13.49072 28.000
13.51067 29.000
13.53061 23.000
13.55056 24.000
13.57051 15.000
13.59045 31.000
13.61040 24.000
13.63035 27.000
13.65029 27.000
13.67024 23.000
13.69019 35.000
13.71013 25.000
13.73008 22.000
13.75003 24.000
13.76998 21.000
13.78992 22.000
13.80987 25.000
13.82982 26.000
13.84976 27.000
13.86971 23.000
13.88966 26.000
13.90960 29.000
13.92955 30.000
13.94950 28.000
13.96945 30.000
13.98939 25.000
14.00934 31.000
14.02929 40.000
14.04923 29.000
14.06918 44.000
14.08913 31.000
14.10907 40.000
14.12902 39.000
14.14897 36.000
14.16892 43.000
14.18886 39.000
14.20881 44.000
14.22876 41.000
14.24870 30.000
14.26865 31.000
14.28860 36.000
14.30854 25.000
14.32849 30.000
14.34844 43.000
14.36838 37.000
14.38833 37.000
14.40828 46.000
14.42823 31.000
14.44817 41.000
14.46812 32.000
14.48807 37.000
14.50801 27.000
14.52796 33.000
14.54791 40.000
14.56785 40.000
14.58780 30.000
14.60775 49.000
14.62770 39.000
14.64764 37.000
14.66759 43.000
14.68754 57.000
14.70748 47.000
14.72743 46.000
14.74738 48.000
14.76732 50.000
14.78727 62.000
14.80722 42.000
14.82716 48.000
14.84711 53.000
14.86706 63.000
14.88701 49.000
14.90695 59.000
14.92690 66.000
14.94685 71.000
14.96679 76.000
14.98674 74.000
15.00669 95.000
15.02663 106.000
15.04658 92.000
15.06653 118.000
15.08648 99.000
15.10642 93.000
15.12637 112.000
15.14632 101.000
15.16626 94.000
15.18621 101.000
15.20616 109.000
15.22610 99.000
15.24605 117.000
15.26600 105.000
15.28594 129.000
15.30589 145.000
15.32584 142.000
15.34579 127.000
15.36573 139.000
15.38568 167.000
15.40563 174.000
15.42557 170.000
15.44552 191.000
15.46547 204.000
15.48541 275.000
15.50536 298.000
15.52531 358.000
15.54526 393.000
15.56520 564.000
15.58515 757.000
15.60510 1160.000
15.62504 1806.000
15.64499 2933.000
15.66494 4523.000
15.68488 7029.000
15.70483 9134.000
15.72478 9876.000
15.74472 8853.000
15.76467 5893.000
15.78462 3895.000
15.80457 2048.000
15.82451 1043.000
15.84446 680.000
15.86441 452.000
15.88435 352.000
15.90430 358.000
15.92425 350.000
15.94419 340.000
15.96414 364.000
15.98409 340.000
16.00404 358.000
16.02398 269.000
16.04393 236.000
16.06388 210.000
16.08382 177.000
16.10377 163.000
16.12372 135.000
16.14366 120.000
16.16361 87.000
16.18356 79.000
16.20351 81.000
16.22345 70.000
16.24340 87.000
16.26335 63.000
16.28329 70.000
16.30324 57.000
16.32319 42.000
16.34313 52.000
16.36308 45.000
16.38303 49.000
16.40297 50.000
16.42292 50.000
16.44287 57.000
16.46282 48.000
16.48276 57.000
16.50271 38.000
16.52266 46.000
16.54260 37.000
16.56255 37.000
16.58250 43.000
16.60244 43.000
16.62239 38.000
16.64234 35.000
16.66229 24.000
16.68223 22.000
16.70218 27.000
16.72213 33.000
16.74207 31.000
16.76202 36.000
16.78197 29.000
16.80191 27.000
16.82186 23.000
16.84181 29.000
16.86175 22.000
16.88170 31.000
16.90165 32.000
16.92160 31.000
16.94154 18.000
16.96149 31.000
16.98144 25.000
17.00138 26.000
17.02133 27.000
17.04128 24.000
17.06122 21.000
17.08117 28.000
17.10112 23.000
17.12107 16.000
17.14101 31.000
17.16096 27.000
17.18091 28.000
17.20085 25.000
17.22080 17.000
17.24075 26.000
17.26069 19.000
17.28064 25.000
17.30059 20.000
17.32053 17.000
17.34048 26.000
17.36043 11.000
17.38038 24.000
17.40032 20.000
17.42027 19.000
17.44022 24.000
17.46016 27.000
17.48011 28.000
17.50006 19.000
17.52000 28.000
17.53995 25.000
17.55990 24.000
17.57985 27.000
17.59979 19.000
17.61974 25.000
17.63969 15.000
17.65963 27.000
17.67958 18.000
17.69953 23.000
17.71947 19.000
17.73942 16.000
17.75937 18.000
17.77932 24.000
17.79926 21.000
17.81921 19.000
17.83916 23.000
17.85910 18.000
17.87905 20.000
17.89900 16.000
17.91894 17.000
17.93889 18.000
17.95884 19.000
17.97878 25.000
17.99873 20.000
18.01868 30.000
18.03863 27.000
18.05857 21.000
18.07852 24.000
18.09847 25.000
18.11841 24.000
18.13836 22.000
18.15831 13.000
18.17825 22.000
18.19820 27.000
18.21815 23.000
18.23810 11.000
18.25804 26.000
18.27799 24.000
18.29794 23.000
18.31788 15.000
18.33783 9.000
18.35778 26.000
18.37772 28.000
18.39767 26.000
18.41762 17.000
18.43756 18.000
18.45751 19.000
18.47746 25.000
18.49741 18.000
18.51735 17.000
18.53730 15.000
18.55725 29.000
18.57719 19.000
18.59714 19.000
18.61709 12.000
18.63703 31.000
18.65698 18.000
18.67693 16.000
18.69688 24.000
18.71682 15.000
18.73677 17.000
18.75672 25.000
18.77666 22.000
18.79661 24.000
18.81656 38.000
18.83650 19.000
18.85645 14.000
18.87640 24.000
18.89634 16.000
18.91629 14.000
18.93624 21.000
18.95619 13.000
18.97613 19.000
18.99608 15.000
19.01603 22.000
19.03597 7.000
19.05592 19.000
19.07587 12.000
19.09581 18.000
19.11576 22.000
19.13571 12.000
19.15566 20.000
19.17560 17.000
19.19555 28.000
19.21550 25.000
19.23544 12.000
19.25539 15.000
19.27534 19.000
19.29528 20.000
19.31523 17.000
19.33518 17.000
19.35513 21.000
19.37507 19.000
19.39502 14.000
19.41497 19.000
19.43491 25.000
19.45486 15.000
19.47481 17.000
19.49475 17.000
19.51470 13.000
19.53465 16.000
19.55459 18.000
19.57454 22.000
19.59449 18.000
19.61444 18.000
19.63438 16.000
19.65433 20.000
19.67428 23.000
19.69422 10.000
19.71417 17.000
19.73412 17.000
19.75406 20.000
19.77401 14.000
19.79396 15.000
19.81391 16.000
19.83385 16.000
19.85380 21.000
19.87375 20.000
19.89369 25.000
19.91364 19.000
19.93359 15.000
19.95353 11.000
19.97348 12.000
19.99343 15.000
20.01337 17.000
20.03332 15.000
20.05327 10.000
20.07322 18.000
20.09316 18.000
20.11311 14.000
20.13306 14.000
20.15300 13.000
20.17295 18.000
20.19290 14.000
20.21284 18.000
20.23279 17.000
20.25274 19.000
20.27269 19.000
20.29263 17.000
20.31258 19.000
20.33253 22.000
20.35247 17.000
20.37242 21.000
20.39237 16.000
20.41231 12.000
20.43226 24.000
20.45221 16.000
20.47215 19.000
20.49210 18.000
20.51205 19.000
20.53200 25.000
20.55194 11.000
20.57189 23.000
20.59184 13.000
20.61178 20.000
20.63173 29.000
20.65168 22.000
20.67162 18.000
20.69157 30.000
20.71152 20.000
20.73147 20.000
20.75141 17.000
20.77136 23.000
20.79131 23.000
20.81125 19.000
20.83120 34.000
20.85115 27.000
20.87109 21.000
20.89104 26.000
20.91099 23.000
20.93094 29.000
20.95088 23.000
20.97083 21.000
20.99078 25.000
21.01072 21.000
21.03067 27.000
21.05062 21.000
21.07056 13.000
21.09051 20.000
21.11046 10.000
21.13040 14.000
21.15035 12.000
21.17030 14.000
21.19025 16.000
21.21019 21.000
21.23014 15.000
21.25009 18.000
21.27003 25.000
21.28998 21.000
21.30993 20.000
21.32987 16.000
21.34982 21.000
21.36977 21.000
21.38972 22.000
21.40966 15.000
21.42961 12.000
21.44956 15.000
21.46950 17.000
21.48945 14.000
21.50940 23.000
21.52934 21.000
21.54929 18.000
21.56924 30.000
21.58918 19.000
21.60913 13.000
21.62908 15.000
21.64903 21.000
21.66897 14.000
21.68892 13.000
21.70887 14.000
21.72881 18.000
21.74876 20.000
21.76871 19.000
21.78865 15.000
21.80860 17.000
21.82855 20.000
21.84850 14.000
21.86844 9.000
21.88839 12.000
21.90834 14.000
21.92828 15.000
21.94823 20.000
21.96818 15.000
21.98812 19.000
22.00807 7.000
22.02802 16.000
22.04796 22.000
22.06791 20.000
22.08786 16.000
22.10781 13.000
22.12775 18.000
22.14770 17.000
22.16765 28.000
22.18759 17.000
22.20754 19.000
22.22749 22.000
22.24743 22.000
22.26738 23.000
22.28733 18.000
22.30728 14.000
22.32722 18.000
22.34717 20.000
22.36712 17.000
22.38706 18.000
22.40701 15.000
22.42696 14.000
22.44690 22.000
22.46685 14.000
22.48680 9.000
22.50675 13.000
22.52669 15.000
22.54664 20.000
22.56659 9.000
22.58653 15.000
22.60648 19.000
22.62643 18.000
22.64637 21.000
22.66632 17.000
22.68627 11.000
22.70621 13.000
22.72616 18.000
22.74611 21.000
22.76606 18.000
22.78600 24.000
22.80595 24.000
22.82590 25.000
22.84584 17.000
22.86579 25.000
22.88574 18.000
22.90568 18.000
22.92563 14.000
22.94558 14.000
22.96553 17.000
22.98547 15.000
23.00542 14.000
23.02537 18.000
23.04531 23.000
23.06526 17.000
23.08521 19.000
23.10515 19.000
23.12510 19.000
23.14505 15.000
23.16499 18.000
23.18494 24.000
23.20489 20.000
23.22484 18.000
23.24478 16.000
23.26473 24.000
23.28468 11.000
23.30462 14.000
23.32457 19.000
23.34452 18.000
23.36446 15.000
23.38441 28.000
23.40436 19.000
23.42431 14.000
23.44425 25.000
23.46420 27.000
23.48415 15.000
23.50409 14.000
23.52404 26.000
23.54399 24.000
23.56393 18.000
23.58388 23.000
23.60383 24.000
23.62377 25.000
23.64372 14.000
23.66367 24.000
23.68362 17.000
23.70356 14.000
23.72351 25.000
23.74346 19.000
23.76340 21.000
23.78335 13.000
23.80330 24.000
23.82324 29.000
23.84319 19.000
23.86314 21.000
23.88309 14.000
23.90303 27.000
23.92298 17.000
23.94293 18.000
23.96287 16.000
23.98282 33.000
24.00277 32.000
24.02271 25.000
24.04266 22.000
24.06261 24.000
24.08256 18.000
24.10250 18.000
24.12245 21.000
24.14240 24.000
24.16234 19.000
24.18229 19.000
24.20224 22.000
24.22218 10.000
24.24213 17.000
24.26208 17.000
24.28202 22.000
24.30197 17.000
24.32192 17.000
24.34187 20.000
24.36181 21.000
24.38176 16.000
24.40171 23.000
24.42165 16.000
24.44160 24.000
24.46155 20.000
24.48149 22.000
24.50144 18.000
24.52139 18.000
24.54134 24.000
24.56128 20.000
24.58123 24.000
24.60118 23.000
24.62112 24.000
24.64107 14.000
24.66102 21.000
24.68096 17.000
24.70091 17.000
24.72086 18.000
24.74080 27.000
24.76075 18.000
24.78070 16.000
24.80065 32.000
24.82059 20.000
24.84054 16.000
24.86049 19.000
24.88043 29.000
24.90038 20.000
24.92033 30.000
24.94027 18.000
24.96022 26.000
24.98017 21.000
25.00012 21.000
25.02006 27.000
25.04001 25.000
25.05996 17.000
25.07990 19.000
25.09985 21.000
25.11980 23.000
25.13974 20.000
25.15969 22.000
25.17964 26.000
25.19958 14.000
25.21953 22.000
25.23948 12.000
25.25943 15.000
25.27937 11.000
25.29932 23.000
25.31927 26.000
25.33921 19.000
25.35916 24.000
25.37911 22.000
25.39905 29.000
25.41900 19.000
25.43895 20.000
25.45890 19.000
25.47884 21.000
25.49879 22.000
25.51874 17.000
25.53868 23.000
25.55863 19.000
25.57858 17.000
25.59852 22.000
25.61847 20.000
25.63842 17.000
25.65837 14.000
25.67831 16.000
25.69826 17.000
25.71821 19.000
25.73815 12.000
25.75810 25.000
25.77805 22.000
25.79799 22.000
25.81794 23.000
25.83789 18.000
25.85783 23.000
25.87778 20.000
25.89773 25.000
25.91768 29.000
25.93762 26.000
25.95757 22.000
25.97752 27.000
25.99746 16.000
26.01741 29.000
26.03736 30.000
26.05730 22.000
26.07725 22.000
26.09720 23.000
26.11715 22.000
26.13709 30.000
26.15704 23.000
26.17699 14.000
26.19693 25.000
26.21688 24.000
26.23683 23.000
26.25677 20.000
26.27672 22.000
26.29667 21.000
26.31661 20.000
26.33656 23.000
26.35651 21.000
26.37646 21.000
26.39640 17.000
26.41635 19.000
26.43630 17.000
26.45624 28.000
26.47619 16.000
26.49614 19.000
26.51608 16.000
26.53603 23.000
26.55598 21.000
26.57593 25.000
26.59587 22.000
26.61582 17.000
26.63577 23.000
26.65571 25.000
26.67566 19.000
26.69561 24.000
26.71555 30.000
26.73550 24.000
26.75545 28.000
26.77539 25.000
26.79534 17.000
26.81529 32.000
26.83524 18.000
26.85518 22.000
26.87513 19.000
26.89508 23.000
26.91502 24.000
26.93497 21.000
26.95492 25.000
26.97486 22.000
26.99481 23.000
27.01476 20.000
27.03471 22.000
27.05465 11.000
27.07460 12.000
27.09455 16.000
27.11449 20.000
27.13444 17.000
27.15439 19.000
27.17433 22.000
27.19428 16.000
27.21423 22.000
27.23417 11.000
27.25412 24.000
27.27407 26.000
27.29402 24.000
27.31396 23.000
27.33391 17.000
27.35386 22.000
27.37380 24.000
27.39375 28.000
27.41370 17.000
27.43364 20.000
27.45359 18.000
27.47354 19.000
27.49349 21.000
27.51343 26.000
27.53338 24.000
27.55333 28.000
27.57327 42.000
27.59322 23.000
27.61317 18.000
27.63311 32.000
27.65306 21.000
27.67301 27.000
27.69296 23.000
27.71290 22.000
27.73285 20.000
27.75280 27.000
27.77274 24.000
27.79269 19.000
27.81264 29.000
27.83258 15.000
27.85253 27.000
27.87248 16.000
27.89242 16.000
27.91237 27.000
27.93232 21.000
27.95227 19.000
27.97221 21.000
27.99216 21.000
28.01211 23.000
28.03205 16.000
28.05200 24.000
28.07195 24.000
28.09189 19.000
28.11184 24.000
28.13179 19.000
28.15174 30.000
28.17168 23.000
28.19163 20.000
28.21158 18.000
28.23152 24.000
28.25147 23.000
28.27142 18.000
28.29136 24.000
28.31131 20.000
28.33126 35.000
28.35120 14.000
28.37115 21.000
28.39110 19.000
28.41105 16.000
28.43099 17.000
28.45094 25.000
28.47089 24.000
28.49083 16.000
28.51078 22.000
28.53073 17.000
28.55067 14.000
28.57062 19.000
28.59057 22.000
28.61052 25.000
28.63046 22.000
28.65041 21.000
28.67036 19.000
28.69030 34.000
28.71025 17.000
28.73020 16.000
28.75014 26.000
28.77009 17.000
28.79004 34.000
28.80998 23.000
28.82993 24.000
28.84988 26.000
28.86983 18.000
28.88977 19.000
28.90972 18.000
28.92967 22.000
28.94961 24.000
28.96956 20.000
28.98951 23.000
29.00945 18.000
29.02940 21.000
29.04935 20.000
29.06930 23.000
29.08924 19.000
29.10919 28.000
29.12914 24.000
29.14908 27.000
29.16903 21.000
29.18898 26.000
29.20892 21.000
29.22887 21.000
29.24882 22.000
29.26877 28.000
29.28871 11.000
29.30866 27.000
29.32861 22.000
29.34855 21.000
29.36850 27.000
29.38845 22.000
29.40839 30.000
29.42834 16.000
29.44829 17.000
29.46823 30.000
29.48818 22.000
29.50813 24.000
29.52808 27.000
29.54802 21.000
29.56797 23.000
29.58792 27.000
29.60786 15.000
29.62781 28.000
29.64776 31.000
29.66770 24.000
29.68765 26.000
29.70760 17.000
29.72755 29.000
29.74749 33.000
29.76744 30.000
29.78739 20.000
29.80733 28.000
29.82728 21.000
29.84723 25.000
29.86717 19.000
29.88712 23.000
29.90707 21.000
29.92701 30.000
29.94696 36.000
29.96691 36.000
29.98686 45.000
30.00680 38.000
30.02675 35.000
30.04670 38.000
30.06664 50.000
30.08659 70.000
30.10654 57.000
30.12648 54.000
30.14643 68.000
30.16638 56.000
30.18633 35.000
30.20627 42.000
30.22622 34.000
30.24617 37.000
30.26611 36.000
30.28606 38.000
30.30601 36.000
30.32595 27.000
30.34590 34.000
30.36585 30.000
30.38579 22.000
30.40574 30.000
30.42569 24.000
30.44564 27.000
30.46558 36.000
30.48553 27.000
30.50548 17.000
30.52542 27.000
30.54537 23.000
30.56532 26.000
30.58526 27.000
30.60521 27.000
30.62516 25.000
30.64511 27.000
30.66505 19.000
30.68500 30.000
30.70495 28.000
30.72489 34.000
30.74484 21.000
30.76479 32.000
30.78473 27.000
30.80468 29.000
30.82463 28.000
30.84458 31.000
30.86452 21.000
30.88447 26.000
30.90442 33.000
30.92436 22.000
30.94431 14.000
30.96426 28.000
30.98420 17.000
31.00415 26.000
31.02410 29.000
31.04404 32.000
31.06399 32.000
31.08394 36.000
31.10389 26.000
31.12383 26.000
31.14378 27.000
31.16373 30.000
31.18367 26.000
31.20362 23.000
31.22357 21.000
31.24351 39.000
31.26346 26.000
31.28341 29.000
31.30336 35.000
31.32330 36.000
31.34325 25.000
31.36320 41.000
31.38314 36.000
31.40309 34.000
31.42304 32.000
31.44298 31.000
31.46293 53.000
31.48288 52.000
31.50282 52.000
31.52277 66.000
31.54272 49.000
31.56267 88.000
31.58261 104.000
31.60256 113.000
31.62251 180.000
31.64245 263.000
31.66240 335.000
31.68235 475.000
31.70229 547.000
31.72224 620.000
31.74219 636.000
31.76214 627.000
31.78208 568.000
31.80203 491.000
31.82198 387.000
31.84192 341.000
31.86187 263.000
31.88182 193.000
31.90176 137.000
31.92171 93.000
31.94166 83.000
31.96160 62.000
31.98155 50.000
32.00150 48.000
32.02145 36.000
32.04139 32.000
32.06134 46.000
32.08129 50.000
32.10123 36.000
32.12118 42.000
32.14113 29.000
32.16107 38.000
32.18102 39.000
32.20097 40.000
32.22092 45.000
32.24086 36.000
32.26081 38.000
32.28076 52.000
32.30070 46.000
32.32065 47.000
32.34060 35.000
32.36054 29.000
32.38049 45.000
32.40044 38.000
32.42039 28.000
32.44033 22.000
32.46028 41.000
32.48023 30.000
32.50017 25.000
32.52012 28.000
32.54007 20.000
32.56001 26.000
32.57996 26.000
32.59991 27.000
32.61985 24.000
32.63980 30.000
32.65975 28.000
32.67970 21.000
32.69964 25.000
32.71959 20.000
32.73954 29.000
32.75948 32.000
32.77943 21.000
32.79938 11.000
32.81932 24.000
32.83927 25.000
32.85922 32.000
32.87917 31.000
32.89911 17.000
32.91906 21.000
32.93901 24.000
32.95895 24.000
32.97890 33.000
32.99885 41.000
33.01879 35.000
33.03874 34.000
33.05869 45.000
33.07863 33.000
33.09858 33.000
33.11853 30.000
33.13848 25.000
33.15842 32.000
33.17837 22.000
33.19832 27.000
33.21826 29.000
33.23821 26.000
33.25816 18.000
33.27810 24.000
33.29805 17.000
33.31800 28.000
33.33795 26.000
33.35789 24.000
33.37784 17.000
33.39779 23.000
33.41773 22.000
33.43768 31.000
33.45763 31.000
33.47757 23.000
33.49752 22.000
33.51747 26.000
33.53741 23.000
33.55736 19.000
33.57731 18.000
33.59726 15.000
33.61720 31.000
33.63715 23.000
33.65710 29.000
33.67704 27.000
33.69699 25.000
33.71694 33.000
33.73688 19.000
33.75683 27.000
33.77678 25.000
33.79673 31.000
33.81667 19.000
33.83662 26.000
33.85657 29.000
33.87651 22.000
33.89646 34.000
33.91641 21.000
33.93635 25.000
33.95630 42.000
33.97625 33.000
33.99620 27.000
34.01614 30.000
34.03609 41.000
34.05604 26.000
34.07598 32.000
34.09593 42.000
34.11588 25.000
34.13582 36.000
34.15577 36.000
34.17572 46.000
34.19566 47.000
34.21561 50.000
34.23556 45.000
34.25551 54.000
34.27545 40.000
34.29540 39.000
34.31535 45.000
34.33529 44.000
34.35524 49.000
34.37519 32.000
34.39513 49.000
34.41508 41.000
34.43503 45.000
34.45498 47.000
34.47492 51.000
34.49487 43.000
34.51482 54.000
34.53476 51.000
34.55471 50.000
34.57466 39.000
34.59460 48.000
34.61455 42.000
34.63450 39.000
34.65444 38.000
34.67439 49.000
34.69434 31.000
34.71429 50.000
34.73423 52.000
34.75418 28.000
34.77413 28.000
34.79407 28.000
34.81402 49.000
34.83397 42.000
34.85391 45.000
34.87386 39.000
34.89381 44.000
34.91376 40.000
34.93370 35.000
34.95365 52.000
34.97360 51.000
34.99354 50.000
35.01349 43.000
35.03344 49.000
35.05338 56.000
35.07333 45.000
35.09328 67.000
35.11322 53.000
35.13317 50.000
35.15312 55.000
35.17307 60.000
35.19301 63.000
35.21296 68.000
35.23291 63.000
35.25285 78.000
35.27280 68.000
35.29275 80.000
35.31269 103.000
35.33264 99.000
35.35259 141.000
35.37254 162.000
35.39248 291.000
35.41243 369.000
35.43238 474.000
35.45232 569.000
35.47227 600.000
35.49222 661.000
35.51216 597.000
35.53211 571.000
35.55206 549.000
35.57201 466.000
35.59195 378.000
35.61190 304.000
35.63185 239.000
35.65179 176.000
35.67174 145.000
35.69169 123.000
35.71163 105.000
35.73158 120.000
35.75153 100.000
35.77147 111.000
35.79142 129.000
35.81137 130.000
35.83132 150.000
35.85126 152.000
35.87121 130.000
35.89116 143.000
35.91110 139.000
35.93105 119.000
35.95100 95.000
35.97094 96.000
35.99089 73.000
36.01084 72.000
36.03079 62.000
36.05073 57.000
36.07068 46.000
36.09063 44.000
36.11057 33.000
36.13052 42.000
36.15047 46.000
36.17041 42.000
36.19036 48.000
36.21031 39.000
36.23025 38.000
36.25020 31.000
36.27015 44.000
36.29010 66.000
36.31004 62.000
36.32999 76.000
36.34994 62.000
36.36988 93.000
36.38983 70.000
36.40978 88.000
36.42972 85.000
36.44967 88.000
36.46962 78.000
36.48957 88.000
36.50951 81.000
36.52946 64.000
36.54941 58.000
36.56935 51.000
36.58930 42.000
36.60925 39.000
36.62919 30.000
36.64914 59.000
36.66909 52.000
36.68903 50.000
36.70898 42.000
36.72893 60.000
36.74888 57.000
36.76882 57.000
36.78877 71.000
36.80872 60.000
36.82866 72.000
36.84861 73.000
36.86856 70.000
36.88850 87.000
36.90845 93.000
36.92840 108.000
36.94835 123.000
36.96829 182.000
36.98824 198.000
37.00819 228.000
37.02813 261.000
37.04808 288.000
37.06803 289.000
37.08797 273.000
37.10792 252.000
37.12787 251.000
37.14781 203.000
37.16776 183.000
37.18771 175.000
37.20766 115.000
37.22760 128.000
37.24755 82.000
37.26750 72.000
37.28744 71.000
37.30739 68.000
37.32734 51.000
37.34728 44.000
37.36723 38.000
37.38718 32.000
37.40713 37.000
37.42707 42.000
37.44702 35.000
37.46697 40.000
37.48691 17.000
37.50686 39.000
37.52681 38.000
37.54675 37.000
37.56670 36.000
37.58665 33.000
37.60660 36.000
37.62654 26.000
37.64649 42.000
37.66644 35.000
37.68638 37.000
37.70633 44.000
37.72628 42.000
37.74622 51.000
37.76617 32.000
37.78612 33.000
37.80606 42.000
37.82601 42.000
37.84596 45.000
37.86591 43.000
37.88585 36.000
37.90580 44.000
37.92575 42.000
37.94569 62.000
37.96564 52.000
37.98559 56.000
38.00553 67.000
38.02548 56.000
38.04543 58.000
38.06538 57.000
38.08532 59.000
38.10527 50.000
38.12522 43.000
38.14516 55.000
38.16511 43.000
38.18506 58.000
38.20500 47.000
38.22495 38.000
38.24490 45.000
38.26484 43.000
38.28479 37.000
38.30474 50.000
38.32469 32.000
38.34463 39.000
38.36458 35.000
38.38453 28.000
38.40447 46.000
38.42442 48.000
38.44437 37.000
38.46431 52.000
38.48426 53.000
38.50421 40.000
38.52416 52.000
38.54410 55.000
38.56405 57.000
38.58400 65.000
38.60394 56.000
38.62389 56.000
38.64384 73.000
38.66378 72.000
38.68373 70.000
38.70368 72.000
38.72362 96.000
38.74357 97.000
38.76352 87.000
38.78347 122.000
38.80341 142.000
38.82336 145.000
38.84331 179.000
38.86325 193.000
38.88320 259.000
38.90315 331.000
38.92309 455.000
38.94304 618.000
38.96299 905.000
38.98294 1066.000
39.00288 1125.000
39.02283 1100.000
39.04278 1003.000
39.06272 965.000
39.08267 914.000
39.10262 885.000
39.12256 774.000
39.14251 601.000
39.16246 433.000
39.18241 375.000
39.20235 270.000
39.22230 240.000
39.24225 181.000
39.26219 138.000
39.28214 119.000
39.30209 108.000
39.32203 87.000
39.34198 81.000
39.36193 70.000
39.38187 80.000
39.40182 61.000
39.42177 69.000
39.44172 56.000
39.46166 46.000
39.48161 55.000
39.50156 38.000
39.52150 44.000
39.54145 40.000
39.56140 46.000
39.58134 35.000
39.60129 41.000
39.62124 46.000
39.64119 39.000
39.66113 26.000
39.68108 42.000
39.70103 38.000
39.72097 35.000
39.74092 44.000
39.76087 36.000
39.78081 25.000
39.80076 43.000
39.82071 39.000
39.84065 42.000
39.86060 38.000
39.88055 42.000
39.90050 30.000
39.92044 48.000
39.94039 49.000
39.96034 46.000
39.98028 35.000
40.00023 43.000
40.02018 33.000
40.04012 25.000
40.06007 41.000
40.08002 29.000
40.09997 27.000
40.11991 34.000
40.13986 25.000
40.15981 41.000
40.17975 24.000
40.19970 28.000
40.21965 26.000
40.23959 27.000
40.25954 36.000
40.27949 18.000
40.29943 21.000
40.31938 15.000
40.33933 23.000
40.35928 29.000
40.37922 28.000
40.39917 25.000
40.41912 28.000
40.43906 27.000
40.45901 26.000
40.47896 34.000
40.49890 16.000
40.51885 23.000
40.53880 25.000
40.55875 18.000
40.57869 21.000
40.59864 22.000
40.61859 26.000
40.63853 25.000
40.65848 21.000
40.67843 20.000
40.69837 28.000
40.71832 23.000
40.73827 19.000
40.75822 32.000
40.77816 18.000
40.79811 13.000
40.81806 27.000
40.83800 11.000
40.85795 24.000
40.87790 36.000
40.89784 23.000
40.91779 18.000
40.93774 19.000
40.95768 23.000
40.97763 18.000
40.99758 29.000
41.01753 29.000
41.03747 30.000
41.05742 28.000
41.07737 25.000
41.09731 35.000
41.11726 30.000
41.13721 42.000
41.15715 48.000
41.17710 34.000
41.19705 40.000
41.21700 35.000
41.23694 49.000
41.25689 27.000
41.27684 38.000
41.29678 40.000
41.31673 48.000
41.33668 58.000
41.35662 65.000
41.37657 80.000
41.39652 94.000
41.41646 99.000
41.43641 139.000
41.45636 158.000
41.47631 156.000
41.49625 182.000
41.51620 134.000
41.53615 185.000
41.55609 154.000
41.57604 150.000
41.59599 138.000
41.61593 120.000
41.63588 94.000
41.65583 95.000
41.67578 93.000
41.69572 62.000
41.71567 63.000
41.73562 50.000
41.75556 48.000
41.77551 42.000
41.79546 42.000
41.81540 33.000
41.83535 40.000
41.85530 35.000
41.87524 25.000
41.89519 34.000
41.91514 31.000
41.93509 28.000
41.95503 34.000
41.97498 30.000
41.99493 25.000
42.01487 34.000
42.03482 17.000
42.05477 19.000
42.07471 29.000
42.09466 28.000
42.11461 26.000
42.13456 27.000
42.15450 28.000
42.17445 24.000
42.19440 35.000
42.21434 27.000
42.23429 28.000
42.25424 24.000
42.27418 35.000
42.29413 31.000
42.31408 26.000
42.33403 25.000
42.35397 35.000
42.37392 21.000
42.39387 30.000
42.41381 31.000
42.43376 25.000
42.45371 33.000
42.47365 38.000
42.49360 33.000
42.51355 30.000
42.53349 34.000
42.55344 30.000
42.57339 26.000
42.59334 44.000
42.61328 40.000
42.63323 43.000
42.65318 28.000
42.67312 39.000
42.69307 32.000
42.71302 24.000
42.73296 43.000
42.75291 43.000
42.77286 45.000
42.79281 42.000
42.81275 53.000
42.83270 46.000
42.85265 65.000
42.87259 54.000
42.89254 71.000
42.91249 76.000
42.93243 88.000
42.95238 90.000
42.97233 162.000
42.99227 202.000
43.01222 276.000
43.03217 361.000
43.05212 392.000
43.07206 405.000
43.09201 456.000
43.11196 424.000
43.13190 405.000
43.15185 387.000
43.17180 354.000
43.19174 352.000
43.21169 289.000
43.23164 256.000
43.25159 209.000
43.27153 183.000
43.29148 151.000
43.31143 119.000
43.33137 103.000
43.35132 96.000
43.37127 59.000
43.39121 59.000
43.41116 43.000
43.43111 47.000
43.45105 40.000
43.47100 34.000
43.49095 35.000
43.51090 46.000
43.53084 38.000
43.55079 36.000
43.57074 26.000
43.59068 27.000
43.61063 34.000
43.63058 28.000
43.65052 35.000
43.67047 30.000
43.69042 25.000
43.71037 28.000
43.73031 28.000
43.75026 29.000
43.77021 39.000
43.79015 32.000
43.81010 31.000
43.83005 25.000
43.84999 19.000
43.86994 30.000
43.88989 27.000
43.90984 27.000
43.92978 29.000
43.94973 23.000
43.96968 26.000
43.98962 26.000
44.00957 34.000
44.02952 21.000
44.04946 23.000
44.06941 35.000
44.08936 35.000
44.10930 26.000
44.12925 22.000
44.14920 39.000
44.16915 33.000
44.18909 36.000
44.20904 33.000
44.22899 32.000
44.24893 31.000
44.26888 35.000
44.28883 33.000
44.30877 36.000
44.32872 40.000
44.34867 33.000
44.36862 54.000
44.38856 70.000
44.40851 51.000
44.42846 49.000
44.44840 71.000
44.46835 68.000
44.48830 75.000
44.50824 82.000
44.52819 102.000
44.54814 125.000
44.56808 168.000
44.58803 202.000
44.60798 266.000
44.62793 266.000
44.64787 346.000
44.66782 342.000
44.68777 326.000
44.70771 308.000
44.72766 350.000
44.74761 278.000
44.76755 264.000
44.78750 228.000
44.80745 225.000
44.82740 200.000
44.84734 137.000
44.86729 125.000
44.88724 115.000
44.90718 81.000
44.92713 78.000
44.94708 67.000
44.96702 57.000
44.98697 51.000
45.00692 40.000
45.02686 35.000
45.04681 38.000
45.06676 28.000
45.08671 27.000
45.10665 32.000
45.12660 27.000
45.14655 29.000
45.16649 22.000
45.18644 31.000
45.20639 24.000
45.22633 27.000
45.24628 26.000
45.26623 16.000
45.28618 23.000
45.30612 29.000
45.32607 23.000
45.34602 30.000
45.36596 30.000
45.38591 18.000
45.40586 22.000
45.42580 22.000
45.44575 24.000
45.46570 22.000
45.48565 25.000
45.50559 21.000
45.52554 12.000
45.54549 25.000
45.56543 19.000
45.58538 17.000
45.60533 21.000
45.62527 23.000
45.64522 30.000
45.66517 23.000
45.68511 16.000
45.70506 23.000
45.72501 27.000
45.74496 24.000
45.76490 17.000
45.78485 19.000
45.80480 25.000
45.82474 23.000
45.84469 33.000
45.86464 21.000
45.88458 24.000
45.90453 21.000
45.92448 26.000
45.94443 22.000
45.96437 22.000
45.98432 17.000
46.00427 14.000
46.02421 23.000
46.04416 23.000
46.06411 35.000
46.08405 21.000
46.10400 39.000
46.12395 27.000
46.14389 33.000
46.16384 23.000
46.18379 31.000
46.20374 28.000
46.22368 27.000
46.24363 32.000
46.26358 33.000
46.28352 29.000
46.30347 19.000
46.32342 30.000
46.34336 29.000
46.36331 28.000
46.38326 23.000
46.40321 27.000
46.42315 22.000
46.44310 21.000
46.46305 36.000
46.48299 32.000
46.50294 31.000
46.52289 35.000
46.54283 33.000
46.56278 36.000
46.58273 35.000
46.60267 40.000
46.62262 32.000
46.64257 34.000
46.66252 24.000
46.68246 27.000
46.70241 25.000
46.72236 29.000
46.74230 23.000
46.76225 23.000
46.78220 29.000
46.80214 19.000
46.82209 32.000
46.84204 17.000
46.86199 33.000
46.88193 21.000
46.90188 24.000
46.92183 23.000
46.94177 17.000
46.96172 27.000
46.98167 32.000
47.00161 17.000
47.02156 33.000
47.04151 32.000
47.06146 37.000
47.08140 20.000
47.10135 35.000
47.12130 22.000
47.14124 26.000
47.16119 29.000
47.18114 37.000
47.20108 25.000
47.22103 31.000
47.24098 25.000
47.26092 25.000
47.28087 24.000
47.30082 21.000
47.32077 24.000
47.34071 33.000
47.36066 31.000
47.38061 37.000
47.40055 22.000
47.42050 22.000
47.44045 25.000
47.46039 33.000
47.48034 33.000
47.50029 27.000
47.52024 41.000
47.54018 32.000
47.56013 42.000
47.58008 31.000
47.60002 30.000
47.61997 35.000
47.63992 29.000
47.65986 41.000
47.67981 34.000
47.69976 41.000
47.71970 47.000
47.73965 40.000
47.75960 43.000
47.77955 43.000
47.79949 49.000
47.81944 40.000
47.83939 43.000
47.85933 50.000
47.87928 54.000
47.89923 67.000
47.91917 64.000
47.93912 69.000
47.95907 64.000
47.97902 64.000
47.99896 75.000
48.01891 91.000
48.03886 105.000
48.05880 101.000
48.07875 112.000
48.09870 126.000
48.11864 130.000
48.13859 161.000
48.15854 196.000
48.17848 198.000
48.19843 260.000
48.21838 366.000
48.23833 520.000
48.25827 677.000
48.27822 807.000
48.29817 939.000
48.31811 928.000
48.33806 878.000
48.35801 827.000
48.37795 803.000
48.39790 754.000
48.41785 727.000
48.43780 657.000
48.45774 615.000
48.47769 504.000
48.49764 403.000
48.51758 366.000
48.53753 303.000
48.55748 280.000
48.57742 213.000
48.59737 178.000
48.61732 139.000
48.63726 128.000
48.65721 103.000
48.67716 118.000
48.69711 78.000
48.71705 69.000
48.73700 78.000
48.75695 69.000
48.77689 68.000
48.79684 53.000
48.81679 58.000
48.83673 41.000
48.85668 54.000
48.87663 50.000
48.89658 54.000
48.91652 37.000
48.93647 45.000
48.95642 41.000
48.97636 37.000
48.99631 43.000
49.01626 32.000
49.03620 41.000
49.05615 39.000
49.07610 43.000
49.09605 44.000
49.11599 38.000
49.13594 27.000
49.15589 25.000
49.17583 26.000
49.19578 25.000
49.21573 27.000
49.23567 34.000
49.25562 35.000
49.27557 36.000
49.29551 28.000
49.31546 27.000
49.33541 25.000
49.35536 27.000
49.37530 22.000
49.39525 28.000
49.41520 30.000
49.43514 32.000
49.45509 22.000
49.47504 33.000
49.49498 18.000
49.51493 24.000
49.53488 23.000
49.55483 34.000
49.57477 29.000
49.59472 21.000
49.61467 33.000
49.63461 28.000
49.65456 22.000
49.67451 23.000
49.69445 24.000
49.71440 21.000
49.73435 20.000
49.75429 19.000
49.77424 22.000
49.79419 22.000
49.81414 21.000
49.83408 22.000
49.85403 25.000
49.87398 21.000
49.89392 14.000
49.91387 26.000
49.93382 27.000
49.95376 29.000
49.97371 24.000
49.99366 23.000
50.01361 18.000
50.03355 24.000
50.05350 13.000
50.07345 18.000
50.09339 30.000
50.11334 11.000
50.13329 25.000
50.15323 18.000
50.17318 20.000
50.19313 21.000
50.21307 15.000
50.23302 16.000
50.25297 18.000
50.27292 25.000
50.29286 11.000
50.31281 8.000
50.33276 20.000
50.35270 15.000
50.37265 17.000
50.39260 20.000
50.41254 21.000
50.43249 11.000
50.45244 18.000
50.47239 16.000
50.49233 15.000
50.51228 18.000
50.53223 18.000
50.55217 17.000
50.57212 14.000
50.59207 15.000
50.61201 17.000
50.63196 24.000
50.65191 18.000
50.67186 23.000
50.69180 20.000
50.71175 17.000
50.73170 24.000
50.75164 25.000
50.77159 25.000
50.79154 15.000
50.81148 21.000
50.83143 25.000
50.85138 19.000
50.87132 16.000
50.89127 21.000
50.91122 15.000
50.93117 16.000
50.95111 14.000
50.97106 14.000
50.99101 19.000
51.01095 23.000
51.03090 19.000
51.05085 21.000
51.07079 14.000
51.09074 19.000
51.11069 23.000
51.13064 17.000
51.15058 21.000
51.17053 16.000
51.19048 24.000
51.21042 16.000
51.23037 19.000
51.25032 15.000
51.27026 17.000
51.29021 15.000
51.31016 19.000
51.33010 15.000
51.35005 21.000
51.37000 17.000
51.38995 25.000
51.40989 18.000
51.42984 15.000
51.44979 13.000
51.46973 12.000
51.48968 18.000
51.50963 16.000
51.52957 21.000
51.54952 11.000
51.56947 23.000
51.58942 13.000
51.60936 11.000
51.62931 15.000
51.64926 17.000
51.66920 23.000
51.68915 16.000
51.70910 16.000
51.72904 16.000
51.74899 23.000
51.76894 22.000
51.78888 21.000
51.80883 15.000
51.82878 17.000
51.84873 25.000
51.86867 28.000
51.88862 15.000
51.90857 25.000
51.92851 19.000
51.94846 23.000
51.96841 21.000
51.98835 22.000
52.00830 24.000
52.02825 23.000
52.04820 26.000
52.06814 33.000
52.08809 33.000
52.10804 28.000
52.12798 21.000
52.14793 40.000
52.16788 43.000
52.18782 54.000
52.20777 73.000
52.22772 79.000
52.24767 80.000
52.26761 96.000
52.28756 106.000
52.30751 101.000
52.32745 86.000
52.34740 61.000
52.36735 79.000
52.38729 93.000
52.40724 82.000
52.42719 76.000
52.44713 51.000
52.46708 69.000
52.48703 59.000
52.50698 48.000
52.52692 45.000
52.54687 66.000
52.56682 46.000
52.58676 56.000
52.60671 55.000
52.62666 34.000
52.64660 49.000
52.66655 49.000
52.68650 32.000
52.70645 43.000
52.72639 47.000
52.74634 29.000
52.76629 30.000
52.78623 32.000
52.80618 29.000
52.82613 20.000
52.84607 18.000
52.86602 21.000
52.88597 28.000
52.90591 16.000
52.92586 19.000
52.94581 22.000
52.96576 23.000
52.98570 20.000
53.00565 17.000
53.02560 19.000
53.04554 24.000
53.06549 16.000
53.08544 12.000
53.10538 11.000
53.12533 13.000
53.14528 23.000
53.16523 22.000
53.18517 15.000
53.20512 15.000
53.22507 22.000
53.24501 22.000
53.26496 20.000
53.28491 22.000
53.30485 19.000
53.32480 15.000
53.34475 18.000
53.36469 18.000
53.38464 19.000
53.40459 13.000
53.42454 20.000
53.44448 15.000
53.46443 27.000
53.48438 22.000
53.50432 32.000
53.52427 38.000
53.54422 22.000
53.56416 17.000
53.58411 22.000
53.60406 21.000
53.62401 16.000
53.64395 25.000
53.66390 17.000
53.68385 20.000
53.70379 17.000
53.72374 27.000
53.74369 22.000
53.76363 19.000
53.78358 19.000
53.80353 15.000
53.82348 22.000
53.84342 17.000
53.86337 23.000
53.88332 22.000
53.90326 12.000
53.92321 12.000
53.94316 17.000
53.96310 26.000
53.98305 11.000
54.00300 22.000
54.02294 18.000
54.04289 21.000
54.06284 14.000
54.08279 12.000
54.10273 26.000
54.12268 22.000
54.14263 17.000
54.16257 22.000
54.18252 17.000
54.20247 8.000
54.22241 16.000
54.24236 22.000
54.26231 12.000
54.28226 20.000
54.30220 19.000
54.32215 23.000
54.34210 20.000
54.36204 15.000
54.38199 16.000
54.40194 17.000
54.42188 15.000
54.44183 15.000
54.46178 17.000
54.48172 15.000
54.50167 17.000
54.52162 16.000
54.54157 14.000
54.56151 10.000
54.58146 19.000
54.60141 16.000
54.62135 20.000
54.64130 16.000
54.66125 28.000
54.68119 21.000
54.70114 23.000
54.72109 22.000
54.74104 26.000
54.76098 29.000
54.78093 19.000
54.80088 17.000
54.82082 14.000
54.84077 16.000
54.86072 14.000
54.88066 16.000
54.90061 16.000
54.92056 14.000
54.94050 21.000
54.96045 17.000
54.98040 13.000
55.00035 24.000
55.02029 23.000
55.04024 21.000
55.06019 18.000
55.08013 17.000
55.10008 16.000
55.12003 12.000
55.13997 20.000
55.15992 13.000
55.17987 11.000
55.19982 19.000
55.21976 17.000
55.23971 18.000
55.25966 12.000
55.27960 18.000
55.29955 16.000
55.31950 22.000
55.33944 15.000
55.35939 23.000
55.37934 17.000
55.39929 16.000
55.41923 22.000
55.43918 17.000
55.45913 17.000
55.47907 15.000
55.49902 23.000
55.51897 27.000
55.53891 24.000
55.55886 15.000
55.57881 15.000
55.59875 18.000
55.61870 13.000
55.63865 15.000
55.65860 14.000
55.67854 19.000
55.69849 20.000
55.71844 25.000
55.73838 12.000
55.75833 19.000
55.77828 14.000
55.79822 13.000
55.81817 16.000
55.83812 13.000
55.85807 8.000
55.87801 9.000
55.89796 19.000
55.91791 24.000
55.93785 16.000
55.95780 19.000
55.97775 12.000
55.99769 25.000
56.01764 15.000
56.03759 18.000
56.05753 14.000
56.07748 14.000
56.09743 18.000
56.11738 17.000
56.13732 27.000
56.15727 29.000
56.17722 23.000
56.19716 28.000
56.21711 24.000
56.23706 19.000
56.25700 34.000
56.27695 26.000
56.29690 26.000
56.31685 29.000
56.33679 32.000
56.35674 26.000
56.37669 26.000
56.39663 28.000
56.41658 24.000
56.43653 28.000
56.45647 34.000
56.47642 28.000
56.49637 31.000
56.51631 34.000
56.53626 49.000
56.55621 44.000
56.57616 50.000
56.59610 55.000
56.61605 64.000
56.63600 75.000
56.65594 87.000
56.67589 84.000
56.69584 65.000
56.71578 79.000
56.73573 66.000
56.75568 72.000
56.77563 65.000
56.79557 64.000
56.81552 57.000
56.83547 35.000
56.85541 44.000
56.87536 32.000
56.89531 38.000
56.91525 46.000
56.93520 37.000
56.95515 32.000
56.97510 44.000
56.99504 44.000
57.01499 28.000
57.03494 31.000
57.05488 29.000
57.07483 33.000
57.09478 29.000
57.11472 42.000
57.13467 35.000
57.15462 35.000
57.17456 41.000
57.19451 49.000
57.21446 36.000
57.23441 51.000
57.25435 34.000
57.27430 42.000
57.29425 30.000
57.31419 29.000
57.33414 36.000
57.35409 27.000
57.37403 28.000
57.39398 29.000
57.41393 28.000
57.43388 34.000
57.45382 27.000
57.47377 23.000
57.49372 19.000
57.51366 18.000
57.53361 13.000
57.55356 16.000
57.57350 18.000
57.59345 21.000
57.61340 23.000
57.63334 16.000
57.65329 20.000
57.67324 23.000
57.69319 18.000
57.71313 13.000
57.73308 17.000
57.75303 19.000
57.77297 11.000
57.79292 13.000
57.81287 19.000
57.83281 16.000
57.85276 23.000
57.87271 17.000
57.89266 15.000
57.91260 16.000
57.93255 19.000
57.95250 15.000
57.97244 28.000
57.99239 12.000
58.01234 18.000
58.03228 19.000
58.05223 13.000
58.07218 16.000
58.09212 22.000
58.11207 17.000
58.13202 17.000
58.15197 13.000
58.17191 16.000
58.19186 15.000
58.21181 17.000
58.23175 15.000
58.25170 23.000
58.27165 19.000
58.29159 17.000
58.31154 12.000
58.33149 26.000
58.35144 20.000
58.37138 18.000
58.39133 17.000
58.41128 15.000
58.43122 17.000
58.45117 21.000
58.47112 17.000
58.49106 26.000
58.51101 12.000
58.53096 18.000
58.55090 26.000
58.57085 21.000
58.59080 26.000
58.61075 27.000
58.63069 29.000
58.65064 19.000
58.67059 23.000
58.69053 26.000
58.71048 25.000
58.73043 25.000
58.75037 32.000
58.77032 21.000
58.79027 14.000
58.81022 24.000
58.83016 21.000
58.85011 20.000
58.87006 16.000
58.89000 19.000
58.90995 23.000
58.92990 21.000
58.94984 19.000
58.96979 17.000
58.98974 25.000
59.00969 22.000
59.02963 20.000
59.04958 16.000
59.06953 17.000
59.08947 8.000
59.10942 25.000
59.12937 18.000
59.14931 23.000
59.16926 28.000
59.18921 20.000
59.20915 21.000
59.22910 23.000
59.24905 17.000
59.26900 22.000
59.28894 24.000
59.30889 23.000
59.32884 15.000
59.34878 19.000
59.36873 27.000
59.38868 9.000
59.40862 25.000
59.42857 15.000
59.44852 21.000
59.46847 20.000
59.48841 18.000
59.50836 9.000
59.52831 13.000
59.54825 22.000
59.56820 12.000
59.58815 23.000
59.60809 12.000
59.62804 20.000
59.64799 18.000
59.66793 21.000
59.68788 16.000
59.70783 22.000
59.72778 16.000
59.74772 24.000
59.76767 23.000
59.78762 16.000
59.80756 16.000
59.82751 8.000
59.84746 24.000
59.86740 23.000
59.88735 23.000
59.90730 22.000
59.92725 20.000
59.94719 19.000
59.96714 21.000
59.98709 14.000
60.00703 18.000
60.02698 20.000
60.04693 26.000
60.06687 23.000
60.08682 27.000
60.10677 15.000
60.12671 25.000
60.14666 24.000
60.16661 27.000
60.18656 17.000
60.20650 25.000
60.22645 22.000
60.24640 18.000
60.26634 23.000
60.28629 23.000
60.30624 25.000
60.32618 25.000
60.34613 23.000
60.36608 21.000
60.38603 24.000
60.40597 20.000
60.42592 21.000
60.44587 33.000
60.46581 24.000
60.48576 26.000
60.50571 17.000
60.52565 25.000
60.54560 22.000
60.56555 36.000
60.58550 27.000
60.60544 34.000
60.62539 28.000
60.64534 33.000
60.66528 23.000
60.68523 20.000
60.70518 28.000
60.72512 30.000
60.74507 30.000
60.76502 31.000
60.78496 35.000
60.80491 38.000
60.82486 26.000
60.84481 31.000
60.86475 30.000
60.88470 40.000
60.90465 21.000
60.92459 45.000
60.94454 33.000
60.96449 42.000
60.98443 30.000
61.00438 33.000
61.02433 35.000
61.04428 34.000
61.06422 51.000
61.08417 39.000
61.10412 46.000
61.12406 49.000
61.14401 50.000
61.16396 54.000
61.18390 66.000
61.20385 59.000
61.22380 88.000
61.24374 75.000
61.26369 103.000
61.28364 122.000
61.30359 155.000
61.32353 191.000
61.34348 230.000
61.36343 281.000
61.38337 306.000
61.40332 355.000
61.42327 337.000
61.44321 361.000
61.46316 350.000
61.48311 353.000
61.50306 286.000
61.52300 332.000
61.54295 298.000
61.56290 287.000
61.58284 271.000
61.60279 293.000
61.62274 238.000
61.64268 196.000
61.66263 192.000
61.68258 164.000
61.70252 149.000
61.72247 116.000
61.74242 131.000
61.76237 111.000
61.78231 84.000
61.80226 79.000
61.82221 79.000
61.84215 44.000
61.86210 66.000
61.88205 50.000
61.90199 55.000
61.92194 45.000
61.94189 60.000
61.96184 50.000
61.98178 43.000
62.00173 51.000
62.02168 33.000
62.04162 44.000
62.06157 38.000
62.08152 37.000
62.10146 46.000
62.12141 29.000
62.14136 38.000
62.16131 35.000
62.18125 28.000
62.20120 22.000
62.22115 31.000
62.24109 36.000
62.26104 22.000
62.28099 27.000
62.30093 24.000
62.32088 27.000
62.34083 22.000
62.36077 29.000
62.38072 34.000
62.40067 22.000
62.42062 24.000
62.44056 22.000
62.46051 20.000
62.48046 36.000
62.50040 32.000
62.52035 25.000
62.54030 33.000
62.56024 30.000
62.58019 26.000
62.60014 36.000
62.62009 23.000
62.64003 37.000
62.65998 31.000
62.67993 29.000
62.69987 46.000
62.71982 22.000
62.73977 34.000
62.75971 36.000
62.77966 31.000
62.79961 41.000
62.81955 38.000
62.83950 34.000
62.85945 35.000
62.87940 38.000
62.89934 37.000
62.91929 34.000
62.93924 41.000
62.95918 31.000
62.97913 45.000
62.99908 50.000
63.01902 44.000
63.03897 38.000
63.05892 45.000
63.07887 44.000
63.09881 34.000
63.11876 40.000
63.13871 42.000
63.15865 29.000
63.17860 39.000
63.19855 33.000
63.21849 39.000
63.23844 47.000
63.25839 39.000
63.27833 56.000
63.29828 58.000
63.31823 48.000
63.33818 45.000
63.35812 61.000
63.37807 54.000
63.39802 53.000
63.41796 72.000
63.43791 87.000
63.45786 78.000
63.47780 96.000
63.49775 122.000
63.51770 135.000
63.53765 170.000
63.55759 194.000
63.57754 240.000
63.59749 284.000
63.61743 317.000
63.63738 340.000
63.65733 367.000
63.67727 383.000
63.69722 393.000
63.71717 376.000
63.73712 319.000
63.75706 356.000
63.77701 320.000
63.79696 278.000
63.81690 307.000
63.83685 253.000
63.85680 288.000
63.87674 222.000
63.89669 220.000
63.91664 207.000
63.93658 165.000
63.95653 179.000
63.97648 121.000
63.99643 112.000
64.01637 84.000
64.03632 89.000
64.05627 72.000
64.07621 52.000
64.09616 53.000
64.11611 58.000
64.13605 50.000
64.15600 59.000
64.17595 48.000
64.19590 32.000
64.21584 35.000
64.23579 33.000
64.25574 20.000
64.27568 34.000
64.29563 28.000
64.31558 27.000
64.33552 31.000
64.35547 23.000
64.37542 32.000
64.39536 24.000
64.41531 21.000
64.43526 15.000
64.45521 24.000
64.47515 19.000
64.49510 34.000
64.51505 27.000
64.53499 17.000
64.55494 27.000
64.57489 33.000
64.59483 29.000
64.61478 25.000
64.63473 21.000
64.65468 33.000
64.67462 20.000
64.69457 11.000
64.71452 31.000
64.73446 20.000
64.75441 27.000
64.77436 29.000
64.79430 25.000
64.81425 18.000
64.83420 26.000
64.85414 21.000
64.87409 16.000
64.89404 26.000
64.91399 26.000
64.93393 17.000
64.95388 18.000
64.97383 25.000
64.99377 20.000
65.01372 23.000
65.03367 36.000
65.05361 22.000
65.07356 24.000
65.09351 22.000
65.11346 21.000
65.13340 21.000
65.15335 22.000
65.17330 25.000
65.19324 15.000
65.21319 29.000
65.23314 23.000
65.25308 30.000
65.27303 29.000
65.29298 22.000
65.31293 30.000
65.33287 22.000
65.35282 21.000
65.37277 36.000
65.39271 28.000
65.41266 30.000
65.43261 30.000
65.45255 31.000
65.47250 31.000
65.49245 42.000
65.51239 35.000
65.53234 43.000
65.55229 39.000
65.57224 43.000
65.59218 29.000
65.61213 43.000
65.63208 44.000
65.65202 47.000
65.67197 48.000
65.69192 44.000
65.71186 53.000
65.73181 53.000
65.75176 52.000
65.77171 54.000
65.79165 61.000
65.81160 84.000
65.83155 81.000
65.85149 85.000
65.87144 113.000
65.89139 118.000
65.91133 148.000
65.93128 151.000
65.95123 195.000
65.97117 227.000
65.99112 249.000
66.01107 238.000
66.03102 257.000
66.05096 256.000
66.07091 270.000
66.09086 262.000
66.11080 233.000
66.13075 260.000
66.15070 256.000
66.17064 246.000
66.19059 251.000
66.21054 237.000
66.23049 237.000
66.25043 231.000
66.27038 190.000
66.29033 186.000
66.31027 173.000
66.33022 156.000
66.35017 182.000
66.37011 173.000
66.39006 122.000
66.41001 131.000
66.42995 123.000
66.44990 121.000
66.46985 93.000
66.48980 91.000
66.50974 88.000
66.52969 90.000
66.54964 82.000
66.56958 77.000
66.58953 51.000
66.60948 54.000
66.62942 49.000
66.64937 38.000
66.66932 34.000
66.68927 49.000
66.70921 45.000
66.72916 34.000
66.74911 27.000
66.76905 19.000
66.78900 24.000
66.80895 27.000
66.82889 21.000
66.84884 26.000
66.86879 24.000
66.88874 17.000
66.90868 14.000
66.92863 21.000
66.94858 20.000
66.96852 16.000
66.98847 23.000
67.00842 24.000
67.02836 21.000
67.04831 24.000
67.06826 20.000
67.08820 16.000
67.10815 15.000
67.12810 28.000
67.14805 31.000
67.16799 25.000
67.18794 30.000
67.20789 18.000
67.22783 16.000
67.24778 18.000
67.26773 25.000
67.28767 13.000
67.30762 20.000
67.32757 17.000
67.34752 16.000
67.36746 33.000
67.38741 28.000
67.40736 17.000
67.42730 22.000
67.44725 24.000
67.46720 17.000
67.48714 19.000
67.50709 21.000
67.52704 22.000
67.54698 21.000
67.56693 28.000
67.58688 18.000
67.60683 20.000
67.62677 21.000
67.64672 18.000
67.66667 24.000
67.68661 23.000
67.70656 18.000
67.72651 21.000
67.74645 23.000
67.76640 13.000
67.78635 14.000
67.80630 12.000
67.82624 15.000
67.84619 17.000
67.86614 17.000
67.88608 18.000
67.90603 18.000
67.92598 14.000
67.94592 16.000
67.96587 15.000
67.98582 20.000
68.00576 10.000
68.02571 16.000
68.04566 20.000
68.06561 14.000
68.08555 12.000
68.10550 6.000
68.12545 17.000
68.14539 17.000
68.16534 14.000
68.18529 18.000
68.20523 19.000
68.22518 14.000
68.24513 11.000
68.26508 16.000
68.28502 14.000
68.30497 11.000
68.32492 15.000
68.34486 8.000
68.36481 11.000
68.38476 17.000
68.40470 6.000
68.42465 16.000
68.44460 13.000
68.46455 17.000
68.48449 10.000
68.50444 16.000
68.52439 17.000
68.54433 17.000
68.56428 18.000
68.58423 7.000
68.60417 13.000
68.62412 18.000
68.64407 26.000
68.66401 13.000
68.68396 20.000
68.70391 14.000
68.72386 14.000
68.74380 13.000
68.76375 12.000
68.78370 17.000
68.80364 12.000
68.82359 21.000
68.84354 15.000
68.86348 13.000
68.88343 13.000
68.90338 16.000
68.92333 17.000
68.94327 15.000
68.96322 15.000
68.98317 18.000
69.00311 14.000
69.02306 20.000
69.04301 23.000
69.06295 13.000
69.08290 20.000
69.10285 17.000
69.12279 23.000
69.14274 22.000
69.16269 22.000
69.18264 19.000
69.20258 26.000
69.22253 14.000
69.24248 26.000
69.26242 21.000
69.28237 16.000
69.30232 14.000
69.32226 24.000
69.34221 23.000
69.36216 21.000
69.38211 14.000
69.40205 17.000
69.42200 16.000
69.44195 18.000
69.46189 12.000
69.48184 22.000
69.50179 13.000
69.52173 12.000
69.54168 14.000
69.56163 17.000
69.58157 14.000
69.60152 13.000
69.62147 11.000
69.64142 11.000
69.66136 16.000
69.68131 18.000
69.70126 20.000
69.72120 9.000
69.74115 18.000
69.76110 11.000
69.78104 15.000
69.80099 14.000
69.82094 18.000
69.84089 10.000
69.86083 15.000
69.88078 18.000
69.90073 18.000
69.92067 14.000
69.94062 10.000
69.96057 16.000
69.98051 13.000
70.00046 13.000
70.02041 16.000
70.04035 15.000
70.06030 14.000
70.08025 12.000
70.10020 9.000
70.12014 17.000
70.14009 16.000
70.16004 8.000
70.17998 16.000
70.19993 12.000
70.21988 11.000
70.23982 13.000
70.25977 11.000
70.27972 10.000
70.29967 9.000
70.31961 15.000
70.33956 14.000
70.35951 10.000
70.37945 16.000
70.39940 6.000
70.41935 9.000
70.43929 18.000
70.45924 11.000
70.47919 17.000
70.49914 13.000
70.51908 15.000
70.53903 14.000
70.55898 8.000
70.57892 9.000
70.59887 13.000
70.61882 9.000
70.63876 18.000
70.65871 10.000
70.67866 13.000
70.69860 23.000
70.71855 13.000
70.73850 12.000
70.75845 15.000
70.77839 13.000
70.79834 7.000
70.81829 6.000
70.83823 14.000
70.85818 18.000
70.87813 8.000
70.89807 13.000
70.91802 6.000
70.93797 17.000
70.95792 16.000
70.97786 12.000
70.99781 8.000
71.01776 17.000
71.03770 10.000
71.05765 10.000
71.07760 12.000
71.09754 10.000
71.11749 15.000
71.13744 7.000
71.15738 16.000
71.17733 12.000
71.19728 14.000
71.21723 20.000
71.23717 8.000
71.25712 16.000
71.27707 19.000
71.29701 16.000
71.31696 14.000
71.33691 14.000
71.35685 17.000
71.37680 17.000
71.39675 16.000
71.41670 13.000
71.43664 13.000
71.45659 11.000
71.47654 19.000
71.49648 17.000
71.51643 17.000
71.53638 18.000
71.55632 14.000
71.57627 22.000
71.59622 16.000
71.61616 25.000
71.63611 23.000
71.65606 20.000
71.67601 24.000
71.69595 31.000
71.71590 20.000
71.73585 22.000
71.75579 24.000
71.77574 18.000
71.79569 26.000
71.81563 17.000
71.83558 23.000
71.85553 15.000
71.87548 23.000
71.89542 7.000
71.91537 18.000
71.93532 18.000
71.95526 12.000
71.97521 22.000
71.99516 14.000
72.01510 15.000
72.03505 20.000
72.05500 21.000
72.07495 20.000
72.09489 15.000
72.11484 11.000
72.13479 13.000
72.15473 14.000
72.17468 20.000
72.19463 15.000
72.21457 20.000
72.23452 19.000
72.25447 11.000
72.27441 11.000
72.29436 16.000
72.31431 16.000
72.33426 29.000
72.35420 15.000
72.37415 17.000
72.39410 27.000
72.41404 13.000
72.43399 26.000
72.45394 28.000
72.47388 25.000
72.49383 20.000
72.51378 33.000
72.53373 31.000
72.55367 27.000
72.57362 31.000
72.59357 37.000
72.61351 26.000
72.63346 29.000
72.65341 30.000
72.67335 47.000
72.69330 43.000
72.71325 48.000
72.73319 56.000
72.75314 68.000
72.77309 85.000
72.79304 86.000
72.81298 99.000
72.83293 107.000
72.85288 122.000
72.87282 132.000
72.89277 116.000
72.91272 111.000
72.93266 139.000
72.95261 114.000
72.97256 98.000
72.99251 83.000
73.01245 89.000
73.03240 99.000
73.05235 106.000
73.07229 88.000
73.09224 102.000
73.11219 86.000
73.13213 77.000
73.15208 66.000
73.17203 59.000
73.19197 53.000
73.21192 51.000
73.23187 44.000
73.25182 41.000
73.27176 34.000
73.29171 35.000
73.31166 35.000
73.33160 22.000
73.35155 16.000
73.37150 31.000
73.39144 17.000
73.41139 31.000
73.43134 19.000
73.45129 21.000
73.47123 23.000
73.49118 20.000
73.51113 23.000
73.53107 16.000
73.55102 17.000
73.57097 13.000
73.59091 21.000
73.61086 23.000
73.63081 17.000
73.65076 17.000
73.67070 14.000
73.69065 14.000
73.71060 16.000
73.73054 15.000
73.75049 14.000
73.77044 18.000
73.79038 22.000
73.81033 15.000
73.83028 18.000
73.85022 19.000
73.87017 10.000
73.89012 8.000
73.91007 8.000
73.93001 7.000
73.94996 15.000
73.96991 14.000
73.98985 18.000
74.00980 23.000
74.02975 10.000
74.04969 15.000
74.06964 18.000
74.08959 11.000
74.10954 19.000
74.12948 17.000
74.14943 19.000
74.16938 12.000
74.18932 17.000
74.20927 15.000
74.22922 26.000
74.24916 16.000
74.26911 20.000
74.28906 12.000
74.30900 13.000
74.32895 18.000
74.34890 14.000
74.36885 14.000
74.38879 17.000
74.40874 11.000
74.42869 8.000
74.44863 22.000
74.46858 19.000
74.48853 14.000
74.50847 18.000
74.52842 7.000
74.54837 23.000
74.56832 16.000
74.58826 16.000
74.60821 12.000
74.62816 21.000
74.64810 13.000
74.66805 13.000
74.68800 22.000
74.70794 18.000
74.72789 16.000
74.74784 23.000
74.76778 16.000
74.78773 18.000
74.80768 21.000
74.82763 26.000
74.84757 16.000
74.86752 19.000
74.88747 31.000
74.90741 30.000
74.92736 39.000
74.94731 36.000
74.96725 44.000
74.98720 50.000
75.00715 41.000
75.02710 56.000
75.04704 47.000
75.06699 49.000
75.08694 51.000
75.10688 36.000
75.12683 68.000
75.14678 58.000
75.16672 49.000
75.18667 48.000
75.20662 51.000
75.22657 34.000
75.24651 38.000
75.26646 40.000
75.28641 35.000
75.30635 40.000
75.32630 28.000
75.34625 46.000
75.36619 36.000
75.38614 33.000
75.40609 32.000
75.42603 44.000
75.44598 26.000
75.46593 26.000
75.48588 24.000
75.50582 15.000
75.52577 27.000
75.54572 17.000
75.56566 16.000
75.58561 36.000
75.60556 35.000
75.62550 21.000
75.64545 13.000
75.66540 24.000
75.68535 19.000
75.70529 19.000
75.72524 18.000
75.74519 25.000
75.76513 14.000
75.78508 18.000
75.80503 12.000
75.82497 19.000
75.84492 19.000
75.86487 24.000
75.88481 17.000
75.90476 26.000
75.92471 28.000
75.94466 30.000
75.96460 34.000
75.98455 14.000
76.00450 31.000
76.02444 25.000
76.04439 24.000
76.06434 26.000
76.08428 27.000
76.10423 26.000
76.12418 36.000
76.14413 19.000
76.16407 26.000
76.18402 19.000
76.20397 18.000
76.22391 26.000
76.24386 17.000
76.26381 17.000
76.28375 18.000
76.30370 18.000
76.32365 26.000
76.34359 21.000
76.36354 12.000
76.38349 22.000
76.40344 12.000
76.42338 24.000
76.44333 15.000
76.46328 15.000
76.48322 12.000
76.50317 16.000
76.52312 17.000
76.54306 17.000
76.56301 11.000
76.58296 22.000
76.60291 25.000
76.62285 20.000
76.64280 16.000
76.66275 13.000
76.68269 18.000
76.70264 16.000
76.72259 22.000
76.74253 18.000
76.76248 23.000
76.78243 14.000
76.80238 21.000
76.82232 16.000
76.84227 14.000
76.86222 26.000
76.88216 25.000
76.90211 18.000
76.92206 28.000
76.94200 17.000
76.96195 21.000
76.98190 37.000
77.00184 34.000
77.02179 32.000
77.04174 48.000
77.06169 47.000
77.08163 56.000
77.10158 55.000
77.12153 65.000
77.14147 73.000
77.16142 77.000
77.18137 95.000
77.20131 95.000
77.22126 102.000
77.24121 102.000
77.26116 97.000
77.28110 108.000
77.30105 100.000
77.32100 102.000
77.34094 97.000
77.36089 117.000
77.38084 120.000
77.40078 127.000
77.42073 144.000
77.44068 149.000
77.46062 141.000
77.48057 138.000
77.50052 141.000
77.52047 125.000
77.54041 114.000
77.56036 128.000
77.58031 121.000
77.60025 105.000
77.62020 121.000
77.64015 124.000
77.66009 92.000
77.68004 89.000
77.69999 83.000
77.71994 70.000
77.73988 59.000
77.75983 57.000
77.77978 67.000
77.79972 59.000
77.81967 56.000
77.83962 67.000
77.85956 58.000
77.87951 49.000
77.89946 41.000
77.91940 42.000
77.93935 27.000
77.95930 37.000
77.97925 44.000
77.99919 42.000
78.01914 18.000
78.03909 22.000
78.05903 15.000
78.07898 33.000
78.09893 24.000
78.11887 27.000
78.13882 22.000
78.15877 20.000
78.17872 16.000
78.19866 20.000
78.21861 17.000
78.23856 17.000
78.25850 24.000
78.27845 19.000
78.29840 19.000
78.31834 20.000
78.33829 23.000
78.35824 19.000
78.37819 19.000
78.39813 18.000
78.41808 14.000
78.43803 22.000
78.45797 20.000
78.47792 17.000
78.49787 20.000
78.51781 17.000
78.53776 17.000
78.55771 23.000
78.57765 20.000
78.59760 17.000
78.61755 16.000
78.63750 17.000
78.65744 23.000
78.67739 22.000
78.69734 17.000
78.71728 13.000
78.73723 22.000
78.75718 20.000
78.77712 19.000
78.79707 16.000
78.81702 15.000
78.83697 20.000
78.85691 14.000
78.87686 13.000
78.89681 16.000
78.91675 18.000
78.93670 21.000
78.95665 17.000
78.97659 16.000
78.99654 23.000
79.01649 15.000
79.03643 17.000
79.05638 11.000
79.07633 18.000
79.09628 17.000
79.11622 19.000
79.13617 19.000
79.15612 18.000
79.17606 21.000
79.19601 14.000
79.21596 18.000
79.23590 17.000
79.25585 16.000
79.27580 26.000
79.29575 15.000
79.31569 13.000
79.33564 18.000
79.35559 17.000
79.37553 17.000
79.39548 10.000
79.41543 14.000
79.43537 13.000
79.45532 13.000
79.47527 5.000
79.49521 17.000
79.51516 15.000
79.53511 10.000
79.55506 15.000
79.57500 10.000
79.59495 14.000
79.61490 17.000
79.63484 10.000
79.65479 11.000
79.67474 13.000
79.69468 20.000
79.71463 16.000
79.73458 14.000
79.75453 12.000
79.77447 14.000
79.79442 22.000
79.81437 21.000
79.83431 17.000
79.85426 18.000
79.87421 29.000
79.89415 22.000
79.91410 24.000
79.93405 28.000
79.95399 26.000
79.97394 27.000
79.99389 25.000
80.01384 22.000
80.03378 25.000
80.05373 26.000
80.07368 23.000
80.09362 28.000
80.11357 23.000
80.13352 25.000
80.15346 25.000
80.17341 20.000
80.19336 19.000
80.21331 24.000
80.23325 22.000
80.25320 28.000
80.27315 18.000
80.29309 24.000
80.31304 33.000
80.33299 25.000
80.35293 16.000
80.37288 19.000
80.39283 10.000
80.41278 19.000
80.43272 22.000
80.45267 26.000
80.47262 16.000
80.49256 21.000
80.51251 15.000
80.53246 18.000
80.55240 17.000
80.57235 16.000
80.59230 11.000
80.61224 24.000
80.63219 12.000
80.65214 15.000
80.67209 14.000
80.69203 28.000
80.71198 14.000
80.73193 13.000
80.75187 18.000
80.77182 17.000
80.79177 16.000
80.81171 22.000
80.83166 22.000
80.85161 15.000
80.87156 23.000
80.89150 17.000
80.91145 22.000
80.93140 28.000
80.95134 20.000
80.97129 25.000
80.99124 26.000
81.01118 37.000
81.03113 32.000
81.05108 29.000
81.07102 31.000
81.09097 42.000
81.11092 34.000
81.13087 35.000
81.15081 32.000
81.17076 40.000
81.19071 39.000
81.21065 32.000
81.23060 21.000
81.25055 18.000
81.27049 25.000
81.29044 24.000
81.31039 15.000
81.33034 25.000
81.35028 21.000
81.37023 15.000
81.39018 23.000
81.41012 22.000
81.43007 13.000
81.45002 18.000
81.46996 19.000
81.48991 13.000
81.50986 23.000
81.52980 15.000
81.54975 15.000
81.56970 11.000
81.58965 11.000
81.60959 21.000
81.62954 13.000
81.64949 13.000
81.66943 12.000
81.68938 13.000
81.70933 19.000
81.72927 15.000
81.74922 13.000
81.76917 5.000
81.78912 11.000
81.80906 16.000
81.82901 16.000
81.84896 10.000
81.86890 14.000
81.88885 8.000
81.90880 10.000
81.92874 13.000
81.94869 16.000
81.96864 17.000
81.98859 13.000
82.00853 18.000
82.02848 9.000
82.04843 10.000
82.06837 12.000
82.08832 13.000
82.10827 9.000
82.12821 13.000
82.14816 8.000
82.16811 10.000
82.18805 11.000
82.20800 11.000
82.22795 17.000
82.24790 19.000
82.26784 11.000
82.28779 16.000
82.30774 12.000
82.32768 17.000
82.34763 10.000
82.36758 12.000
82.38752 15.000
82.40747 14.000
82.42742 14.000
82.44737 12.000
82.46731 15.000
82.48726 15.000
82.50721 16.000
82.52715 9.000
82.54710 13.000
82.56705 14.000
82.58699 16.000
82.60694 13.000
82.62689 12.000
82.64683 14.000
82.66678 10.000
82.68673 19.000
82.70668 13.000
82.72662 24.000
82.74657 14.000
82.76652 9.000
82.78646 10.000
82.80641 18.000
82.82636 10.000
82.84630 9.000
82.86625 14.000
82.88620 11.000
82.90615 9.000
82.92609 11.000
82.94604 20.000
82.96599 14.000
82.98593 12.000
83.00588 12.000
83.02583 11.000
83.04577 24.000
83.06572 13.000
83.08567 17.000
83.10561 19.000
83.12556 21.000
83.14551 21.000
83.16546 24.000
83.18540 15.000
83.20535 20.000
83.22530 19.000
83.24524 19.000
83.26519 20.000
83.28514 22.000
83.30508 31.000
83.32503 33.000
83.34498 30.000
83.36493 32.000
83.38487 31.000
83.40482 27.000
83.42477 26.000
83.44471 36.000
83.46466 51.000
83.48461 54.000
83.50455 39.000
83.52450 38.000
83.54445 48.000
83.56440 66.000
83.58434 54.000
83.60429 60.000
83.62424 77.000
83.64418 93.000
83.66413 72.000
83.68408 86.000
83.70402 97.000
83.72397 81.000
83.74392 121.000
83.76386 106.000
83.78381 116.000
83.80376 103.000
83.82371 105.000
83.84365 86.000
83.86360 103.000
83.88355 89.000
83.90349 91.000
83.92344 84.000
83.94339 96.000
83.96333 89.000
83.98328 88.000
84.00323 87.000
84.02318 84.000
84.04312 66.000
84.06307 75.000
84.08302 73.000
84.10296 63.000
84.12291 56.000
84.14286 57.000
84.16280 56.000
84.18275 40.000
84.20270 40.000
84.22264 45.000
84.24259 25.000
84.26254 35.000
84.28249 30.000
84.30243 30.000
84.32238 30.000
84.34233 25.000
84.36227 27.000
84.38222 24.000
84.40217 26.000
84.42211 24.000
84.44206 27.000
84.46201 19.000
84.48196 19.000
84.50190 14.000
84.52185 22.000
84.54180 16.000
84.56174 15.000
84.58169 12.000
84.60164 16.000
84.62158 9.000
84.64153 17.000
84.66148 17.000
84.68142 17.000
84.70137 13.000
84.72132 9.000
84.74127 25.000
84.76121 12.000
84.78116 20.000
84.80111 14.000
84.82105 7.000
84.84100 17.000
84.86095 18.000
84.88089 11.000
84.90084 10.000
84.92079 12.000
84.94074 21.000
84.96068 10.000
84.98063 18.000
85.00058 14.000
85.02052 6.000
85.04047 13.000
85.06042 14.000
85.08036 11.000
85.10031 19.000
85.12026 2.000
85.14021 15.000
85.16015 18.000
85.18010 15.000
85.20005 10.000
85.21999 10.000
85.23994 14.000
85.25989 14.000
85.27983 21.000
85.29978 10.000
85.31973 19.000
85.33967 9.000
85.35962 17.000
85.37957 11.000
85.39952 18.000
85.41946 9.000
85.43941 7.000
85.45936 9.000
85.47930 11.000
85.49925 13.000
85.51920 10.000
85.53914 13.000
85.55909 13.000
85.57904 20.000
85.59899 16.000
85.61893 11.000
85.63888 16.000
85.65883 19.000
85.67877 12.000
85.69872 10.000
85.71867 17.000
85.73861 14.000
85.75856 17.000
85.77851 12.000
85.79845 10.000
85.81840 13.000
85.83835 12.000
85.85830 15.000
85.87824 18.000
85.89819 24.000
85.91814 13.000
85.93808 16.000
85.95803 16.000
85.97798 18.000
85.99792 20.000
86.01787 14.000
86.03782 14.000
86.05777 24.000
86.07771 39.000
86.09766 25.000
86.11761 19.000
86.13755 28.000
86.15750 30.000
86.17745 23.000
86.19739 20.000
86.21734 31.000
86.23729 31.000
86.25723 33.000
86.27718 34.000
86.29713 38.000
86.31708 33.000
86.33702 29.000
86.35697 41.000
86.37692 26.000
86.39686 35.000
86.41681 25.000
86.43676 33.000
86.45670 33.000
86.47665 24.000
86.49660 22.000
86.51655 31.000
86.53649 25.000
86.55644 28.000
86.57639 35.000
86.59633 27.000
86.61628 36.000
86.63623 29.000
86.65617 26.000
86.67612 24.000
86.69607 37.000
86.71602 34.000
86.73596 30.000
86.75591 29.000
86.77586 34.000
86.79580 36.000
86.81575 27.000
86.83570 30.000
86.85564 24.000
86.87559 27.000
86.89554 30.000
86.91548 21.000
86.93543 24.000
86.95538 25.000
86.97533 25.000
86.99527 25.000
87.01522 31.000
87.03517 19.000
87.05511 18.000
87.07506 26.000
87.09501 19.000
87.11495 14.000
87.13490 12.000
87.15485 17.000
87.17480 25.000
87.19474 17.000
87.21469 12.000
87.23464 13.000
87.25458 13.000
87.27453 21.000
87.29448 15.000
87.31442 12.000
87.33437 7.000
87.35432 14.000
87.37426 12.000
87.39421 21.000
87.41416 17.000
87.43411 12.000
87.45405 15.000
87.47400 8.000
87.49395 13.000
87.51389 15.000
87.53384 5.000
87.55379 9.000
87.57373 11.000
87.59368 23.000
87.61363 14.000
87.63358 13.000
87.65352 10.000
87.67347 10.000
87.69342 15.000
87.71336 8.000
87.73331 13.000
87.75326 11.000
87.77320 8.000
87.79315 9.000
87.81310 7.000
87.83304 9.000
87.85299 13.000
87.87294 5.000
87.89289 10.000
87.91283 14.000
87.93278 9.000
87.95273 13.000
87.97267 15.000
87.99262 19.000
88.01257 15.000
88.03251 13.000
88.05246 10.000
88.07241 10.000
88.09236 12.000
88.11230 8.000
88.13225 10.000
88.15220 12.000
88.17214 15.000
88.19209 11.000
88.21204 15.000
88.23198 5.000
88.25193 18.000
88.27188 13.000
88.29183 13.000
88.31177 13.000
88.33172 12.000
88.35167 16.000
88.37161 16.000
88.39156 5.000
88.41151 16.000
88.43145 14.000
88.45140 11.000
88.47135 11.000
88.49129 14.000
88.51124 12.000
88.53119 11.000
88.55114 13.000
88.57108 7.000
88.59103 10.000
88.61098 18.000
88.63092 12.000
88.65087 11.000
88.67082 11.000
88.69076 14.000
88.71071 14.000
88.73066 8.000
88.75061 13.000
88.77055 11.000
88.79050 8.000
88.81045 13.000
88.83039 4.000
88.85034 11.000
88.87029 10.000
88.89023 7.000
88.91018 14.000
88.93013 10.000
88.95007 17.000
88.97002 11.000
88.98997 4.000
89.00992 9.000
89.02986 10.000
89.04981 13.000
89.06976 10.000
89.08970 12.000
89.10965 12.000
89.12960 15.000
89.14954 12.000
89.16949 15.000
89.18944 15.000
89.20939 8.000
89.22933 14.000
89.24928 11.000
89.26923 18.000
89.28917 13.000
89.30912 12.000
89.32907 13.000
89.34901 9.000
89.36896 13.000
89.38891 12.000
89.40885 16.000
89.42880 9.000
89.44875 14.000
89.46870 10.000
89.48864 8.000
89.50859 12.000
89.52854 12.000
89.54848 10.000
89.56843 12.000
89.58838 13.000
89.60832 8.000
89.62827 10.000
89.64822 16.000
89.66817 10.000
89.68811 9.000
89.70806 11.000
89.72801 8.000
89.74795 15.000
89.76790 12.000
89.78785 7.000
89.80779 16.000
89.82774 17.000
89.84769 5.000
89.86764 9.000
89.88758 18.000
89.90753 18.000
89.92748 9.000
89.94742 15.000
89.96737 12.000
89.98732 14.000
90.00726 16.000
