10.00000 236.000
10.01995 246.000
10.03989 244.000
10.05984 238.000
10.07979 234.000
10.09973 221.000
10.11968 259.000
10.13963 235.000
10.15958 206.000
10.17952 253.000
10.19947 207.000
10.21942 234.000
10.23936 254.000
10.25931 252.000
10.27926 265.000
10.29920 241.000
10.31915 240.000
10.33910 234.000
10.35905 247.000
10.37899 238.000
10.39894 294.000
10.41889 251.000
10.43883 211.000
10.45878 217.000
10.47873 225.000
10.49867 230.000
10.51862 215.000
10.53857 237.000
10.55851 231.000
10.57846 267.000
10.59841 255.000
10.61836 254.000
10.63830 243.000
10.65825 241.000
10.67820 244.000
10.69814 241.000
10.71809 255.000
10.73804 240.000
10.75798 252.000
10.77793 284.000
10.79788 269.000
10.81783 232.000
10.83777 231.000
10.85772 218.000
10.87767 255.000
10.89761 243.000
10.91756 270.000
10.93751 257.000
10.95745 236.000
10.97740 244.000
10.99735 249.000
11.01730 247.000
11.03724 245.000
11.05719 255.000
11.07714 236.000
11.09708 246.000
11.11703 248.000
11.13698 246.000
11.15692 254.000
11.17687 236.000
11.19682 261.000
11.21676 234.000
11.23671 249.000
11.25666 263.000
11.27661 254.000
11.29655 234.000
11.31650 265.000
11.33645 260.000
11.35639 259.000
11.37634 235.000
11.39629 265.000
11.41623 238.000
11.43618 256.000
11.45613 247.000
11.47608 239.000
11.49602 264.000
11.51597 280.000
11.53592 258.000
11.55586 240.000
11.57581 256.000
11.59576 243.000
11.61570 247.000
11.63565 235.000
11.65560 260.000
11.67554 260.000
11.69549 251.000
11.71544 244.000
11.73539 229.000
11.75533 253.000
11.77528 251.000
11.79523 224.000
11.81517 251.000
11.83512 244.000
11.85507 262.000
11.87501 226.000
11.89496 283.000
11.91491 265.000
11.93486 248.000
11.95480 258.000
11.97475 234.000
11.99470 239.000
12.01464 256.000
12.03459 245.000
12.05454 238.000
12.07448 248.000
12.09443 227.000
12.11438 230.000
12.13432 259.000
12.15427 268.000
12.17422 240.000
12.19417 259.000
12.21411 252.000
12.23406 261.000
12.25401 230.000
12.27395 267.000
12.29390 247.000
12.31385 216.000
12.33379 272.000
12.35374 251.000
12.37369 232.000
12.39364 228.000
12.41358 248.000
12.43353 251.000
12.45348 259.000
12.47342 234.000
12.49337 276.000
12.51332 255.000
12.53326 233.000
12.55321 251.000
12.57316 242.000
12.59311 231.000
12.61305 221.000
12.63300 249.000
12.65295 255.000
12.67289 245.000
12.69284 227.000
12.71279 281.000
12.73273 222.000
12.75268 255.000
12.77263 247.000
12.79257 229.000
12.81252 274.000
12.83247 247.000
12.85242 242.000
12.87236 228.000
12.89231 276.000
12.91226 268.000
12.93220 267.000
12.95215 240.000
12.97210 259.000
12.99204 269.000
13.01199 231.000
13.03194 263.000
13.05189 258.000
13.07183 238.000
13.09178 259.000
13.11173 274.000
13.13167 286.000
13.15162 258.000
13.17157 241.000
13.19151 217.000
13.21146 264.000
13.23141 303.000
13.25135 282.000
13.27130 245.000
13.29125 263.000
13.31120 258.000
13.33114 282.000
13.35109 246.000
13.37104 257.000
13.39098 241.000
13.41093 267.000
13.43088 245.000
13.45082 279.000
13.47077 247.000
13.49072 265.000
13.51067 250.000
13.53061 242.000
13.55056 239.000
13.57051 261.000
13.59045 252.000
13.61040 280.000
13.63035 278.000
13.65029 261.000
13.67024 262.000
13.69019 268.000
13.71013 304.000
13.73008 245.000
13.75003 265.000
13.76998 270.000
13.78992 232.000
13.80987 286.000
13.82982 273.000
13.84976 247.000
13.86971 287.000
13.88966 287.000
13.90960 280.000
13.92955 250.000
13.94950 258.000
13.96945 272.000
13.98939 237.000
14.00934 258.000
14.02929 246.000
14.04923 238.000
14.06918 241.000
14.08913 281.000
14.10907 255.000
14.12902 248.000
14.14897 258.000
14.16892 230.000
14.18886 282.000
14.20881 254.000
14.22876 289.000
14.24870 257.000
14.26865 230.000
14.28860 275.000
14.30854 273.000
14.32849 263.000
14.34844 277.000
14.36838 272.000
14.38833 267.000
14.40828 263.000
14.42823 254.000
14.44817 260.000
14.46812 283.000
14.48807 290.000
14.50801 248.000
14.52796 265.000
14.54791 244.000
14.56785 255.000
14.58780 252.000
14.60775 258.000
14.62770 235.000
14.64764 288.000
14.66759 299.000
14.68754 233.000
14.70748 280.000
14.72743 233.000
14.74738 295.000
14.76732 270.000
14.78727 266.000
14.80722 294.000
14.82716 294.000
14.84711 247.000
14.86706 280.000
14.88701 264.000
14.90695 268.000
14.92690 258.000
14.94685 270.000
14.96679 265.000
14.98674 253.000
15.00669 263.000
15.02663 264.000
15.04658 287.000
15.06653 264.000
15.08648 267.000
15.10642 272.000
15.12637 278.000
15.14632 260.000
15.16626 231.000
15.18621 277.000
15.20616 259.000
15.22610 280.000
15.24605 298.000
15.26600 289.000
15.28594 289.000
15.30589 258.000
15.32584 291.000
15.34579 320.000
15.36573 283.000
15.38568 276.000
15.40563 304.000
15.42557 300.000
15.44552 326.000
15.46547 326.000
15.48541 290.000
15.50536 312.000
15.52531 311.000
15.54526 341.000
15.56520 324.000
15.58515 319.000
15.60510 373.000
15.62504 418.000
15.64499 421.000
15.66494 462.000
15.68488 563.000
15.70483 682.000
15.72478 825.000
15.74472 1159.000
15.76467 1599.000
15.78462 2242.000
15.80457 2916.000
15.82451 3742.000
15.84446 4303.000
15.86441 3854.000
15.88435 3105.000
15.90430 2106.000
15.92425 1156.000
15.94419 736.000
15.96414 462.000
15.98409 420.000
16.00404 359.000
16.02398 364.000
16.04393 343.000
16.06388 339.000
16.08382 354.000
16.10377 323.000
16.12372 288.000
16.14366 304.000
16.16361 295.000
16.18356 324.000
16.20351 314.000
16.22345 288.000
16.24340 251.000
16.26335 302.000
16.28329 284.000
16.30324 271.000
16.32319 263.000
16.34313 299.000
16.36308 281.000
16.38303 282.000
16.40297 256.000
16.42292 326.000
16.44287 309.000
16.46282 273.000
16.48276 244.000
16.50271 284.000
16.52266 265.000
16.54260 292.000
16.56255 286.000
16.58250 304.000
16.60244 296.000
16.62239 288.000
16.64234 296.000
16.66229 266.000
16.68223 259.000
16.70218 283.000
16.72213 270.000
16.74207 270.000
16.76202 290.000
16.78197 298.000
16.80191 282.000
16.82186 264.000
16.84181 271.000
16.86175 247.000
16.88170 252.000
16.90165 255.000
16.92160 269.000
16.94154 260.000
16.96149 292.000
16.98144 279.000
17.00138 293.000
17.02133 273.000
17.04128 286.000
17.06122 279.000
17.08117 274.000
17.10112 267.000
17.12107 270.000
17.14101 285.000
17.16096 252.000
17.18091 332.000
17.20085 258.000
17.22080 276.000
17.24075 297.000
17.26069 279.000
17.28064 272.000
17.30059 312.000
17.32053 264.000
17.34048 282.000
17.36043 264.000
17.38038 289.000
17.40032 288.000
17.42027 267.000
17.44022 284.000
17.46016 260.000
17.48011 258.000
17.50006 276.000
17.52000 299.000
17.53995 283.000
17.55990 241.000
17.57985 269.000
17.59979 274.000
17.61974 274.000
17.63969 286.000
17.65963 287.000
17.67958 294.000
17.69953 253.000
17.71947 260.000
17.73942 280.000
17.75937 267.000
17.77932 257.000
17.79926 260.000
17.81921 267.000
17.83916 264.000
17.85910 285.000
17.87905 273.000
17.89900 261.000
17.91894 279.000
17.93889 264.000
17.95884 273.000
17.97878 280.000
17.99873 241.000
18.01868 253.000
18.03863 274.000
18.05857 263.000
18.07852 231.000
18.09847 277.000
18.11841 287.000
18.13836 271.000
18.15831 287.000
18.17825 273.000
18.19820 299.000
18.21815 246.000
18.23810 264.000
18.25804 284.000
18.27799 293.000
18.29794 289.000
18.31788 293.000
18.33783 297.000
18.35778 297.000
18.37772 266.000
18.39767 280.000
18.41762 306.000
18.43756 311.000
18.45751 317.000
18.47746 281.000
18.49741 303.000
18.51735 261.000
18.53730 286.000
18.55725 275.000
18.57719 268.000
18.59714 292.000
18.61709 303.000
18.63703 304.000
18.65698 274.000
18.67693 245.000
18.69688 274.000
18.71682 298.000
18.73677 267.000
18.75672 247.000
18.77666 276.000
18.79661 301.000
18.81656 278.000
18.83650 268.000
18.85645 276.000
18.87640 273.000
18.89634 278.000
18.91629 282.000
18.93624 283.000
18.95619 256.000
18.97613 289.000
18.99608 277.000
19.01603 295.000
19.03597 278.000
19.05592 299.000
19.07587 255.000
19.09581 290.000
19.11576 282.000
19.13571 285.000
19.15566 296.000
19.17560 284.000
19.19555 288.000
19.21550 268.000
19.23544 297.000
19.25539 303.000
19.27534 268.000
19.29528 277.000
19.31523 255.000
19.33518 274.000
19.35513 284.000
19.37507 284.000
19.39502 320.000
19.41497 309.000
19.43491 294.000
19.45486 298.000
19.47481 273.000
19.49475 264.000
19.51470 268.000
19.53465 273.000
19.55459 311.000
19.57454 288.000
19.59449 291.000
19.61444 290.000
19.63438 293.000
19.65433 295.000
19.67428 314.000
19.69422 289.000
19.71417 272.000
19.73412 306.000
19.75406 272.000
19.77401 266.000
19.79396 288.000
19.81391 274.000
19.83385 305.000
19.85380 269.000
19.87375 315.000
19.89369 268.000
19.91364 270.000
19.93359 275.000
19.95353 299.000
19.97348 263.000
19.99343 256.000
20.01337 279.000
20.03332 290.000
20.05327 287.000
20.07322 344.000
20.09316 271.000
20.11311 302.000
20.13306 314.000
20.15300 269.000
20.17295 318.000
20.19290 300.000
20.21284 292.000
20.23279 267.000
20.25274 294.000
20.27269 281.000
20.29263 285.000
20.31258 262.000
20.33253 283.000
20.35247 262.000
20.37242 298.000
20.39237 291.000
20.41231 289.000
20.43226 291.000
20.45221 269.000
20.47215 306.000
20.49210 294.000
20.51205 288.000
20.53200 322.000
20.55194 287.000
20.57189 295.000
20.59184 281.000
20.61178 282.000
20.63173 271.000
20.65168 320.000
20.67162 305.000
20.69157 304.000
20.71152 273.000
20.73147 284.000
20.75141 292.000
20.77136 285.000
20.79131 305.000
20.81125 291.000
20.83120 278.000
20.85115 276.000
20.87109 318.000
20.89104 257.000
20.91099 314.000
20.93094 296.000
20.95088 278.000
20.97083 316.000
20.99078 273.000
21.01072 301.000
21.03067 337.000
21.05062 310.000
21.07056 375.000
21.09051 381.000
21.11046 398.000
21.13040 362.000
21.15035 414.000
21.17030 415.000
21.19025 409.000
21.21019 342.000
21.23014 360.000
21.25009 306.000
21.27003 320.000
21.28998 293.000
21.30993 295.000
21.32987 314.000
21.34982 273.000
21.36977 302.000
21.38972 324.000
21.40966 327.000
21.42961 306.000
21.44956 290.000
21.46950 294.000
21.48945 263.000
21.50940 314.000
21.52934 314.000
21.54929 295.000
21.56924 324.000
21.58918 289.000
21.60913 323.000
21.62908 301.000
21.64903 255.000
21.66897 347.000
21.68892 295.000
21.70887 291.000
21.72881 285.000
21.74876 285.000
21.76871 264.000
21.78865 286.000
21.80860 308.000
21.82855 284.000
21.84850 286.000
21.86844 312.000
21.88839 305.000
21.90834 270.000
21.92828 304.000
21.94823 273.000
21.96818 316.000
21.98812 314.000
22.00807 292.000
22.02802 280.000
22.04796 315.000
22.06791 317.000
22.08786 310.000
22.10781 321.000
22.12775 315.000
22.14770 327.000
22.16765 283.000
22.18759 295.000
22.20754 313.000
22.22749 309.000
22.24743 310.000
22.26738 273.000
22.28733 283.000
22.30728 308.000
22.32722 262.000
22.34717 291.000
22.36712 323.000
22.38706 272.000
22.40701 299.000
22.42696 306.000
22.44690 294.000
22.46685 294.000
22.48680 307.000
22.50675 278.000
22.52669 282.000
22.54664 332.000
22.56659 303.000
22.58653 300.000
22.60648 309.000
22.62643 285.000
22.64637 274.000
22.66632 276.000
22.68627 274.000
22.70621 327.000
22.72616 269.000
22.74611 295.000
22.76606 290.000
22.78600 282.000
22.80595 260.000
22.82590 307.000
22.84584 308.000
22.86579 341.000
22.88574 298.000
22.90568 326.000
22.92563 282.000
22.94558 285.000
22.96553 332.000
22.98547 328.000
23.00542 312.000
23.02537 340.000
23.04531 307.000
23.06526 277.000
23.08521 296.000
23.10515 329.000
23.12510 278.000
23.14505 297.000
23.16499 295.000
23.18494 292.000
23.20489 297.000
23.22484 276.000
23.24478 286.000
23.26473 295.000
23.28468 303.000
23.30462 291.000
23.32457 309.000
23.34452 307.000
23.36446 290.000
23.38441 279.000
23.40436 311.000
23.42431 338.000
23.44425 308.000
23.46420 287.000
23.48415 309.000
23.50409 285.000
23.52404 284.000
23.54399 317.000
23.56393 265.000
23.58388 301.000
23.60383 310.000
23.62377 301.000
23.64372 270.000
23.66367 311.000
23.68362 321.000
23.70356 324.000
23.72351 300.000
23.74346 288.000
23.76340 268.000
23.78335 284.000
23.80330 299.000
23.82324 310.000
23.84319 317.000
23.86314 297.000
23.88309 281.000
23.90303 323.000
23.92298 285.000
23.94293 292.000
23.96287 294.000
23.98282 325.000
24.00277 293.000
24.02271 314.000
24.04266 325.000
24.06261 289.000
24.08256 298.000
24.10250 305.000
24.12245 295.000
24.14240 328.000
24.16234 312.000
24.18229 303.000
24.20224 287.000
24.22218 291.000
24.24213 308.000
24.26208 308.000
24.28202 303.000
24.30197 304.000
24.32192 296.000
24.34187 306.000
24.36181 313.000
24.38176 290.000
24.40171 287.000
24.42165 307.000
24.44160 328.000
24.46155 312.000
24.48149 314.000
24.50144 316.000
24.52139 318.000
24.54134 335.000
24.56128 307.000
24.58123 320.000
24.60118 302.000
24.62112 340.000
24.64107 290.000
24.66102 300.000
24.68096 314.000
24.70091 292.000
24.72086 319.000
24.74080 291.000
24.76075 304.000
24.78070 325.000
24.80065 304.000
24.82059 290.000
24.84054 310.000
24.86049 323.000
24.88043 307.000
24.90038 292.000
24.92033 314.000
24.94027 308.000
24.96022 303.000
24.98017 328.000
25.00012 279.000
25.02006 365.000
25.04001 325.000
25.05996 315.000
25.07990 321.000
25.09985 297.000
25.11980 312.000
25.13974 293.000
25.15969 292.000
25.17964 294.000
25.19958 345.000
25.21953 309.000
25.23948 307.000
25.25943 298.000
25.27937 316.000
25.29932 303.000
25.31927 326.000
25.33921 329.000
25.35916 326.000
25.37911 282.000
25.39905 334.000
25.41900 314.000
25.43895 302.000
25.45890 317.000
25.47884 337.000
25.49879 310.000
25.51874 333.000
25.53868 315.000
25.55863 285.000
25.57858 311.000
25.59852 315.000
25.61847 298.000
25.63842 316.000
25.65837 327.000
25.67831 321.000
25.69826 317.000
25.71821 314.000
25.73815 294.000
25.75810 325.000
25.77805 323.000
25.79799 305.000
25.81794 341.000
25.83789 291.000
25.85783 328.000
25.87778 301.000
25.89773 326.000
25.91768 294.000
25.93762 308.000
25.95757 323.000
25.97752 293.000
25.99746 323.000
26.01741 312.000
26.03736 338.000
26.05730 322.000
26.07725 324.000
26.09720 319.000
26.11715 333.000
26.13709 343.000
26.15704 291.000
26.17699 313.000
26.19693 331.000
26.21688 325.000
26.23683 354.000
26.25677 328.000
26.27672 320.000
26.29667 321.000
26.31661 321.000
26.33656 314.000
26.35651 327.000
26.37646 311.000
26.39640 294.000
26.41635 324.000
26.43630 310.000
26.45624 335.000
26.47619 321.000
26.49614 331.000
26.51608 353.000
26.53603 298.000
26.55598 327.000
26.57593 301.000
26.59587 328.000
26.61582 310.000
26.63577 338.000
26.65571 320.000
26.67566 320.000
26.69561 313.000
26.71555 324.000
26.73550 309.000
26.75545 320.000
26.77539 332.000
26.79534 311.000
26.81529 316.000
26.83524 311.000
26.85518 334.000
26.87513 308.000
26.89508 364.000
26.91502 352.000
26.93497 292.000
26.95492 307.000
26.97486 293.000
26.99481 317.000
27.01476 349.000
27.03471 333.000
27.05465 334.000
27.07460 353.000
27.09455 331.000
27.11449 374.000
27.13444 335.000
27.15439 365.000
27.17433 338.000
27.19428 308.000
27.21423 338.000
27.23417 353.000
27.25412 355.000
27.27407 320.000
27.29402 319.000
27.31396 322.000
27.33391 311.000
27.35386 345.000
27.37380 321.000
27.39375 343.000
27.41370 335.000
27.43364 346.000
27.45359 319.000
27.47354 341.000
27.49349 323.000
27.51343 313.000
27.53338 322.000
27.55333 319.000
27.57327 325.000
27.59322 353.000
27.61317 326.000
27.63311 315.000
27.65306 347.000
27.67301 330.000
27.69296 341.000
27.71290 350.000
27.73285 355.000
27.75280 336.000
27.77274 350.000
27.79269 348.000
27.81264 338.000
27.83258 313.000
27.85253 337.000
27.87248 337.000
27.89242 321.000
27.91237 367.000
27.93232 356.000
27.95227 345.000
27.97221 327.000
27.99216 320.000
28.01211 349.000
28.03205 346.000
28.05200 364.000
28.07195 334.000
28.09189 371.000
28.11184 337.000
28.13179 342.000
28.15174 382.000
28.17168 369.000
28.19163 361.000
28.21158 368.000
28.23152 348.000
28.25147 333.000
28.27142 350.000
28.29136 334.000
28.31131 369.000
28.33126 329.000
28.35120 329.000
28.37115 388.000
28.39110 356.000
28.41105 349.000
28.43099 343.000
28.45094 350.000
28.47089 382.000
28.49083 374.000
28.51078 337.000
28.53073 371.000
28.55067 327.000
28.57062 369.000
28.59057 372.000
28.61052 351.000
28.63046 323.000
28.65041 335.000
28.67036 337.000
28.69030 338.000
28.71025 328.000
28.73020 320.000
28.75014 373.000
28.77009 320.000
28.79004 331.000
28.80998 345.000
28.82993 343.000
28.84988 331.000
28.86983 341.000
28.88977 319.000
28.90972 336.000
28.92967 341.000
28.94961 348.000
28.96956 341.000
28.98951 345.000
29.00945 368.000
29.02940 327.000
29.04935 372.000
29.06930 360.000
29.08924 310.000
29.10919 350.000
29.12914 377.000
29.14908 374.000
29.16903 331.000
29.18898 336.000
29.20892 340.000
29.22887 363.000
29.24882 363.000
29.26877 348.000
29.28871 361.000
29.30866 305.000
29.32861 372.000
29.34855 373.000
29.36850 374.000
29.38845 342.000
29.40839 367.000
29.42834 356.000
29.44829 338.000
29.46823 378.000
29.48818 339.000
29.50813 353.000
29.52808 354.000
29.54802 330.000
29.56797 352.000
29.58792 358.000
29.60786 367.000
29.62781 358.000
29.64776 379.000
29.66770 338.000
29.68765 361.000
29.70760 321.000
29.72755 336.000
29.74749 379.000
29.76744 339.000
29.78739 353.000
29.80733 326.000
29.82728 325.000
29.84723 332.000
29.86717 350.000
29.88712 353.000
29.90707 358.000
29.92701 326.000
29.94696 327.000
29.96691 329.000
29.98686 317.000
30.00680 357.000
30.02675 310.000
30.04670 347.000
30.06664 377.000
30.08659 355.000
30.10654 398.000
30.12648 375.000
30.14643 381.000
30.16638 375.000
30.18633 383.000
30.20627 374.000
30.22622 363.000
30.24617 361.000
30.26611 395.000
30.28606 373.000
30.30601 384.000
30.32595 370.000
30.34590 372.000
30.36585 382.000
30.38579 351.000
30.40574 398.000
30.42569 372.000
30.44564 347.000
30.46558 368.000
30.48553 374.000
30.50548 369.000
30.52542 380.000
30.54537 384.000
30.56532 347.000
30.58526 367.000
30.60521 362.000
30.62516 309.000
30.64511 371.000
30.66505 360.000
30.68500 384.000
30.70495 338.000
30.72489 352.000
30.74484 353.000
30.76479 389.000
30.78473 365.000
30.80468 315.000
30.82463 350.000
30.84458 332.000
30.86452 385.000
30.88447 372.000
30.90442 344.000
30.92436 401.000
30.94431 367.000
30.96426 376.000
30.98420 387.000
31.00415 352.000
31.02410 361.000
31.04404 398.000
31.06399 378.000
31.08394 354.000
31.10389 366.000
31.12383 370.000
31.14378 368.000
31.16373 400.000
31.18367 349.000
31.20362 389.000
31.22357 360.000
31.24351 391.000
31.26346 363.000
31.28341 349.000
31.30336 354.000
31.32330 363.000
31.34325 392.000
31.36320 334.000
31.38314 341.000
31.40309 372.000
31.42304 372.000
31.44298 377.000
31.46293 382.000
31.48288 348.000
31.50282 363.000
31.52277 386.000
31.54272 348.000
31.56267 377.000
31.58261 389.000
31.60256 337.000
31.62251 377.000
31.64245 371.000
31.66240 357.000
31.68235 385.000
31.70229 392.000
31.72224 366.000
31.74219 386.000
31.76214 376.000
31.78208 363.000
31.80203 399.000
31.82198 427.000
31.84192 404.000
31.86187 418.000
31.88182 457.000
31.90176 520.000
31.92171 534.000
31.94166 575.000
31.96160 580.000
31.98155 628.000
32.00150 650.000
32.02145 708.000
32.04139 675.000
32.06134 599.000
32.08129 584.000
32.10123 545.000
32.12118 479.000
32.14113 442.000
32.16107 410.000
32.18102 378.000
32.20097 415.000
32.22092 361.000
32.24086 406.000
32.26081 373.000
32.28076 349.000
32.30070 351.000
32.32065 334.000
32.34060 336.000
32.36054 335.000
32.38049 347.000
32.40044 418.000
32.42039 334.000
32.44033 328.000
32.46028 397.000
32.48023 376.000
32.50017 380.000
32.52012 380.000
32.54007 334.000
32.56001 363.000
32.57996 376.000
32.59991 378.000
32.61985 353.000
32.63980 354.000
32.65975 340.000
32.67970 328.000
32.69964 359.000
32.71959 382.000
32.73954 360.000
32.75948 338.000
32.77943 322.000
32.79938 357.000
32.81932 387.000
32.83927 335.000
32.85922 361.000
32.87917 345.000
32.89911 357.000
32.91906 369.000
32.93901 372.000
32.95895 368.000
32.97890 356.000
32.99885 374.000
33.01879 352.000
33.03874 399.000
33.05869 378.000
33.07863 328.000
33.09858 348.000
33.11853 354.000
33.13848 357.000
33.15842 353.000
33.17837 356.000
33.19832 365.000
33.21826 369.000
33.23821 341.000
33.25816 344.000
33.27810 367.000
33.29805 376.000
33.31800 340.000
33.33795 378.000
33.35789 335.000
33.37784 368.000
33.39779 365.000
33.41773 341.000
33.43768 327.000
33.45763 354.000
33.47757 344.000
33.49752 409.000
33.51747 321.000
33.53741 372.000
33.55736 337.000
33.57731 338.000
33.59726 349.000
33.61720 336.000
33.63715 325.000
33.65710 353.000
33.67704 345.000
33.69699 375.000
33.71694 348.000
33.73688 353.000
33.75683 356.000
33.77678 346.000
33.79673 320.000
33.81667 344.000
33.83662 318.000
33.85657 361.000
33.87651 353.000
33.89646 371.000
33.91641 365.000
33.93635 340.000
33.95630 353.000
33.97625 368.000
33.99620 329.000
34.01614 366.000
34.03609 342.000
34.05604 337.000
34.07598 353.000
34.09593 347.000
34.11588 338.000
34.13582 323.000
34.15577 343.000
34.17572 349.000
34.19566 387.000
34.21561 341.000
34.23556 300.000
34.25551 350.000
34.27545 372.000
34.29540 354.000
34.31535 364.000
34.33529 339.000
34.35524 363.000
34.37519 370.000
34.39513 352.000
34.41508 319.000
34.43503 349.000
34.45498 369.000
34.47492 349.000
34.49487 369.000
34.51482 346.000
34.53476 353.000
34.55471 359.000
34.57466 356.000
34.59460 355.000
34.61455 334.000
34.63450 395.000
34.65444 407.000
34.67439 352.000
34.69434 387.000
34.71429 354.000
34.73423 433.000
34.75418 422.000
34.77413 403.000
34.79407 419.000
34.81402 461.000
34.83397 406.000
34.85391 439.000
34.87386 443.000
34.89381 448.000
34.91376 419.000
34.93370 393.000
34.95365 386.000
34.97360 423.000
34.99354 335.000
35.01349 349.000
35.03344 363.000
35.05338 349.000
35.07333 339.000
35.09328 362.000
35.11322 395.000
35.13317 394.000
35.15312 340.000
35.17307 343.000
35.19301 386.000
35.21296 353.000
35.23291 373.000
35.25285 368.000
35.27280 372.000
35.29275 371.000
35.31269 375.000
35.33264 360.000
35.35259 403.000
35.37254 407.000
35.39248 371.000
35.41243 350.000
35.43238 360.000
35.45232 437.000
35.47227 381.000
35.49222 386.000
35.51216 447.000
35.53211 404.000
35.55206 383.000
35.57201 444.000
35.59195 392.000
35.61190 445.000
35.63185 429.000
35.65179 474.000
35.67174 478.000
35.69169 488.000
35.71163 470.000
35.73158 519.000
35.75153 541.000
35.77147 494.000
35.79142 563.000
35.81137 605.000
35.83132 640.000
35.85126 684.000
35.87121 736.000
35.89116 781.000
35.91110 802.000
35.93105 790.000
35.95100 726.000
35.97094 661.000
35.99089 626.000
36.01084 547.000
36.03079 589.000
36.05073 505.000
36.07068 452.000
36.09063 414.000
36.11057 424.000
36.13052 397.000
36.15047 385.000
36.17041 406.000
36.19036 409.000
36.21031 402.000
36.23025 384.000
36.25020 408.000
36.27015 421.000
36.29010 419.000
36.31004 431.000
36.32999 434.000
36.34994 467.000
36.36988 421.000
36.38983 443.000
36.40978 429.000
36.42972 455.000
36.44967 487.000
36.46962 478.000
36.48957 399.000
36.50951 461.000
36.52946 430.000
36.54941 412.000
36.56935 463.000
36.58930 435.000
36.60925 419.000
36.62919 441.000
36.64914 425.000
36.66909 407.000
36.68903 455.000
36.70898 478.000
36.72893 466.000
36.74888 476.000
36.76882 449.000
36.78877 495.000
36.80872 529.000
36.82866 533.000
36.84861 598.000
36.86856 545.000
36.88850 643.000
36.90845 622.000
36.92840 742.000
36.94835 738.000
36.96829 862.000
36.98824 915.000
37.00819 1076.000
37.02813 1369.000
37.04808 1719.000
37.06803 2422.000
37.08797 3331.000
37.10792 4509.000
37.12787 5473.000
37.14781 5864.000
37.16776 5406.000
37.18771 5014.000
37.20766 4429.000
37.22760 3881.000
37.24755 3468.000
37.26750 2802.000
37.28744 2147.000
37.30739 1492.000
37.32734 1120.000
37.34728 759.000
37.36723 668.000
37.38718 616.000
37.40713 469.000
37.42707 525.000
37.44702 537.000
37.46697 480.000
37.48691 503.000
37.50686 508.000
37.52681 517.000
37.54675 524.000
37.56670 507.000
37.58665 464.000
37.60660 495.000
37.62654 463.000
37.64649 470.000
37.66644 447.000
37.68638 422.000
37.70633 396.000
37.72628 359.000
37.74622 388.000
37.76617 349.000
37.78612 348.000
37.80606 381.000
37.82601 393.000
37.84596 372.000
37.86591 394.000
37.88585 371.000
37.90580 343.000
37.92575 349.000
37.94569 372.000
37.96564 335.000
37.98559 354.000
38.00553 334.000
38.02548 347.000
38.04543 368.000
38.06538 348.000
38.08532 333.000
38.10527 346.000
38.12522 336.000
38.14516 353.000
38.16511 349.000
38.18506 329.000
38.20500 354.000
38.22495 341.000
38.24490 347.000
38.26484 360.000
38.28479 328.000
38.30474 329.000
38.32469 383.000
38.34463 370.000
38.36458 374.000
38.38453 360.000
38.40447 335.000
38.42442 365.000
38.44437 373.000
38.46431 363.000
38.48426 374.000
38.50421 375.000
38.52416 378.000
38.54410 352.000
38.56405 333.000
38.58400 339.000
38.60394 354.000
38.62389 383.000
38.64384 396.000
38.66378 363.000
38.68373 375.000
38.70368 371.000
38.72362 361.000
38.74357 399.000
38.76352 388.000
38.78347 385.000
38.80341 400.000
38.82336 383.000
38.84331 383.000
38.86325 358.000
38.88320 407.000
38.90315 379.000
38.92309 390.000
38.94304 360.000
38.96299 384.000
38.98294 356.000
39.00288 349.000
39.02283 368.000
39.04278 340.000
39.06272 400.000
39.08267 368.000
39.10262 360.000
39.12256 369.000
39.14251 363.000
39.16246 415.000
39.18241 395.000
39.20235 391.000
39.22230 363.000
39.24225 404.000
39.26219 444.000
39.28214 452.000
39.30209 488.000
39.32203 489.000
39.34198 512.000
39.36193 591.000
39.38187 632.000
39.40182 741.000
39.42177 913.000
39.44172 945.000
39.46166 1067.000
39.48161 1136.000
39.50156 1076.000
39.52150 951.000
39.54145 832.000
39.56140 860.000
39.58134 752.000
39.60129 697.000
39.62124 598.000
39.64119 462.000
39.66113 450.000
39.68108 436.000
39.70103 351.000
39.72097 410.000
39.74092 353.000
39.76087 359.000
39.78081 365.000
39.80076 334.000
39.82071 336.000
39.84065 353.000
39.86060 345.000
39.88055 354.000
39.90050 372.000
39.92044 322.000
39.94039 329.000
39.96034 368.000
39.98028 368.000
40.00023 338.000
40.02018 350.000
40.04012 329.000
40.06007 336.000
40.08002 360.000
40.09997 325.000
40.11991 350.000
40.13986 317.000
40.15981 363.000
40.17975 343.000
40.19970 303.000
40.21965 341.000
40.23959 348.000
40.25954 338.000
40.27949 329.000
40.29943 314.000
40.31938 367.000
40.33933 290.000
40.35928 357.000
40.37922 326.000
40.39917 317.000
40.41912 328.000
40.43906 309.000
40.45901 331.000
40.47896 329.000
40.49890 320.000
40.51885 377.000
40.53880 305.000
40.55875 329.000
40.57869 337.000
40.59864 332.000
40.61859 336.000
40.63853 354.000
40.65848 356.000
40.67843 334.000
40.69837 342.000
40.71832 335.000
40.73827 366.000
40.75822 323.000
40.77816 314.000
40.79811 324.000
40.81806 326.000
40.83800 364.000
40.85795 330.000
40.87790 335.000
40.89784 331.000
40.91779 303.000
40.93774 337.000
40.95768 317.000
40.97763 313.000
40.99758 310.000
41.01753 363.000
41.03747 341.000
41.05742 337.000
41.07737 345.000
41.09731 297.000
41.11726 289.000
41.13721 321.000
41.15715 318.000
41.17710 325.000
41.19705 353.000
41.21700 316.000
41.23694 327.000
41.25689 345.000
41.27684 339.000
41.29678 319.000
41.31673 338.000
41.33668 330.000
41.35662 352.000
41.37657 351.000
41.39652 331.000
41.41646 330.000
41.43641 330.000
41.45636 376.000
41.47631 343.000
41.49625 373.000
41.51620 351.000
41.53615 341.000
41.55609 312.000
41.57604 359.000
41.59599 342.000
41.61593 310.000
41.63588 305.000
41.65583 337.000
41.67578 311.000
41.69572 351.000
41.71567 325.000
41.73562 303.000
41.75556 320.000
41.77551 332.000
41.79546 349.000
41.81540 387.000
41.83535 339.000
41.85530 344.000
41.87524 339.000
41.89519 315.000
41.91514 341.000
41.93509 361.000
41.95503 327.000
41.97498 321.000
41.99493 340.000
42.01487 361.000
42.03482 385.000
42.05477 338.000
42.07471 385.000
42.09466 380.000
42.11461 360.000
42.13456 341.000
42.15450 333.000
42.17445 376.000
42.19440 381.000
42.21434 388.000
42.23429 369.000
42.25424 368.000
42.27418 351.000
42.29413 379.000
42.31408 351.000
42.33403 388.000
42.35397 442.000
42.37392 404.000
42.39387 387.000
42.41381 421.000
42.43376 470.000
42.45371 423.000
42.47365 477.000
42.49360 467.000
42.51355 446.000
42.53349 486.000
42.55344 439.000
42.57339 483.000
42.59334 488.000
42.61328 471.000
42.63323 519.000
42.65318 487.000
42.67312 498.000
42.69307 511.000
42.71302 500.000
42.73296 489.000
42.75291 556.000
42.77286 560.000
42.79281 566.000
42.81275 593.000
42.83270 659.000
42.85265 665.000
42.87259 714.000
42.89254 795.000
42.91249 873.000
42.93243 1044.000
42.95238 1124.000
42.97233 1289.000
42.99227 1430.000
43.01222 1710.000
43.03217 2012.000
43.05212 2626.000
43.07206 3261.000
43.09201 4056.000
43.11196 5048.000
43.13190 5939.000
43.15185 6585.000
43.17180 7162.000
43.19174 6915.000
43.21169 6456.000
43.23164 5623.000
43.25159 5084.000
43.27153 4532.000
43.29148 4136.000
43.31143 3376.000
43.33137 2829.000
43.35132 2198.000
43.37127 1532.000
43.39121 1211.000
43.41116 919.000
43.43111 797.000
43.45105 784.000
43.47100 747.000
43.49095 716.000
43.51090 710.000
43.53084 739.000
43.55079 775.000
43.57074 782.000
43.59068 721.000
43.61063 735.000
43.63058 661.000
43.65052 614.000
43.67047 615.000
43.69042 586.000
43.71037 569.000
43.73031 509.000
43.75026 480.000
43.77021 451.000
43.79015 452.000
43.81010 406.000
43.83005 389.000
43.84999 417.000
43.86994 408.000
43.88989 397.000
43.90984 376.000
43.92978 396.000
43.94973 389.000
43.96968 371.000
43.98962 383.000
44.00957 361.000
44.02952 364.000
44.04946 368.000
44.06941 382.000
44.08936 342.000
44.10930 345.000
44.12925 377.000
44.14920 352.000
44.16915 379.000
44.18909 325.000
44.20904 360.000
44.22899 346.000
44.24893 383.000
44.26888 335.000
44.28883 316.000
44.30877 393.000
44.32872 349.000
44.34867 346.000
44.36862 302.000
44.38856 331.000
44.40851 309.000
44.42846 336.000
44.44840 342.000
44.46835 356.000
44.48830 348.000
44.50824 349.000
44.52819 319.000
44.54814 347.000
44.56808 364.000
44.58803 356.000
44.60798 358.000
44.62793 356.000
44.64787 342.000
44.66782 367.000
44.68777 327.000
44.70771 367.000
44.72766 343.000
44.74761 362.000
44.76755 362.000
44.78750 334.000
44.80745 327.000
44.82740 352.000
44.84734 362.000
44.86729 376.000
44.88724 396.000
44.90718 376.000
44.92713 317.000
44.94708 363.000
44.96702 394.000
44.98697 397.000
45.00692 402.000
45.02686 395.000
45.04681 366.000
45.06676 354.000
45.08671 399.000
45.10665 390.000
45.12660 427.000
45.14655 401.000
45.16649 443.000
45.18644 439.000
45.20639 461.000
45.22633 410.000
45.24628 427.000
45.26623 409.000
45.28618 414.000
45.30612 397.000
45.32607 383.000
45.34602 381.000
45.36596 429.000
45.38591 373.000
45.40586 366.000
45.42580 351.000
45.44575 368.000
45.46570 332.000
45.48565 369.000
45.50559 337.000
45.52554 353.000
45.54549 341.000
45.56543 319.000
45.58538 356.000
45.60533 326.000
45.62527 314.000
45.64522 356.000
45.66517 312.000
45.68511 322.000
45.70506 315.000
45.72501 358.000
45.74496 311.000
45.76490 331.000
45.78485 304.000
45.80480 308.000
45.82474 354.000
45.84469 323.000
45.86464 358.000
45.88458 305.000
45.90453 330.000
45.92448 304.000
45.94443 344.000
45.96437 340.000
45.98432 315.000
46.00427 331.000
46.02421 323.000
46.04416 319.000
46.06411 304.000
46.08405 318.000
46.10400 299.000
46.12395 288.000
46.14389 324.000
46.16384 313.000
46.18379 323.000
46.20374 304.000
46.22368 331.000
46.24363 332.000
46.26358 328.000
46.28352 306.000
46.30347 329.000
46.32342 336.000
46.34336 311.000
46.36331 314.000
46.38326 308.000
46.40321 306.000
46.42315 322.000
46.44310 330.000
46.46305 290.000
46.48299 289.000
46.50294 326.000
46.52289 307.000
46.54283 299.000
46.56278 296.000
46.58273 356.000
46.60267 335.000
46.62262 317.000
46.64257 312.000
46.66252 252.000
46.68246 311.000
46.70241 324.000
46.72236 305.000
46.74230 325.000
46.76225 324.000
46.78220 307.000
46.80214 330.000
46.82209 320.000
46.84204 320.000
46.86199 332.000
46.88193 314.000
46.90188 304.000
46.92183 281.000
46.94177 279.000
46.96172 297.000
46.98167 317.000
47.00161 305.000
47.02156 337.000
47.04151 309.000
47.06146 301.000
47.08140 311.000
47.10135 324.000
47.12130 327.000
47.14124 294.000
47.16119 316.000
47.18114 288.000
47.20108 299.000
47.22103 333.000
47.24098 347.000
47.26092 320.000
47.28087 314.000
47.30082 337.000
47.32077 308.000
47.34071 324.000
47.36066 294.000
47.38061 317.000
47.40055 287.000
47.42050 317.000
47.44045 285.000
47.46039 308.000
47.48034 313.000
47.50029 318.000
47.52024 283.000
47.54018 317.000
47.56013 298.000
47.58008 337.000
47.60002 306.000
47.61997 342.000
47.63992 304.000
47.65986 352.000
47.67981 314.000
47.69976 305.000
47.71970 350.000
47.73965 321.000
47.75960 282.000
47.77955 307.000
47.79949 311.000
47.81944 347.000
47.83939 340.000
47.85933 317.000
47.87928 310.000
47.89923 339.000
47.91917 305.000
47.93912 301.000
47.95907 309.000
47.97902 313.000
47.99896 306.000
48.01891 315.000
48.03886 326.000
48.05880 289.000
48.07875 319.000
48.09870 303.000
48.11864 284.000
48.13859 321.000
48.15854 349.000
48.17848 318.000
48.19843 313.000
48.21838 293.000
48.23833 330.000
48.25827 331.000
48.27822 305.000
48.29817 339.000
48.31811 310.000
48.33806 305.000
48.35801 312.000
48.37795 329.000
48.39790 345.000
48.41785 356.000
48.43780 351.000
48.45774 329.000
48.47769 299.000
48.49764 342.000
48.51758 363.000
48.53753 373.000
48.55748 374.000
48.57742 333.000
48.59737 375.000
48.61732 371.000
48.63726 437.000
48.65721 417.000
48.67716 382.000
48.69711 448.000
48.71705 442.000
48.73700 548.000
48.75695 592.000
48.77689 645.000
48.79684 711.000
48.81679 857.000
48.83673 970.000
48.85668 991.000
48.87663 972.000
48.89658 899.000
48.91652 759.000
48.93647 801.000
48.95642 769.000
48.97636 730.000
48.99631 717.000
49.01626 599.000
49.03620 564.000
49.05615 484.000
49.07610 457.000
49.09605 421.000
49.11599 400.000
49.13594 409.000
49.15589 382.000
49.17583 369.000
49.19578 355.000
49.21573 325.000
49.23567 324.000
49.25562 348.000
49.27557 347.000
49.29551 315.000
49.31546 312.000
49.33541 336.000
49.35536 349.000
49.37530 332.000
49.39525 299.000
49.41520 324.000
49.43514 317.000
49.45509 320.000
49.47504 302.000
49.49498 310.000
49.51493 308.000
49.53488 308.000
49.55483 281.000
49.57477 353.000
49.59472 368.000
49.61467 316.000
49.63461 330.000
49.65456 312.000
49.67451 335.000
49.69445 297.000
49.71440 269.000
49.73435 279.000
49.75429 298.000
49.77424 324.000
49.79419 312.000
49.81414 289.000
49.83408 318.000
49.85403 290.000
49.87398 325.000
49.89392 312.000
49.91387 316.000
49.93382 336.000
49.95376 307.000
49.97371 308.000
49.99366 315.000
50.01361 342.000
50.03355 317.000
50.05350 307.000
50.07345 301.000
50.09339 326.000
50.11334 321.000
50.13329 287.000
50.15323 304.000
50.17318 313.000
50.19313 318.000
50.21307 286.000
50.23302 326.000
50.25297 310.000
50.27292 322.000
50.29286 319.000
50.31281 296.000
50.33276 318.000
50.35270 297.000
50.37265 280.000
50.39260 309.000
50.41254 302.000
50.43249 330.000
50.45244 315.000
50.47239 269.000
50.49233 306.000
50.51228 317.000
50.53223 288.000
50.55217 309.000
50.57212 303.000
50.59207 291.000
50.61201 297.000
50.63196 306.000
50.65191 333.000
50.67186 316.000
50.69180 320.000
50.71175 318.000
50.73170 305.000
50.75164 318.000
50.77159 319.000
50.79154 300.000
50.81148 320.000
50.83143 320.000
50.85138 308.000
50.87132 304.000
50.89127 300.000
50.91122 292.000
50.93117 285.000
50.95111 310.000
50.97106 302.000
50.99101 294.000
51.01095 291.000
51.03090 313.000
51.05085 295.000
51.07079 287.000
51.09074 313.000
51.11069 278.000
51.13064 283.000
51.15058 314.000
51.17053 317.000
51.19048 306.000
51.21042 320.000
51.23037 320.000
51.25032 297.000
51.27026 355.000
51.29021 323.000
51.31016 316.000
51.33010 340.000
51.35005 300.000
51.37000 276.000
51.38995 311.000
51.40989 270.000
51.42984 295.000
51.44979 296.000
51.46973 324.000
51.48968 299.000
51.50963 311.000
51.52957 300.000
51.54952 300.000
51.56947 315.000
51.58942 301.000
51.60936 303.000
51.62931 278.000
51.64926 311.000
51.66920 311.000
51.68915 307.000
51.70910 316.000
51.72904 301.000
51.74899 291.000
51.76894 327.000
51.78888 291.000
51.80883 304.000
51.82878 282.000
51.84873 275.000
51.86867 283.000
51.88862 295.000
51.90857 297.000
51.92851 286.000
51.94846 310.000
51.96841 340.000
51.98835 301.000
52.00830 328.000
52.02825 310.000
52.04820 288.000
52.06814 307.000
52.08809 311.000
52.10804 281.000
52.12798 299.000
52.14793 324.000
52.16788 278.000
52.18782 320.000
52.20777 314.000
52.22772 279.000
52.24767 322.000
52.26761 332.000
52.28756 316.000
52.30751 287.000
52.32745 313.000
52.34740 317.000
52.36735 296.000
52.38729 281.000
52.40724 305.000
52.42719 321.000
52.44713 285.000
52.46708 285.000
52.48703 290.000
52.50698 315.000
52.52692 317.000
52.54687 325.000
52.56682 331.000
52.58676 306.000
52.60671 332.000
52.62666 337.000
52.64660 298.000
52.66655 288.000
52.68650 308.000
52.70645 332.000
52.72639 340.000
52.74634 309.000
52.76629 320.000
52.78623 321.000
52.80618 322.000
52.82613 362.000
52.84607 333.000
52.86602 354.000
52.88597 337.000
52.90591 323.000
52.92586 313.000
52.94581 298.000
52.96576 332.000
52.98570 337.000
53.00565 318.000
53.02560 323.000
53.04554 304.000
53.06549 327.000
53.08544 304.000
53.10538 320.000
53.12533 309.000
53.14528 320.000
53.16523 315.000
53.18517 328.000
53.20512 313.000
53.22507 301.000
53.24501 265.000
53.26496 283.000
53.28491 308.000
53.30485 305.000
53.32480 287.000
53.34475 297.000
53.36469 330.000
53.38464 289.000
53.40459 338.000
53.42454 294.000
53.44448 331.000
53.46443 305.000
53.48438 280.000
53.50432 307.000
53.52427 315.000
53.54422 279.000
53.56416 312.000
53.58411 294.000
53.60406 313.000
53.62401 312.000
53.64395 303.000
53.66390 308.000
53.68385 291.000
53.70379 289.000
53.72374 292.000
53.74369 306.000
53.76363 297.000
53.78358 319.000
53.80353 352.000
53.82348 327.000
53.84342 325.000
53.86337 315.000
53.88332 337.000
53.90326 324.000
53.92321 309.000
53.94316 319.000
53.96310 305.000
53.98305 303.000
54.00300 294.000
54.02294 302.000
54.04289 281.000
54.06284 309.000
54.08279 306.000
54.10273 308.000
54.12268 294.000
54.14263 307.000
54.16257 301.000
54.18252 283.000
54.20247 301.000
54.22241 295.000
54.24236 317.000
54.26231 270.000
54.28226 307.000
54.30220 274.000
54.32215 325.000
54.34210 302.000
54.36204 290.000
54.38199 311.000
54.40194 299.000
54.42188 305.000
54.44183 295.000
54.46178 307.000
54.48172 313.000
54.50167 291.000
54.52162 308.000
54.54157 295.000
54.56151 294.000
54.58146 299.000
54.60141 291.000
54.62135 294.000
54.64130 314.000
54.66125 332.000
54.68119 307.000
54.70114 333.000
54.72109 363.000
54.74104 296.000
54.76098 296.000
54.78093 293.000
54.80088 284.000
54.82082 312.000
54.84077 294.000
54.86072 278.000
54.88066 308.000
54.90061 266.000
54.92056 299.000
54.94050 320.000
54.96045 315.000
54.98040 317.000
55.00035 313.000
55.02029 300.000
55.04024 310.000
55.06019 313.000
55.08013 290.000
55.10008 287.000
55.12003 282.000
55.13997 318.000
55.15992 291.000
55.17987 287.000
55.19982 292.000
55.21976 269.000
55.23971 298.000
55.25966 300.000
55.27960 318.000
55.29955 288.000
55.31950 263.000
55.33944 319.000
55.35939 287.000
55.37934 299.000
55.39929 305.000
55.41923 320.000
55.43918 296.000
55.45913 298.000
55.47907 290.000
55.49902 332.000
55.51897 290.000
55.53891 309.000
55.55886 289.000
55.57881 320.000
55.59875 294.000
55.61870 300.000
55.63865 291.000
55.65860 307.000
55.67854 314.000
55.69849 283.000
55.71844 294.000
55.73838 311.000
55.75833 294.000
55.77828 272.000
55.79822 294.000
55.81817 289.000
55.83812 334.000
55.85807 302.000
55.87801 323.000
55.89796 304.000
55.91791 314.000
55.93785 285.000
55.95780 308.000
55.97775 316.000
55.99769 281.000
56.01764 300.000
56.03759 322.000
56.05753 302.000
56.07748 298.000
56.09743 338.000
56.11738 287.000
56.13732 314.000
56.15727 335.000
56.17722 312.000
56.19716 291.000
56.21711 311.000
56.23706 282.000
56.25700 294.000
56.27695 283.000
56.29690 285.000
56.31685 323.000
56.33679 297.000
56.35674 322.000
56.37669 318.000
56.39663 308.000
56.41658 319.000
56.43653 290.000
56.45647 276.000
56.47642 284.000
56.49637 278.000
56.51631 303.000
56.53626 313.000
56.55621 287.000
56.57616 332.000
56.59610 294.000
56.61605 314.000
56.63600 327.000
56.65594 302.000
56.67589 281.000
56.69584 300.000
56.71578 314.000
56.73573 332.000
56.75568 307.000
56.77563 348.000
56.79557 304.000
56.81552 313.000
56.83547 310.000
56.85541 295.000
56.87536 311.000
56.89531 302.000
56.91525 312.000
56.93520 325.000
56.95515 347.000
56.97510 315.000
56.99504 328.000
57.01499 302.000
57.03494 321.000
57.05488 330.000
57.07483 341.000
57.09478 313.000
57.11472 328.000
57.13467 331.000
57.15462 302.000
57.17456 346.000
57.19451 317.000
57.21446 321.000
57.23441 339.000
57.25435 305.000
57.27430 339.000
57.29425 339.000
57.31419 341.000
57.33414 337.000
57.35409 315.000
57.37403 357.000
57.39398 344.000
57.41393 299.000
57.43388 350.000
57.45382 332.000
57.47377 347.000
57.49372 349.000
57.51366 350.000
57.53361 351.000
57.55356 320.000
57.57350 356.000
57.59345 341.000
57.61340 329.000
57.63334 335.000
57.65329 318.000
57.67324 292.000
57.69319 305.000
57.71313 366.000
57.73308 305.000
57.75303 312.000
57.77297 317.000
57.79292 312.000
57.81287 326.000
57.83281 340.000
57.85276 333.000
57.87271 301.000
57.89266 332.000
57.91260 342.000
57.93255 330.000
57.95250 323.000
57.97244 294.000
57.99239 300.000
58.01234 325.000
58.03228 351.000
58.05223 270.000
58.07218 310.000
58.09212 341.000
58.11207 284.000
58.13202 279.000
58.15197 299.000
58.17191 320.000
58.19186 286.000
58.21181 276.000
58.23175 323.000
58.25170 294.000
58.27165 295.000
58.29159 329.000
58.31154 280.000
58.33149 317.000
58.35144 303.000
58.37138 309.000
58.39133 326.000
58.41128 294.000
58.43122 291.000
58.45117 301.000
58.47112 285.000
58.49106 293.000
58.51101 300.000
58.53096 339.000
58.55090 286.000
58.57085 314.000
58.59080 300.000
58.61075 301.000
58.63069 279.000
58.65064 317.000
58.67059 278.000
58.69053 322.000
58.71048 315.000
58.73043 296.000
58.75037 337.000
58.77032 347.000
58.79027 278.000
58.81022 296.000
58.83016 288.000
58.85011 311.000
58.87006 284.000
58.89000 290.000
58.90995 298.000
58.92990 306.000
58.94984 318.000
58.96979 276.000
58.98974 328.000
59.00969 302.000
59.02963 336.000
59.04958 296.000
59.06953 317.000
59.08947 327.000
59.10942 366.000
59.12937 304.000
59.14931 319.000
59.16926 333.000
59.18921 308.000
59.20915 355.000
59.22910 308.000
59.24905 289.000
59.26900 287.000
59.28894 311.000
59.30889 335.000
59.32884 297.000
59.34878 323.000
59.36873 317.000
59.38868 315.000
59.40862 312.000
59.42857 318.000
59.44852 298.000
59.46847 324.000
59.48841 302.000
59.50836 307.000
59.52831 306.000
59.54825 293.000
59.56820 348.000
59.58815 309.000
59.60809 278.000
59.62804 303.000
59.64799 310.000
59.66793 304.000
59.68788 299.000
59.70783 310.000
59.72778 315.000
59.74772 328.000
59.76767 344.000
59.78762 311.000
59.80756 311.000
59.82751 296.000
59.84746 306.000
59.86740 294.000
59.88735 308.000
59.90730 283.000
59.92725 303.000
59.94719 303.000
59.96714 354.000
59.98709 324.000
60.00703 316.000
60.02698 301.000
60.04693 302.000
60.06687 296.000
60.08682 303.000
60.10677 287.000
60.12671 314.000
60.14666 332.000
60.16661 316.000
60.18656 334.000
60.20650 301.000
60.22645 309.000
60.24640 296.000
60.26634 291.000
60.28629 315.000
60.30624 302.000
60.32618 318.000
60.34613 318.000
60.36608 298.000
60.38603 328.000
60.40597 331.000
60.42592 323.000
60.44587 320.000
60.46581 298.000
60.48576 318.000
60.50571 312.000
60.52565 343.000
60.54560 306.000
60.56555 304.000
60.58550 300.000
60.60544 320.000
60.62539 307.000
60.64534 305.000
60.66528 288.000
60.68523 292.000
60.70518 313.000
60.72512 347.000
60.74507 305.000
60.76502 305.000
60.78496 323.000
60.80491 333.000
60.82486 294.000
60.84481 305.000
60.86475 323.000
60.88470 306.000
60.90465 306.000
60.92459 327.000
60.94454 326.000
60.96449 295.000
60.98443 332.000
61.00438 366.000
61.02433 328.000
61.04428 298.000
61.06422 302.000
61.08417 323.000
61.10412 331.000
61.12406 317.000
61.14401 308.000
61.16396 329.000
61.18390 333.000
61.20385 320.000
61.22380 308.000
61.24374 325.000
61.26369 338.000
61.28364 316.000
61.30359 331.000
61.32353 334.000
61.34348 323.000
61.36343 375.000
61.38337 333.000
61.40332 323.000
61.42327 333.000
61.44321 330.000
61.46316 333.000
61.48311 321.000
61.50306 349.000
61.52300 327.000
61.54295 341.000
61.56290 367.000
61.58284 357.000
61.60279 350.000
61.62274 342.000
61.64268 339.000
61.66263 332.000
61.68258 351.000
61.70252 350.000
61.72247 347.000
61.74242 355.000
61.76237 376.000
61.78231 349.000
61.80226 399.000
61.82221 348.000
61.84215 383.000
61.86210 415.000
61.88205 433.000
61.90199 383.000
61.92194 415.000
61.94189 443.000
61.96184 446.000
61.98178 446.000
62.00173 477.000
62.02168 544.000
62.04162 551.000
62.06157 601.000
62.08152 607.000
62.10146 658.000
62.12141 635.000
62.14136 589.000
62.16131 576.000
62.18125 622.000
62.20120 595.000
62.22115 632.000
62.24109 594.000
62.26104 627.000
62.28099 596.000
62.30093 560.000
62.32088 605.000
62.34083 588.000
62.36077 643.000
62.38072 626.000
62.40067 645.000
62.42062 663.000
62.44056 686.000
62.46051 777.000
62.48046 834.000
62.50040 872.000
62.52035 996.000
62.54030 1136.000
62.56024 1333.000
62.58019 1601.000
62.60014 2016.000
62.62009 2344.000
62.64003 2624.000
62.65998 2874.000
62.67993 3036.000
62.69987 3109.000
62.71982 2968.000
62.73977 2895.000
62.75971 2746.000
62.77966 2394.000
62.79961 2274.000
62.81955 2105.000
62.83950 2052.000
62.85945 2003.000
62.87940 1835.000
62.89934 1573.000
62.91929 1545.000
62.93924 1274.000
62.95918 1107.000
62.97913 881.000
62.99908 730.000
63.01902 667.000
63.03897 549.000
63.05892 545.000
63.07887 474.000
63.09881 488.000
63.11876 418.000
63.13871 407.000
63.15865 425.000
63.17860 416.000
63.19855 419.000
63.21849 411.000
63.23844 389.000
63.25839 358.000
63.27833 375.000
63.29828 360.000
63.31823 390.000
63.33818 378.000
63.35812 367.000
63.37807 345.000
63.39802 375.000
63.41796 369.000
63.43791 351.000
63.45786 383.000
63.47780 371.000
63.49775 354.000
63.51770 324.000
63.53765 341.000
63.55759 348.000
63.57754 334.000
63.59749 345.000
63.61743 349.000
63.63738 367.000
63.65733 355.000
63.67727 345.000
63.69722 311.000
63.71717 303.000
63.73712 320.000
63.75706 355.000
63.77701 347.000
63.79696 328.000
63.81690 310.000
63.83685 344.000
63.85680 331.000
63.87674 330.000
63.89669 350.000
63.91664 330.000
63.93658 349.000
63.95653 326.000
63.97648 339.000
63.99643 339.000
64.01637 328.000
64.03632 377.000
64.05627 363.000
64.07621 324.000
64.09616 338.000
64.11611 319.000
64.13605 351.000
64.15600 327.000
64.17595 296.000
64.19590 330.000
64.21584 346.000
64.23579 358.000
64.25574 348.000
64.27568 362.000
64.29563 344.000
64.31558 339.000
64.33552 328.000
64.35547 366.000
64.37542 366.000
64.39536 414.000
64.41531 421.000
64.43526 492.000
64.45521 538.000
64.47515 474.000
64.49510 462.000
64.51505 498.000
64.53499 481.000
64.55494 518.000
64.57489 512.000
64.59483 565.000
64.61478 523.000
64.63473 526.000
64.65468 486.000
64.67462 419.000
64.69457 425.000
64.71452 443.000
64.73446 436.000
64.75441 417.000
64.77436 378.000
64.79430 385.000
64.81425 388.000
64.83420 363.000
64.85414 380.000
64.87409 340.000
64.89404 348.000
64.91399 324.000
64.93393 314.000
64.95388 324.000
64.97383 305.000
64.99377 350.000
65.01372 319.000
65.03367 327.000
65.05361 322.000
65.07356 313.000
65.09351 319.000
65.11346 286.000
65.13340 328.000
65.15335 348.000
65.17330 352.000
65.19324 330.000
65.21319 309.000
65.23314 293.000
65.25308 332.000
65.27303 357.000
65.29298 316.000
65.31293 324.000
65.33287 328.000
65.35282 312.000
65.37277 308.000
65.39271 314.000
65.41266 367.000
65.43261 330.000
65.45255 337.000
65.47250 328.000
65.49245 308.000
65.51239 340.000
65.53234 307.000
65.55229 317.000
65.57224 290.000
65.59218 291.000
65.61213 329.000
65.63208 291.000
65.65202 333.000
65.67197 323.000
65.69192 333.000
65.71186 326.000
65.73181 332.000
65.75176 319.000
65.77171 312.000
65.79165 303.000
65.81160 320.000
65.83155 299.000
65.85149 361.000
65.87144 318.000
65.89139 325.000
65.91133 301.000
65.93128 316.000
65.95123 326.000
65.97117 321.000
65.99112 294.000
66.01107 318.000
66.03102 315.000
66.05096 287.000
66.07091 333.000
66.09086 338.000
66.11080 304.000
66.13075 355.000
66.15070 291.000
66.17064 343.000
66.19059 326.000
66.21054 349.000
66.23049 338.000
66.25043 322.000
66.27038 320.000
66.29033 316.000
66.31027 283.000
66.33022 319.000
66.35017 337.000
66.37011 307.000
66.39006 301.000
66.41001 342.000
66.42995 331.000
66.44990 328.000
66.46985 295.000
66.48980 324.000
66.50974 313.000
66.52969 360.000
66.54964 335.000
66.56958 365.000
66.58953 369.000
66.60948 339.000
66.62942 360.000
66.64937 363.000
66.66932 389.000
66.68927 384.000
66.70921 373.000
66.72916 399.000
66.74911 393.000
66.76905 402.000
66.78900 431.000
66.80895 408.000
66.82889 426.000
66.84884 446.000
66.86879 464.000
66.88874 436.000
66.90868 478.000
66.92863 444.000
66.94858 476.000
66.96852 480.000
66.98847 511.000
67.00842 463.000
67.02836 449.000
67.04831 500.000
67.06826 435.000
67.08820 456.000
67.10815 444.000
67.12810 412.000
67.14805 413.000
67.16799 394.000
67.18794 420.000
67.20789 398.000
67.22783 350.000
67.24778 340.000
67.26773 357.000
67.28767 335.000
67.30762 314.000
67.32757 319.000
67.34752 337.000
67.36746 358.000
67.38741 313.000
67.40736 319.000
67.42730 311.000
67.44725 312.000
67.46720 314.000
67.48714 343.000
67.50709 326.000
67.52704 309.000
67.54698 294.000
67.56693 320.000
67.58688 301.000
67.60683 300.000
67.62677 366.000
67.64672 331.000
67.66667 303.000
67.68661 303.000
67.70656 316.000
67.72651 299.000
67.74645 309.000
67.76640 292.000
67.78635 325.000
67.80630 339.000
67.82624 337.000
67.84619 305.000
67.86614 324.000
67.88608 311.000
67.90603 314.000
67.92598 301.000
67.94592 310.000
67.96587 298.000
67.98582 293.000
68.00576 309.000
68.02571 291.000
68.04566 296.000
68.06561 332.000
68.08555 346.000
68.10550 308.000
68.12545 308.000
68.14539 309.000
68.16534 287.000
68.18529 305.000
68.20523 318.000
68.22518 328.000
68.24513 343.000
68.26508 298.000
68.28502 314.000
68.30497 325.000
68.32492 283.000
68.34486 301.000
68.36481 290.000
68.38476 305.000
68.40470 291.000
68.42465 319.000
68.44460 312.000
68.46455 299.000
68.48449 319.000
68.50444 347.000
68.52439 330.000
68.54433 307.000
68.56428 307.000
68.58423 292.000
68.60417 288.000
68.62412 312.000
68.64407 282.000
68.66401 284.000
68.68396 291.000
68.70391 318.000
68.72386 308.000
68.74380 302.000
68.76375 329.000
68.78370 275.000
68.80364 267.000
68.82359 317.000
68.84354 284.000
68.86348 314.000
68.88343 302.000
68.90338 311.000
68.92333 297.000
68.94327 262.000
68.96322 280.000
68.98317 309.000
69.00311 282.000
69.02306 305.000
69.04301 302.000
69.06295 294.000
69.08290 305.000
69.10285 310.000
69.12279 327.000
69.14274 287.000
69.16269 299.000
69.18264 302.000
69.20258 316.000
69.22253 288.000
69.24248 295.000
69.26242 298.000
69.28237 298.000
69.30232 302.000
69.32226 297.000
69.34221 311.000
69.36216 293.000
69.38211 273.000
69.40205 293.000
69.42200 289.000
69.44195 294.000
69.46189 284.000
69.48184 295.000
69.50179 293.000
69.52173 279.000
69.54168 289.000
69.56163 292.000
69.58157 270.000
69.60152 292.000
69.62147 289.000
69.64142 275.000
69.66136 301.000
69.68131 296.000
69.70126 291.000
69.72120 315.000
69.74115 289.000
69.76110 311.000
69.78104 332.000
69.80099 304.000
69.82094 326.000
69.84089 309.000
69.86083 310.000
69.88078 274.000
69.90073 275.000
69.92067 279.000
69.94062 293.000
69.96057 293.000
69.98051 287.000
70.00046 288.000
70.02041 327.000
70.04035 309.000
70.06030 315.000
70.08025 309.000
70.10020 287.000
70.12014 300.000
70.14009 303.000
70.16004 327.000
70.17998 297.000
70.19993 285.000
70.21988 317.000
70.23982 313.000
70.25977 297.000
70.27972 302.000
70.29967 276.000
70.31961 316.000
70.33956 282.000
70.35951 353.000
70.37945 257.000
70.39940 314.000
70.41935 272.000
70.43929 313.000
70.45924 285.000
70.47919 292.000
70.49914 329.000
70.51908 304.000
70.53903 307.000
70.55898 297.000
70.57892 329.000
70.59887 296.000
70.61882 326.000
70.63876 319.000
70.65871 310.000
70.67866 322.000
70.69860 316.000
70.71855 292.000
70.73850 298.000
70.75845 314.000
70.77839 310.000
70.79834 296.000
70.81829 307.000
70.83823 291.000
70.85818 317.000
70.87813 306.000
70.89807 290.000
70.91802 300.000
70.93797 298.000
70.95792 338.000
70.97786 327.000
70.99781 318.000
71.01776 302.000
71.03770 321.000
71.05765 280.000
71.07760 290.000
71.09754 289.000
71.11749 291.000
71.13744 334.000
71.15738 283.000
71.17733 325.000
71.19728 328.000
71.21723 290.000
71.23717 304.000
71.25712 302.000
71.27707 315.000
71.29701 318.000
71.31696 302.000
71.33691 348.000
71.35685 301.000
71.37680 305.000
71.39675 295.000
71.41670 333.000
71.43664 331.000
71.45659 309.000
71.47654 280.000
71.49648 263.000
71.51643 313.000
71.53638 316.000
71.55632 294.000
71.57627 302.000
71.59622 295.000
71.61616 316.000
71.63611 287.000
71.65606 322.000
71.67601 275.000
71.69595 285.000
71.71590 317.000
71.73585 291.000
71.75579 321.000
71.77574 336.000
71.79569 325.000
71.81563 302.000
71.83558 299.000
71.85553 295.000
71.87548 271.000
71.89542 304.000
71.91537 290.000
71.93532 290.000
71.95526 330.000
71.97521 274.000
71.99516 327.000
72.01510 272.000
72.03505 256.000
72.05500 295.000
72.07495 277.000
72.09489 304.000
72.11484 308.000
72.13479 318.000
72.15473 315.000
72.17468 297.000
72.19463 294.000
72.21457 323.000
72.23452 312.000
72.25447 301.000
72.27441 320.000
72.29436 308.000
72.31431 267.000
72.33426 305.000
72.35420 289.000
72.37415 299.000
72.39410 348.000
72.41404 303.000
72.43399 290.000
72.45394 307.000
72.47388 310.000
72.49383 267.000
72.51378 297.000
72.53373 301.000
72.55367 301.000
72.57362 293.000
72.59357 315.000
72.61351 298.000
72.63346 310.000
72.65341 285.000
72.67335 323.000
72.69330 356.000
72.71325 310.000
72.73319 313.000
72.75314 307.000
72.77309 330.000
72.79304 304.000
72.81298 323.000
72.83293 303.000
72.85288 308.000
72.87282 316.000
72.89277 314.000
72.91272 288.000
72.93266 322.000
72.95261 323.000
72.97256 315.000
72.99251 286.000
73.01245 338.000
73.03240 311.000
73.05235 308.000
73.07229 331.000
73.09224 315.000
73.11219 294.000
73.13213 279.000
73.15208 286.000
73.17203 280.000
73.19197 303.000
73.21192 315.000
73.23187 319.000
73.25182 296.000
73.27176 308.000
73.29171 281.000
73.31166 295.000
73.33160 299.000
73.35155 299.000
73.37150 320.000
73.39144 317.000
73.41139 316.000
73.43134 319.000
73.45129 292.000
73.47123 321.000
73.49118 276.000
73.51113 333.000
73.53107 310.000
73.55102 332.000
73.57097 287.000
73.59091 294.000
73.61086 326.000
73.63081 329.000
73.65076 324.000
73.67070 339.000
73.69065 323.000
73.71060 334.000
73.73054 349.000
73.75049 339.000
73.77044 353.000
73.79038 353.000
73.81033 376.000
73.83028 350.000
73.85022 348.000
73.87017 380.000
73.89012 352.000
73.91007 379.000
73.93001 316.000
73.94996 343.000
73.96991 327.000
73.98985 333.000
74.00980 344.000
74.02975 341.000
74.04969 369.000
74.06964 366.000
74.08959 329.000
74.10954 366.000
74.12948 340.000
74.14943 331.000
74.16938 322.000
74.18932 332.000
74.20927 348.000
74.22922 331.000
74.24916 311.000
74.26911 327.000
74.28906 333.000
74.30900 296.000
74.32895 346.000
74.34890 305.000
74.36885 316.000
74.38879 308.000
74.40874 321.000
74.42869 285.000
74.44863 302.000
74.46858 334.000
74.48853 332.000
74.50847 337.000
74.52842 317.000
74.54837 351.000
74.56832 302.000
74.58826 343.000
74.60821 352.000
74.62816 339.000
74.64810 360.000
74.66805 347.000
74.68800 355.000
74.70794 365.000
74.72789 342.000
74.74784 406.000
74.76778 376.000
74.78773 380.000
74.80768 381.000
74.82763 390.000
74.84757 410.000
74.86752 419.000
74.88747 445.000
74.90741 413.000
74.92736 460.000
74.94731 533.000
74.96725 551.000
74.98720 561.000
75.00715 632.000
75.02710 644.000
75.04704 749.000
75.06699 855.000
75.08694 917.000
75.10688 1052.000
75.12683 1098.000
75.14678 1056.000
75.16672 1171.000
75.18667 1203.000
75.20662 1193.000
75.22657 1167.000
75.24651 1139.000
75.26646 1088.000
75.28641 1022.000
75.30635 921.000
75.32630 821.000
75.34625 882.000
75.36619 859.000
75.38614 813.000
75.40609 822.000
75.42603 798.000
75.44598 731.000
75.46593 672.000
75.48588 640.000
75.50582 528.000
75.52577 563.000
75.54572 493.000
75.56566 445.000
75.58561 408.000
75.60556 403.000
75.62550 386.000
75.64545 343.000
75.66540 334.000
75.68535 370.000
75.70529 343.000
75.72524 351.000
75.74519 327.000
75.76513 302.000
75.78508 334.000
75.80503 318.000
75.82497 326.000
75.84492 324.000
75.86487 320.000
75.88481 320.000
75.90476 315.000
75.92471 308.000
75.94466 343.000
75.96460 317.000
75.98455 339.000
76.00450 351.000
76.02444 328.000
76.04439 357.000
76.06434 310.000
76.08428 334.000
76.10423 333.000
76.12418 321.000
76.14413 358.000
76.16407 312.000
76.18402 339.000
76.20397 349.000
76.22391 337.000
76.24386 304.000
76.26381 312.000
76.28375 328.000
76.30370 319.000
76.32365 304.000
76.34359 315.000
76.36354 290.000
76.38349 315.000
76.40344 315.000
76.42338 322.000
76.44333 312.000
76.46328 302.000
76.48322 317.000
76.50317 311.000
76.52312 315.000
76.54306 322.000
76.56301 301.000
76.58296 336.000
76.60291 322.000
76.62285 309.000
76.64280 313.000
76.66275 325.000
76.68269 310.000
76.70264 291.000
76.72259 293.000
76.74253 302.000
76.76248 325.000
76.78243 263.000
76.80238 289.000
76.82232 284.000
76.84227 328.000
76.86222 290.000
76.88216 298.000
76.90211 303.000
76.92206 334.000
76.94200 300.000
76.96195 312.000
76.98190 321.000
77.00184 320.000
77.02179 305.000
77.04174 323.000
77.06169 333.000
77.08163 300.000
77.10158 286.000
77.12153 292.000
77.14147 311.000
77.16142 330.000
77.18137 311.000
77.20131 327.000
77.22126 306.000
77.24121 311.000
77.26116 318.000
77.28110 306.000
77.30105 312.000
77.32100 321.000
77.34094 301.000
77.36089 269.000
77.38084 330.000
77.40078 309.000
77.42073 293.000
77.44068 324.000
77.46062 313.000
77.48057 301.000
77.50052 339.000
77.52047 324.000
77.54041 328.000
77.56036 293.000
77.58031 309.000
77.60025 319.000
77.62020 291.000
77.64015 297.000
77.66009 293.000
77.68004 324.000
77.69999 281.000
77.71994 282.000
77.73988 305.000
77.75983 292.000
77.77978 282.000
77.79972 283.000
77.81967 330.000
77.83962 322.000
77.85956 321.000
77.87951 321.000
77.89946 327.000
77.91940 301.000
77.93935 329.000
77.95930 311.000
77.97925 331.000
77.99919 336.000
78.01914 302.000
78.03909 315.000
78.05903 285.000
78.07898 324.000
78.09893 323.000
78.11887 362.000
78.13882 333.000
78.15877 372.000
78.17872 337.000
78.19866 368.000
78.21861 352.000
78.23856 356.000
78.25850 395.000
78.27845 346.000
78.29840 378.000
78.31834 397.000
78.33829 428.000
78.35824 410.000
78.37819 397.000
78.39813 399.000
78.41808 417.000
78.43803 438.000
78.45797 416.000
78.47792 377.000
78.49787 373.000
78.51781 367.000
78.53776 399.000
78.55771 352.000
78.57765 375.000
78.59760 350.000
78.61755 360.000
78.63750 370.000
78.65744 384.000
78.67739 341.000
78.69734 367.000
78.71728 401.000
78.73723 351.000
78.75718 391.000
78.77712 367.000
78.79707 344.000
78.81702 342.000
78.83697 376.000
78.85691 379.000
78.87686 376.000
78.89681 415.000
78.91675 429.000
78.93670 456.000
78.95665 460.000
78.97659 466.000
78.99654 505.000
79.01649 668.000
79.03643 650.000
79.05638 775.000
79.07633 818.000
79.09628 933.000
79.11622 948.000
79.13617 915.000
79.15612 950.000
79.17606 949.000
79.19601 856.000
79.21596 829.000
79.23590 821.000
79.25585 766.000
79.27580 760.000
79.29575 712.000
79.31569 703.000
79.33564 727.000
79.35559 680.000
79.37553 653.000
79.39548 693.000
79.41543 706.000
79.43537 584.000
79.45532 580.000
79.47527 507.000
79.49521 494.000
79.51516 496.000
79.53511 394.000
79.55506 397.000
79.57500 392.000
79.59495 371.000
79.61490 339.000
79.63484 315.000
79.65479 312.000
79.67474 349.000
79.69468 308.000
79.71463 335.000
79.73458 343.000
79.75453 307.000
79.77447 322.000
79.79442 309.000
79.81437 319.000
79.83431 307.000
79.85426 346.000
79.87421 293.000
79.89415 337.000
79.91410 317.000
79.93405 345.000
79.95399 265.000
79.97394 334.000
79.99389 323.000
80.01384 290.000
80.03378 314.000
80.05373 315.000
80.07368 301.000
80.09362 300.000
80.11357 321.000
80.13352 285.000
80.15346 333.000
80.17341 314.000
80.19336 275.000
80.21331 300.000
80.23325 294.000
80.25320 313.000
80.27315 310.000
80.29309 316.000
80.31304 337.000
80.33299 315.000
80.35293 305.000
80.37288 313.000
80.39283 331.000
80.41278 325.000
80.43272 287.000
80.45267 274.000
80.47262 299.000
80.49256 314.000
80.51251 314.000
80.53246 328.000
80.55240 302.000
80.57235 301.000
80.59230 306.000
80.61224 310.000
80.63219 285.000
80.65214 298.000
80.67209 303.000
80.69203 287.000
80.71198 288.000
80.73193 299.000
80.75187 293.000
80.77182 315.000
80.79177 319.000
80.81171 279.000
80.83166 317.000
80.85161 299.000
80.87156 301.000
80.89150 313.000
80.91145 306.000
80.93140 286.000
80.95134 284.000
80.97129 301.000
80.99124 299.000
81.01118 325.000
81.03113 315.000
81.05108 289.000
81.07102 301.000
81.09097 309.000
81.11092 330.000
81.13087 333.000
81.15081 332.000
81.17076 299.000
81.19071 296.000
81.21065 326.000
81.23060 288.000
81.25055 319.000
81.27049 293.000
81.29044 340.000
81.31039 293.000
81.33034 319.000
81.35028 317.000
81.37023 306.000
81.39018 286.000
81.41012 283.000
81.43007 284.000
81.45002 289.000
81.46996 308.000
81.48991 303.000
81.50986 275.000
81.52980 298.000
81.54975 298.000
81.56970 320.000
81.58965 298.000
81.60959 280.000
81.62954 298.000
81.64949 314.000
81.66943 279.000
81.68938 274.000
81.70933 307.000
81.72927 292.000
81.74922 268.000
81.76917 303.000
81.78912 297.000
81.80906 291.000
81.82901 312.000
81.84896 271.000
81.86890 303.000
81.88885 285.000
81.90880 326.000
81.92874 304.000
81.94869 266.000
81.96864 290.000
81.98859 273.000
82.00853 316.000
82.02848 301.000
82.04843 324.000
82.06837 316.000
82.08832 294.000
82.10827 302.000
82.12821 281.000
82.14816 301.000
82.16811 314.000
82.18805 299.000
82.20800 303.000
82.22795 353.000
82.24790 297.000
82.26784 310.000
82.28779 290.000
82.30774 288.000
82.32768 313.000
82.34763 320.000
82.36758 290.000
82.38752 295.000
82.40747 279.000
82.42742 303.000
82.44737 286.000
82.46731 300.000
82.48726 311.000
82.50721 281.000
82.52715 324.000
82.54710 340.000
82.56705 334.000
82.58699 319.000
82.60694 319.000
82.62689 343.000
82.64683 318.000
82.66678 286.000
82.68673 318.000
82.70668 263.000
82.72662 283.000
82.74657 309.000
82.76652 278.000
82.78646 307.000
82.80641 288.000
82.82636 330.000
82.84630 310.000
82.86625 242.000
82.88620 310.000
82.90615 290.000
82.92609 296.000
82.94604 293.000
82.96599 292.000
82.98593 261.000
83.00588 322.000
83.02583 269.000
83.04577 284.000
83.06572 320.000
83.08567 315.000
83.10561 296.000
83.12556 264.000
83.14551 285.000
83.16546 295.000
83.18540 284.000
83.20535 305.000
83.22530 285.000
83.24524 301.000
83.26519 324.000
83.28514 324.000
83.30508 315.000
83.32503 286.000
83.34498 353.000
83.36493 289.000
83.38487 318.000
83.40482 301.000
83.42477 315.000
83.44471 303.000
83.46466 317.000
83.48461 272.000
83.50455 292.000
83.52450 287.000
83.54445 307.000
83.56440 283.000
83.58434 319.000
83.60429 292.000
83.62424 288.000
83.64418 277.000
83.66413 307.000
83.68408 272.000
83.70402 291.000
83.72397 317.000
83.74392 334.000
83.76386 273.000
83.78381 313.000
83.80376 317.000
83.82371 266.000
83.84365 281.000
83.86360 291.000
83.88355 324.000
83.90349 305.000
83.92344 293.000
83.94339 266.000
83.96333 304.000
83.98328 309.000
84.00323 283.000
84.02318 311.000
84.04312 260.000
84.06307 305.000
84.08302 297.000
84.10296 306.000
84.12291 275.000
84.14286 290.000
84.16280 309.000
84.18275 338.000
84.20270 300.000
84.22264 324.000
84.24259 307.000
84.26254 275.000
84.28249 304.000
84.30243 321.000
84.32238 288.000
84.34233 300.000
84.36227 310.000
84.38222 294.000
84.40217 304.000
84.42211 281.000
84.44206 303.000
84.46201 309.000
84.48196 272.000
84.50190 306.000
84.52185 310.000
84.54180 310.000
84.56174 360.000
84.58169 269.000
84.60164 272.000
84.62158 314.000
84.64153 286.000
84.66148 307.000
84.68142 325.000
84.70137 331.000
84.72132 297.000
84.74127 307.000
84.76121 285.000
84.78116 309.000
84.80111 343.000
84.82105 343.000
84.84100 328.000
84.86095 364.000
84.88089 325.000
84.90084 379.000
84.92079 345.000
84.94074 330.000
84.96068 363.000
84.98063 347.000
85.00058 345.000
85.02052 340.000
85.04047 349.000
85.06042 361.000
85.08036 363.000
85.10031 328.000
85.12026 332.000
85.14021 315.000
85.16015 341.000
85.18010 333.000
85.20005 342.000
85.21999 307.000
85.23994 349.000
85.25989 333.000
85.27983 308.000
85.29978 336.000
85.31973 317.000
85.33967 291.000
85.35962 303.000
85.37957 285.000
85.39952 312.000
85.41946 305.000
85.43941 297.000
85.45936 283.000
85.47930 302.000
85.49925 306.000
85.51920 308.000
85.53914 299.000
85.55909 307.000
85.57904 312.000
85.59899 274.000
85.61893 277.000
85.63888 304.000
85.65883 272.000
85.67877 282.000
85.69872 319.000
85.71867 301.000
85.73861 284.000
85.75856 272.000
85.77851 283.000
85.79845 324.000
85.81840 304.000
85.83835 293.000
85.85830 298.000
85.87824 288.000
85.89819 280.000
85.91814 316.000
85.93808 296.000
85.95803 277.000
85.97798 315.000
85.99792 292.000
86.01787 300.000
86.03782 302.000
86.05777 306.000
86.07771 298.000
86.09766 287.000
86.11761 323.000
86.13755 329.000
86.15750 312.000
86.17745 281.000
86.19739 324.000
86.21734 331.000
86.23729 304.000
86.25723 291.000
86.27718 318.000
86.29713 299.000
86.31708 300.000
86.33702 286.000
86.35697 293.000
86.37692 276.000
86.39686 272.000
86.41681 283.000
86.43676 272.000
86.45670 300.000
86.47665 285.000
86.49660 279.000
86.51655 305.000
86.53649 306.000
86.55644 278.000
86.57639 284.000
86.59633 330.000
86.61628 310.000
86.63623 297.000
86.65617 320.000
86.67612 287.000
86.69607 278.000
86.71602 304.000
86.73596 297.000
86.75591 274.000
86.77586 319.000
86.79580 281.000
86.81575 298.000
86.83570 253.000
86.85564 297.000
86.87559 334.000
86.89554 309.000
86.91548 284.000
86.93543 313.000
86.95538 325.000
86.97533 301.000
86.99527 284.000
87.01522 343.000
87.03517 287.000
87.05511 279.000
87.07506 303.000
87.09501 322.000
87.11495 278.000
87.13490 289.000
87.15485 318.000
87.17480 264.000
87.19474 293.000
87.21469 298.000
87.23464 303.000
87.25458 287.000
87.27453 298.000
87.29448 307.000
87.31442 284.000
87.33437 304.000
87.35432 320.000
87.37426 286.000
87.39421 315.000
87.41416 280.000
87.43411 297.000
87.45405 308.000
87.47400 323.000
87.49395 289.000
87.51389 320.000
87.53384 295.000
87.55379 311.000
87.57373 311.000
87.59368 303.000
87.61363 303.000
87.63358 302.000
87.65352 318.000
87.67347 272.000
87.69342 307.000
87.71336 295.000
87.73331 293.000
87.75326 303.000
87.77320 302.000
87.79315 297.000
87.81310 301.000
87.83304 303.000
87.85299 300.000
87.87294 297.000
87.89289 277.000
87.91283 281.000
87.93278 324.000
87.95273 347.000
87.97267 286.000
87.99262 297.000
88.01257 262.000
88.03251 305.000
88.05246 318.000
88.07241 292.000
88.09236 295.000
88.11230 284.000
88.13225 321.000
88.15220 299.000
88.17214 301.000
88.19209 280.000
88.21204 284.000
88.23198 291.000
88.25193 273.000
88.27188 305.000
88.29183 308.000
88.31177 341.000
88.33172 308.000
88.35167 272.000
88.37161 311.000
88.39156 299.000
88.41151 281.000
88.43145 291.000
88.45140 299.000
88.47135 284.000
88.49129 293.000
88.51124 282.000
88.53119 286.000
88.55114 283.000
88.57108 316.000
88.59103 295.000
88.61098 291.000
88.63092 314.000
88.65087 302.000
88.67082 262.000
88.69076 282.000
88.71071 298.000
88.73066 299.000
88.75061 261.000
88.77055 276.000
88.79050 297.000
88.81045 296.000
88.83039 277.000
88.85034 274.000
88.87029 294.000
88.89023 296.000
88.91018 302.000
88.93013 279.000
88.95007 289.000
88.97002 297.000
88.98997 286.000
89.00992 274.000
89.02986 290.000
89.04981 281.000
89.06976 304.000
89.08970 299.000
89.10965 301.000
89.12960 322.000
89.14954 289.000
89.16949 266.000
89.18944 294.000
89.20939 281.000
89.22933 293.000
89.24928 260.000
89.26923 270.000
89.28917 287.000
89.30912 285.000
89.32907 281.000
89.34901 315.000
89.36896 280.000
89.38891 255.000
89.40885 299.000
89.42880 272.000
89.44875 274.000
89.46870 283.000
89.48864 284.000
89.50859 322.000
89.52854 298.000
89.54848 279.000
89.56843 314.000
89.58838 292.000
89.60832 294.000
89.62827 303.000
89.64822 286.000
89.66817 303.000
89.68811 293.000
89.70806 298.000
89.72801 271.000
89.74795 313.000
89.76790 264.000
89.78785 274.000
89.80779 303.000
89.82774 283.000
89.84769 290.000
89.86764 306.000
89.88758 264.000
89.90753 298.000
89.92748 292.000
89.94742 275.000
89.96737 306.000
89.98732 257.000
90.00726 290.000
