10.00000 84.000
10.01995 67.000
10.03989 70.000
10.05984 51.000
10.07979 77.000
10.09973 92.000
10.11968 70.000
10.13963 58.000
10.15958 73.000
10.17952 86.000
10.19947 81.000
10.21942 74.000
10.23936 72.000
10.25931 65.000
10.27926 70.000
10.29920 67.000
10.31915 76.000
10.33910 72.000
10.35905 77.000
10.37899 68.000
10.39894 80.000
10.41889 77.000
10.43883 89.000
10.45878 77.000
10.47873 66.000
10.49867 79.000
10.51862 75.000
10.53857 72.000
10.55851 69.000
10.57846 63.000
10.59841 86.000
10.61836 81.000
10.63830 78.000
10.65825 75.000
10.67820 86.000
10.69814 68.000
10.71809 87.000
10.73804 81.000
10.75798 57.000
10.77793 92.000
10.79788 74.000
10.81783 91.000
10.83777 76.000
10.85772 64.000
10.87767 96.000
10.89761 69.000
10.91756 68.000
10.93751 62.000
10.95745 78.000
10.97740 68.000
10.99735 52.000
11.01730 67.000
11.03724 70.000
11.05719 82.000
11.07714 74.000
11.09708 73.000
11.11703 67.000
11.13698 58.000
11.15692 70.000
11.17687 75.000
11.19682 73.000
11.21676 72.000
11.23671 67.000
11.25666 83.000
11.27661 67.000
11.29655 74.000
11.31650 83.000
11.33645 73.000
11.35639 59.000
11.37634 67.000
11.39629 72.000
11.41623 68.000
11.43618 82.000
11.45613 58.000
11.47608 62.000
11.49602 73.000
11.51597 77.000
11.53592 63.000
11.55586 80.000
11.57581 75.000
11.59576 58.000
11.61570 72.000
11.63565 77.000
11.65560 79.000
11.67554 70.000
11.69549 60.000
11.71544 79.000
11.73539 87.000
11.75533 69.000
11.77528 75.000
11.79523 60.000
11.81517 66.000
11.83512 60.000
11.85507 75.000
11.87501 70.000
11.89496 74.000
11.91491 87.000
11.93486 56.000
11.95480 62.000
11.97475 77.000
11.99470 71.000
12.01464 67.000
12.03459 67.000
12.05454 50.000
12.07448 69.000
12.09443 82.000
12.11438 57.000
12.13432 78.000
12.15427 80.000
12.17422 89.000
12.19417 70.000
12.21411 66.000
12.23406 62.000
12.25401 73.000
12.27395 79.000
12.29390 60.000
12.31385 70.000
12.33379 59.000
12.35374 79.000
12.37369 59.000
12.39364 63.000
12.41358 47.000
12.43353 56.000
12.45348 56.000
12.47342 69.000
12.49337 65.000
12.51332 69.000
12.53326 62.000
12.55321 63.000
12.57316 77.000
12.59311 68.000
12.61305 68.000
12.63300 56.000
12.65295 75.000
12.67289 67.000
12.69284 74.000
12.71279 67.000
12.73273 61.000
12.75268 62.000
12.77263 66.000
12.79257 66.000
12.81252 51.000
12.83247 62.000
12.85242 69.000
12.87236 66.000
12.89231 75.000
12.91226 69.000
12.93220 65.000
12.95215 65.000
12.97210 75.000
12.99204 72.000
13.01199 60.000
13.03194 55.000
13.05189 58.000
13.07183 64.000
13.09178 79.000
13.11173 62.000
13.13167 61.000
13.15162 58.000
13.17157 70.000
13.19151 64.000
13.21146 64.000
13.23141 71.000
13.25135 71.000
13.27130 64.000
13.29125 64.000
13.31120 57.000
13.33114 68.000
13.35109 66.000
13.37104 64.000
13.39098 82.000
13.41093 52.000
13.43088 76.000
13.45082 57.000
13.47077 66.000
13.49072 46.000
13.51067 77.000
13.53061 74.000
13.55056 69.000
13.57051 67.000
13.59045 70.000
13.61040 61.000
13.63035 70.000
13.65029 58.000
13.67024 75.000
13.69019 65.000
13.71013 76.000
13.73008 55.000
13.75003 54.000
13.76998 57.000
13.78992 69.000
13.80987 51.000
13.82982 75.000
13.84976 52.000
13.86971 68.000
13.88966 55.000
13.90960 58.000
13.92955 54.000
13.94950 60.000
13.96945 60.000
13.98939 61.000
14.00934 78.000
14.02929 51.000
14.04923 69.000
14.06918 52.000
14.08913 57.000
14.10907 57.000
14.12902 54.000
14.14897 60.000
14.16892 64.000
14.18886 66.000
14.20881 71.000
14.22876 62.000
14.24870 75.000
14.26865 73.000
14.28860 69.000
14.30854 63.000
14.32849 68.000
14.34844 64.000
14.36838 60.000
14.38833 61.000
14.40828 60.000
14.42823 76.000
14.44817 62.000
14.46812 75.000
14.48807 59.000
14.50801 73.000
14.52796 72.000
14.54791 77.000
14.56785 72.000
14.58780 55.000
14.60775 63.000
14.62770 63.000
14.64764 49.000
14.66759 57.000
14.68754 60.000
14.70748 61.000
14.72743 71.000
14.74738 54.000
14.76732 59.000
14.78727 76.000
14.80722 66.000
14.82716 60.000
14.84711 62.000
14.86706 64.000
14.88701 57.000
14.90695 64.000
14.92690 55.000
14.94685 62.000
14.96679 75.000
14.98674 68.000
15.00669 58.000
15.02663 68.000
15.04658 66.000
15.06653 55.000
15.08648 65.000
15.10642 75.000
15.12637 58.000
15.14632 65.000
15.16626 66.000
15.18621 61.000
15.20616 71.000
15.22610 74.000
15.24605 68.000
15.26600 78.000
15.28594 78.000
15.30589 79.000
15.32584 82.000
15.34579 78.000
15.36573 102.000
15.38568 103.000
15.40563 97.000
15.42557 113.000
15.44552 148.000
15.46547 148.000
15.48541 156.000
15.50536 172.000
15.52531 197.000
15.54526 261.000
15.56520 292.000
15.58515 337.000
15.60510 295.000
15.62504 307.000
15.64499 263.000
15.66494 214.000
15.68488 236.000
15.70483 234.000
15.72478 234.000
15.74472 236.000
15.76467 226.000
15.78462 269.000
15.80457 318.000
15.82451 315.000
15.84446 409.000
15.86441 448.000
15.88435 564.000
15.90430 584.000
15.92425 639.000
15.94419 660.000
15.96414 692.000
15.98409 699.000
16.00404 761.000
16.02398 796.000
16.04393 807.000
16.06388 761.000
16.08382 683.000
16.10377 695.000
16.12372 605.000
16.14366 530.000
16.16361 480.000
16.18356 421.000
16.20351 387.000
16.22345 344.000
16.24340 302.000
16.26335 255.000
16.28329 253.000
16.30324 165.000
16.32319 190.000
16.34313 130.000
16.36308 135.000
16.38303 97.000
16.40297 103.000
16.42292 116.000
16.44287 98.000
16.46282 106.000
16.48276 98.000
16.50271 113.000
16.52266 99.000
16.54260 100.000
16.56255 98.000
16.58250 89.000
16.60244 78.000
16.62239 88.000
16.64234 93.000
16.66229 82.000
16.68223 87.000
16.70218 84.000
16.72213 90.000
16.74207 69.000
16.76202 92.000
16.78197 86.000
16.80191 72.000
16.82186 74.000
16.84181 70.000
16.86175 70.000
16.88170 89.000
16.90165 86.000
16.92160 82.000
16.94154 69.000
16.96149 81.000
16.98144 107.000
17.00138 86.000
17.02133 68.000
17.04128 70.000
17.06122 78.000
17.08117 68.000
17.10112 80.000
17.12107 70.000
17.14101 73.000
17.16096 70.000
17.18091 77.000
17.20085 73.000
17.22080 71.000
17.24075 98.000
17.26069 63.000
17.28064 64.000
17.30059 60.000
17.32053 73.000
17.34048 82.000
17.36043 69.000
17.38038 75.000
17.40032 84.000
17.42027 74.000
17.44022 81.000
17.46016 69.000
17.48011 64.000
17.50006 78.000
17.52000 71.000
17.53995 67.000
17.55990 62.000
17.57985 84.000
17.59979 62.000
17.61974 64.000
17.63969 75.000
17.65963 65.000
17.67958 55.000
17.69953 67.000
17.71947 50.000
17.73942 66.000
17.75937 63.000
17.77932 64.000
17.79926 52.000
17.81921 58.000
17.83916 69.000
17.85910 70.000
17.87905 64.000
17.89900 69.000
17.91894 58.000
17.93889 86.000
17.95884 66.000
17.97878 82.000
17.99873 72.000
18.01868 67.000
18.03863 79.000
18.05857 102.000
18.07852 111.000
18.09847 109.000
18.11841 115.000
18.13836 133.000
18.15831 165.000
18.17825 170.000
18.19820 185.000
18.21815 204.000
18.23810 211.000
18.25804 196.000
18.27799 185.000
18.29794 122.000
18.31788 125.000
18.33783 87.000
18.35778 77.000
18.37772 98.000
18.39767 63.000
18.41762 61.000
18.43756 61.000
18.45751 68.000
18.47746 46.000
18.49741 57.000
18.51735 64.000
18.53730 59.000
18.55725 61.000
18.57719 56.000
18.59714 45.000
18.61709 57.000
18.63703 69.000
18.65698 62.000
18.67693 55.000
18.69688 46.000
18.71682 44.000
18.73677 55.000
18.75672 59.000
18.77666 56.000
18.79661 73.000
18.81656 68.000
18.83650 58.000
18.85645 55.000
18.87640 54.000
18.89634 43.000
18.91629 62.000
18.93624 67.000
18.95619 60.000
18.97613 64.000
18.99608 60.000
19.01603 59.000
19.03597 63.000
19.05592 60.000
19.07587 65.000
19.09581 48.000
19.11576 66.000
19.13571 48.000
19.15566 53.000
19.17560 54.000
19.19555 54.000
19.21550 61.000
19.23544 69.000
19.25539 52.000
19.27534 54.000
19.29528 49.000
19.31523 55.000
19.33518 52.000
19.35513 52.000
19.37507 60.000
19.39502 58.000
19.41497 49.000
19.43491 52.000
19.45486 54.000
19.47481 59.000
19.49475 59.000
19.51470 65.000
19.53465 63.000
19.55459 69.000
19.57454 61.000
19.59449 61.000
19.61444 58.000
19.63438 60.000
19.65433 73.000
19.67428 53.000
19.69422 57.000
19.71417 61.000
19.73412 59.000
19.75406 75.000
19.77401 63.000
19.79396 65.000
19.81391 59.000
19.83385 65.000
19.85380 66.000
19.87375 54.000
19.89369 50.000
19.91364 45.000
19.93359 54.000
19.95353 56.000
19.97348 49.000
19.99343 65.000
20.01337 65.000
20.03332 66.000
20.05327 62.000
20.07322 63.000
20.09316 69.000
20.11311 65.000
20.13306 65.000
20.15300 72.000
20.17295 77.000
20.19290 56.000
20.21284 80.000
20.23279 106.000
20.25274 93.000
20.27269 129.000
20.29263 109.000
20.31258 119.000
20.33253 125.000
20.35247 157.000
20.37242 178.000
20.39237 186.000
20.41231 199.000
20.43226 203.000
20.45221 229.000
20.47215 202.000
20.49210 201.000
20.51205 239.000
20.53200 222.000
20.55194 209.000
20.57189 212.000
20.59184 213.000
20.61178 201.000
20.63173 189.000
20.65168 190.000
20.67162 170.000
20.69157 158.000
20.71152 176.000
20.73147 177.000
20.75141 156.000
20.77136 146.000
20.79131 151.000
20.81125 110.000
20.83120 103.000
20.85115 94.000
20.87109 98.000
20.89104 88.000
20.91099 61.000
20.93094 84.000
20.95088 78.000
20.97083 67.000
20.99078 60.000
21.01072 62.000
21.03067 70.000
21.05062 59.000
21.07056 62.000
21.09051 80.000
21.11046 59.000
21.13040 54.000
21.15035 63.000
21.17030 69.000
21.19025 51.000
21.21019 63.000
21.23014 49.000
21.25009 50.000
21.27003 56.000
21.28998 73.000
21.30993 59.000
21.32987 49.000
21.34982 67.000
21.36977 50.000
21.38972 63.000
21.40966 61.000
21.42961 60.000
21.44956 49.000
21.46950 59.000
21.48945 70.000
21.50940 55.000
21.52934 54.000
21.54929 57.000
21.56924 59.000
21.58918 52.000
21.60913 47.000
21.62908 57.000
21.64903 56.000
21.66897 50.000
21.68892 56.000
21.70887 58.000
21.72881 62.000
21.74876 38.000
21.76871 66.000
21.78865 54.000
21.80860 59.000
21.82855 53.000
21.84850 56.000
21.86844 51.000
21.88839 77.000
21.90834 51.000
21.92828 81.000
21.94823 64.000
21.96818 70.000
21.98812 77.000
22.00807 65.000
22.02802 67.000
22.04796 66.000
22.06791 45.000
22.08786 65.000
22.10781 50.000
22.12775 51.000
22.14770 51.000
22.16765 57.000
22.18759 63.000
22.20754 58.000
22.22749 63.000
22.24743 75.000
22.26738 62.000
22.28733 62.000
22.30728 55.000
22.32722 64.000
22.34717 45.000
22.36712 58.000
22.38706 62.000
22.40701 56.000
22.42696 62.000
22.44690 59.000
22.46685 62.000
22.48680 58.000
22.50675 44.000
22.52669 61.000
22.54664 61.000
22.56659 57.000
22.58653 67.000
22.60648 65.000
22.62643 65.000
22.64637 65.000
22.66632 52.000
22.68627 57.000
22.70621 84.000
22.72616 67.000
22.74611 60.000
22.76606 52.000
22.78600 59.000
22.80595 69.000
22.82590 64.000
22.84584 68.000
22.86579 75.000
22.88574 55.000
22.90568 76.000
22.92563 58.000
22.94558 77.000
22.96553 69.000
22.98547 81.000
23.00542 54.000
23.02537 66.000
23.04531 47.000
23.06526 59.000
23.08521 63.000
23.10515 71.000
23.12510 61.000
23.14505 60.000
23.16499 56.000
23.18494 73.000
23.20489 54.000
23.22484 70.000
23.24478 73.000
23.26473 75.000
23.28468 62.000
23.30462 56.000
23.32457 63.000
23.34452 55.000
23.36446 70.000
23.38441 66.000
23.40436 60.000
23.42431 55.000
23.44425 52.000
23.46420 54.000
23.48415 58.000
23.50409 63.000
23.52404 66.000
23.54399 66.000
23.56393 56.000
23.58388 51.000
23.60383 69.000
23.62377 51.000
23.64372 70.000
23.66367 54.000
23.68362 47.000
23.70356 73.000
23.72351 48.000
23.74346 65.000
23.76340 63.000
23.78335 63.000
23.80330 56.000
23.82324 70.000
23.84319 64.000
23.86314 68.000
23.88309 67.000
23.90303 70.000
23.92298 52.000
23.94293 65.000
23.96287 64.000
23.98282 64.000
24.00277 65.000
24.02271 57.000
24.04266 62.000
24.06261 75.000
24.08256 57.000
24.10250 58.000
24.12245 66.000
24.14240 60.000
24.16234 66.000
24.18229 54.000
24.20224 58.000
24.22218 73.000
24.24213 73.000
24.26208 67.000
24.28202 62.000
24.30197 67.000
24.32192 50.000
24.34187 62.000
24.36181 60.000
24.38176 73.000
24.40171 69.000
24.42165 77.000
24.44160 58.000
24.46155 68.000
24.48149 67.000
24.50144 64.000
24.52139 56.000
24.54134 65.000
24.56128 53.000
24.58123 60.000
24.60118 60.000
24.62112 58.000
24.64107 63.000
24.66102 61.000
24.68096 67.000
24.70091 66.000
24.72086 66.000
24.74080 75.000
24.76075 64.000
24.78070 62.000
24.80065 63.000
24.82059 67.000
24.84054 75.000
24.86049 78.000
24.88043 69.000
24.90038 80.000
24.92033 66.000
24.94027 56.000
24.96022 63.000
24.98017 72.000
25.00012 69.000
25.02006 59.000
25.04001 70.000
25.05996 80.000
25.07990 61.000
25.09985 53.000
25.11980 67.000
25.13974 62.000
25.15969 68.000
25.17964 62.000
25.19958 54.000
25.21953 59.000
25.23948 67.000
25.25943 64.000
25.27937 79.000
25.29932 76.000
25.31927 54.000
25.33921 65.000
25.35916 78.000
25.37911 85.000
25.39905 70.000
25.41900 67.000
25.43895 69.000
25.45890 70.000
25.47884 71.000
25.49879 89.000
25.51874 71.000
25.53868 61.000
25.55863 74.000
25.57858 60.000
25.59852 53.000
25.61847 89.000
25.63842 75.000
25.65837 78.000
25.67831 72.000
25.69826 68.000
25.71821 76.000
25.73815 73.000
25.75810 77.000
25.77805 62.000
25.79799 89.000
25.81794 72.000
25.83789 65.000
25.85783 58.000
25.87778 70.000
25.89773 73.000
25.91768 68.000
25.93762 72.000
25.95757 82.000
25.97752 84.000
25.99746 65.000
26.01741 64.000
26.03736 67.000
26.05730 62.000
26.07725 81.000
26.09720 72.000
26.11715 71.000
26.13709 70.000
26.15704 71.000
26.17699 68.000
26.19693 80.000
26.21688 81.000
26.23683 62.000
26.25677 72.000
26.27672 67.000
26.29667 70.000
26.31661 66.000
26.33656 75.000
26.35651 67.000
26.37646 69.000
26.39640 69.000
26.41635 74.000
26.43630 92.000
26.45624 85.000
26.47619 77.000
26.49614 75.000
26.51608 79.000
26.53603 76.000
26.55598 68.000
26.57593 61.000
26.59587 89.000
26.61582 93.000
26.63577 65.000
26.65571 71.000
26.67566 72.000
26.69561 76.000
26.71555 67.000
26.73550 79.000
26.75545 80.000
26.77539 85.000
26.79534 78.000
26.81529 76.000
26.83524 83.000
26.85518 84.000
26.87513 88.000
26.89508 92.000
26.91502 73.000
26.93497 67.000
26.95492 90.000
26.97486 91.000
26.99481 75.000
27.01476 53.000
27.03471 55.000
27.05465 72.000
27.07460 79.000
27.09455 76.000
27.11449 78.000
27.13444 67.000
27.15439 82.000
27.17433 67.000
27.19428 59.000
27.21423 81.000
27.23417 81.000
27.25412 72.000
27.27407 95.000
27.29402 78.000
27.31396 84.000
27.33391 72.000
27.35386 83.000
27.37380 82.000
27.39375 70.000
27.41370 98.000
27.43364 84.000
27.45359 79.000
27.47354 91.000
27.49349 57.000
27.51343 80.000
27.53338 75.000
27.55333 74.000
27.57327 91.000
27.59322 67.000
27.61317 82.000
27.63311 76.000
27.65306 89.000
27.67301 66.000
27.69296 82.000
27.71290 86.000
27.73285 68.000
27.75280 82.000
27.77274 85.000
27.79269 86.000
27.81264 81.000
27.83258 61.000
27.85253 85.000
27.87248 77.000
27.89242 80.000
27.91237 80.000
27.93232 81.000
27.95227 75.000
27.97221 84.000
27.99216 67.000
28.01211 79.000
28.03205 85.000
28.05200 82.000
28.07195 82.000
28.09189 74.000
28.11184 87.000
28.13179 74.000
28.15174 86.000
28.17168 86.000
28.19163 87.000
28.21158 90.000
28.23152 74.000
28.25147 70.000
28.27142 85.000
28.29136 76.000
28.31131 75.000
28.33126 71.000
28.35120 71.000
28.37115 85.000
28.39110 73.000
28.41105 73.000
28.43099 69.000
28.45094 90.000
28.47089 74.000
28.49083 83.000
28.51078 88.000
28.53073 79.000
28.55067 84.000
28.57062 71.000
28.59057 58.000
28.61052 89.000
28.63046 85.000
28.65041 77.000
28.67036 80.000
28.69030 83.000
28.71025 74.000
28.73020 84.000
28.75014 68.000
28.77009 85.000
28.79004 71.000
28.80998 104.000
28.82993 85.000
28.84988 80.000
28.86983 93.000
28.88977 91.000
28.90972 82.000
28.92967 86.000
28.94961 79.000
28.96956 88.000
28.98951 63.000
29.00945 55.000
29.02940 77.000
29.04935 84.000
29.06930 81.000
29.08924 84.000
29.10919 86.000
29.12914 86.000
29.14908 105.000
29.16903 94.000
29.18898 74.000
29.20892 94.000
29.22887 95.000
29.24882 65.000
29.26877 91.000
29.28871 88.000
29.30866 88.000
29.32861 85.000
29.34855 70.000
29.36850 91.000
29.38845 94.000
29.40839 104.000
29.42834 99.000
29.44829 102.000
29.46823 103.000
29.48818 76.000
29.50813 95.000
29.52808 87.000
29.54802 94.000
29.56797 101.000
29.58792 92.000
29.60786 90.000
29.62781 94.000
29.64776 101.000
29.66770 97.000
29.68765 99.000
29.70760 83.000
29.72755 94.000
29.74749 127.000
29.76744 124.000
29.78739 117.000
29.80733 121.000
29.82728 131.000
29.84723 127.000
29.86717 142.000
29.88712 187.000
29.90707 197.000
29.92701 241.000
29.94696 271.000
29.96691 280.000
29.98686 311.000
30.00680 349.000
30.02675 406.000
30.04670 455.000
30.06664 449.000
30.08659 540.000
30.10654 489.000
30.12648 469.000
30.14643 451.000
30.16638 407.000
30.18633 308.000
30.20627 244.000
30.22622 218.000
30.24617 174.000
30.26611 124.000
30.28606 130.000
30.30601 126.000
30.32595 89.000
30.34590 94.000
30.36585 93.000
30.38579 96.000
30.40574 100.000
30.42569 92.000
30.44564 86.000
30.46558 93.000
30.48553 82.000
30.50548 92.000
30.52542 90.000
30.54537 76.000
30.56532 91.000
30.58526 88.000
30.60521 99.000
30.62516 82.000
30.64511 100.000
30.66505 99.000
30.68500 103.000
30.70495 81.000
30.72489 105.000
30.74484 69.000
30.76479 90.000
30.78473 92.000
30.80468 97.000
30.82463 89.000
30.84458 92.000
30.86452 89.000
30.88447 90.000
30.90442 75.000
30.92436 96.000
30.94431 81.000
30.96426 81.000
30.98420 86.000
31.00415 79.000
31.02410 78.000
31.04404 93.000
31.06399 92.000
31.08394 77.000
31.10389 102.000
31.12383 86.000
31.14378 78.000
31.16373 82.000
31.18367 82.000
31.20362 73.000
31.22357 86.000
31.24351 69.000
31.26346 66.000
31.28341 80.000
31.30336 91.000
31.32330 84.000
31.34325 92.000
31.36320 97.000
31.38314 94.000
31.40309 80.000
31.42304 92.000
31.44298 92.000
31.46293 91.000
31.48288 91.000
31.50282 97.000
31.52277 90.000
31.54272 99.000
31.56267 97.000
31.58261 98.000
31.60256 94.000
31.62251 94.000
31.64245 102.000
31.66240 95.000
31.68235 132.000
31.70229 121.000
31.72224 101.000
31.74219 93.000
31.76214 94.000
31.78208 90.000
31.80203 104.000
31.82198 99.000
31.84192 79.000
31.86187 91.000
31.88182 91.000
31.90176 96.000
31.92171 93.000
31.94166 92.000
31.96160 103.000
31.98155 106.000
32.00150 78.000
32.02145 87.000
32.04139 97.000
32.06134 82.000
32.08129 89.000
32.10123 86.000
32.12118 86.000
32.14113 88.000
32.16107 94.000
32.18102 97.000
32.20097 101.000
32.22092 112.000
32.24086 115.000
32.26081 124.000
32.28076 120.000
32.30070 118.000
32.32065 124.000
32.34060 136.000
32.36054 150.000
32.38049 135.000
32.40044 111.000
32.42039 134.000
32.44033 155.000
32.46028 129.000
32.48023 130.000
32.50017 141.000
32.52012 173.000
32.54007 144.000
32.56001 140.000
32.57996 168.000
32.59991 137.000
32.61985 137.000
32.63980 152.000
32.65975 142.000
32.67970 148.000
32.69964 154.000
32.71959 154.000
32.73954 133.000
32.75948 140.000
32.77943 120.000
32.79938 136.000
32.81932 126.000
32.83927 143.000
32.85922 134.000
32.87917 121.000
32.89911 115.000
32.91906 114.000
32.93901 107.000
32.95895 123.000
32.97890 124.000
32.99885 99.000
33.01879 115.000
33.03874 103.000
33.05869 102.000
33.07863 102.000
33.09858 113.000
33.11853 89.000
33.13848 103.000
33.15842 103.000
33.17837 95.000
33.19832 88.000
33.21826 89.000
33.23821 87.000
33.25816 90.000
33.27810 69.000
33.29805 97.000
33.31800 95.000
33.33795 101.000
33.35789 112.000
33.37784 97.000
33.39779 112.000
33.41773 97.000
33.43768 104.000
33.45763 94.000
33.47757 90.000
33.49752 105.000
33.51747 102.000
33.53741 94.000
33.55736 133.000
33.57731 165.000
33.59726 158.000
33.61720 169.000
33.63715 171.000
33.65710 179.000
33.67704 181.000
33.69699 216.000
33.71694 209.000
33.73688 207.000
33.75683 235.000
33.77678 223.000
33.79673 215.000
33.81667 235.000
33.83662 197.000
33.85657 220.000
33.87651 244.000
33.89646 221.000
33.91641 224.000
33.93635 240.000
33.95630 234.000
33.97625 233.000
33.99620 274.000
34.01614 234.000
34.03609 227.000
34.05604 242.000
34.07598 221.000
34.09593 250.000
34.11588 212.000
34.13582 249.000
34.15577 242.000
34.17572 222.000
34.19566 256.000
34.21561 209.000
34.23556 195.000
34.25551 175.000
34.27545 203.000
34.29540 192.000
34.31535 188.000
34.33529 178.000
34.35524 127.000
34.37519 143.000
34.39513 146.000
34.41508 149.000
34.43503 136.000
34.45498 130.000
34.47492 122.000
34.49487 120.000
34.51482 129.000
34.53476 102.000
34.55471 109.000
34.57466 116.000
34.59460 111.000
34.61455 99.000
34.63450 110.000
34.65444 104.000
34.67439 105.000
34.69434 90.000
34.71429 99.000
34.73423 101.000
34.75418 111.000
34.77413 108.000
34.79407 110.000
34.81402 121.000
34.83397 122.000
34.85391 130.000
34.87386 137.000
34.89381 164.000
34.91376 165.000
34.93370 162.000
34.95365 195.000
34.97360 177.000
34.99354 234.000
35.01349 225.000
35.03344 273.000
35.05338 283.000
35.07333 269.000
35.09328 276.000
35.11322 282.000
35.13317 335.000
35.15312 353.000
35.17307 392.000
35.19301 355.000
35.21296 392.000
35.23291 424.000
35.25285 473.000
35.27280 494.000
35.29275 553.000
35.31269 569.000
35.33264 742.000
35.35259 783.000
35.37254 927.000
35.39248 1037.000
35.41243 1136.000
35.43238 1306.000
35.45232 1455.000
35.47227 1514.000
35.49222 1495.000
35.51216 1462.000
35.53211 1407.000
35.55206 1255.000
35.57201 1024.000
35.59195 880.000
35.61190 708.000
35.63185 574.000
35.65179 437.000
35.67174 301.000
35.69169 277.000
35.71163 200.000
35.73158 172.000
35.75153 130.000
35.77147 141.000
35.79142 137.000
35.81137 137.000
35.83132 128.000
35.85126 104.000
35.87121 111.000
35.89116 117.000
35.91110 125.000
35.93105 106.000
35.95100 112.000
35.97094 117.000
35.99089 97.000
36.01084 117.000
36.03079 99.000
36.05073 112.000
36.07068 112.000
36.09063 111.000
36.11057 134.000
36.13052 123.000
36.15047 133.000
36.17041 119.000
36.19036 143.000
36.21031 160.000
36.23025 162.000
36.25020 186.000
36.27015 199.000
36.29010 209.000
36.31004 210.000
36.32999 226.000
36.34994 260.000
36.36988 274.000
36.38983 267.000
36.40978 242.000
36.42972 295.000
36.44967 238.000
36.46962 248.000
36.48957 252.000
36.50951 227.000
36.52946 209.000
36.54941 200.000
36.56935 175.000
36.58930 167.000
36.60925 170.000
36.62919 151.000
36.64914 163.000
36.66909 151.000
36.68903 123.000
36.70898 120.000
36.72893 126.000
36.74888 131.000
36.76882 118.000
36.78877 116.000
36.80872 95.000
36.82866 91.000
36.84861 107.000
36.86856 104.000
36.88850 84.000
36.90845 95.000
36.92840 103.000
36.94835 100.000
36.96829 102.000
36.98824 112.000
37.00819 126.000
37.02813 128.000
37.04808 126.000
37.06803 126.000
37.08797 168.000
37.10792 168.000
37.12787 177.000
37.14781 197.000
37.16776 141.000
37.18771 146.000
37.20766 136.000
37.22760 141.000
37.24755 100.000
37.26750 109.000
37.28744 116.000
37.30739 82.000
37.32734 97.000
37.34728 92.000
37.36723 69.000
37.38718 91.000
37.40713 89.000
37.42707 79.000
37.44702 73.000
37.46697 68.000
37.48691 71.000
37.50686 68.000
37.52681 80.000
37.54675 68.000
37.56670 86.000
37.58665 84.000
37.60660 66.000
37.62654 91.000
37.64649 63.000
37.66644 73.000
37.68638 90.000
37.70633 87.000
37.72628 77.000
37.74622 83.000
37.76617 82.000
37.78612 97.000
37.80606 83.000
37.82601 93.000
37.84596 74.000
37.86591 89.000
37.88585 70.000
37.90580 69.000
37.92575 96.000
37.94569 73.000
37.96564 85.000
37.98559 78.000
38.00553 86.000
38.02548 91.000
38.04543 56.000
38.06538 80.000
38.08532 70.000
38.10527 82.000
38.12522 80.000
38.14516 82.000
38.16511 82.000
38.18506 76.000
38.20500 65.000
38.22495 72.000
38.24490 89.000
38.26484 86.000
38.28479 92.000
38.30474 77.000
38.32469 80.000
38.34463 70.000
38.36458 72.000
38.38453 66.000
38.40447 75.000
38.42442 57.000
38.44437 90.000
38.46431 74.000
38.48426 57.000
38.50421 76.000
38.52416 96.000
38.54410 67.000
38.56405 73.000
38.58400 76.000
38.60394 77.000
38.62389 78.000
38.64384 79.000
38.66378 69.000
38.68373 90.000
38.70368 82.000
38.72362 97.000
38.74357 80.000
38.76352 92.000
38.78347 87.000
38.80341 127.000
38.82336 112.000
38.84331 100.000
38.86325 109.000
38.88320 118.000
38.90315 112.000
38.92309 113.000
38.94304 99.000
38.96299 105.000
38.98294 96.000
39.00288 126.000
39.02283 123.000
39.04278 113.000
39.06272 105.000
39.08267 92.000
39.10262 104.000
39.12256 80.000
39.14251 85.000
39.16246 93.000
39.18241 73.000
39.20235 80.000
39.22230 64.000
39.24225 86.000
39.26219 79.000
39.28214 84.000
39.30209 74.000
39.32203 65.000
39.34198 66.000
39.36193 64.000
39.38187 76.000
39.40182 80.000
39.42177 55.000
39.44172 82.000
39.46166 75.000
39.48161 76.000
39.50156 71.000
39.52150 68.000
39.54145 94.000
39.56140 78.000
39.58134 67.000
39.60129 79.000
39.62124 72.000
39.64119 75.000
39.66113 90.000
39.68108 81.000
39.70103 81.000
39.72097 86.000
39.74092 85.000
39.76087 91.000
39.78081 62.000
39.80076 80.000
39.82071 77.000
39.84065 84.000
39.86060 85.000
39.88055 91.000
39.90050 87.000
39.92044 82.000
39.94039 74.000
39.96034 68.000
39.98028 66.000
40.00023 91.000
40.02018 72.000
40.04012 74.000
40.06007 71.000
40.08002 73.000
40.09997 74.000
40.11991 85.000
40.13986 68.000
40.15981 68.000
40.17975 81.000
40.19970 64.000
40.21965 69.000
40.23959 61.000
40.25954 66.000
40.27949 84.000
40.29943 73.000
40.31938 70.000
40.33933 70.000
40.35928 54.000
40.37922 62.000
40.39917 93.000
40.41912 84.000
40.43906 75.000
40.45901 67.000
40.47896 91.000
40.49890 76.000
40.51885 77.000
40.53880 99.000
40.55875 89.000
40.57869 85.000
40.59864 66.000
40.61859 78.000
40.63853 85.000
40.65848 96.000
40.67843 102.000
40.69837 114.000
40.71832 90.000
40.73827 101.000
40.75822 112.000
40.77816 98.000
40.79811 119.000
40.81806 86.000
40.83800 106.000
40.85795 105.000
40.87790 127.000
40.89784 123.000
40.91779 109.000
40.93774 146.000
40.95768 161.000
40.97763 143.000
40.99758 174.000
41.01753 160.000
41.03747 216.000
41.05742 250.000
41.07737 291.000
41.09731 373.000
41.11726 426.000
41.13721 462.000
41.15715 632.000
41.17710 763.000
41.19705 873.000
41.21700 999.000
41.23694 1107.000
41.25689 1122.000
41.27684 1176.000
41.29678 1084.000
41.31673 1066.000
41.33668 956.000
41.35662 911.000
41.37657 743.000
41.39652 657.000
41.41646 600.000
41.43641 483.000
41.45636 426.000
41.47631 318.000
41.49625 283.000
41.51620 247.000
41.53615 209.000
41.55609 198.000
41.57604 170.000
41.59599 136.000
41.61593 133.000
41.63588 140.000
41.65583 125.000
41.67578 110.000
41.69572 116.000
41.71567 107.000
41.73562 99.000
41.75556 79.000
41.77551 107.000
41.79546 91.000
41.81540 92.000
41.83535 99.000
41.85530 103.000
41.87524 83.000
41.89519 79.000
41.91514 86.000
41.93509 86.000
41.95503 91.000
41.97498 94.000
41.99493 85.000
42.01487 82.000
42.03482 79.000
42.05477 92.000
42.07471 83.000
42.09466 94.000
42.11461 84.000
42.13456 89.000
42.15450 95.000
42.17445 94.000
42.19440 99.000
42.21434 72.000
42.23429 81.000
42.25424 84.000
42.27418 90.000
42.29413 65.000
42.31408 76.000
42.33403 81.000
42.35397 76.000
42.37392 84.000
42.39387 70.000
42.41381 79.000
42.43376 83.000
42.45371 84.000
42.47365 73.000
42.49360 77.000
42.51355 85.000
42.53349 69.000
42.55344 89.000
42.57339 85.000
42.59334 76.000
42.61328 83.000
42.63323 79.000
42.65318 102.000
42.67312 71.000
42.69307 96.000
42.71302 91.000
42.73296 76.000
42.75291 92.000
42.77286 88.000
42.79281 94.000
42.81275 107.000
42.83270 95.000
42.85265 95.000
42.87259 113.000
42.89254 109.000
42.91249 137.000
42.93243 146.000
42.95238 145.000
42.97233 145.000
42.99227 167.000
43.01222 204.000
43.03217 230.000
43.05212 211.000
43.07206 269.000
43.09201 282.000
43.11196 308.000
43.13190 341.000
43.15185 335.000
43.17180 361.000
43.19174 356.000
43.21169 353.000
43.23164 296.000
43.25159 299.000
43.27153 248.000
43.29148 235.000
43.31143 223.000
43.33137 175.000
43.35132 157.000
43.37127 116.000
43.39121 107.000
43.41116 100.000
43.43111 71.000
43.45105 91.000
43.47100 87.000
43.49095 78.000
43.51090 85.000
43.53084 75.000
43.55079 88.000
43.57074 72.000
43.59068 81.000
43.61063 64.000
43.63058 76.000
43.65052 73.000
43.67047 83.000
43.69042 80.000
43.71037 69.000
43.73031 68.000
43.75026 77.000
43.77021 79.000
43.79015 64.000
43.81010 61.000
43.83005 66.000
43.84999 51.000
43.86994 67.000
43.88989 61.000
43.90984 76.000
43.92978 66.000
43.94973 79.000
43.96968 66.000
43.98962 61.000
44.00957 66.000
44.02952 74.000
44.04946 63.000
44.06941 71.000
44.08936 52.000
44.10930 63.000
44.12925 42.000
44.14920 60.000
44.16915 81.000
44.18909 72.000
44.20904 70.000
44.22899 63.000
44.24893 79.000
44.26888 63.000
44.28883 68.000
44.30877 69.000
44.32872 65.000
44.34867 62.000
44.36862 62.000
44.38856 66.000
44.40851 53.000
44.42846 59.000
44.44840 69.000
44.46835 84.000
44.48830 72.000
44.50824 87.000
44.52819 85.000
44.54814 87.000
44.56808 100.000
44.58803 88.000
44.60798 102.000
44.62793 96.000
44.64787 113.000
44.66782 94.000
44.68777 90.000
44.70771 81.000
44.72766 74.000
44.74761 88.000
44.76755 66.000
44.78750 81.000
44.80745 75.000
44.82740 65.000
44.84734 78.000
44.86729 55.000
44.88724 64.000
44.90718 64.000
44.92713 71.000
44.94708 64.000
44.96702 76.000
44.98697 62.000
45.00692 52.000
45.02686 73.000
45.04681 61.000
45.06676 49.000
45.08671 61.000
45.10665 64.000
45.12660 64.000
45.14655 53.000
45.16649 56.000
45.18644 66.000
45.20639 77.000
45.22633 52.000
45.24628 76.000
45.26623 65.000
45.28618 56.000
45.30612 62.000
45.32607 47.000
45.34602 61.000
45.36596 66.000
45.38591 58.000
45.40586 55.000
45.42580 54.000
45.44575 70.000
45.46570 57.000
45.48565 58.000
45.50559 50.000
45.52554 59.000
45.54549 66.000
45.56543 69.000
45.58538 57.000
45.60533 57.000
45.62527 60.000
45.64522 61.000
45.66517 55.000
45.68511 75.000
45.70506 56.000
45.72501 56.000
45.74496 59.000
45.76490 57.000
45.78485 56.000
45.80480 53.000
45.82474 54.000
45.84469 77.000
45.86464 53.000
45.88458 63.000
45.90453 53.000
45.92448 62.000
45.94443 42.000
45.96437 62.000
45.98432 65.000
46.00427 57.000
46.02421 59.000
46.04416 59.000
46.06411 63.000
46.08405 50.000
46.10400 65.000
46.12395 59.000
46.14389 46.000
46.16384 50.000
46.18379 47.000
46.20374 68.000
46.22368 56.000
46.24363 61.000
46.26358 64.000
46.28352 56.000
46.30347 61.000
46.32342 69.000
46.34336 65.000
46.36331 54.000
46.38326 68.000
46.40321 61.000
46.42315 61.000
46.44310 68.000
46.46305 55.000
46.48299 47.000
46.50294 51.000
46.52289 55.000
46.54283 59.000
46.56278 57.000
46.58273 62.000
46.60267 68.000
46.62262 64.000
46.64257 57.000
46.66252 67.000
46.68246 58.000
46.70241 70.000
46.72236 55.000
46.74230 59.000
46.76225 58.000
46.78220 54.000
46.80214 59.000
46.82209 48.000
46.84204 79.000
46.86199 57.000
46.88193 55.000
46.90188 58.000
46.92183 49.000
46.94177 56.000
46.96172 64.000
46.98167 62.000
47.00161 63.000
47.02156 62.000
47.04151 76.000
47.06146 67.000
47.08140 49.000
47.10135 63.000
47.12130 59.000
47.14124 68.000
47.16119 52.000
47.18114 66.000
47.20108 63.000
47.22103 55.000
47.24098 49.000
47.26092 59.000
47.28087 69.000
47.30082 63.000
47.32077 70.000
47.34071 72.000
47.36066 63.000
47.38061 56.000
47.40055 57.000
47.42050 58.000
47.44045 58.000
47.46039 52.000
47.48034 68.000
47.50029 52.000
47.52024 55.000
47.54018 63.000
47.56013 51.000
47.58008 56.000
47.60002 63.000
47.61997 48.000
47.63992 54.000
47.65986 60.000
47.67981 57.000
47.69976 52.000
47.71970 57.000
47.73965 53.000
47.75960 54.000
47.77955 68.000
47.79949 54.000
47.81944 65.000
47.83939 67.000
47.85933 63.000
47.87928 61.000
47.89923 47.000
47.91917 65.000
47.93912 69.000
47.95907 67.000
47.97902 61.000
47.99896 61.000
48.01891 71.000
48.03886 70.000
48.05880 73.000
48.07875 77.000
48.09870 63.000
48.11864 77.000
48.13859 92.000
48.15854 71.000
48.17848 86.000
48.19843 83.000
48.21838 88.000
48.23833 105.000
48.25827 100.000
48.27822 95.000
48.29817 89.000
48.31811 89.000
48.33806 98.000
48.35801 106.000
48.37795 88.000
48.39790 93.000
48.41785 87.000
48.43780 67.000
48.45774 69.000
48.47769 102.000
48.49764 90.000
48.51758 101.000
48.53753 80.000
48.55748 77.000
48.57742 83.000
48.59737 75.000
48.61732 80.000
48.63726 85.000
48.65721 82.000
48.67716 74.000
48.69711 78.000
48.71705 59.000
48.73700 73.000
48.75695 62.000
48.77689 69.000
48.79684 71.000
48.81679 82.000
48.83673 66.000
48.85668 70.000
48.87663 69.000
48.89658 67.000
48.91652 61.000
48.93647 64.000
48.95642 70.000
48.97636 56.000
48.99631 69.000
49.01626 66.000
49.03620 78.000
49.05615 63.000
49.07610 68.000
49.09605 69.000
49.11599 66.000
49.13594 67.000
49.15589 56.000
49.17583 63.000
49.19578 79.000
49.21573 70.000
49.23567 74.000
49.25562 68.000
49.27557 70.000
49.29551 71.000
49.31546 62.000
49.33541 56.000
49.35536 49.000
49.37530 58.000
49.39525 67.000
49.41520 83.000
49.43514 50.000
49.45509 50.000
49.47504 68.000
49.49498 51.000
49.51493 56.000
49.53488 57.000
49.55483 62.000
49.57477 53.000
49.59472 60.000
49.61467 61.000
49.63461 52.000
49.65456 70.000
49.67451 50.000
49.69445 44.000
49.71440 53.000
49.73435 58.000
49.75429 54.000
49.77424 69.000
49.79419 62.000
49.81414 55.000
49.83408 58.000
49.85403 57.000
49.87398 54.000
49.89392 63.000
49.91387 54.000
49.93382 51.000
49.95376 54.000
49.97371 53.000
49.99366 66.000
50.01361 47.000
50.03355 59.000
50.05350 47.000
50.07345 53.000
50.09339 54.000
50.11334 56.000
50.13329 44.000
50.15323 55.000
50.17318 46.000
50.19313 56.000
50.21307 55.000
50.23302 57.000
50.25297 59.000
50.27292 47.000
50.29286 47.000
50.31281 57.000
50.33276 49.000
50.35270 50.000
50.37265 54.000
50.39260 65.000
50.41254 60.000
50.43249 48.000
50.45244 61.000
50.47239 51.000
50.49233 60.000
50.51228 54.000
50.53223 61.000
50.55217 54.000
50.57212 52.000
50.59207 54.000
50.61201 53.000
50.63196 48.000
50.65191 50.000
50.67186 50.000
50.69180 46.000
50.71175 53.000
50.73170 54.000
50.75164 47.000
50.77159 59.000
50.79154 54.000
50.81148 54.000
50.83143 60.000
50.85138 59.000
50.87132 59.000
50.89127 70.000
50.91122 54.000
50.93117 52.000
50.95111 61.000
50.97106 63.000
50.99101 48.000
51.01095 52.000
51.03090 47.000
51.05085 52.000
51.07079 50.000
51.09074 54.000
51.11069 61.000
51.13064 85.000
51.15058 56.000
51.17053 65.000
51.19048 50.000
51.21042 45.000
51.23037 40.000
51.25032 59.000
51.27026 53.000
51.29021 58.000
51.31016 62.000
51.33010 58.000
51.35005 43.000
51.37000 57.000
51.38995 40.000
51.40989 64.000
51.42984 41.000
51.44979 50.000
51.46973 57.000
51.48968 53.000
51.50963 55.000
51.52957 51.000
51.54952 43.000
51.56947 48.000
51.58942 57.000
51.60936 63.000
51.62931 53.000
51.64926 56.000
51.66920 39.000
51.68915 61.000
51.70910 54.000
51.72904 57.000
51.74899 41.000
51.76894 62.000
51.78888 49.000
51.80883 64.000
51.82878 52.000
51.84873 53.000
51.86867 58.000
51.88862 56.000
51.90857 53.000
51.92851 50.000
51.94846 48.000
51.96841 62.000
51.98835 64.000
52.00830 46.000
52.02825 58.000
52.04820 47.000
52.06814 58.000
52.08809 66.000
52.10804 60.000
52.12798 53.000
52.14793 63.000
52.16788 49.000
52.18782 67.000
52.20777 65.000
52.22772 69.000
52.24767 67.000
52.26761 51.000
52.28756 62.000
52.30751 66.000
52.32745 77.000
52.34740 62.000
52.36735 62.000
52.38729 67.000
52.40724 83.000
52.42719 77.000
52.44713 96.000
52.46708 88.000
52.48703 91.000
52.50698 105.000
52.52692 118.000
52.54687 112.000
52.56682 124.000
52.58676 163.000
52.60671 146.000
52.62666 149.000
52.64660 137.000
52.66655 176.000
52.68650 180.000
52.70645 185.000
52.72639 161.000
52.74634 167.000
52.76629 149.000
52.78623 162.000
52.80618 179.000
52.82613 153.000
52.84607 146.000
52.86602 136.000
52.88597 135.000
52.90591 126.000
52.92586 101.000
52.94581 109.000
52.96576 104.000
52.98570 95.000
53.00565 111.000
53.02560 92.000
53.04554 89.000
53.06549 61.000
53.08544 78.000
53.10538 78.000
53.12533 89.000
53.14528 73.000
53.16523 84.000
53.18517 83.000
53.20512 68.000
53.22507 72.000
53.24501 64.000
53.26496 66.000
53.28491 88.000
53.30485 63.000
53.32480 89.000
53.34475 80.000
53.36469 103.000
53.38464 87.000
53.40459 83.000
53.42454 90.000
53.44448 116.000
53.46443 121.000
53.48438 112.000
53.50432 111.000
53.52427 139.000
53.54422 170.000
53.56416 147.000
53.58411 162.000
53.60406 162.000
53.62401 193.000
53.64395 182.000
53.66390 155.000
53.68385 158.000
53.70379 162.000
53.72374 135.000
53.74369 132.000
53.76363 115.000
53.78358 117.000
53.80353 95.000
53.82348 78.000
53.84342 98.000
53.86337 88.000
53.88332 74.000
53.90326 95.000
53.92321 60.000
53.94316 61.000
53.96310 71.000
53.98305 61.000
54.00300 77.000
54.02294 61.000
54.04289 70.000
54.06284 53.000
54.08279 45.000
54.10273 56.000
54.12268 42.000
54.14263 73.000
54.16257 66.000
54.18252 65.000
54.20247 41.000
54.22241 50.000
54.24236 47.000
54.26231 52.000
54.28226 47.000
54.30220 59.000
54.32215 59.000
54.34210 60.000
54.36204 48.000
54.38199 67.000
54.40194 49.000
54.42188 57.000
54.44183 48.000
54.46178 54.000
54.48172 59.000
54.50167 63.000
54.52162 54.000
54.54157 59.000
54.56151 67.000
54.58146 69.000
54.60141 66.000
54.62135 55.000
54.64130 52.000
54.66125 52.000
54.68119 51.000
54.70114 53.000
54.72109 68.000
54.74104 42.000
54.76098 45.000
54.78093 51.000
54.80088 47.000
54.82082 48.000
54.84077 52.000
54.86072 53.000
54.88066 51.000
54.90061 53.000
54.92056 56.000
54.94050 56.000
54.96045 58.000
54.98040 45.000
55.00035 56.000
55.02029 53.000
55.04024 68.000
55.06019 54.000
55.08013 75.000
55.10008 48.000
55.12003 42.000
55.13997 66.000
55.15992 53.000
55.17987 49.000
55.19982 46.000
55.21976 51.000
55.23971 47.000
55.25966 49.000
55.27960 52.000
55.29955 62.000
55.31950 58.000
55.33944 64.000
55.35939 57.000
55.37934 59.000
55.39929 49.000
55.41923 43.000
55.43918 42.000
55.45913 52.000
55.47907 75.000
55.49902 63.000
55.51897 65.000
55.53891 62.000
55.55886 57.000
55.57881 49.000
55.59875 55.000
55.61870 67.000
55.63865 56.000
55.65860 46.000
55.67854 64.000
55.69849 46.000
55.71844 59.000
55.73838 54.000
55.75833 51.000
55.77828 56.000
55.79822 58.000
55.81817 48.000
55.83812 55.000
55.85807 56.000
55.87801 62.000
55.89796 57.000
55.91791 55.000
55.93785 62.000
55.95780 67.000
55.97775 52.000
55.99769 49.000
56.01764 53.000
56.03759 63.000
56.05753 54.000
56.07748 61.000
56.09743 61.000
56.11738 59.000
56.13732 55.000
56.15727 64.000
56.17722 63.000
56.19716 60.000
56.21711 60.000
56.23706 64.000
56.25700 45.000
56.27695 61.000
56.29690 54.000
56.31685 57.000
56.33679 63.000
56.35674 51.000
56.37669 68.000
56.39663 52.000
56.41658 53.000
56.43653 82.000
56.45647 55.000
56.47642 66.000
56.49637 69.000
56.51631 86.000
56.53626 47.000
56.55621 72.000
56.57616 63.000
56.59610 80.000
56.61605 80.000
56.63600 69.000
56.65594 70.000
56.67589 78.000
56.69584 72.000
56.71578 79.000
56.73573 92.000
56.75568 85.000
56.77563 95.000
56.79557 103.000
56.81552 114.000
56.83547 137.000
56.85541 123.000
56.87536 122.000
56.89531 153.000
56.91525 147.000
56.93520 172.000
56.95515 160.000
56.97510 212.000
56.99504 194.000
57.01499 205.000
57.03494 276.000
57.05488 289.000
57.07483 308.000
57.09478 373.000
57.11472 415.000
57.13467 430.000
57.15462 428.000
57.17456 485.000
57.19451 521.000
57.21446 460.000
57.23441 434.000
57.25435 405.000
57.27430 426.000
57.29425 419.000
57.31419 420.000
57.33414 401.000
57.35409 392.000
57.37403 304.000
57.39398 347.000
57.41393 302.000
57.43388 276.000
57.45382 270.000
57.47377 246.000
57.49372 204.000
57.51366 175.000
57.53361 195.000
57.55356 165.000
57.57350 180.000
57.59345 166.000
57.61340 169.000
57.63334 130.000
57.65329 125.000
57.67324 131.000
57.69319 129.000
57.71313 103.000
57.73308 100.000
57.75303 85.000
57.77297 109.000
57.79292 95.000
57.81287 86.000
57.83281 58.000
57.85276 75.000
57.87271 76.000
57.89266 60.000
57.91260 59.000
57.93255 78.000
57.95250 57.000
57.97244 64.000
57.99239 74.000
58.01234 56.000
58.03228 60.000
58.05223 69.000
58.07218 66.000
58.09212 62.000
58.11207 60.000
58.13202 62.000
58.15197 69.000
58.17191 55.000
58.19186 55.000
58.21181 66.000
58.23175 73.000
58.25170 48.000
58.27165 53.000
58.29159 59.000
58.31154 52.000
58.33149 58.000
58.35144 66.000
58.37138 46.000
58.39133 58.000
58.41128 70.000
58.43122 52.000
58.45117 61.000
58.47112 64.000
58.49106 56.000
58.51101 60.000
58.53096 58.000
58.55090 55.000
58.57085 69.000
58.59080 68.000
58.61075 44.000
58.63069 47.000
58.65064 41.000
58.67059 55.000
58.69053 65.000
58.71048 50.000
58.73043 54.000
58.75037 61.000
58.77032 48.000
58.79027 55.000
58.81022 66.000
58.83016 55.000
58.85011 59.000
58.87006 59.000
58.89000 57.000
58.90995 65.000
58.92990 65.000
58.94984 62.000
58.96979 49.000
58.98974 55.000
59.00969 46.000
59.02963 50.000
59.04958 62.000
59.06953 61.000
59.08947 68.000
59.10942 58.000
59.12937 66.000
59.14931 52.000
59.16926 46.000
59.18921 51.000
59.20915 51.000
59.22910 62.000
59.24905 58.000
59.26900 71.000
59.28894 66.000
59.30889 50.000
59.32884 48.000
59.34878 53.000
59.36873 46.000
59.38868 45.000
59.40862 62.000
59.42857 53.000
59.44852 59.000
59.46847 56.000
59.48841 48.000
59.50836 59.000
59.52831 57.000
59.54825 57.000
59.56820 58.000
59.58815 65.000
59.60809 53.000
59.62804 68.000
59.64799 54.000
59.66793 62.000
59.68788 64.000
59.70783 68.000
59.72778 61.000
59.74772 50.000
59.76767 55.000
59.78762 58.000
59.80756 70.000
59.82751 41.000
59.84746 62.000
59.86740 50.000
59.88735 70.000
59.90730 76.000
59.92725 55.000
59.94719 57.000
59.96714 54.000
59.98709 63.000
60.00703 49.000
60.02698 52.000
60.04693 58.000
60.06687 49.000
60.08682 70.000
60.10677 75.000
60.12671 58.000
60.14666 47.000
60.16661 70.000
60.18656 68.000
60.20650 63.000
60.22645 71.000
60.24640 68.000
60.26634 72.000
60.28629 62.000
60.30624 76.000
60.32618 68.000
60.34613 58.000
60.36608 70.000
60.38603 65.000
60.40597 82.000
60.42592 78.000
60.44587 69.000
60.46581 93.000
60.48576 81.000
60.50571 78.000
60.52565 84.000
60.54560 73.000
60.56555 85.000
60.58550 64.000
60.60544 92.000
60.62539 95.000
60.64534 92.000
60.66528 88.000
60.68523 79.000
60.70518 69.000
60.72512 85.000
60.74507 86.000
60.76502 81.000
60.78496 63.000
60.80491 83.000
60.82486 86.000
60.84481 75.000
60.86475 76.000
60.88470 67.000
60.90465 65.000
60.92459 69.000
60.94454 71.000
60.96449 84.000
60.98443 75.000
61.00438 80.000
61.02433 79.000
61.04428 79.000
61.06422 83.000
61.08417 67.000
61.10412 82.000
61.12406 90.000
61.14401 66.000
61.16396 95.000
61.18390 76.000
61.20385 87.000
61.22380 87.000
61.24374 102.000
61.26369 81.000
61.28364 88.000
61.30359 107.000
61.32353 84.000
61.34348 96.000
61.36343 105.000
61.38337 89.000
61.40332 76.000
61.42327 94.000
61.44321 93.000
61.46316 111.000
61.48311 109.000
61.50306 85.000
61.52300 83.000
61.54295 91.000
61.56290 98.000
61.58284 85.000
61.60279 92.000
61.62274 91.000
61.64268 78.000
61.66263 79.000
61.68258 99.000
61.70252 91.000
61.72247 90.000
61.74242 89.000
61.76237 89.000
61.78231 96.000
61.80226 90.000
61.82221 101.000
61.84215 86.000
61.86210 93.000
61.88205 99.000
61.90199 86.000
61.92194 112.000
61.94189 122.000
61.96184 103.000
61.98178 113.000
62.00173 133.000
62.02168 120.000
62.04162 145.000
62.06157 145.000
62.08152 128.000
62.10146 141.000
62.12141 154.000
62.14136 147.000
62.16131 166.000
62.18125 151.000
62.20120 147.000
62.22115 147.000
62.24109 165.000
62.26104 173.000
62.28099 188.000
62.30093 172.000
62.32088 178.000
62.34083 179.000
62.36077 197.000
62.38072 193.000
62.40067 184.000
62.42062 178.000
62.44056 174.000
62.46051 217.000
62.48046 217.000
62.50040 241.000
62.52035 214.000
62.54030 248.000
62.56024 262.000
62.58019 236.000
62.60014 264.000
62.62009 251.000
62.64003 262.000
62.65998 290.000
62.67993 338.000
62.69987 354.000
62.71982 402.000
62.73977 401.000
62.75971 471.000
62.77966 533.000
62.79961 531.000
62.81955 514.000
62.83950 542.000
62.85945 510.000
62.87940 459.000
62.89934 449.000
62.91929 381.000
62.93924 376.000
62.95918 371.000
62.97913 360.000
62.99908 332.000
63.01902 284.000
63.03897 243.000
63.05892 200.000
63.07887 180.000
63.09881 187.000
63.11876 138.000
63.13871 142.000
63.15865 125.000
63.17860 102.000
63.19855 86.000
63.21849 81.000
63.23844 77.000
63.25839 87.000
63.27833 72.000
63.29828 70.000
63.31823 63.000
63.33818 65.000
63.35812 58.000
63.37807 70.000
63.39802 45.000
63.41796 53.000
63.43791 73.000
63.45786 77.000
63.47780 63.000
63.49775 81.000
63.51770 73.000
63.53765 78.000
63.55759 74.000
63.57754 69.000
63.59749 70.000
63.61743 60.000
63.63738 69.000
63.65733 61.000
63.67727 46.000
63.69722 83.000
63.71717 65.000
63.73712 64.000
63.75706 67.000
63.77701 74.000
63.79696 53.000
63.81690 60.000
63.83685 73.000
63.85680 68.000
63.87674 55.000
63.89669 85.000
63.91664 69.000
63.93658 61.000
63.95653 59.000
63.97648 56.000
63.99643 56.000
64.01637 57.000
64.03632 65.000
64.05627 45.000
64.07621 54.000
64.09616 51.000
64.11611 56.000
64.13605 41.000
64.15600 55.000
64.17595 56.000
64.19590 47.000
64.21584 63.000
64.23579 46.000
64.25574 72.000
64.27568 73.000
64.29563 65.000
64.31558 57.000
64.33552 70.000
64.35547 45.000
64.37542 57.000
64.39536 70.000
64.41531 47.000
64.43526 61.000
64.45521 63.000
64.47515 66.000
64.49510 62.000
64.51505 66.000
64.53499 66.000
64.55494 63.000
64.57489 60.000
64.59483 76.000
64.61478 89.000
64.63473 74.000
64.65468 74.000
64.67462 87.000
64.69457 96.000
64.71452 103.000
64.73446 83.000
64.75441 85.000
64.77436 85.000
64.79430 95.000
64.81425 96.000
64.83420 98.000
64.85414 106.000
64.87409 96.000
64.89404 100.000
64.91399 93.000
64.93393 95.000
64.95388 90.000
64.97383 92.000
64.99377 82.000
65.01372 100.000
65.03367 91.000
65.05361 89.000
65.07356 104.000
65.09351 114.000
65.11346 95.000
65.13340 95.000
65.15335 87.000
65.17330 82.000
65.19324 100.000
65.21319 88.000
65.23314 89.000
65.25308 90.000
65.27303 100.000
65.29298 96.000
65.31293 90.000
65.33287 79.000
65.35282 61.000
65.37277 76.000
65.39271 65.000
65.41266 86.000
65.43261 75.000
65.45255 65.000
65.47250 51.000
65.49245 74.000
65.51239 84.000
65.53234 74.000
65.55229 67.000
65.57224 69.000
65.59218 62.000
65.61213 60.000
65.63208 52.000
65.65202 62.000
65.67197 59.000
65.69192 54.000
65.71186 69.000
65.73181 63.000
65.75176 67.000
65.77171 60.000
65.79165 71.000
65.81160 62.000
65.83155 59.000
65.85149 65.000
65.87144 65.000
65.89139 66.000
65.91133 63.000
65.93128 67.000
65.95123 54.000
65.97117 72.000
65.99112 68.000
66.01107 63.000
66.03102 71.000
66.05096 71.000
66.07091 69.000
66.09086 67.000
66.11080 68.000
66.13075 66.000
66.15070 63.000
66.17064 84.000
66.19059 60.000
66.21054 63.000
66.23049 78.000
66.25043 63.000
66.27038 60.000
66.29033 68.000
66.31027 69.000
66.33022 58.000
66.35017 54.000
66.37011 62.000
66.39006 57.000
66.41001 62.000
66.42995 64.000
66.44990 44.000
66.46985 61.000
66.48980 60.000
66.50974 62.000
66.52969 58.000
66.54964 63.000
66.56958 47.000
66.58953 51.000
66.60948 48.000
66.62942 67.000
66.64937 39.000
66.66932 33.000
66.68927 56.000
66.70921 51.000
66.72916 47.000
66.74911 62.000
66.76905 42.000
66.78900 52.000
66.80895 56.000
66.82889 48.000
66.84884 50.000
66.86879 53.000
66.88874 43.000
66.90868 65.000
66.92863 63.000
66.94858 51.000
66.96852 54.000
66.98847 56.000
67.00842 48.000
67.02836 59.000
67.04831 60.000
67.06826 59.000
67.08820 61.000
67.10815 44.000
67.12810 65.000
67.14805 52.000
67.16799 66.000
67.18794 56.000
67.20789 46.000
67.22783 63.000
67.24778 54.000
67.26773 65.000
67.28767 70.000
67.30762 63.000
67.32757 72.000
67.34752 66.000
67.36746 62.000
67.38741 75.000
67.40736 65.000
67.42730 69.000
67.44725 83.000
67.46720 69.000
67.48714 70.000
67.50709 68.000
67.52704 77.000
67.54698 64.000
67.56693 69.000
67.58688 78.000
67.60683 81.000
67.62677 68.000
67.64672 73.000
67.66667 75.000
67.68661 73.000
67.70656 82.000
67.72651 72.000
67.74645 63.000
67.76640 79.000
67.78635 69.000
67.80630 65.000
67.82624 75.000
67.84619 82.000
67.86614 69.000
67.88608 72.000
67.90603 67.000
67.92598 77.000
67.94592 67.000
67.96587 64.000
67.98582 71.000
68.00576 78.000
68.02571 64.000
68.04566 75.000
68.06561 56.000
68.08555 67.000
68.10550 75.000
68.12545 72.000
68.14539 72.000
68.16534 67.000
68.18529 69.000
68.20523 56.000
68.22518 74.000
68.24513 65.000
68.26508 63.000
68.28502 53.000
68.30497 54.000
68.32492 60.000
68.34486 54.000
68.36481 57.000
68.38476 61.000
68.40470 58.000
68.42465 59.000
68.44460 75.000
68.46455 66.000
68.48449 54.000
68.50444 47.000
68.52439 56.000
68.54433 65.000
68.56428 58.000
68.58423 47.000
68.60417 57.000
68.62412 53.000
68.64407 55.000
68.66401 66.000
68.68396 59.000
68.70391 52.000
68.72386 60.000
68.74380 60.000
68.76375 51.000
68.78370 41.000
68.80364 59.000
68.82359 63.000
68.84354 54.000
68.86348 70.000
68.88343 56.000
68.90338 52.000
68.92333 60.000
68.94327 42.000
68.96322 46.000
68.98317 44.000
69.00311 64.000
69.02306 52.000
69.04301 56.000
69.06295 37.000
69.08290 50.000
69.10285 57.000
69.12279 46.000
69.14274 58.000
69.16269 49.000
69.18264 47.000
69.20258 55.000
69.22253 58.000
69.24248 38.000
69.26242 47.000
69.28237 60.000
69.30232 55.000
69.32226 49.000
69.34221 44.000
69.36216 60.000
69.38211 49.000
69.40205 59.000
69.42200 36.000
69.44195 39.000
69.46189 45.000
69.48184 45.000
69.50179 53.000
69.52173 40.000
69.54168 37.000
69.56163 59.000
69.58157 49.000
69.60152 51.000
69.62147 52.000
69.64142 58.000
69.66136 51.000
69.68131 50.000
69.70126 48.000
69.72120 46.000
69.74115 49.000
69.76110 38.000
69.78104 44.000
69.80099 45.000
69.82094 40.000
69.84089 42.000
69.86083 47.000
69.88078 39.000
69.90073 53.000
69.92067 44.000
69.94062 50.000
69.96057 41.000
69.98051 52.000
70.00046 55.000
70.02041 44.000
70.04035 39.000
70.06030 49.000
70.08025 46.000
70.10020 44.000
70.12014 30.000
70.14009 49.000
70.16004 46.000
70.17998 43.000
70.19993 44.000
70.21988 41.000
70.23982 49.000
70.25977 50.000
70.27972 56.000
70.29967 45.000
70.31961 46.000
70.33956 39.000
70.35951 48.000
70.37945 49.000
70.39940 51.000
70.41935 43.000
70.43929 36.000
70.45924 41.000
70.47919 43.000
70.49914 45.000
70.51908 40.000
70.53903 50.000
70.55898 51.000
70.57892 49.000
70.59887 53.000
70.61882 37.000
70.63876 61.000
70.65871 56.000
70.67866 51.000
70.69860 41.000
70.71855 44.000
70.73850 49.000
70.75845 60.000
70.77839 57.000
70.79834 48.000
70.81829 47.000
70.83823 55.000
70.85818 49.000
70.87813 47.000
70.89807 52.000
70.91802 55.000
70.93797 51.000
70.95792 58.000
70.97786 54.000
70.99781 51.000
71.01776 59.000
71.03770 55.000
71.05765 60.000
71.07760 58.000
71.09754 55.000
71.11749 73.000
71.13744 57.000
71.15738 60.000
71.17733 82.000
71.19728 77.000
71.21723 53.000
71.23717 89.000
71.25712 75.000
71.27707 81.000
71.29701 70.000
71.31696 84.000
71.33691 71.000
71.35685 76.000
71.37680 69.000
71.39675 80.000
71.41670 79.000
71.43664 71.000
71.45659 62.000
71.47654 76.000
71.49648 68.000
71.51643 65.000
71.53638 73.000
71.55632 57.000
71.57627 52.000
71.59622 52.000
71.61616 63.000
71.63611 47.000
71.65606 65.000
71.67601 45.000
71.69595 52.000
71.71590 53.000
71.73585 44.000
71.75579 60.000
71.77574 64.000
71.79569 63.000
71.81563 52.000
71.83558 63.000
71.85553 62.000
71.87548 63.000
71.89542 73.000
71.91537 61.000
71.93532 71.000
71.95526 53.000
71.97521 60.000
71.99516 63.000
72.01510 70.000
72.03505 66.000
72.05500 78.000
72.07495 65.000
72.09489 83.000
72.11484 82.000
72.13479 85.000
72.15473 93.000
72.17468 88.000
72.19463 90.000
72.21457 90.000
72.23452 91.000
72.25447 78.000
72.27441 81.000
72.29436 116.000
72.31431 105.000
72.33426 88.000
72.35420 110.000
72.37415 101.000
72.39410 97.000
72.41404 85.000
72.43399 99.000
72.45394 65.000
72.47388 86.000
72.49383 88.000
72.51378 86.000
72.53373 70.000
72.55367 80.000
72.57362 77.000
72.59357 75.000
72.61351 80.000
72.63346 65.000
72.65341 68.000
72.67335 83.000
72.69330 51.000
72.71325 62.000
72.73319 62.000
72.75314 63.000
72.77309 63.000
72.79304 62.000
72.81298 82.000
72.83293 79.000
72.85288 55.000
72.87282 65.000
72.89277 70.000
72.91272 52.000
72.93266 60.000
72.95261 68.000
72.97256 64.000
72.99251 53.000
73.01245 68.000
73.03240 64.000
73.05235 54.000
73.07229 55.000
73.09224 59.000
73.11219 89.000
73.13213 54.000
73.15208 63.000
73.17203 85.000
73.19197 70.000
73.21192 65.000
73.23187 81.000
73.25182 72.000
73.27176 72.000
73.29171 65.000
73.31166 76.000
73.33160 61.000
73.35155 76.000
73.37150 78.000
73.39144 68.000
73.41139 87.000
73.43134 66.000
73.45129 53.000
73.47123 67.000
73.49118 69.000
73.51113 69.000
73.53107 59.000
73.55102 69.000
73.57097 68.000
73.59091 66.000
73.61086 65.000
73.63081 63.000
73.65076 62.000
73.67070 75.000
73.69065 75.000
73.71060 70.000
73.73054 75.000
73.75049 75.000
73.77044 62.000
73.79038 82.000
73.81033 72.000
73.83028 81.000
73.85022 78.000
73.87017 65.000
73.89012 67.000
73.91007 73.000
73.93001 59.000
73.94996 65.000
73.96991 85.000
73.98985 97.000
74.00980 70.000
74.02975 83.000
74.04969 69.000
74.06964 69.000
74.08959 62.000
74.10954 75.000
74.12948 71.000
74.14943 94.000
74.16938 93.000
74.18932 99.000
74.20927 100.000
74.22922 110.000
74.24916 84.000
74.26911 107.000
74.28906 128.000
74.30900 135.000
74.32895 116.000
74.34890 142.000
74.36885 140.000
74.38879 141.000
74.40874 145.000
74.42869 104.000
74.44863 120.000
74.46858 110.000
74.48853 123.000
74.50847 108.000
74.52842 120.000
74.54837 114.000
74.56832 85.000
74.58826 97.000
74.60821 110.000
74.62816 84.000
74.64810 100.000
74.66805 84.000
74.68800 75.000
74.70794 70.000
74.72789 77.000
74.74784 61.000
74.76778 60.000
74.78773 56.000
74.80768 52.000
74.82763 73.000
74.84757 79.000
74.86752 72.000
74.88747 80.000
74.90741 55.000
74.92736 67.000
74.94731 51.000
74.96725 56.000
74.98720 53.000
75.00715 71.000
75.02710 44.000
75.04704 53.000
75.06699 60.000
75.08694 55.000
75.10688 59.000
75.12683 48.000
75.14678 73.000
75.16672 65.000
75.18667 58.000
75.20662 67.000
75.22657 51.000
75.24651 75.000
75.26646 75.000
75.28641 69.000
75.30635 73.000
75.32630 78.000
75.34625 84.000
75.36619 91.000
75.38614 76.000
75.40609 72.000
75.42603 79.000
75.44598 69.000
75.46593 73.000
75.48588 77.000
75.50582 70.000
75.52577 72.000
75.54572 70.000
75.56566 72.000
75.58561 56.000
75.60556 72.000
75.62550 72.000
75.64545 65.000
75.66540 40.000
75.68535 40.000
75.70529 48.000
75.72524 65.000
75.74519 55.000
75.76513 46.000
75.78508 48.000
75.80503 64.000
75.82497 48.000
75.84492 59.000
75.86487 41.000
75.88481 48.000
75.90476 45.000
75.92471 57.000
75.94466 48.000
75.96460 43.000
75.98455 55.000
76.00450 46.000
76.02444 58.000
76.04439 45.000
76.06434 63.000
76.08428 49.000
76.10423 51.000
76.12418 52.000
76.14413 52.000
76.16407 45.000
76.18402 51.000
76.20397 32.000
76.22391 62.000
76.24386 33.000
76.26381 51.000
76.28375 48.000
76.30370 60.000
76.32365 50.000
76.34359 46.000
76.36354 39.000
76.38349 33.000
76.40344 45.000
76.42338 49.000
76.44333 35.000
76.46328 42.000
76.48322 51.000
76.50317 55.000
76.52312 49.000
76.54306 42.000
76.56301 55.000
76.58296 39.000
76.60291 43.000
76.62285 63.000
76.64280 40.000
76.66275 34.000
76.68269 50.000
76.70264 50.000
76.72259 54.000
76.74253 52.000
76.76248 61.000
76.78243 54.000
76.80238 37.000
76.82232 51.000
76.84227 56.000
76.86222 60.000
76.88216 45.000
76.90211 46.000
76.92206 52.000
76.94200 42.000
76.96195 48.000
76.98190 48.000
77.00184 70.000
77.02179 45.000
77.04174 65.000
77.06169 55.000
77.08163 41.000
77.10158 55.000
77.12153 56.000
77.14147 62.000
77.16142 60.000
77.18137 66.000
77.20131 54.000
77.22126 55.000
77.24121 55.000
77.26116 64.000
77.28110 66.000
77.30105 60.000
77.32100 73.000
77.34094 85.000
77.36089 71.000
77.38084 91.000
77.40078 70.000
77.42073 65.000
77.44068 69.000
77.46062 72.000
77.48057 66.000
77.50052 83.000
77.52047 83.000
77.54041 83.000
77.56036 82.000
77.58031 78.000
77.60025 88.000
77.62020 84.000
77.64015 88.000
77.66009 85.000
77.68004 83.000
77.69999 92.000
77.71994 84.000
77.73988 74.000
77.75983 72.000
77.77978 89.000
77.79972 83.000
77.81967 83.000
77.83962 79.000
77.85956 72.000
77.87951 70.000
77.89946 79.000
77.91940 74.000
77.93935 61.000
77.95930 73.000
77.97925 77.000
77.99919 72.000
78.01914 64.000
78.03909 49.000
78.05903 98.000
78.07898 72.000
78.09893 70.000
78.11887 77.000
78.13882 60.000
78.15877 57.000
78.17872 57.000
78.19866 63.000
78.21861 69.000
78.23856 49.000
78.25850 63.000
78.27845 53.000
78.29840 38.000
78.31834 50.000
78.33829 44.000
78.35824 52.000
78.37819 46.000
78.39813 53.000
78.41808 48.000
78.43803 38.000
78.45797 43.000
78.47792 46.000
78.49787 49.000
78.51781 54.000
78.53776 42.000
78.55771 52.000
78.57765 44.000
78.59760 41.000
78.61755 49.000
78.63750 36.000
78.65744 52.000
78.67739 48.000
78.69734 50.000
78.71728 52.000
78.73723 50.000
78.75718 34.000
78.77712 48.000
78.79707 57.000
78.81702 52.000
78.83697 39.000
78.85691 47.000
78.87686 45.000
78.89681 44.000
78.91675 48.000
78.93670 35.000
78.95665 39.000
78.97659 45.000
78.99654 58.000
79.01649 49.000
79.03643 45.000
79.05638 44.000
79.07633 69.000
79.09628 50.000
79.11622 56.000
79.13617 62.000
79.15612 51.000
79.17606 46.000
79.19601 44.000
79.21596 52.000
79.23590 52.000
79.25585 55.000
79.27580 60.000
79.29575 68.000
79.31569 55.000
79.33564 57.000
79.35559 74.000
79.37553 73.000
79.39548 61.000
79.41543 58.000
79.43537 64.000
79.45532 55.000
79.47527 68.000
79.49521 51.000
79.51516 60.000
79.53511 53.000
79.55506 68.000
79.57500 49.000
79.59495 60.000
79.61490 51.000
79.63484 62.000
79.65479 48.000
79.67474 53.000
79.69468 45.000
79.71463 48.000
79.73458 46.000
79.75453 53.000
79.77447 43.000
79.79442 53.000
79.81437 54.000
79.83431 36.000
79.85426 51.000
79.87421 60.000
79.89415 50.000
79.91410 59.000
79.93405 47.000
79.95399 34.000
79.97394 48.000
79.99389 47.000
80.01384 52.000
80.03378 40.000
80.05373 46.000
80.07368 50.000
80.09362 45.000
80.11357 48.000
80.13352 49.000
80.15346 49.000
80.17341 43.000
80.19336 47.000
80.21331 34.000
80.23325 57.000
80.25320 35.000
80.27315 47.000
80.29309 30.000
80.31304 55.000
80.33299 31.000
80.35293 50.000
80.37288 42.000
80.39283 44.000
80.41278 60.000
80.43272 41.000
80.45267 49.000
80.47262 47.000
80.49256 43.000
80.51251 33.000
80.53246 38.000
80.55240 48.000
80.57235 46.000
80.59230 41.000
80.61224 42.000
80.63219 41.000
80.65214 44.000
80.67209 49.000
80.69203 45.000
80.71198 41.000
80.73193 52.000
80.75187 49.000
80.77182 39.000
80.79177 35.000
80.81171 45.000
80.83166 31.000
80.85161 33.000
80.87156 30.000
80.89150 38.000
80.91145 46.000
80.93140 45.000
80.95134 43.000
80.97129 46.000
80.99124 46.000
81.01118 47.000
81.03113 52.000
81.05108 45.000
81.07102 38.000
81.09097 40.000
81.11092 37.000
81.13087 46.000
81.15081 62.000
81.17076 41.000
81.19071 50.000
81.21065 44.000
81.23060 45.000
81.25055 33.000
81.27049 45.000
81.29044 47.000
81.31039 39.000
81.33034 57.000
81.35028 41.000
81.37023 59.000
81.39018 50.000
81.41012 64.000
81.43007 30.000
81.45002 51.000
81.46996 51.000
81.48991 50.000
81.50986 37.000
81.52980 36.000
81.54975 45.000
81.56970 54.000
81.58965 42.000
81.60959 49.000
81.62954 48.000
81.64949 67.000
81.66943 48.000
81.68938 45.000
81.70933 47.000
81.72927 51.000
81.74922 48.000
81.76917 42.000
81.78912 47.000
81.80906 53.000
81.82901 52.000
81.84896 55.000
81.86890 41.000
81.88885 48.000
81.90880 40.000
81.92874 46.000
81.94869 36.000
81.96864 53.000
81.98859 35.000
82.00853 47.000
82.02848 44.000
82.04843 53.000
82.06837 47.000
82.08832 52.000
82.10827 46.000
82.12821 50.000
82.14816 44.000
82.16811 51.000
82.18805 55.000
82.20800 46.000
82.22795 46.000
82.24790 52.000
82.26784 45.000
82.28779 49.000
82.30774 65.000
82.32768 55.000
82.34763 46.000
82.36758 47.000
82.38752 57.000
82.40747 49.000
82.42742 60.000
82.44737 53.000
82.46731 51.000
82.48726 66.000
82.50721 48.000
82.52715 44.000
82.54710 56.000
82.56705 45.000
82.58699 53.000
82.60694 48.000
82.62689 46.000
82.64683 45.000
82.66678 51.000
82.68673 44.000
82.70668 46.000
82.72662 48.000
82.74657 49.000
82.76652 48.000
82.78646 30.000
82.80641 53.000
82.82636 43.000
82.84630 57.000
82.86625 41.000
82.88620 43.000
82.90615 35.000
82.92609 32.000
82.94604 48.000
82.96599 38.000
82.98593 50.000
83.00588 45.000
83.02583 48.000
83.04577 46.000
83.06572 39.000
83.08567 59.000
83.10561 44.000
83.12556 46.000
83.14551 48.000
83.16546 66.000
83.18540 44.000
83.20535 43.000
83.22530 44.000
83.24524 46.000
83.26519 33.000
83.28514 49.000
83.30508 45.000
83.32503 49.000
83.34498 32.000
83.36493 49.000
83.38487 49.000
83.40482 45.000
83.42477 39.000
83.44471 43.000
83.46466 42.000
83.48461 35.000
83.50455 47.000
83.52450 42.000
83.54445 47.000
83.56440 32.000
83.58434 52.000
83.60429 31.000
83.62424 44.000
83.64418 41.000
83.66413 30.000
83.68408 50.000
83.70402 43.000
83.72397 51.000
83.74392 45.000
83.76386 53.000
83.78381 51.000
83.80376 40.000
83.82371 48.000
83.84365 41.000
83.86360 50.000
83.88355 51.000
83.90349 57.000
83.92344 53.000
83.94339 50.000
83.96333 53.000
83.98328 54.000
84.00323 66.000
84.02318 50.000
84.04312 40.000
84.06307 60.000
84.08302 55.000
84.10296 53.000
84.12291 43.000
84.14286 53.000
84.16280 38.000
84.18275 41.000
84.20270 43.000
84.22264 67.000
84.24259 45.000
84.26254 43.000
84.28249 60.000
84.30243 55.000
84.32238 41.000
84.34233 44.000
84.36227 49.000
84.38222 32.000
84.40217 36.000
84.42211 58.000
84.44206 36.000
84.46201 41.000
84.48196 52.000
84.50190 35.000
84.52185 38.000
84.54180 50.000
84.56174 49.000
84.58169 39.000
84.60164 42.000
84.62158 43.000
84.64153 26.000
84.66148 36.000
84.68142 25.000
84.70137 41.000
84.72132 52.000
84.74127 37.000
84.76121 36.000
84.78116 41.000
84.80111 47.000
84.82105 45.000
84.84100 36.000
84.86095 48.000
84.88089 42.000
84.90084 37.000
84.92079 49.000
84.94074 42.000
84.96068 46.000
84.98063 52.000
85.00058 39.000
85.02052 48.000
85.04047 41.000
85.06042 39.000
85.08036 44.000
85.10031 32.000
85.12026 44.000
85.14021 40.000
85.16015 30.000
85.18010 39.000
85.20005 44.000
85.21999 48.000
85.23994 45.000
85.25989 55.000
85.27983 52.000
85.29978 55.000
85.31973 40.000
85.33967 35.000
85.35962 45.000
85.37957 50.000
85.39952 35.000
85.41946 40.000
85.43941 37.000
85.45936 44.000
85.47930 39.000
85.49925 52.000
85.51920 45.000
85.53914 42.000
85.55909 36.000
85.57904 46.000
85.59899 52.000
85.61893 39.000
85.63888 38.000
85.65883 45.000
85.67877 39.000
85.69872 47.000
85.71867 51.000
85.73861 46.000
85.75856 45.000
85.77851 39.000
85.79845 35.000
85.81840 50.000
85.83835 41.000
85.85830 42.000
85.87824 44.000
85.89819 56.000
85.91814 50.000
85.93808 49.000
85.95803 56.000
85.97798 51.000
85.99792 54.000
86.01787 49.000
86.03782 51.000
86.05777 58.000
86.07771 64.000
86.09766 74.000
86.11761 72.000
86.13755 56.000
86.15750 45.000
86.17745 57.000
86.19739 57.000
86.21734 73.000
86.23729 59.000
86.25723 52.000
86.27718 44.000
86.29713 60.000
86.31708 44.000
86.33702 59.000
86.35697 68.000
86.37692 51.000
86.39686 61.000
86.41681 52.000
86.43676 52.000
86.45670 55.000
86.47665 46.000
86.49660 47.000
86.51655 55.000
86.53649 52.000
86.55644 52.000
86.57639 57.000
86.59633 39.000
86.61628 54.000
86.63623 57.000
86.65617 51.000
86.67612 54.000
86.69607 51.000
86.71602 44.000
86.73596 44.000
86.75591 48.000
86.77586 48.000
86.79580 50.000
86.81575 51.000
86.83570 64.000
86.85564 43.000
86.87559 56.000
86.89554 46.000
86.91548 52.000
86.93543 48.000
86.95538 59.000
86.97533 59.000
86.99527 50.000
87.01522 55.000
87.03517 48.000
87.05511 58.000
87.07506 51.000
87.09501 54.000
87.11495 56.000
87.13490 68.000
87.15485 72.000
87.17480 51.000
87.19474 61.000
87.21469 68.000
87.23464 66.000
87.25458 82.000
87.27453 82.000
87.29448 65.000
87.31442 80.000
87.33437 76.000
87.35432 87.000
87.37426 75.000
87.39421 59.000
87.41416 63.000
87.43411 62.000
87.45405 63.000
87.47400 65.000
87.49395 58.000
87.51389 64.000
87.53384 78.000
87.55379 61.000
87.57373 48.000
87.59368 74.000
87.61363 58.000
87.63358 59.000
87.65352 35.000
87.67347 54.000
87.69342 43.000
87.71336 58.000
87.73331 39.000
87.75326 50.000
87.77320 36.000
87.79315 51.000
87.81310 41.000
87.83304 49.000
87.85299 40.000
87.87294 38.000
87.89289 45.000
87.91283 36.000
87.93278 50.000
87.95273 32.000
87.97267 43.000
87.99262 42.000
88.01257 39.000
88.03251 43.000
88.05246 35.000
88.07241 33.000
88.09236 42.000
88.11230 40.000
88.13225 61.000
88.15220 45.000
88.17214 41.000
88.19209 39.000
88.21204 47.000
88.23198 37.000
88.25193 39.000
88.27188 44.000
88.29183 51.000
88.31177 33.000
88.33172 48.000
88.35167 42.000
88.37161 39.000
88.39156 35.000
88.41151 45.000
88.43145 43.000
88.45140 54.000
88.47135 46.000
88.49129 44.000
88.51124 50.000
88.53119 32.000
88.55114 42.000
88.57108 49.000
88.59103 41.000
88.61098 53.000
88.63092 46.000
88.65087 42.000
88.67082 48.000
88.69076 53.000
88.71071 54.000
88.73066 51.000
88.75061 33.000
88.77055 52.000
88.79050 41.000
88.81045 41.000
88.83039 47.000
88.85034 51.000
88.87029 58.000
88.89023 36.000
88.91018 45.000
88.93013 48.000
88.95007 42.000
88.97002 49.000
88.98997 43.000
89.00992 31.000
89.02986 47.000
89.04981 56.000
89.06976 45.000
89.08970 48.000
89.10965 44.000
89.12960 41.000
89.14954 49.000
89.16949 49.000
89.18944 49.000
89.20939 45.000
89.22933 43.000
89.24928 44.000
89.26923 34.000
89.28917 60.000
89.30912 50.000
89.32907 58.000
89.34901 48.000
89.36896 42.000
89.38891 47.000
89.40885 52.000
89.42880 63.000
89.44875 54.000
89.46870 54.000
89.48864 68.000
89.50859 39.000
89.52854 55.000
89.54848 65.000
89.56843 62.000
89.58838 71.000
89.60832 59.000
89.62827 70.000
89.64822 75.000
89.66817 69.000
89.68811 53.000
89.70806 70.000
89.72801 64.000
89.74795 90.000
89.76790 90.000
89.78785 77.000
89.80779 75.000
89.82774 83.000
89.84769 88.000
89.86764 102.000
89.88758 85.000
89.90753 95.000
89.92748 97.000
89.94742 86.000
89.96737 108.000
89.98732 98.000
90.00726 96.000
