10.00000 169.000
10.01995 165.000
10.03989 151.000
10.05984 172.000
10.07979 161.000
10.09973 167.000
10.11968 156.000
10.13963 141.000
10.15958 167.000
10.17952 150.000
10.19947 171.000
10.21942 163.000
10.23936 180.000
10.25931 161.000
10.27926 160.000
10.29920 173.000
10.31915 164.000
10.33910 176.000
10.35905 183.000
10.37899 145.000
10.39894 194.000
10.41889 161.000
10.43883 148.000
10.45878 178.000
10.47873 142.000
10.49867 173.000
10.51862 149.000
10.53857 171.000
10.55851 155.000
10.57846 142.000
10.59841 157.000
10.61836 174.000
10.63830 151.000
10.65825 188.000
10.67820 176.000
10.69814 179.000
10.71809 170.000
10.73804 175.000
10.75798 179.000
10.77793 193.000
10.79788 143.000
10.81783 189.000
10.83777 173.000
10.85772 178.000
10.87767 177.000
10.89761 194.000
10.91756 166.000
10.93751 154.000
10.95745 192.000
10.97740 163.000
10.99735 174.000
11.01730 170.000
11.03724 171.000
11.05719 167.000
11.07714 167.000
11.09708 168.000
11.11703 191.000
11.13698 190.000
11.15692 171.000
11.17687 157.000
11.19682 159.000
11.21676 169.000
11.23671 196.000
11.25666 171.000
11.27661 155.000
11.29655 168.000
11.31650 178.000
11.33645 164.000
11.35639 138.000
11.37634 188.000
11.39629 193.000
11.41623 176.000
11.43618 175.000
11.45613 183.000
11.47608 182.000
11.49602 192.000
11.51597 184.000
11.53592 188.000
11.55586 163.000
11.57581 181.000
11.59576 188.000
11.61570 172.000
11.63565 161.000
11.65560 169.000
11.67554 183.000
11.69549 208.000
11.71544 180.000
11.73539 175.000
11.75533 189.000
11.77528 181.000
11.79523 157.000
11.81517 181.000
11.83512 174.000
11.85507 188.000
11.87501 198.000
11.89496 207.000
11.91491 188.000
11.93486 191.000
11.95480 181.000
11.97475 144.000
11.99470 180.000
12.01464 174.000
12.03459 175.000
12.05454 173.000
12.07448 178.000
12.09443 198.000
12.11438 200.000
12.13432 195.000
12.15427 169.000
12.17422 179.000
12.19417 198.000
12.21411 169.000
12.23406 189.000
12.25401 164.000
12.27395 194.000
12.29390 155.000
12.31385 186.000
12.33379 197.000
12.35374 200.000
12.37369 214.000
12.39364 183.000
12.41358 178.000
12.43353 167.000
12.45348 182.000
12.47342 185.000
12.49337 180.000
12.51332 180.000
12.53326 196.000
12.55321 190.000
12.57316 189.000
12.59311 195.000
12.61305 162.000
12.63300 197.000
12.65295 234.000
12.67289 195.000
12.69284 197.000
12.71279 193.000
12.73273 196.000
12.75268 182.000
12.77263 186.000
12.79257 188.000
12.81252 177.000
12.83247 163.000
12.85242 184.000
12.87236 184.000
12.89231 184.000
12.91226 185.000
12.93220 201.000
12.95215 177.000
12.97210 176.000
12.99204 204.000
13.01199 218.000
13.03194 205.000
13.05189 206.000
13.07183 213.000
13.09178 197.000
13.11173 178.000
13.13167 204.000
13.15162 194.000
13.17157 186.000
13.19151 193.000
13.21146 209.000
13.23141 206.000
13.25135 175.000
13.27130 179.000
13.29125 198.000
13.31120 197.000
13.33114 192.000
13.35109 210.000
13.37104 233.000
13.39098 203.000
13.41093 207.000
13.43088 214.000
13.45082 201.000
13.47077 207.000
13.49072 206.000
13.51067 227.000
13.53061 193.000
13.55056 184.000
13.57051 191.000
13.59045 197.000
13.61040 207.000
13.63035 207.000
13.65029 223.000
13.67024 201.000
13.69019 186.000
13.71013 211.000
13.73008 227.000
13.75003 208.000
13.76998 209.000
13.78992 209.000
13.80987 226.000
13.82982 199.000
13.84976 224.000
13.86971 201.000
13.88966 195.000
13.90960 218.000
13.92955 235.000
13.94950 198.000
13.96945 213.000
13.98939 195.000
14.00934 200.000
14.02929 215.000
14.04923 216.000
14.06918 209.000
14.08913 184.000
14.10907 219.000
14.12902 226.000
14.14897 209.000
14.16892 229.000
14.18886 207.000
14.20881 189.000
14.22876 228.000
14.24870 208.000
14.26865 201.000
14.28860 188.000
14.30854 239.000
14.32849 222.000
14.34844 221.000
14.36838 196.000
14.38833 200.000
14.40828 222.000
14.42823 201.000
14.44817 212.000
14.46812 215.000
14.48807 203.000
14.50801 207.000
14.52796 220.000
14.54791 234.000
14.56785 210.000
14.58780 201.000
14.60775 190.000
14.62770 235.000
14.64764 212.000
14.66759 220.000
14.68754 204.000
14.70748 198.000
14.72743 222.000
14.74738 222.000
14.76732 259.000
14.78727 197.000
14.80722 216.000
14.82716 229.000
14.84711 192.000
14.86706 241.000
14.88701 204.000
14.90695 211.000
14.92690 212.000
14.94685 242.000
14.96679 251.000
14.98674 219.000
15.00669 209.000
15.02663 241.000
15.04658 245.000
15.06653 208.000
15.08648 238.000
15.10642 232.000
15.12637 227.000
15.14632 228.000
15.16626 235.000
15.18621 222.000
15.20616 246.000
15.22610 203.000
15.24605 230.000
15.26600 225.000
15.28594 222.000
15.30589 211.000
15.32584 250.000
15.34579 230.000
15.36573 222.000
15.38568 260.000
15.40563 251.000
15.42557 264.000
15.44552 262.000
15.46547 214.000
15.48541 223.000
15.50536 243.000
15.52531 253.000
15.54526 279.000
15.56520 260.000
15.58515 235.000
15.60510 293.000
15.62504 308.000
15.64499 318.000
15.66494 268.000
15.68488 317.000
15.70483 264.000
15.72478 278.000
15.74472 273.000
15.76467 257.000
15.78462 263.000
15.80457 252.000
15.82451 262.000
15.84446 242.000
15.86441 244.000
15.88435 246.000
15.90430 219.000
15.92425 236.000
15.94419 230.000
15.96414 231.000
15.98409 231.000
16.00404 206.000
16.02398 253.000
16.04393 260.000
16.06388 250.000
16.08382 238.000
16.10377 240.000
16.12372 251.000
16.14366 261.000
16.16361 229.000
16.18356 204.000
16.20351 246.000
16.22345 248.000
16.24340 226.000
16.26335 255.000
16.28329 263.000
16.30324 251.000
16.32319 249.000
16.34313 229.000
16.36308 247.000
16.38303 244.000
16.40297 286.000
16.42292 237.000
16.44287 226.000
16.46282 257.000
16.48276 250.000
16.50271 232.000
16.52266 274.000
16.54260 248.000
16.56255 248.000
16.58250 263.000
16.60244 246.000
16.62239 266.000
16.64234 289.000
16.66229 255.000
16.68223 255.000
16.70218 275.000
16.72213 246.000
16.74207 248.000
16.76202 272.000
16.78197 263.000
16.80191 290.000
16.82186 282.000
16.84181 291.000
16.86175 262.000
16.88170 232.000
16.90165 281.000
16.92160 260.000
16.94154 299.000
16.96149 262.000
16.98144 238.000
17.00138 249.000
17.02133 294.000
17.04128 274.000
17.06122 258.000
17.08117 300.000
17.10112 268.000
17.12107 276.000
17.14101 280.000
17.16096 265.000
17.18091 245.000
17.20085 258.000
17.22080 243.000
17.24075 276.000
17.26069 255.000
17.28064 274.000
17.30059 261.000
17.32053 279.000
17.34048 237.000
17.36043 288.000
17.38038 291.000
17.40032 245.000
17.42027 264.000
17.44022 283.000
17.46016 287.000
17.48011 293.000
17.50006 254.000
17.52000 246.000
17.53995 290.000
17.55990 268.000
17.57985 272.000
17.59979 294.000
17.61974 292.000
17.63969 293.000
17.65963 288.000
17.67958 285.000
17.69953 275.000
17.71947 310.000
17.73942 270.000
17.75937 272.000
17.77932 273.000
17.79926 313.000
17.81921 291.000
17.83916 280.000
17.85910 309.000
17.87905 277.000
17.89900 287.000
17.91894 338.000
17.93889 296.000
17.95884 285.000
17.97878 312.000
17.99873 316.000
18.01868 286.000
18.03863 311.000
18.05857 311.000
18.07852 310.000
18.09847 327.000
18.11841 294.000
18.13836 328.000
18.15831 342.000
18.17825 338.000
18.19820 357.000
18.21815 386.000
18.23810 408.000
18.25804 465.000
18.27799 421.000
18.29794 478.000
18.31788 439.000
18.33783 405.000
18.35778 395.000
18.37772 326.000
18.39767 348.000
18.41762 312.000
18.43756 324.000
18.45751 316.000
18.47746 334.000
18.49741 278.000
18.51735 310.000
18.53730 316.000
18.55725 295.000
18.57719 330.000
18.59714 285.000
18.61709 287.000
18.63703 311.000
18.65698 288.000
18.67693 333.000
18.69688 313.000
18.71682 318.000
18.73677 304.000
18.75672 321.000
18.77666 344.000
18.79661 311.000
18.81656 319.000
18.83650 328.000
18.85645 313.000
18.87640 306.000
18.89634 295.000
18.91629 306.000
18.93624 301.000
18.95619 341.000
18.97613 324.000
18.99608 305.000
19.01603 334.000
19.03597 325.000
19.05592 330.000
19.07587 319.000
19.09581 315.000
19.11576 339.000
19.13571 333.000
19.15566 315.000
19.17560 335.000
19.19555 324.000
19.21550 309.000
19.23544 312.000
19.25539 340.000
19.27534 299.000
19.29528 307.000
19.31523 319.000
19.33518 315.000
19.35513 329.000
19.37507 314.000
19.39502 314.000
19.41497 368.000
19.43491 339.000
19.45486 332.000
19.47481 321.000
19.49475 325.000
19.51470 326.000
19.53465 357.000
19.55459 350.000
19.57454 353.000
19.59449 326.000
19.61444 318.000
19.63438 358.000
19.65433 345.000
19.67428 321.000
19.69422 336.000
19.71417 324.000
19.73412 336.000
19.75406 350.000
19.77401 358.000
19.79396 349.000
19.81391 350.000
19.83385 322.000
19.85380 353.000
19.87375 357.000
19.89369 348.000
19.91364 328.000
19.93359 325.000
19.95353 369.000
19.97348 356.000
19.99343 359.000
20.01337 320.000
20.03332 334.000
20.05327 356.000
20.07322 344.000
20.09316 331.000
20.11311 341.000
20.13306 367.000
20.15300 326.000
20.17295 347.000
20.19290 347.000
20.21284 352.000
20.23279 388.000
20.25274 366.000
20.27269 361.000
20.29263 376.000
20.31258 366.000
20.33253 381.000
20.35247 355.000
20.37242 384.000
20.39237 364.000
20.41231 359.000
20.43226 347.000
20.45221 345.000
20.47215 363.000
20.49210 346.000
20.51205 374.000
20.53200 395.000
20.55194 368.000
20.57189 368.000
20.59184 365.000
20.61178 412.000
20.63173 388.000
20.65168 376.000
20.67162 364.000
20.69157 400.000
20.71152 339.000
20.73147 366.000
20.75141 352.000
20.77136 398.000
20.79131 382.000
20.81125 451.000
20.83120 383.000
20.85115 460.000
20.87109 387.000
20.89104 452.000
20.91099 498.000
20.93094 500.000
20.95088 528.000
20.97083 459.000
20.99078 500.000
21.01072 473.000
21.03067 462.000
21.05062 420.000
21.07056 429.000
21.09051 414.000
21.11046 408.000
21.13040 327.000
21.15035 374.000
21.17030 387.000
21.19025 395.000
21.21019 384.000
21.23014 372.000
21.25009 381.000
21.27003 403.000
21.28998 407.000
21.30993 382.000
21.32987 366.000
21.34982 385.000
21.36977 392.000
21.38972 372.000
21.40966 408.000
21.42961 375.000
21.44956 417.000
21.46950 387.000
21.48945 370.000
21.50940 345.000
21.52934 386.000
21.54929 388.000
21.56924 399.000
21.58918 412.000
21.60913 366.000
21.62908 384.000
21.64903 407.000
21.66897 353.000
21.68892 425.000
21.70887 339.000
21.72881 381.000
21.74876 388.000
21.76871 412.000
21.78865 394.000
21.80860 397.000
21.82855 394.000
21.84850 399.000
21.86844 396.000
21.88839 385.000
21.90834 385.000
21.92828 393.000
21.94823 415.000
21.96818 396.000
21.98812 373.000
22.00807 397.000
22.02802 408.000
22.04796 357.000
22.06791 388.000
22.08786 427.000
22.10781 399.000
22.12775 428.000
22.14770 380.000
22.16765 429.000
22.18759 431.000
22.20754 431.000
22.22749 419.000
22.24743 395.000
22.26738 408.000
22.28733 398.000
22.30728 376.000
22.32722 410.000
22.34717 410.000
22.36712 403.000
22.38706 392.000
22.40701 419.000
22.42696 386.000
22.44690 430.000
22.46685 388.000
22.48680 431.000
22.50675 412.000
22.52669 389.000
22.54664 417.000
22.56659 446.000
22.58653 389.000
22.60648 408.000
22.62643 444.000
22.64637 385.000
22.66632 382.000
22.68627 399.000
22.70621 390.000
22.72616 442.000
22.74611 429.000
22.76606 389.000
22.78600 389.000
22.80595 433.000
22.82590 447.000
22.84584 422.000
22.86579 426.000
22.88574 377.000
22.90568 409.000
22.92563 444.000
22.94558 440.000
22.96553 423.000
22.98547 422.000
23.00542 426.000
23.02537 421.000
23.04531 436.000
23.06526 422.000
23.08521 447.000
23.10515 418.000
23.12510 442.000
23.14505 451.000
23.16499 418.000
23.18494 390.000
23.20489 422.000
23.22484 485.000
23.24478 396.000
23.26473 380.000
23.28468 417.000
23.30462 462.000
23.32457 468.000
23.34452 430.000
23.36446 455.000
23.38441 452.000
23.40436 432.000
23.42431 419.000
23.44425 449.000
23.46420 423.000
23.48415 468.000
23.50409 488.000
23.52404 446.000
23.54399 439.000
23.56393 411.000
23.58388 407.000
23.60383 480.000
23.62377 460.000
23.64372 433.000
23.66367 450.000
23.68362 466.000
23.70356 469.000
23.72351 443.000
23.74346 474.000
23.76340 466.000
23.78335 442.000
23.80330 453.000
23.82324 473.000
23.84319 462.000
23.86314 458.000
23.88309 419.000
23.90303 449.000
23.92298 451.000
23.94293 484.000
23.96287 443.000
23.98282 468.000
24.00277 451.000
24.02271 459.000
24.04266 480.000
24.06261 482.000
24.08256 439.000
24.10250 462.000
24.12245 480.000
24.14240 440.000
24.16234 473.000
24.18229 449.000
24.20224 439.000
24.22218 465.000
24.24213 479.000
24.26208 488.000
24.28202 443.000
24.30197 457.000
24.32192 480.000
24.34187 474.000
24.36181 458.000
24.38176 455.000
24.40171 512.000
24.42165 498.000
24.44160 467.000
24.46155 482.000
24.48149 491.000
24.50144 474.000
24.52139 491.000
24.54134 505.000
24.56128 442.000
24.58123 486.000
24.60118 474.000
24.62112 495.000
24.64107 492.000
24.66102 458.000
24.68096 490.000
24.70091 463.000
24.72086 478.000
24.74080 506.000
24.76075 502.000
24.78070 475.000
24.80065 499.000
24.82059 476.000
24.84054 449.000
24.86049 492.000
24.88043 493.000
24.90038 506.000
24.92033 503.000
24.94027 505.000
24.96022 515.000
24.98017 479.000
25.00012 484.000
25.02006 496.000
25.04001 466.000
25.05996 492.000
25.07990 512.000
25.09985 498.000
25.11980 506.000
25.13974 550.000
25.15969 497.000
25.17964 507.000
25.19958 484.000
25.21953 517.000
25.23948 486.000
25.25943 484.000
25.27937 497.000
25.29932 515.000
25.31927 509.000
25.33921 514.000
25.35916 503.000
25.37911 509.000
25.39905 545.000
25.41900 528.000
25.43895 505.000
25.45890 483.000
25.47884 544.000
25.49879 474.000
25.51874 514.000
25.53868 490.000
25.55863 513.000
25.57858 522.000
25.59852 531.000
25.61847 503.000
25.63842 504.000
25.65837 512.000
25.67831 523.000
25.69826 577.000
25.71821 553.000
25.73815 527.000
25.75810 521.000
25.77805 528.000
25.79799 545.000
25.81794 557.000
25.83789 538.000
25.85783 496.000
25.87778 498.000
25.89773 507.000
25.91768 518.000
25.93762 525.000
25.95757 545.000
25.97752 534.000
25.99746 583.000
26.01741 536.000
26.03736 553.000
26.05730 569.000
26.07725 546.000
26.09720 603.000
26.11715 576.000
26.13709 575.000
26.15704 547.000
26.17699 529.000
26.19693 505.000
26.21688 555.000
26.23683 565.000
26.25677 557.000
26.27672 569.000
26.29667 534.000
26.31661 584.000
26.33656 563.000
26.35651 555.000
26.37646 574.000
26.39640 586.000
26.41635 546.000
26.43630 593.000
26.45624 604.000
26.47619 586.000
26.49614 520.000
26.51608 572.000
26.53603 573.000
26.55598 545.000
26.57593 593.000
26.59587 572.000
26.61582 610.000
26.63577 595.000
26.65571 609.000
26.67566 565.000
26.69561 613.000
26.71555 616.000
26.73550 577.000
26.75545 555.000
26.77539 604.000
26.79534 620.000
26.81529 591.000
26.83524 602.000
26.85518 636.000
26.87513 617.000
26.89508 637.000
26.91502 565.000
26.93497 642.000
26.95492 598.000
26.97486 592.000
26.99481 598.000
27.01476 607.000
27.03471 610.000
27.05465 617.000
27.07460 609.000
27.09455 621.000
27.11449 624.000
27.13444 640.000
27.15439 588.000
27.17433 613.000
27.19428 569.000
27.21423 594.000
27.23417 612.000
27.25412 622.000
27.27407 668.000
27.29402 618.000
27.31396 611.000
27.33391 570.000
27.35386 609.000
27.37380 627.000
27.39375 609.000
27.41370 642.000
27.43364 640.000
27.45359 635.000
27.47354 578.000
27.49349 660.000
27.51343 667.000
27.53338 652.000
27.55333 605.000
27.57327 635.000
27.59322 566.000
27.61317 618.000
27.63311 636.000
27.65306 636.000
27.67301 625.000
27.69296 607.000
27.71290 639.000
27.73285 640.000
27.75280 647.000
27.77274 625.000
27.79269 616.000
27.81264 615.000
27.83258 632.000
27.85253 634.000
27.87248 664.000
27.89242 634.000
27.91237 673.000
27.93232 637.000
27.95227 631.000
27.97221 667.000
27.99216 702.000
28.01211 646.000
28.03205 672.000
28.05200 646.000
28.07195 672.000
28.09189 641.000
28.11184 659.000
28.13179 661.000
28.15174 615.000
28.17168 673.000
28.19163 674.000
28.21158 654.000
28.23152 628.000
28.25147 703.000
28.27142 665.000
28.29136 692.000
28.31131 642.000
28.33126 640.000
28.35120 637.000
28.37115 681.000
28.39110 635.000
28.41105 696.000
28.43099 645.000
28.45094 730.000
28.47089 662.000
28.49083 670.000
28.51078 669.000
28.53073 679.000
28.55067 652.000
28.57062 710.000
28.59057 625.000
28.61052 701.000
28.63046 680.000
28.65041 650.000
28.67036 675.000
28.69030 641.000
28.71025 686.000
28.73020 676.000
28.75014 708.000
28.77009 701.000
28.79004 701.000
28.80998 702.000
28.82993 707.000
28.84988 722.000
28.86983 665.000
28.88977 705.000
28.90972 698.000
28.92967 737.000
28.94961 689.000
28.96956 670.000
28.98951 700.000
29.00945 663.000
29.02940 707.000
29.04935 710.000
29.06930 672.000
29.08924 655.000
29.10919 728.000
29.12914 706.000
29.14908 701.000
29.16903 774.000
29.18898 737.000
29.20892 723.000
29.22887 720.000
29.24882 794.000
29.26877 754.000
29.28871 739.000
29.30866 730.000
29.32861 709.000
29.34855 701.000
29.36850 752.000
29.38845 740.000
29.40839 710.000
29.42834 733.000
29.44829 735.000
29.46823 726.000
29.48818 707.000
29.50813 748.000
29.52808 693.000
29.54802 722.000
29.56797 687.000
29.58792 698.000
29.60786 778.000
29.62781 701.000
29.64776 690.000
29.66770 714.000
29.68765 761.000
29.70760 701.000
29.72755 696.000
29.74749 724.000
29.76744 775.000
29.78739 726.000
29.80733 760.000
29.82728 716.000
29.84723 739.000
29.86717 738.000
29.88712 742.000
29.90707 774.000
29.92701 714.000
29.94696 709.000
29.96691 788.000
29.98686 815.000
30.00680 726.000
30.02675 802.000
30.04670 820.000
30.06664 915.000
30.08659 947.000
30.10654 984.000
30.12648 1074.000
30.14643 1057.000
30.16638 1000.000
30.18633 958.000
30.20627 1000.000
30.22622 897.000
30.24617 875.000
30.26611 820.000
30.28606 790.000
30.30601 809.000
30.32595 791.000
30.34590 755.000
30.36585 720.000
30.38579 680.000
30.40574 743.000
30.42569 711.000
30.44564 729.000
30.46558 753.000
30.48553 733.000
30.50548 713.000
30.52542 678.000
30.54537 682.000
30.56532 639.000
30.58526 658.000
30.60521 654.000
30.62516 701.000
30.64511 719.000
30.66505 731.000
30.68500 683.000
30.70495 704.000
30.72489 668.000
30.74484 735.000
30.76479 670.000
30.78473 755.000
30.80468 716.000
30.82463 698.000
30.84458 688.000
30.86452 760.000
30.88447 682.000
30.90442 652.000
30.92436 646.000
30.94431 705.000
30.96426 670.000
30.98420 688.000
31.00415 687.000
31.02410 676.000
31.04404 720.000
31.06399 725.000
31.08394 732.000
31.10389 714.000
31.12383 698.000
31.14378 644.000
31.16373 709.000
31.18367 745.000
31.20362 727.000
31.22357 650.000
31.24351 732.000
31.26346 709.000
31.28341 692.000
31.30336 670.000
31.32330 683.000
31.34325 719.000
31.36320 614.000
31.38314 717.000
31.40309 690.000
31.42304 715.000
31.44298 739.000
31.46293 706.000
31.48288 667.000
31.50282 663.000
31.52277 718.000
31.54272 715.000
31.56267 675.000
31.58261 703.000
31.60256 687.000
31.62251 692.000
31.64245 684.000
31.66240 713.000
31.68235 706.000
31.70229 683.000
31.72224 657.000
31.74219 671.000
31.76214 709.000
31.78208 694.000
31.80203 691.000
31.82198 690.000
31.84192 686.000
31.86187 667.000
31.88182 677.000
31.90176 716.000
31.92171 646.000
31.94166 698.000
31.96160 707.000
31.98155 663.000
32.00150 724.000
32.02145 662.000
32.04139 744.000
32.06134 704.000
32.08129 690.000
32.10123 668.000
32.12118 641.000
32.14113 695.000
32.16107 656.000
32.18102 683.000
32.20097 686.000
32.22092 674.000
32.24086 692.000
32.26081 765.000
32.28076 684.000
32.30070 740.000
32.32065 775.000
32.34060 763.000
32.36054 793.000
32.38049 733.000
32.40044 731.000
32.42039 693.000
32.44033 718.000
32.46028 660.000
32.48023 670.000
32.50017 701.000
32.52012 676.000
32.54007 714.000
32.56001 679.000
32.57996 620.000
32.59991 651.000
32.61985 658.000
32.63980 673.000
32.65975 683.000
32.67970 672.000
32.69964 689.000
32.71959 649.000
32.73954 700.000
32.75948 664.000
32.77943 668.000
32.79938 635.000
32.81932 669.000
32.83927 651.000
32.85922 669.000
32.87917 645.000
32.89911 650.000
32.91906 640.000
32.93901 603.000
32.95895 655.000
32.97890 653.000
32.99885 597.000
33.01879 652.000
33.03874 636.000
33.05869 598.000
33.07863 607.000
33.09858 653.000
33.11853 692.000
33.13848 638.000
33.15842 630.000
33.17837 639.000
33.19832 645.000
33.21826 609.000
33.23821 599.000
33.25816 584.000
33.27810 628.000
33.29805 619.000
33.31800 605.000
33.33795 662.000
33.35789 641.000
33.37784 651.000
33.39779 655.000
33.41773 641.000
33.43768 617.000
33.45763 611.000
33.47757 625.000
33.49752 620.000
33.51747 611.000
33.53741 612.000
33.55736 612.000
33.57731 582.000
33.59726 613.000
33.61720 609.000
33.63715 678.000
33.65710 635.000
33.67704 623.000
33.69699 633.000
33.71694 618.000
33.73688 600.000
33.75683 649.000
33.77678 606.000
33.79673 611.000
33.81667 627.000
33.83662 615.000
33.85657 642.000
33.87651 580.000
33.89646 663.000
33.91641 691.000
33.93635 558.000
33.95630 670.000
33.97625 627.000
33.99620 585.000
34.01614 597.000
34.03609 639.000
34.05604 615.000
34.07598 665.000
34.09593 627.000
34.11588 615.000
34.13582 657.000
34.15577 646.000
34.17572 607.000
34.19566 619.000
34.21561 609.000
34.23556 636.000
34.25551 581.000
34.27545 634.000
34.29540 645.000
34.31535 592.000
34.33529 606.000
34.35524 621.000
34.37519 690.000
34.39513 682.000
34.41508 665.000
34.43503 636.000
34.45498 709.000
34.47492 779.000
34.49487 684.000
34.51482 722.000
34.53476 682.000
34.55471 680.000
34.57466 734.000
34.59460 742.000
34.61455 739.000
34.63450 766.000
34.65444 818.000
34.67439 754.000
34.69434 764.000
34.71429 770.000
34.73423 759.000
34.75418 769.000
34.77413 730.000
34.79407 751.000
34.81402 703.000
34.83397 709.000
34.85391 722.000
34.87386 702.000
34.89381 747.000
34.91376 756.000
34.93370 745.000
34.95365 783.000
34.97360 805.000
34.99354 785.000
35.01349 774.000
35.03344 815.000
35.05338 839.000
35.07333 807.000
35.09328 880.000
35.11322 897.000
35.13317 901.000
35.15312 907.000
35.17307 953.000
35.19301 1028.000
35.21296 1018.000
35.23291 1071.000
35.25285 1133.000
35.27280 1202.000
35.29275 1321.000
35.31269 1408.000
35.33264 1474.000
35.35259 1547.000
35.37254 1683.000
35.39248 1751.000
35.41243 1735.000
35.43238 1832.000
35.45232 1840.000
35.47227 1990.000
35.49222 2134.000
35.51216 2278.000
35.53211 2398.000
35.55206 2072.000
35.57201 1875.000
35.59195 1823.000
35.61190 1707.000
35.63185 1566.000
35.65179 1404.000
35.67174 1187.000
35.69169 1127.000
35.71163 1006.000
35.73158 912.000
35.75153 904.000
35.77147 816.000
35.79142 789.000
35.81137 748.000
35.83132 742.000
35.85126 701.000
35.87121 654.000
35.89116 709.000
35.91110 693.000
35.93105 656.000
35.95100 581.000
35.97094 682.000
35.99089 659.000
36.01084 652.000
36.03079 649.000
36.05073 635.000
36.07068 652.000
36.09063 645.000
36.11057 653.000
36.13052 646.000
36.15047 636.000
36.17041 644.000
36.19036 622.000
36.21031 658.000
36.23025 652.000
36.25020 684.000
36.27015 612.000
36.29010 653.000
36.31004 630.000
36.32999 671.000
36.34994 648.000
36.36988 587.000
36.38983 628.000
36.40978 643.000
36.42972 632.000
36.44967 664.000
36.46962 648.000
36.48957 615.000
36.50951 626.000
36.52946 615.000
36.54941 646.000
36.56935 669.000
36.58930 706.000
36.60925 717.000
36.62919 708.000
36.64914 695.000
36.66909 704.000
36.68903 712.000
36.70898 744.000
36.72893 742.000
36.74888 680.000
36.76882 725.000
36.78877 771.000
36.80872 787.000
36.82866 803.000
36.84861 819.000
36.86856 943.000
36.88850 1049.000
36.90845 1182.000
36.92840 1286.000
36.94835 1519.000
36.96829 1661.000
36.98824 1772.000
37.00819 1756.000
37.02813 1721.000
37.04808 1730.000
37.06803 1493.000
37.08797 1450.000
37.10792 1370.000
37.12787 1242.000
37.14781 1155.000
37.16776 1058.000
37.18771 898.000
37.20766 914.000
37.22760 783.000
37.24755 718.000
37.26750 690.000
37.28744 698.000
37.30739 654.000
37.32734 638.000
37.34728 566.000
37.36723 673.000
37.38718 642.000
37.40713 645.000
37.42707 562.000
37.44702 555.000
37.46697 605.000
37.48691 630.000
37.50686 580.000
37.52681 550.000
37.54675 570.000
37.56670 600.000
37.58665 544.000
37.60660 585.000
37.62654 593.000
37.64649 542.000
37.66644 575.000
37.68638 597.000
37.70633 537.000
37.72628 593.000
37.74622 553.000
37.76617 603.000
37.78612 553.000
37.80606 587.000
37.82601 615.000
37.84596 606.000
37.86591 579.000
37.88585 625.000
37.90580 532.000
37.92575 549.000
37.94569 569.000
37.96564 590.000
37.98559 616.000
38.00553 585.000
38.02548 587.000
38.04543 574.000
38.06538 610.000
38.08532 638.000
38.10527 689.000
38.12522 630.000
38.14516 692.000
38.16511 729.000
38.18506 704.000
38.20500 748.000
38.22495 621.000
38.24490 707.000
38.26484 683.000
38.28479 690.000
38.30474 703.000
38.32469 760.000
38.34463 779.000
38.36458 847.000
38.38453 848.000
38.40447 973.000
38.42442 914.000
38.44437 1085.000
38.46431 1068.000
38.48426 1186.000
38.50421 1223.000
38.52416 1246.000
38.54410 1239.000
38.56405 1260.000
38.58400 1231.000
38.60394 1186.000
38.62389 1197.000
38.64384 1147.000
38.66378 1015.000
38.68373 975.000
38.70368 975.000
38.72362 957.000
38.74357 988.000
38.76352 945.000
38.78347 937.000
38.80341 805.000
38.82336 887.000
38.84331 866.000
38.86325 881.000
38.88320 794.000
38.90315 797.000
38.92309 794.000
38.94304 736.000
38.96299 694.000
38.98294 669.000
39.00288 666.000
39.02283 672.000
39.04278 652.000
39.06272 643.000
39.08267 603.000
39.10262 572.000
39.12256 614.000
39.14251 517.000
39.16246 526.000
39.18241 564.000
39.20235 550.000
39.22230 583.000
39.24225 533.000
39.26219 564.000
39.28214 560.000
39.30209 569.000
39.32203 557.000
39.34198 571.000
39.36193 512.000
39.38187 550.000
39.40182 527.000
39.42177 553.000
39.44172 549.000
39.46166 513.000
39.48161 532.000
39.50156 523.000
39.52150 515.000
39.54145 535.000
39.56140 526.000
39.58134 483.000
39.60129 535.000
39.62124 566.000
39.64119 547.000
39.66113 524.000
39.68108 553.000
39.70103 575.000
39.72097 586.000
39.74092 549.000
39.76087 526.000
39.78081 527.000
39.80076 505.000
39.82071 525.000
39.84065 561.000
39.86060 543.000
39.88055 549.000
39.90050 518.000
39.92044 525.000
39.94039 495.000
39.96034 512.000
39.98028 537.000
40.00023 561.000
40.02018 548.000
40.04012 538.000
40.06007 498.000
40.08002 529.000
40.09997 507.000
40.11991 546.000
40.13986 512.000
40.15981 559.000
40.17975 598.000
40.19970 530.000
40.21965 533.000
40.23959 478.000
40.25954 509.000
40.27949 512.000
40.29943 534.000
40.31938 520.000
40.33933 469.000
40.35928 541.000
40.37922 497.000
40.39917 543.000
40.41912 515.000
40.43906 526.000
40.45901 587.000
40.47896 520.000
40.49890 519.000
40.51885 556.000
40.53880 532.000
40.55875 542.000
40.57869 528.000
40.59864 556.000
40.61859 526.000
40.63853 522.000
40.65848 522.000
40.67843 565.000
40.69837 538.000
40.71832 535.000
40.73827 560.000
40.75822 500.000
40.77816 542.000
40.79811 522.000
40.81806 486.000
40.83800 587.000
40.85795 589.000
40.87790 510.000
40.89784 543.000
40.91779 511.000
40.93774 532.000
40.95768 519.000
40.97763 528.000
40.99758 519.000
41.01753 568.000
41.03747 507.000
41.05742 514.000
41.07737 548.000
41.09731 546.000
41.11726 481.000
41.13721 520.000
41.15715 580.000
41.17710 513.000
41.19705 504.000
41.21700 548.000
41.23694 532.000
41.25689 531.000
41.27684 518.000
41.29678 518.000
41.31673 522.000
41.33668 536.000
41.35662 494.000
41.37657 547.000
41.39652 548.000
41.41646 524.000
41.43641 506.000
41.45636 526.000
41.47631 555.000
41.49625 541.000
41.51620 536.000
41.53615 516.000
41.55609 492.000
41.57604 490.000
41.59599 493.000
41.61593 543.000
41.63588 517.000
41.65583 496.000
41.67578 511.000
41.69572 515.000
41.71567 576.000
41.73562 494.000
41.75556 546.000
41.77551 478.000
41.79546 526.000
41.81540 539.000
41.83535 525.000
41.85530 560.000
41.87524 530.000
41.89519 510.000
41.91514 557.000
41.93509 522.000
41.95503 534.000
41.97498 552.000
41.99493 519.000
42.01487 509.000
42.03482 557.000
42.05477 581.000
42.07471 526.000
42.09466 587.000
42.11461 538.000
42.13456 545.000
42.15450 506.000
42.17445 531.000
42.19440 548.000
42.21434 528.000
42.23429 551.000
42.25424 595.000
42.27418 568.000
42.29413 602.000
42.31408 559.000
42.33403 591.000
42.35397 588.000
42.37392 571.000
42.39387 592.000
42.41381 600.000
42.43376 588.000
42.45371 607.000
42.47365 598.000
42.49360 618.000
42.51355 650.000
42.53349 702.000
42.55344 680.000
42.57339 662.000
42.59334 727.000
42.61328 681.000
42.63323 685.000
42.65318 725.000
42.67312 750.000
42.69307 740.000
42.71302 889.000
42.73296 827.000
42.75291 865.000
42.77286 908.000
42.79281 1025.000
42.81275 1105.000
42.83270 1028.000
42.85265 1176.000
42.87259 1252.000
42.89254 1336.000
42.91249 1380.000
42.93243 1495.000
42.95238 1604.000
42.97233 1641.000
42.99227 1738.000
43.01222 1801.000
43.03217 1779.000
43.05212 1883.000
43.07206 1720.000
43.09201 1752.000
43.11196 1772.000
43.13190 1651.000
43.15185 1661.000
43.17180 1548.000
43.19174 1444.000
43.21169 1349.000
43.23164 1278.000
43.25159 1189.000
43.27153 1028.000
43.29148 978.000
43.31143 923.000
43.33137 915.000
43.35132 847.000
43.37127 826.000
43.39121 734.000
43.41116 690.000
43.43111 703.000
43.45105 625.000
43.47100 644.000
43.49095 558.000
43.51090 548.000
43.53084 564.000
43.55079 553.000
43.57074 546.000
43.59068 518.000
43.61063 559.000
43.63058 522.000
43.65052 560.000
43.67047 546.000
43.69042 529.000
43.71037 555.000
43.73031 509.000
43.75026 510.000
43.77021 515.000
43.79015 517.000
43.81010 526.000
43.83005 505.000
43.84999 522.000
43.86994 477.000
43.88989 459.000
43.90984 488.000
43.92978 490.000
43.94973 522.000
43.96968 486.000
43.98962 518.000
44.00957 496.000
44.02952 521.000
44.04946 467.000
44.06941 474.000
44.08936 465.000
44.10930 520.000
44.12925 460.000
44.14920 513.000
44.16915 504.000
44.18909 503.000
44.20904 489.000
44.22899 510.000
44.24893 530.000
44.26888 498.000
44.28883 452.000
44.30877 499.000
44.32872 536.000
44.34867 481.000
44.36862 495.000
44.38856 489.000
44.40851 474.000
44.42846 497.000
44.44840 471.000
44.46835 472.000
44.48830 475.000
44.50824 452.000
44.52819 498.000
44.54814 498.000
44.56808 487.000
44.58803 492.000
44.60798 481.000
44.62793 458.000
44.64787 483.000
44.66782 515.000
44.68777 445.000
44.70771 469.000
44.72766 477.000
44.74761 480.000
44.76755 483.000
44.78750 487.000
44.80745 466.000
44.82740 485.000
44.84734 503.000
44.86729 476.000
44.88724 491.000
44.90718 511.000
44.92713 480.000
44.94708 466.000
44.96702 475.000
44.98697 502.000
45.00692 515.000
45.02686 505.000
45.04681 482.000
45.06676 489.000
45.08671 512.000
45.10665 519.000
45.12660 474.000
45.14655 498.000
45.16649 481.000
45.18644 527.000
45.20639 473.000
45.22633 481.000
45.24628 475.000
45.26623 458.000
45.28618 480.000
45.30612 472.000
45.32607 478.000
45.34602 457.000
45.36596 459.000
45.38591 434.000
45.40586 474.000
45.42580 476.000
45.44575 511.000
45.46570 460.000
45.48565 445.000
45.50559 486.000
45.52554 433.000
45.54549 498.000
45.56543 447.000
45.58538 442.000
45.60533 439.000
45.62527 452.000
45.64522 445.000
45.66517 470.000
45.68511 449.000
45.70506 446.000
45.72501 472.000
45.74496 472.000
45.76490 425.000
45.78485 492.000
45.80480 435.000
45.82474 456.000
45.84469 432.000
45.86464 454.000
45.88458 486.000
45.90453 459.000
45.92448 417.000
45.94443 436.000
45.96437 464.000
45.98432 449.000
46.00427 446.000
46.02421 447.000
46.04416 458.000
46.06411 415.000
46.08405 495.000
46.10400 439.000
46.12395 484.000
46.14389 424.000
46.16384 441.000
46.18379 427.000
46.20374 444.000
46.22368 451.000
46.24363 463.000
46.26358 467.000
46.28352 459.000
46.30347 434.000
46.32342 460.000
46.34336 441.000
46.36331 460.000
46.38326 450.000
46.40321 456.000
46.42315 484.000
46.44310 483.000
46.46305 404.000
46.48299 435.000
46.50294 447.000
46.52289 417.000
46.54283 443.000
46.56278 453.000
46.58273 467.000
46.60267 470.000
46.62262 424.000
46.64257 465.000
46.66252 421.000
46.68246 408.000
46.70241 465.000
46.72236 418.000
46.74230 421.000
46.76225 456.000
46.78220 402.000
46.80214 440.000
46.82209 474.000
46.84204 421.000
46.86199 476.000
46.88193 449.000
46.90188 437.000
46.92183 437.000
46.94177 404.000
46.96172 469.000
46.98167 413.000
47.00161 403.000
47.02156 419.000
47.04151 422.000
47.06146 445.000
47.08140 426.000
47.10135 436.000
47.12130 429.000
47.14124 436.000
47.16119 444.000
47.18114 440.000
47.20108 444.000
47.22103 440.000
47.24098 449.000
47.26092 437.000
47.28087 425.000
47.30082 429.000
47.32077 458.000
47.34071 431.000
47.36066 401.000
47.38061 464.000
47.40055 437.000
47.42050 421.000
47.44045 456.000
47.46039 441.000
47.48034 475.000
47.50029 461.000
47.52024 413.000
47.54018 440.000
47.56013 448.000
47.58008 387.000
47.60002 423.000
47.61997 433.000
47.63992 421.000
47.65986 446.000
47.67981 459.000
47.69976 443.000
47.71970 449.000
47.73965 442.000
47.75960 449.000
47.77955 429.000
47.79949 455.000
47.81944 443.000
47.83939 459.000
47.85933 426.000
47.87928 458.000
47.89923 453.000
47.91917 467.000
47.93912 422.000
47.95907 456.000
47.97902 460.000
47.99896 479.000
48.01891 419.000
48.03886 479.000
48.05880 403.000
48.07875 475.000
48.09870 483.000
48.11864 425.000
48.13859 450.000
48.15854 463.000
48.17848 451.000
48.19843 492.000
48.21838 488.000
48.23833 471.000
48.25827 431.000
48.27822 476.000
48.29817 464.000
48.31811 482.000
48.33806 480.000
48.35801 443.000
48.37795 446.000
48.39790 486.000
48.41785 467.000
48.43780 492.000
48.45774 475.000
48.47769 529.000
48.49764 496.000
48.51758 520.000
48.53753 510.000
48.55748 501.000
48.57742 551.000
48.59737 557.000
48.61732 586.000
48.63726 592.000
48.65721 612.000
48.67716 577.000
48.69711 577.000
48.71705 550.000
48.73700 622.000
48.75695 633.000
48.77689 605.000
48.79684 616.000
48.81679 579.000
48.83673 563.000
48.85668 637.000
48.87663 550.000
48.89658 546.000
48.91652 509.000
48.93647 511.000
48.95642 501.000
48.97636 482.000
48.99631 457.000
49.01626 468.000
49.03620 430.000
49.05615 432.000
49.07610 424.000
49.09605 426.000
49.11599 440.000
49.13594 457.000
49.15589 431.000
49.17583 412.000
49.19578 425.000
49.21573 433.000
49.23567 397.000
49.25562 466.000
49.27557 447.000
49.29551 447.000
49.31546 433.000
49.33541 422.000
49.35536 437.000
49.37530 443.000
49.39525 417.000
49.41520 462.000
49.43514 429.000
49.45509 398.000
49.47504 464.000
49.49498 430.000
49.51493 427.000
49.53488 437.000
49.55483 432.000
49.57477 435.000
49.59472 401.000
49.61467 406.000
49.63461 424.000
49.65456 398.000
49.67451 425.000
49.69445 427.000
49.71440 420.000
49.73435 446.000
49.75429 449.000
49.77424 431.000
49.79419 407.000
49.81414 435.000
49.83408 426.000
49.85403 423.000
49.87398 407.000
49.89392 424.000
49.91387 421.000
49.93382 434.000
49.95376 439.000
49.97371 433.000
49.99366 406.000
50.01361 436.000
50.03355 444.000
50.05350 416.000
50.07345 383.000
50.09339 413.000
50.11334 433.000
50.13329 443.000
50.15323 382.000
50.17318 407.000
50.19313 446.000
50.21307 398.000
50.23302 409.000
50.25297 401.000
50.27292 424.000
50.29286 420.000
50.31281 424.000
50.33276 437.000
50.35270 400.000
50.37265 405.000
50.39260 429.000
50.41254 432.000
50.43249 423.000
50.45244 424.000
50.47239 402.000
50.49233 436.000
50.51228 440.000
50.53223 433.000
50.55217 408.000
50.57212 432.000
50.59207 381.000
50.61201 418.000
50.63196 403.000
50.65191 385.000
50.67186 409.000
50.69180 419.000
50.71175 443.000
50.73170 408.000
50.75164 393.000
50.77159 404.000
50.79154 430.000
50.81148 433.000
50.83143 392.000
50.85138 420.000
50.87132 376.000
50.89127 425.000
50.91122 413.000
50.93117 427.000
50.95111 420.000
50.97106 394.000
50.99101 395.000
51.01095 376.000
51.03090 429.000
51.05085 382.000
51.07079 395.000
51.09074 395.000
51.11069 398.000
51.13064 395.000
51.15058 419.000
51.17053 412.000
51.19048 395.000
51.21042 436.000
51.23037 407.000
51.25032 439.000
51.27026 388.000
51.29021 401.000
51.31016 445.000
51.33010 419.000
51.35005 398.000
51.37000 415.000
51.38995 374.000
51.40989 433.000
51.42984 413.000
51.44979 409.000
51.46973 397.000
51.48968 407.000
51.50963 393.000
51.52957 431.000
51.54952 417.000
51.56947 448.000
51.58942 377.000
51.60936 393.000
51.62931 422.000
51.64926 427.000
51.66920 424.000
51.68915 442.000
51.70910 408.000
51.72904 409.000
51.74899 398.000
51.76894 437.000
51.78888 427.000
51.80883 403.000
51.82878 458.000
51.84873 399.000
51.86867 418.000
51.88862 423.000
51.90857 431.000
51.92851 418.000
51.94846 403.000
51.96841 435.000
51.98835 390.000
52.00830 399.000
52.02825 453.000
52.04820 433.000
52.06814 393.000
52.08809 448.000
52.10804 406.000
52.12798 450.000
52.14793 420.000
52.16788 443.000
52.18782 416.000
52.20777 421.000
52.22772 411.000
52.24767 419.000
52.26761 398.000
52.28756 427.000
52.30751 416.000
52.32745 432.000
52.34740 429.000
52.36735 422.000
52.38729 419.000
52.40724 416.000
52.42719 384.000
52.44713 391.000
52.46708 421.000
52.48703 421.000
52.50698 404.000
52.52692 414.000
52.54687 434.000
52.56682 414.000
52.58676 390.000
52.60671 396.000
52.62666 435.000
52.64660 366.000
52.66655 425.000
52.68650 434.000
52.70645 414.000
52.72639 429.000
52.74634 408.000
52.76629 436.000
52.78623 429.000
52.80618 404.000
52.82613 427.000
52.84607 421.000
52.86602 395.000
52.88597 455.000
52.90591 373.000
52.92586 407.000
52.94581 435.000
52.96576 428.000
52.98570 459.000
53.00565 479.000
53.02560 425.000
53.04554 425.000
53.06549 423.000
53.08544 496.000
53.10538 463.000
53.12533 436.000
53.14528 479.000
53.16523 431.000
53.18517 421.000
53.20512 479.000
53.22507 463.000
53.24501 459.000
53.26496 493.000
53.28491 463.000
53.30485 477.000
53.32480 473.000
53.34475 432.000
53.36469 478.000
53.38464 408.000
53.40459 446.000
53.42454 489.000
53.44448 488.000
53.46443 475.000
53.48438 444.000
53.50432 456.000
53.52427 446.000
53.54422 438.000
53.56416 489.000
53.58411 473.000
53.60406 484.000
53.62401 509.000
53.64395 534.000
53.66390 507.000
53.68385 507.000
53.70379 480.000
53.72374 475.000
53.74369 446.000
53.76363 510.000
53.78358 503.000
53.80353 443.000
53.82348 434.000
53.84342 479.000
53.86337 464.000
53.88332 426.000
53.90326 416.000
53.92321 461.000
53.94316 451.000
53.96310 456.000
53.98305 447.000
54.00300 410.000
54.02294 412.000
54.04289 379.000
54.06284 388.000
54.08279 401.000
54.10273 427.000
54.12268 397.000
54.14263 392.000
54.16257 400.000
54.18252 418.000
54.20247 366.000
54.22241 404.000
54.24236 399.000
54.26231 440.000
54.28226 399.000
54.30220 372.000
54.32215 394.000
54.34210 403.000
54.36204 354.000
54.38199 437.000
54.40194 406.000
54.42188 442.000
54.44183 424.000
54.46178 384.000
54.48172 402.000
54.50167 400.000
54.52162 398.000
54.54157 413.000
54.56151 410.000
54.58146 395.000
54.60141 390.000
54.62135 411.000
54.64130 426.000
54.66125 417.000
54.68119 425.000
54.70114 406.000
54.72109 368.000
54.74104 405.000
54.76098 414.000
54.78093 443.000
54.80088 376.000
54.82082 402.000
54.84077 373.000
54.86072 383.000
54.88066 405.000
54.90061 371.000
54.92056 389.000
54.94050 382.000
54.96045 398.000
54.98040 440.000
55.00035 393.000
55.02029 380.000
55.04024 369.000
55.06019 411.000
55.08013 401.000
55.10008 401.000
55.12003 421.000
55.13997 382.000
55.15992 388.000
55.17987 370.000
55.19982 404.000
55.21976 397.000
55.23971 399.000
55.25966 436.000
55.27960 394.000
55.29955 404.000
55.31950 379.000
55.33944 405.000
55.35939 419.000
55.37934 382.000
55.39929 377.000
55.41923 394.000
55.43918 409.000
55.45913 414.000
55.47907 386.000
55.49902 398.000
55.51897 416.000
55.53891 476.000
55.55886 423.000
55.57881 384.000
55.59875 397.000
55.61870 394.000
55.63865 402.000
55.65860 448.000
55.67854 387.000
55.69849 429.000
55.71844 405.000
55.73838 402.000
55.75833 407.000
55.77828 391.000
55.79822 392.000
55.81817 386.000
55.83812 398.000
55.85807 371.000
55.87801 396.000
55.89796 396.000
55.91791 406.000
55.93785 409.000
55.95780 375.000
55.97775 401.000
55.99769 376.000
56.01764 398.000
56.03759 410.000
56.05753 409.000
56.07748 419.000
56.09743 388.000
56.11738 408.000
56.13732 397.000
56.15727 397.000
56.17722 411.000
56.19716 391.000
56.21711 371.000
56.23706 417.000
56.25700 392.000
56.27695 416.000
56.29690 385.000
56.31685 406.000
56.33679 421.000
56.35674 433.000
56.37669 408.000
56.39663 384.000
56.41658 401.000
56.43653 382.000
56.45647 422.000
56.47642 406.000
56.49637 376.000
56.51631 391.000
56.53626 442.000
56.55621 459.000
56.57616 389.000
56.59610 376.000
56.61605 406.000
56.63600 394.000
56.65594 418.000
56.67589 410.000
56.69584 421.000
56.71578 411.000
56.73573 448.000
56.75568 427.000
56.77563 417.000
56.79557 422.000
56.81552 443.000
56.83547 459.000
56.85541 439.000
56.87536 448.000
56.89531 451.000
56.91525 467.000
56.93520 430.000
56.95515 455.000
56.97510 482.000
56.99504 481.000
57.01499 450.000
57.03494 515.000
57.05488 510.000
57.07483 547.000
57.09478 550.000
57.11472 574.000
57.13467 625.000
57.15462 642.000
57.17456 670.000
57.19451 704.000
57.21446 691.000
57.23441 680.000
57.25435 611.000
57.27430 603.000
57.29425 609.000
57.31419 602.000
57.33414 559.000
57.35409 586.000
57.37403 590.000
57.39398 563.000
57.41393 567.000
57.43388 559.000
57.45382 523.000
57.47377 531.000
57.49372 488.000
57.51366 501.000
57.53361 461.000
57.55356 452.000
57.57350 464.000
57.59345 472.000
57.61340 469.000
57.63334 420.000
57.65329 453.000
57.67324 439.000
57.69319 435.000
57.71313 417.000
57.73308 416.000
57.75303 434.000
57.77297 434.000
57.79292 440.000
57.81287 489.000
57.83281 414.000
57.85276 444.000
57.87271 446.000
57.89266 427.000
57.91260 465.000
57.93255 483.000
57.95250 455.000
57.97244 455.000
57.99239 497.000
58.01234 448.000
58.03228 443.000
58.05223 441.000
58.07218 473.000
58.09212 522.000
58.11207 467.000
58.13202 484.000
58.15197 469.000
58.17191 457.000
58.19186 481.000
58.21181 485.000
58.23175 500.000
58.25170 450.000
58.27165 441.000
58.29159 467.000
58.31154 469.000
58.33149 444.000
58.35144 447.000
58.37138 426.000
58.39133 438.000
58.41128 374.000
58.43122 382.000
58.45117 447.000
58.47112 412.000
58.49106 398.000
58.51101 418.000
58.53096 399.000
58.55090 405.000
58.57085 423.000
58.59080 381.000
58.61075 410.000
58.63069 384.000
58.65064 428.000
58.67059 403.000
58.69053 416.000
58.71048 389.000
58.73043 413.000
58.75037 383.000
58.77032 407.000
58.79027 413.000
58.81022 388.000
58.83016 392.000
58.85011 415.000
58.87006 424.000
58.89000 390.000
58.90995 381.000
58.92990 357.000
58.94984 424.000
58.96979 366.000
58.98974 389.000
59.00969 407.000
59.02963 400.000
59.04958 421.000
59.06953 382.000
59.08947 376.000
59.10942 396.000
59.12937 358.000
59.14931 403.000
59.16926 408.000
59.18921 422.000
59.20915 394.000
59.22910 395.000
59.24905 421.000
59.26900 405.000
59.28894 421.000
59.30889 392.000
59.32884 344.000
59.34878 390.000
59.36873 351.000
59.38868 385.000
59.40862 340.000
59.42857 449.000
59.44852 380.000
59.46847 394.000
59.48841 386.000
59.50836 345.000
59.52831 378.000
59.54825 382.000
59.56820 390.000
59.58815 427.000
59.60809 409.000
59.62804 379.000
59.64799 393.000
59.66793 385.000
59.68788 368.000
59.70783 406.000
59.72778 405.000
59.74772 416.000
59.76767 386.000
59.78762 387.000
59.80756 406.000
59.82751 371.000
59.84746 364.000
59.86740 389.000
59.88735 390.000
59.90730 414.000
59.92725 393.000
59.94719 377.000
59.96714 427.000
59.98709 402.000
60.00703 365.000
60.02698 402.000
60.04693 408.000
60.06687 418.000
60.08682 446.000
60.10677 384.000
60.12671 421.000
60.14666 391.000
60.16661 395.000
60.18656 379.000
60.20650 427.000
60.22645 358.000
60.24640 369.000
60.26634 395.000
60.28629 380.000
60.30624 421.000
60.32618 415.000
60.34613 399.000
60.36608 401.000
60.38603 394.000
60.40597 355.000
60.42592 383.000
60.44587 399.000
60.46581 358.000
60.48576 355.000
60.50571 354.000
60.52565 416.000
60.54560 424.000
60.56555 346.000
60.58550 403.000
60.60544 395.000
60.62539 369.000
60.64534 409.000
60.66528 408.000
60.68523 430.000
60.70518 399.000
60.72512 399.000
60.74507 374.000
60.76502 389.000
60.78496 390.000
60.80491 374.000
60.82486 388.000
60.84481 401.000
60.86475 383.000
60.88470 409.000
60.90465 439.000
60.92459 420.000
60.94454 375.000
60.96449 410.000
60.98443 389.000
61.00438 412.000
61.02433 403.000
61.04428 421.000
61.06422 414.000
61.08417 431.000
61.10412 449.000
61.12406 420.000
61.14401 448.000
61.16396 422.000
61.18390 455.000
61.20385 405.000
61.22380 443.000
61.24374 425.000
61.26369 453.000
61.28364 456.000
61.30359 484.000
61.32353 471.000
61.34348 510.000
61.36343 508.000
61.38337 559.000
61.40332 524.000
61.42327 533.000
61.44321 512.000
61.46316 502.000
61.48311 506.000
61.50306 548.000
61.52300 506.000
61.54295 523.000
61.56290 490.000
61.58284 497.000
61.60279 490.000
61.62274 474.000
61.64268 509.000
61.66263 508.000
61.68258 469.000
61.70252 502.000
61.72247 470.000
61.74242 490.000
61.76237 446.000
61.78231 475.000
61.80226 440.000
61.82221 477.000
61.84215 432.000
61.86210 472.000
61.88205 462.000
61.90199 438.000
61.92194 414.000
61.94189 478.000
61.96184 516.000
61.98178 481.000
62.00173 473.000
62.02168 471.000
62.04162 493.000
62.06157 493.000
62.08152 491.000
62.10146 547.000
62.12141 538.000
62.14136 535.000
62.16131 549.000
62.18125 531.000
62.20120 617.000
62.22115 568.000
62.24109 633.000
62.26104 618.000
62.28099 610.000
62.30093 655.000
62.32088 684.000
62.34083 694.000
62.36077 739.000
62.38072 736.000
62.40067 815.000
62.42062 822.000
62.44056 905.000
62.46051 960.000
62.48046 998.000
62.50040 979.000
62.52035 1042.000
62.54030 1078.000
62.56024 1095.000
62.58019 1050.000
62.60014 1068.000
62.62009 1022.000
62.64003 1039.000
62.65998 1013.000
62.67993 975.000
62.69987 945.000
62.71982 930.000
62.73977 979.000
62.75971 906.000
62.77966 962.000
62.79961 940.000
62.81955 951.000
62.83950 937.000
62.85945 867.000
62.87940 817.000
62.89934 762.000
62.91929 748.000
62.93924 750.000
62.95918 674.000
62.97913 658.000
62.99908 714.000
63.01902 691.000
63.03897 614.000
63.05892 624.000
63.07887 608.000
63.09881 631.000
63.11876 546.000
63.13871 528.000
63.15865 548.000
63.17860 484.000
63.19855 504.000
63.21849 483.000
63.23844 492.000
63.25839 452.000
63.27833 480.000
63.29828 436.000
63.31823 467.000
63.33818 470.000
63.35812 398.000
63.37807 439.000
63.39802 420.000
63.41796 429.000
63.43791 416.000
63.45786 425.000
63.47780 444.000
63.49775 402.000
63.51770 395.000
63.53765 419.000
63.55759 397.000
63.57754 379.000
63.59749 416.000
63.61743 433.000
63.63738 365.000
63.65733 427.000
63.67727 366.000
63.69722 391.000
63.71717 413.000
63.73712 404.000
63.75706 406.000
63.77701 391.000
63.79696 391.000
63.81690 372.000
63.83685 401.000
63.85680 394.000
63.87674 394.000
63.89669 393.000
63.91664 406.000
63.93658 356.000
63.95653 393.000
63.97648 378.000
63.99643 363.000
64.01637 392.000
64.03632 372.000
64.05627 419.000
64.07621 395.000
64.09616 396.000
64.11611 420.000
64.13605 360.000
64.15600 377.000
64.17595 412.000
64.19590 412.000
64.21584 378.000
64.23579 385.000
64.25574 372.000
64.27568 379.000
64.29563 408.000
64.31558 371.000
64.33552 423.000
64.35547 410.000
64.37542 380.000
64.39536 409.000
64.41531 404.000
64.43526 412.000
64.45521 398.000
64.47515 434.000
64.49510 408.000
64.51505 393.000
64.53499 389.000
64.55494 389.000
64.57489 359.000
64.59483 396.000
64.61478 358.000
64.63473 384.000
64.65468 417.000
64.67462 407.000
64.69457 373.000
64.71452 378.000
64.73446 422.000
64.75441 379.000
64.77436 434.000
64.79430 376.000
64.81425 393.000
64.83420 387.000
64.85414 368.000
64.87409 393.000
64.89404 411.000
64.91399 414.000
64.93393 398.000
64.95388 417.000
64.97383 375.000
64.99377 405.000
65.01372 401.000
65.03367 428.000
65.05361 374.000
65.07356 409.000
65.09351 385.000
65.11346 438.000
65.13340 400.000
65.15335 431.000
65.17330 437.000
65.19324 410.000
65.21319 423.000
65.23314 437.000
65.25308 417.000
65.27303 448.000
65.29298 417.000
65.31293 455.000
65.33287 440.000
65.35282 447.000
65.37277 431.000
65.39271 492.000
65.41266 446.000
65.43261 444.000
65.45255 436.000
65.47250 480.000
65.49245 476.000
65.51239 460.000
65.53234 453.000
65.55229 472.000
65.57224 478.000
65.59218 449.000
65.61213 462.000
65.63208 478.000
65.65202 477.000
65.67197 512.000
65.69192 450.000
65.71186 474.000
65.73181 475.000
65.75176 444.000
65.77171 472.000
65.79165 452.000
65.81160 498.000
65.83155 460.000
65.85149 478.000
65.87144 431.000
65.89139 472.000
65.91133 458.000
65.93128 517.000
65.95123 468.000
65.97117 448.000
65.99112 460.000
66.01107 511.000
66.03102 431.000
66.05096 479.000
66.07091 492.000
66.09086 472.000
66.11080 513.000
66.13075 487.000
66.15070 507.000
66.17064 523.000
66.19059 527.000
66.21054 527.000
66.23049 484.000
66.25043 478.000
66.27038 511.000
66.29033 484.000
66.31027 492.000
66.33022 494.000
66.35017 533.000
66.37011 471.000
66.39006 492.000
66.41001 482.000
66.42995 436.000
66.44990 441.000
66.46985 443.000
66.48980 435.000
66.50974 446.000
66.52969 447.000
66.54964 448.000
66.56958 417.000
66.58953 438.000
66.60948 428.000
66.62942 421.000
66.64937 389.000
66.66932 374.000
66.68927 383.000
66.70921 384.000
66.72916 406.000
66.74911 441.000
66.76905 360.000
66.78900 447.000
66.80895 430.000
66.82889 432.000
66.84884 408.000
66.86879 434.000
66.88874 410.000
66.90868 393.000
66.92863 386.000
66.94858 405.000
66.96852 367.000
66.98847 392.000
67.00842 398.000
67.02836 416.000
67.04831 388.000
67.06826 420.000
67.08820 416.000
67.10815 387.000
67.12810 403.000
67.14805 405.000
67.16799 372.000
67.18794 392.000
67.20789 389.000
67.22783 417.000
67.24778 409.000
67.26773 436.000
67.28767 403.000
67.30762 393.000
67.32757 351.000
67.34752 428.000
67.36746 452.000
67.38741 430.000
67.40736 429.000
67.42730 434.000
67.44725 434.000
67.46720 406.000
67.48714 421.000
67.50709 437.000
67.52704 423.000
67.54698 445.000
67.56693 477.000
67.58688 400.000
67.60683 408.000
67.62677 476.000
67.64672 451.000
67.66667 436.000
67.68661 470.000
67.70656 463.000
67.72651 476.000
67.74645 478.000
67.76640 459.000
67.78635 452.000
67.80630 476.000
67.82624 483.000
67.84619 508.000
67.86614 528.000
67.88608 497.000
67.90603 503.000
67.92598 449.000
67.94592 475.000
67.96587 480.000
67.98582 464.000
68.00576 482.000
68.02571 428.000
68.04566 441.000
68.06561 446.000
68.08555 451.000
68.10550 412.000
68.12545 418.000
68.14539 439.000
68.16534 403.000
68.18529 430.000
68.20523 387.000
68.22518 418.000
68.24513 420.000
68.26508 414.000
68.28502 402.000
68.30497 437.000
68.32492 390.000
68.34486 419.000
68.36481 396.000
68.38476 406.000
68.40470 377.000
68.42465 384.000
68.44460 377.000
68.46455 402.000
68.48449 386.000
68.50444 410.000
68.52439 382.000
68.54433 377.000
68.56428 427.000
68.58423 367.000
68.60417 392.000
68.62412 374.000
68.64407 359.000
68.66401 386.000
68.68396 417.000
68.70391 393.000
68.72386 379.000
68.74380 426.000
68.76375 373.000
68.78370 366.000
68.80364 406.000
68.82359 363.000
68.84354 385.000
68.86348 394.000
68.88343 363.000
68.90338 351.000
68.92333 367.000
68.94327 369.000
68.96322 352.000
68.98317 389.000
69.00311 385.000
69.02306 395.000
69.04301 388.000
69.06295 349.000
69.08290 366.000
69.10285 408.000
69.12279 394.000
69.14274 375.000
69.16269 363.000
69.18264 368.000
69.20258 387.000
69.22253 342.000
69.24248 382.000
69.26242 318.000
69.28237 413.000
69.30232 391.000
69.32226 399.000
69.34221 356.000
69.36216 369.000
69.38211 391.000
69.40205 354.000
69.42200 382.000
69.44195 372.000
69.46189 379.000
69.48184 360.000
69.50179 381.000
69.52173 348.000
69.54168 377.000
69.56163 359.000
69.58157 359.000
69.60152 370.000
69.62147 346.000
69.64142 364.000
69.66136 344.000
69.68131 384.000
69.70126 352.000
69.72120 375.000
69.74115 368.000
69.76110 309.000
69.78104 353.000
69.80099 336.000
69.82094 346.000
69.84089 381.000
69.86083 360.000
69.88078 323.000
69.90073 380.000
69.92067 385.000
69.94062 407.000
69.96057 348.000
69.98051 337.000
70.00046 352.000
70.02041 371.000
70.04035 363.000
70.06030 387.000
70.08025 361.000
70.10020 368.000
70.12014 338.000
70.14009 357.000
70.16004 363.000
70.17998 358.000
70.19993 337.000
70.21988 360.000
70.23982 376.000
70.25977 352.000
70.27972 358.000
70.29967 349.000
70.31961 361.000
70.33956 334.000
70.35951 371.000
70.37945 364.000
70.39940 383.000
70.41935 396.000
70.43929 399.000
70.45924 397.000
70.47919 341.000
70.49914 319.000
70.51908 371.000
70.53903 372.000
70.55898 398.000
70.57892 394.000
70.59887 352.000
70.61882 349.000
70.63876 375.000
70.65871 324.000
70.67866 374.000
70.69860 355.000
70.71855 386.000
70.73850 373.000
70.75845 386.000
70.77839 407.000
70.79834 390.000
70.81829 381.000
70.83823 375.000
70.85818 398.000
70.87813 367.000
70.89807 384.000
70.91802 382.000
70.93797 357.000
70.95792 374.000
70.97786 358.000
70.99781 370.000
71.01776 426.000
71.03770 374.000
71.05765 354.000
71.07760 356.000
71.09754 358.000
71.11749 387.000
71.13744 343.000
71.15738 378.000
71.17733 407.000
71.19728 386.000
71.21723 385.000
71.23717 373.000
71.25712 383.000
71.27707 391.000
71.29701 384.000
71.31696 379.000
71.33691 392.000
71.35685 364.000
71.37680 364.000
71.39675 377.000
71.41670 365.000
71.43664 384.000
71.45659 360.000
71.47654 421.000
71.49648 385.000
71.51643 385.000
71.53638 398.000
71.55632 344.000
71.57627 397.000
71.59622 370.000
71.61616 342.000
71.63611 368.000
71.65606 393.000
71.67601 360.000
71.69595 368.000
71.71590 383.000
71.73585 395.000
71.75579 347.000
71.77574 395.000
71.79569 380.000
71.81563 364.000
71.83558 394.000
71.85553 364.000
71.87548 369.000
71.89542 371.000
71.91537 366.000
71.93532 366.000
71.95526 393.000
71.97521 405.000
71.99516 440.000
72.01510 378.000
72.03505 408.000
72.05500 396.000
72.07495 406.000
72.09489 393.000
72.11484 388.000
72.13479 377.000
72.15473 428.000
72.17468 392.000
72.19463 433.000
72.21457 396.000
72.23452 400.000
72.25447 404.000
72.27441 411.000
72.29436 446.000
72.31431 417.000
72.33426 376.000
72.35420 430.000
72.37415 385.000
72.39410 378.000
72.41404 371.000
72.43399 412.000
72.45394 418.000
72.47388 406.000
72.49383 432.000
72.51378 400.000
72.53373 394.000
72.55367 380.000
72.57362 399.000
72.59357 381.000
72.61351 366.000
72.63346 376.000
72.65341 374.000
72.67335 358.000
72.69330 379.000
72.71325 335.000
72.73319 401.000
72.75314 382.000
72.77309 376.000
72.79304 358.000
72.81298 348.000
72.83293 377.000
72.85288 372.000
72.87282 358.000
72.89277 375.000
72.91272 377.000
72.93266 394.000
72.95261 369.000
72.97256 341.000
72.99251 372.000
73.01245 410.000
73.03240 393.000
73.05235 339.000
73.07229 362.000
73.09224 417.000
73.11219 374.000
73.13213 383.000
73.15208 350.000
73.17203 384.000
73.19197 351.000
73.21192 404.000
73.23187 409.000
73.25182 396.000
73.27176 402.000
73.29171 383.000
73.31166 376.000
73.33160 384.000
73.35155 344.000
73.37150 364.000
73.39144 381.000
73.41139 361.000
73.43134 378.000
73.45129 378.000
73.47123 385.000
73.49118 359.000
73.51113 376.000
73.53107 397.000
73.55102 417.000
73.57097 400.000
73.59091 382.000
73.61086 368.000
73.63081 355.000
73.65076 373.000
73.67070 366.000
73.69065 373.000
73.71060 379.000
73.73054 382.000
73.75049 373.000
73.77044 328.000
73.79038 375.000
73.81033 365.000
73.83028 386.000
73.85022 393.000
73.87017 379.000
73.89012 341.000
73.91007 395.000
73.93001 389.000
73.94996 360.000
73.96991 380.000
73.98985 402.000
74.00980 338.000
74.02975 389.000
74.04969 398.000
74.06964 395.000
74.08959 378.000
74.10954 400.000
74.12948 375.000
74.14943 409.000
74.16938 392.000
74.18932 402.000
74.20927 464.000
74.22922 419.000
74.24916 431.000
74.26911 401.000
74.28906 406.000
74.30900 438.000
74.32895 461.000
74.34890 427.000
74.36885 507.000
74.38879 452.000
74.40874 425.000
74.42869 455.000
74.44863 492.000
74.46858 439.000
74.48853 433.000
74.50847 458.000
74.52842 470.000
74.54837 451.000
74.56832 488.000
74.58826 468.000
74.60821 487.000
74.62816 490.000
74.64810 470.000
74.66805 489.000
74.68800 492.000
74.70794 436.000
74.72789 479.000
74.74784 525.000
74.76778 547.000
74.78773 544.000
74.80768 516.000
74.82763 536.000
74.84757 513.000
74.86752 537.000
74.88747 551.000
74.90741 573.000
74.92736 563.000
74.94731 538.000
74.96725 592.000
74.98720 590.000
75.00715 582.000
75.02710 604.000
75.04704 595.000
75.06699 636.000
75.08694 609.000
75.10688 586.000
75.12683 632.000
75.14678 531.000
75.16672 573.000
75.18667 595.000
75.20662 563.000
75.22657 538.000
75.24651 552.000
75.26646 519.000
75.28641 570.000
75.30635 564.000
75.32630 574.000
75.34625 492.000
75.36619 557.000
75.38614 523.000
75.40609 471.000
75.42603 487.000
75.44598 444.000
75.46593 466.000
75.48588 447.000
75.50582 447.000
75.52577 487.000
75.54572 397.000
75.56566 460.000
75.58561 441.000
75.60556 441.000
75.62550 413.000
75.64545 414.000
75.66540 428.000
75.68535 367.000
75.70529 424.000
75.72524 354.000
75.74519 402.000
75.76513 359.000
75.78508 375.000
75.80503 397.000
75.82497 362.000
75.84492 400.000
75.86487 410.000
75.88481 359.000
75.90476 397.000
75.92471 398.000
75.94466 398.000
75.96460 379.000
75.98455 374.000
76.00450 361.000
76.02444 386.000
76.04439 370.000
76.06434 357.000
76.08428 402.000
76.10423 346.000
76.12418 355.000
76.14413 343.000
76.16407 357.000
76.18402 347.000
76.20397 362.000
76.22391 342.000
76.24386 368.000
76.26381 347.000
76.28375 362.000
76.30370 338.000
76.32365 351.000
76.34359 386.000
76.36354 343.000
76.38349 372.000
76.40344 348.000
76.42338 376.000
76.44333 380.000
76.46328 355.000
76.48322 370.000
76.50317 337.000
76.52312 358.000
76.54306 351.000
76.56301 366.000
76.58296 338.000
76.60291 359.000
76.62285 360.000
76.64280 335.000
76.66275 370.000
76.68269 376.000
76.70264 374.000
76.72259 385.000
76.74253 355.000
76.76248 328.000
76.78243 354.000
76.80238 347.000
76.82232 391.000
76.84227 353.000
76.86222 378.000
76.88216 389.000
76.90211 361.000
76.92206 370.000
76.94200 350.000
76.96195 381.000
76.98190 337.000
77.00184 385.000
77.02179 359.000
77.04174 351.000
77.06169 359.000
77.08163 336.000
77.10158 389.000
77.12153 334.000
77.14147 415.000
77.16142 357.000
77.18137 364.000
77.20131 377.000
77.22126 365.000
77.24121 357.000
77.26116 396.000
77.28110 357.000
77.30105 382.000
77.32100 358.000
77.34094 352.000
77.36089 362.000
77.38084 386.000
77.40078 345.000
77.42073 386.000
77.44068 375.000
77.46062 341.000
77.48057 378.000
77.50052 381.000
77.52047 338.000
77.54041 335.000
77.56036 357.000
77.58031 384.000
77.60025 370.000
77.62020 360.000
77.64015 364.000
77.66009 380.000
77.68004 360.000
77.69999 385.000
77.71994 385.000
77.73988 332.000
77.75983 343.000
77.77978 363.000
77.79972 362.000
77.81967 330.000
77.83962 360.000
77.85956 376.000
77.87951 336.000
77.89946 352.000
77.91940 374.000
77.93935 341.000
77.95930 348.000
77.97925 340.000
77.99919 370.000
78.01914 374.000
78.03909 350.000
78.05903 364.000
78.07898 386.000
78.09893 365.000
78.11887 368.000
78.13882 395.000
78.15877 395.000
78.17872 408.000
78.19866 338.000
78.21861 359.000
78.23856 331.000
78.25850 363.000
78.27845 383.000
78.29840 362.000
78.31834 364.000
78.33829 376.000
78.35824 367.000
78.37819 367.000
78.39813 386.000
78.41808 376.000
78.43803 362.000
78.45797 361.000
78.47792 379.000
78.49787 375.000
78.51781 359.000
78.53776 359.000
78.55771 411.000
78.57765 398.000
78.59760 399.000
78.61755 413.000
78.63750 419.000
78.65744 385.000
78.67739 397.000
78.69734 396.000
78.71728 419.000
78.73723 414.000
78.75718 370.000
78.77712 406.000
78.79707 462.000
78.81702 437.000
78.83697 404.000
78.85691 484.000
78.87686 436.000
78.89681 517.000
78.91675 475.000
78.93670 474.000
78.95665 514.000
78.97659 528.000
78.99654 536.000
79.01649 497.000
79.03643 489.000
79.05638 515.000
79.07633 471.000
79.09628 533.000
79.11622 515.000
79.13617 478.000
79.15612 459.000
79.17606 481.000
79.19601 490.000
79.21596 489.000
79.23590 462.000
79.25585 473.000
79.27580 481.000
79.29575 492.000
79.31569 439.000
79.33564 447.000
79.35559 442.000
79.37553 387.000
79.39548 423.000
79.41543 401.000
79.43537 467.000
79.45532 419.000
79.47527 386.000
79.49521 376.000
79.51516 401.000
79.53511 376.000
79.55506 371.000
79.57500 350.000
79.59495 386.000
79.61490 403.000
79.63484 396.000
79.65479 375.000
79.67474 371.000
79.69468 362.000
79.71463 399.000
79.73458 399.000
79.75453 353.000
79.77447 356.000
79.79442 369.000
79.81437 353.000
79.83431 394.000
79.85426 345.000
79.87421 361.000
79.89415 349.000
79.91410 363.000
79.93405 341.000
79.95399 349.000
79.97394 344.000
79.99389 379.000
80.01384 392.000
80.03378 385.000
80.05373 376.000
80.07368 366.000
80.09362 374.000
80.11357 361.000
80.13352 350.000
80.15346 366.000
80.17341 390.000
80.19336 402.000
80.21331 342.000
80.23325 342.000
80.25320 359.000
80.27315 392.000
80.29309 401.000
80.31304 364.000
80.33299 379.000
80.35293 384.000
80.37288 380.000
80.39283 375.000
80.41278 348.000
80.43272 334.000
80.45267 361.000
80.47262 369.000
80.49256 349.000
80.51251 319.000
80.53246 392.000
80.55240 358.000
80.57235 314.000
80.59230 335.000
80.61224 360.000
80.63219 360.000
80.65214 345.000
80.67209 350.000
80.69203 353.000
80.71198 362.000
80.73193 330.000
80.75187 349.000
80.77182 365.000
80.79177 387.000
80.81171 332.000
80.83166 354.000
80.85161 350.000
80.87156 362.000
80.89150 318.000
80.91145 394.000
80.93140 317.000
80.95134 343.000
80.97129 339.000
80.99124 365.000
81.01118 342.000
81.03113 358.000
81.05108 347.000
81.07102 310.000
81.09097 338.000
81.11092 386.000
81.13087 348.000
81.15081 335.000
81.17076 349.000
81.19071 361.000
81.21065 333.000
81.23060 332.000
81.25055 374.000
81.27049 369.000
81.29044 327.000
81.31039 363.000
81.33034 332.000
81.35028 349.000
81.37023 345.000
81.39018 360.000
81.41012 377.000
81.43007 373.000
81.45002 329.000
81.46996 356.000
81.48991 346.000
81.50986 363.000
81.52980 336.000
81.54975 346.000
81.56970 359.000
81.58965 355.000
81.60959 329.000
81.62954 341.000
81.64949 372.000
81.66943 360.000
81.68938 354.000
81.70933 362.000
81.72927 352.000
81.74922 348.000
81.76917 362.000
81.78912 379.000
81.80906 377.000
81.82901 363.000
81.84896 333.000
81.86890 353.000
81.88885 360.000
81.90880 353.000
81.92874 357.000
81.94869 388.000
81.96864 348.000
81.98859 340.000
82.00853 386.000
82.02848 357.000
82.04843 373.000
82.06837 387.000
82.08832 358.000
82.10827 396.000
82.12821 393.000
82.14816 381.000
82.16811 352.000
82.18805 365.000
82.20800 390.000
82.22795 372.000
82.24790 382.000
82.26784 384.000
82.28779 390.000
82.30774 364.000
82.32768 386.000
82.34763 434.000
82.36758 394.000
82.38752 411.000
82.40747 376.000
82.42742 393.000
82.44737 342.000
82.46731 402.000
82.48726 396.000
82.50721 387.000
82.52715 388.000
82.54710 423.000
82.56705 397.000
82.58699 373.000
82.60694 404.000
82.62689 369.000
82.64683 332.000
82.66678 379.000
82.68673 400.000
82.70668 390.000
82.72662 417.000
82.74657 405.000
82.76652 390.000
82.78646 369.000
82.80641 386.000
82.82636 383.000
82.84630 409.000
82.86625 365.000
82.88620 393.000
82.90615 368.000
82.92609 426.000
82.94604 386.000
82.96599 390.000
82.98593 402.000
83.00588 402.000
83.02583 356.000
83.04577 342.000
83.06572 360.000
83.08567 365.000
83.10561 370.000
83.12556 362.000
83.14551 376.000
83.16546 328.000
83.18540 348.000
83.20535 346.000
83.22530 381.000
83.24524 365.000
83.26519 370.000
83.28514 368.000
83.30508 367.000
83.32503 355.000
83.34498 360.000
83.36493 390.000
83.38487 366.000
83.40482 351.000
83.42477 355.000
83.44471 378.000
83.46466 357.000
83.48461 385.000
83.50455 381.000
83.52450 373.000
83.54445 362.000
83.56440 369.000
83.58434 384.000
83.60429 358.000
83.62424 366.000
83.64418 412.000
83.66413 372.000
83.68408 390.000
83.70402 382.000
83.72397 393.000
83.74392 401.000
83.76386 370.000
83.78381 360.000
83.80376 409.000
83.82371 373.000
83.84365 395.000
83.86360 337.000
83.88355 374.000
83.90349 353.000
83.92344 366.000
83.94339 361.000
83.96333 404.000
83.98328 401.000
84.00323 375.000
84.02318 352.000
84.04312 344.000
84.06307 376.000
84.08302 363.000
84.10296 346.000
84.12291 389.000
84.14286 372.000
84.16280 367.000
84.18275 359.000
84.20270 370.000
84.22264 366.000
84.24259 359.000
84.26254 338.000
84.28249 376.000
84.30243 344.000
84.32238 342.000
84.34233 371.000
84.36227 326.000
84.38222 364.000
84.40217 346.000
84.42211 382.000
84.44206 345.000
84.46201 339.000
84.48196 355.000
84.50190 364.000
84.52185 329.000
84.54180 359.000
84.56174 321.000
84.58169 354.000
84.60164 381.000
84.62158 346.000
84.64153 340.000
84.66148 340.000
84.68142 356.000
84.70137 357.000
84.72132 362.000
84.74127 374.000
84.76121 340.000
84.78116 331.000
84.80111 367.000
84.82105 352.000
84.84100 353.000
84.86095 388.000
84.88089 326.000
84.90084 370.000
84.92079 331.000
84.94074 327.000
84.96068 344.000
84.98063 334.000
85.00058 396.000
85.02052 357.000
85.04047 351.000
85.06042 347.000
85.08036 349.000
85.10031 332.000
85.12026 345.000
85.14021 366.000
85.16015 365.000
85.18010 347.000
85.20005 334.000
85.21999 336.000
85.23994 377.000
85.25989 310.000
85.27983 334.000
85.29978 353.000
85.31973 349.000
85.33967 348.000
85.35962 368.000
85.37957 333.000
85.39952 368.000
85.41946 369.000
85.43941 376.000
85.45936 362.000
85.47930 322.000
85.49925 351.000
85.51920 356.000
85.53914 340.000
85.55909 329.000
85.57904 346.000
85.59899 343.000
85.61893 348.000
85.63888 322.000
85.65883 385.000
85.67877 316.000
85.69872 338.000
85.71867 348.000
85.73861 356.000
85.75856 336.000
85.77851 361.000
85.79845 342.000
85.81840 338.000
85.83835 310.000
85.85830 395.000
85.87824 384.000
85.89819 366.000
85.91814 354.000
85.93808 329.000
85.95803 337.000
85.97798 359.000
85.99792 300.000
86.01787 325.000
86.03782 310.000
86.05777 353.000
86.07771 349.000
86.09766 356.000
86.11761 366.000
86.13755 342.000
86.15750 334.000
86.17745 338.000
86.19739 342.000
86.21734 362.000
86.23729 377.000
86.25723 351.000
86.27718 366.000
86.29713 356.000
86.31708 385.000
86.33702 351.000
86.35697 355.000
86.37692 347.000
86.39686 352.000
86.41681 352.000
86.43676 318.000
86.45670 345.000
86.47665 385.000
86.49660 391.000
86.51655 347.000
86.53649 391.000
86.55644 364.000
86.57639 324.000
86.59633 362.000
86.61628 329.000
86.63623 351.000
86.65617 370.000
86.67612 385.000
86.69607 396.000
86.71602 383.000
86.73596 353.000
86.75591 356.000
86.77586 362.000
86.79580 373.000
86.81575 343.000
86.83570 345.000
86.85564 364.000
86.87559 338.000
86.89554 368.000
86.91548 352.000
86.93543 358.000
86.95538 340.000
86.97533 366.000
86.99527 339.000
87.01522 374.000
87.03517 329.000
87.05511 360.000
87.07506 351.000
87.09501 303.000
87.11495 369.000
87.13490 368.000
87.15485 379.000
87.17480 365.000
87.19474 378.000
87.21469 382.000
87.23464 376.000
87.25458 399.000
87.27453 365.000
87.29448 394.000
87.31442 392.000
87.33437 371.000
87.35432 378.000
87.37426 352.000
87.39421 359.000
87.41416 393.000
87.43411 379.000
87.45405 363.000
87.47400 346.000
87.49395 378.000
87.51389 377.000
87.53384 364.000
87.55379 363.000
87.57373 376.000
87.59368 345.000
87.61363 375.000
87.63358 354.000
87.65352 395.000
87.67347 354.000
87.69342 392.000
87.71336 341.000
87.73331 346.000
87.75326 350.000
87.77320 365.000
87.79315 335.000
87.81310 359.000
87.83304 360.000
87.85299 382.000
87.87294 363.000
87.89289 379.000
87.91283 374.000
87.93278 359.000
87.95273 329.000
87.97267 377.000
87.99262 343.000
88.01257 373.000
88.03251 340.000
88.05246 337.000
88.07241 368.000
88.09236 354.000
88.11230 330.000
88.13225 326.000
88.15220 388.000
88.17214 348.000
88.19209 346.000
88.21204 362.000
88.23198 328.000
88.25193 365.000
88.27188 355.000
88.29183 352.000
88.31177 377.000
88.33172 317.000
88.35167 378.000
88.37161 350.000
88.39156 356.000
88.41151 354.000
88.43145 354.000
88.45140 364.000
88.47135 364.000
88.49129 349.000
88.51124 347.000
88.53119 324.000
88.55114 355.000
88.57108 337.000
88.59103 338.000
88.61098 345.000
88.63092 331.000
88.65087 367.000
88.67082 342.000
88.69076 345.000
88.71071 357.000
88.73066 348.000
88.75061 352.000
88.77055 351.000
88.79050 360.000
88.81045 362.000
88.83039 361.000
88.85034 364.000
88.87029 404.000
88.89023 379.000
88.91018 351.000
88.93013 368.000
88.95007 343.000
88.97002 353.000
88.98997 366.000
89.00992 384.000
89.02986 355.000
89.04981 362.000
89.06976 339.000
89.08970 337.000
89.10965 355.000
89.12960 361.000
89.14954 399.000
89.16949 373.000
89.18944 370.000
89.20939 401.000
89.22933 361.000
89.24928 325.000
89.26923 354.000
89.28917 374.000
89.30912 370.000
89.32907 370.000
89.34901 385.000
89.36896 345.000
89.38891 355.000
89.40885 402.000
89.42880 355.000
89.44875 397.000
89.46870 397.000
89.48864 417.000
89.50859 406.000
89.52854 388.000
89.54848 364.000
89.56843 372.000
89.58838 379.000
89.60832 386.000
89.62827 367.000
89.64822 381.000
89.66817 385.000
89.68811 379.000
89.70806 387.000
89.72801 375.000
89.74795 355.000
89.76790 369.000
89.78785 352.000
89.80779 365.000
89.82774 365.000
89.84769 374.000
89.86764 386.000
89.88758 387.000
89.90753 389.000
89.92748 397.000
89.94742 361.000
89.96737 377.000
89.98732 397.000
90.00726 409.000
