10.00000 97.000
10.01995 97.000
10.03989 93.000
10.05984 91.000
10.07979 99.000
10.09973 114.000
10.11968 111.000
10.13963 91.000
10.15958 94.000
10.17952 105.000
10.19947 82.000
10.21942 79.000
10.23936 92.000
10.25931 90.000
10.27926 99.000
10.29920 100.000
10.31915 108.000
10.33910 99.000
10.35905 99.000
10.37899 92.000
10.39894 104.000
10.41889 82.000
10.43883 101.000
10.45878 88.000
10.47873 104.000
10.49867 110.000
10.51862 92.000
10.53857 95.000
10.55851 86.000
10.57846 83.000
10.59841 106.000
10.61836 82.000
10.63830 97.000
10.65825 102.000
10.67820 102.000
10.69814 89.000
10.71809 75.000
10.73804 112.000
10.75798 74.000
10.77793 85.000
10.79788 99.000
10.81783 99.000
10.83777 100.000
10.85772 97.000
10.87767 96.000
10.89761 91.000
10.91756 91.000
10.93751 88.000
10.95745 79.000
10.97740 79.000
10.99735 100.000
11.01730 82.000
11.03724 86.000
11.05719 99.000
11.07714 87.000
11.09708 95.000
11.11703 90.000
11.13698 89.000
11.15692 78.000
11.17687 96.000
11.19682 112.000
11.21676 93.000
11.23671 107.000
11.25666 89.000
11.27661 94.000
11.29655 90.000
11.31650 94.000
11.33645 104.000
11.35639 116.000
11.37634 94.000
11.39629 97.000
11.41623 116.000
11.43618 110.000
11.45613 103.000
11.47608 111.000
11.49602 85.000
11.51597 86.000
11.53592 94.000
11.55586 92.000
11.57581 74.000
11.59576 103.000
11.61570 102.000
11.63565 100.000
11.65560 96.000
11.67554 104.000
11.69549 88.000
11.71544 93.000
11.73539 102.000
11.75533 100.000
11.77528 92.000
11.79523 93.000
11.81517 102.000
11.83512 97.000
11.85507 94.000
11.87501 78.000
11.89496 79.000
11.91491 81.000
11.93486 94.000
11.95480 87.000
11.97475 103.000
11.99470 95.000
12.01464 94.000
12.03459 98.000
12.05454 94.000
12.07448 95.000
12.09443 92.000
12.11438 89.000
12.13432 113.000
12.15427 98.000
12.17422 103.000
12.19417 75.000
12.21411 102.000
12.23406 108.000
12.25401 99.000
12.27395 91.000
12.29390 96.000
12.31385 99.000
12.33379 97.000
12.35374 86.000
12.37369 84.000
12.39364 93.000
12.41358 98.000
12.43353 82.000
12.45348 103.000
12.47342 99.000
12.49337 80.000
12.51332 103.000
12.53326 96.000
12.55321 98.000
12.57316 95.000
12.59311 99.000
12.61305 104.000
12.63300 103.000
12.65295 104.000
12.67289 92.000
12.69284 78.000
12.71279 98.000
12.73273 84.000
12.75268 100.000
12.77263 100.000
12.79257 102.000
12.81252 94.000
12.83247 113.000
12.85242 99.000
12.87236 108.000
12.89231 90.000
12.91226 70.000
12.93220 98.000
12.95215 87.000
12.97210 80.000
12.99204 74.000
13.01199 97.000
13.03194 103.000
13.05189 97.000
13.07183 96.000
13.09178 99.000
13.11173 81.000
13.13167 115.000
13.15162 106.000
13.17157 116.000
13.19151 110.000
13.21146 97.000
13.23141 101.000
13.25135 87.000
13.27130 94.000
13.29125 102.000
13.31120 98.000
13.33114 113.000
13.35109 121.000
13.37104 104.000
13.39098 95.000
13.41093 107.000
13.43088 83.000
13.45082 94.000
13.47077 103.000
13.49072 82.000
13.51067 91.000
13.53061 106.000
13.55056 80.000
13.57051 91.000
13.59045 93.000
13.61040 101.000
13.63035 97.000
13.65029 85.000
13.67024 100.000
13.69019 116.000
13.71013 105.000
13.73008 106.000
13.75003 89.000
13.76998 105.000
13.78992 101.000
13.80987 86.000
13.82982 90.000
13.84976 107.000
13.86971 93.000
13.88966 97.000
13.90960 96.000
13.92955 98.000
13.94950 100.000
13.96945 114.000
13.98939 86.000
14.00934 85.000
14.02929 90.000
14.04923 80.000
14.06918 86.000
14.08913 96.000
14.10907 110.000
14.12902 102.000
14.14897 84.000
14.16892 84.000
14.18886 96.000
14.20881 110.000
14.22876 101.000
14.24870 94.000
14.26865 91.000
14.28860 92.000
14.30854 97.000
14.32849 107.000
14.34844 99.000
14.36838 81.000
14.38833 101.000
14.40828 100.000
14.42823 83.000
14.44817 95.000
14.46812 89.000
14.48807 87.000
14.50801 97.000
14.52796 93.000
14.54791 96.000
14.56785 110.000
14.58780 79.000
14.60775 112.000
14.62770 94.000
14.64764 91.000
14.66759 81.000
14.68754 101.000
14.70748 94.000
14.72743 93.000
14.74738 87.000
14.76732 123.000
14.78727 93.000
14.80722 90.000
14.82716 86.000
14.84711 88.000
14.86706 99.000
14.88701 91.000
14.90695 123.000
14.92690 101.000
14.94685 92.000
14.96679 90.000
14.98674 99.000
15.00669 107.000
15.02663 104.000
15.04658 84.000
15.06653 103.000
15.08648 107.000
15.10642 97.000
15.12637 103.000
15.14632 101.000
15.16626 106.000
15.18621 99.000
15.20616 96.000
15.22610 101.000
15.24605 93.000
15.26600 114.000
15.28594 97.000
15.30589 92.000
15.32584 114.000
15.34579 96.000
15.36573 110.000
15.38568 131.000
15.40563 112.000
15.42557 132.000
15.44552 131.000
15.46547 157.000
15.48541 157.000
15.50536 177.000
15.52531 164.000
15.54526 190.000
15.56520 254.000
15.58515 286.000
15.60510 352.000
15.62504 380.000
15.64499 380.000
15.66494 325.000
15.68488 325.000
15.70483 222.000
15.72478 225.000
15.74472 234.000
15.76467 292.000
15.78462 331.000
15.80457 399.000
15.82451 456.000
15.84446 551.000
15.86441 636.000
15.88435 750.000
15.90430 847.000
15.92425 975.000
15.94419 1051.000
15.96414 1085.000
15.98409 1102.000
16.00404 1156.000
16.02398 1113.000
16.04393 1087.000
16.06388 1107.000
16.08382 1034.000
16.10377 828.000
16.12372 780.000
16.14366 532.000
16.16361 409.000
16.18356 237.000
16.20351 199.000
16.22345 147.000
16.24340 137.000
16.26335 113.000
16.28329 101.000
16.30324 117.000
16.32319 100.000
16.34313 104.000
16.36308 139.000
16.38303 114.000
16.40297 124.000
16.42292 98.000
16.44287 140.000
16.46282 107.000
16.48276 117.000
16.50271 116.000
16.52266 121.000
16.54260 105.000
16.56255 107.000
16.58250 119.000
16.60244 111.000
16.62239 102.000
16.64234 106.000
16.66229 104.000
16.68223 110.000
16.70218 99.000
16.72213 126.000
16.74207 88.000
16.76202 116.000
16.78197 104.000
16.80191 90.000
16.82186 116.000
16.84181 106.000
16.86175 96.000
16.88170 93.000
16.90165 86.000
16.92160 98.000
16.94154 129.000
16.96149 93.000
16.98144 98.000
17.00138 120.000
17.02133 103.000
17.04128 79.000
17.06122 111.000
17.08117 107.000
17.10112 125.000
17.12107 109.000
17.14101 82.000
17.16096 106.000
17.18091 93.000
17.20085 101.000
17.22080 99.000
17.24075 116.000
17.26069 98.000
17.28064 104.000
17.30059 91.000
17.32053 112.000
17.34048 108.000
17.36043 101.000
17.38038 113.000
17.40032 94.000
17.42027 109.000
17.44022 87.000
17.46016 102.000
17.48011 94.000
17.50006 100.000
17.52000 127.000
17.53995 100.000
17.55990 102.000
17.57985 92.000
17.59979 99.000
17.61974 95.000
17.63969 107.000
17.65963 88.000
17.67958 91.000
17.69953 98.000
17.71947 89.000
17.73942 86.000
17.75937 101.000
17.77932 87.000
17.79926 100.000
17.81921 115.000
17.83916 113.000
17.85910 115.000
17.87905 105.000
17.89900 114.000
17.91894 125.000
17.93889 93.000
17.95884 122.000
17.97878 112.000
17.99873 123.000
18.01868 128.000
18.03863 149.000
18.05857 148.000
18.07852 156.000
18.09847 123.000
18.11841 142.000
18.13836 127.000
18.15831 105.000
18.17825 89.000
18.19820 105.000
18.21815 89.000
18.23810 97.000
18.25804 88.000
18.27799 102.000
18.29794 100.000
18.31788 108.000
18.33783 97.000
18.35778 110.000
18.37772 90.000
18.39767 101.000
18.41762 115.000
18.43756 89.000
18.45751 88.000
18.47746 88.000
18.49741 91.000
18.51735 94.000
18.53730 116.000
18.55725 72.000
18.57719 87.000
18.59714 89.000
18.61709 81.000
18.63703 101.000
18.65698 79.000
18.67693 91.000
18.69688 95.000
18.71682 116.000
18.73677 106.000
18.75672 110.000
18.77666 96.000
18.79661 105.000
18.81656 95.000
18.83650 90.000
18.85645 83.000
18.87640 87.000
18.89634 86.000
18.91629 95.000
18.93624 87.000
18.95619 108.000
18.97613 90.000
18.99608 99.000
19.01603 105.000
19.03597 89.000
19.05592 92.000
19.07587 109.000
19.09581 83.000
19.11576 124.000
19.13571 120.000
19.15566 92.000
19.17560 77.000
19.19555 99.000
19.21550 83.000
19.23544 95.000
19.25539 80.000
19.27534 100.000
19.29528 95.000
19.31523 86.000
19.33518 85.000
19.35513 119.000
19.37507 102.000
19.39502 113.000
19.41497 105.000
19.43491 107.000
19.45486 102.000
19.47481 109.000
19.49475 92.000
19.51470 105.000
19.53465 74.000
19.55459 86.000
19.57454 117.000
19.59449 109.000
19.61444 89.000
19.63438 109.000
19.65433 94.000
19.67428 109.000
19.69422 94.000
19.71417 103.000
19.73412 91.000
19.75406 113.000
19.77401 99.000
19.79396 114.000
19.81391 102.000
19.83385 120.000
19.85380 105.000
19.87375 132.000
19.89369 123.000
19.91364 130.000
19.93359 147.000
19.95353 128.000
19.97348 123.000
19.99343 130.000
20.01337 131.000
20.03332 144.000
20.05327 143.000
20.07322 133.000
20.09316 159.000
20.11311 155.000
20.13306 185.000
20.15300 176.000
20.17295 228.000
20.19290 232.000
20.21284 273.000
20.23279 278.000
20.25274 307.000
20.27269 366.000
20.29263 377.000
20.31258 407.000
20.33253 398.000
20.35247 421.000
20.37242 420.000
20.39237 393.000
20.41231 359.000
20.43226 336.000
20.45221 307.000
20.47215 303.000
20.49210 281.000
20.51205 248.000
20.53200 221.000
20.55194 233.000
20.57189 196.000
20.59184 190.000
20.61178 191.000
20.63173 186.000
20.65168 159.000
20.67162 155.000
20.69157 142.000
20.71152 129.000
20.73147 147.000
20.75141 120.000
20.77136 112.000
20.79131 125.000
20.81125 96.000
20.83120 127.000
20.85115 102.000
20.87109 104.000
20.89104 99.000
20.91099 108.000
20.93094 96.000
20.95088 110.000
20.97083 87.000
20.99078 98.000
21.01072 96.000
21.03067 92.000
21.05062 93.000
21.07056 95.000
21.09051 89.000
21.11046 83.000
21.13040 107.000
21.15035 86.000
21.17030 95.000
21.19025 99.000
21.21019 98.000
21.23014 109.000
21.25009 89.000
21.27003 100.000
21.28998 99.000
21.30993 87.000
21.32987 84.000
21.34982 85.000
21.36977 100.000
21.38972 86.000
21.40966 77.000
21.42961 90.000
21.44956 113.000
21.46950 87.000
21.48945 101.000
21.50940 90.000
21.52934 90.000
21.54929 97.000
21.56924 85.000
21.58918 116.000
21.60913 85.000
21.62908 92.000
21.64903 112.000
21.66897 117.000
21.68892 82.000
21.70887 83.000
21.72881 102.000
21.74876 95.000
21.76871 109.000
21.78865 82.000
21.80860 86.000
21.82855 105.000
21.84850 98.000
21.86844 87.000
21.88839 81.000
21.90834 99.000
21.92828 96.000
21.94823 90.000
21.96818 99.000
21.98812 67.000
22.00807 82.000
22.02802 86.000
22.04796 95.000
22.06791 99.000
22.08786 92.000
22.10781 82.000
22.12775 100.000
22.14770 104.000
22.16765 87.000
22.18759 75.000
22.20754 87.000
22.22749 92.000
22.24743 97.000
22.26738 102.000
22.28733 118.000
22.30728 95.000
22.32722 92.000
22.34717 98.000
22.36712 100.000
22.38706 107.000
22.40701 83.000
22.42696 93.000
22.44690 113.000
22.46685 86.000
22.48680 89.000
22.50675 89.000
22.52669 115.000
22.54664 101.000
22.56659 100.000
22.58653 87.000
22.60648 80.000
22.62643 87.000
22.64637 85.000
22.66632 112.000
22.68627 105.000
22.70621 102.000
22.72616 92.000
22.74611 96.000
22.76606 95.000
22.78600 90.000
22.80595 111.000
22.82590 99.000
22.84584 90.000
22.86579 94.000
22.88574 96.000
22.90568 98.000
22.92563 90.000
22.94558 94.000
22.96553 93.000
22.98547 103.000
23.00542 90.000
23.02537 77.000
23.04531 79.000
23.06526 81.000
23.08521 89.000
23.10515 96.000
23.12510 111.000
23.14505 104.000
23.16499 110.000
23.18494 93.000
23.20489 81.000
23.22484 101.000
23.24478 113.000
23.26473 88.000
23.28468 108.000
23.30462 106.000
23.32457 86.000
23.34452 105.000
23.36446 109.000
23.38441 100.000
23.40436 114.000
23.42431 101.000
23.44425 107.000
23.46420 96.000
23.48415 91.000
23.50409 100.000
23.52404 96.000
23.54399 102.000
23.56393 103.000
23.58388 103.000
23.60383 95.000
23.62377 108.000
23.64372 84.000
23.66367 73.000
23.68362 93.000
23.70356 108.000
23.72351 99.000
23.74346 83.000
23.76340 105.000
23.78335 89.000
23.80330 95.000
23.82324 87.000
23.84319 99.000
23.86314 86.000
23.88309 89.000
23.90303 98.000
23.92298 132.000
23.94293 87.000
23.96287 99.000
23.98282 96.000
24.00277 125.000
24.02271 107.000
24.04266 92.000
24.06261 80.000
24.08256 96.000
24.10250 93.000
24.12245 78.000
24.14240 93.000
24.16234 92.000
24.18229 80.000
24.20224 87.000
24.22218 103.000
24.24213 88.000
24.26208 108.000
24.28202 102.000
24.30197 80.000
24.32192 117.000
24.34187 93.000
24.36181 105.000
24.38176 104.000
24.40171 106.000
24.42165 117.000
24.44160 79.000
24.46155 122.000
24.48149 110.000
24.50144 112.000
24.52139 94.000
24.54134 117.000
24.56128 101.000
24.58123 109.000
24.60118 107.000
24.62112 105.000
24.64107 105.000
24.66102 99.000
24.68096 105.000
24.70091 114.000
24.72086 124.000
24.74080 80.000
24.76075 106.000
24.78070 101.000
24.80065 92.000
24.82059 102.000
24.84054 89.000
24.86049 103.000
24.88043 92.000
24.90038 86.000
24.92033 102.000
24.94027 84.000
24.96022 113.000
24.98017 107.000
25.00012 81.000
25.02006 101.000
25.04001 101.000
25.05996 87.000
25.07990 89.000
25.09985 94.000
25.11980 110.000
25.13974 98.000
25.15969 98.000
25.17964 85.000
25.19958 102.000
25.21953 94.000
25.23948 80.000
25.25943 111.000
25.27937 106.000
25.29932 105.000
25.31927 108.000
25.33921 98.000
25.35916 90.000
25.37911 97.000
25.39905 119.000
25.41900 107.000
25.43895 101.000
25.45890 85.000
25.47884 116.000
25.49879 107.000
25.51874 93.000
25.53868 96.000
25.55863 116.000
25.57858 109.000
25.59852 94.000
25.61847 130.000
25.63842 120.000
25.65837 106.000
25.67831 108.000
25.69826 106.000
25.71821 133.000
25.73815 115.000
25.75810 101.000
25.77805 107.000
25.79799 122.000
25.81794 110.000
25.83789 127.000
25.85783 114.000
25.87778 111.000
25.89773 107.000
25.91768 116.000
25.93762 124.000
25.95757 109.000
25.97752 118.000
25.99746 87.000
26.01741 101.000
26.03736 114.000
26.05730 119.000
26.07725 114.000
26.09720 92.000
26.11715 104.000
26.13709 87.000
26.15704 99.000
26.17699 97.000
26.19693 86.000
26.21688 107.000
26.23683 109.000
26.25677 120.000
26.27672 110.000
26.29667 105.000
26.31661 101.000
26.33656 78.000
26.35651 102.000
26.37646 90.000
26.39640 85.000
26.41635 104.000
26.43630 102.000
26.45624 94.000
26.47619 110.000
26.49614 98.000
26.51608 103.000
26.53603 109.000
26.55598 84.000
26.57593 91.000
26.59587 118.000
26.61582 99.000
26.63577 93.000
26.65571 114.000
26.67566 112.000
26.69561 109.000
26.71555 115.000
26.73550 101.000
26.75545 100.000
26.77539 105.000
26.79534 99.000
26.81529 102.000
26.83524 98.000
26.85518 111.000
26.87513 101.000
26.89508 108.000
26.91502 90.000
26.93497 93.000
26.95492 84.000
26.97486 101.000
26.99481 94.000
27.01476 112.000
27.03471 90.000
27.05465 115.000
27.07460 101.000
27.09455 127.000
27.11449 105.000
27.13444 91.000
27.15439 92.000
27.17433 111.000
27.19428 97.000
27.21423 89.000
27.23417 86.000
27.25412 121.000
27.27407 97.000
27.29402 92.000
27.31396 91.000
27.33391 112.000
27.35386 114.000
27.37380 106.000
27.39375 86.000
27.41370 119.000
27.43364 99.000
27.45359 99.000
27.47354 87.000
27.49349 95.000
27.51343 114.000
27.53338 122.000
27.55333 101.000
27.57327 88.000
27.59322 100.000
27.61317 99.000
27.63311 113.000
27.65306 88.000
27.67301 99.000
27.69296 116.000
27.71290 107.000
27.73285 104.000
27.75280 95.000
27.77274 122.000
27.79269 105.000
27.81264 92.000
27.83258 106.000
27.85253 124.000
27.87248 115.000
27.89242 111.000
27.91237 100.000
27.93232 97.000
27.95227 102.000
27.97221 110.000
27.99216 99.000
28.01211 94.000
28.03205 98.000
28.05200 99.000
28.07195 93.000
28.09189 86.000
28.11184 107.000
28.13179 91.000
28.15174 95.000
28.17168 103.000
28.19163 103.000
28.21158 110.000
28.23152 103.000
28.25147 90.000
28.27142 108.000
28.29136 85.000
28.31131 113.000
28.33126 123.000
28.35120 106.000
28.37115 116.000
28.39110 92.000
28.41105 79.000
28.43099 104.000
28.45094 115.000
28.47089 107.000
28.49083 101.000
28.51078 111.000
28.53073 106.000
28.55067 104.000
28.57062 110.000
28.59057 102.000
28.61052 106.000
28.63046 121.000
28.65041 103.000
28.67036 118.000
28.69030 102.000
28.71025 100.000
28.73020 114.000
28.75014 97.000
28.77009 117.000
28.79004 109.000
28.80998 117.000
28.82993 118.000
28.84988 115.000
28.86983 116.000
28.88977 105.000
28.90972 122.000
28.92967 119.000
28.94961 101.000
28.96956 107.000
28.98951 113.000
29.00945 101.000
29.02940 127.000
29.04935 108.000
29.06930 114.000
29.08924 118.000
29.10919 107.000
29.12914 126.000
29.14908 134.000
29.16903 104.000
29.18898 132.000
29.20892 109.000
29.22887 111.000
29.24882 108.000
29.26877 128.000
29.28871 130.000
29.30866 131.000
29.32861 119.000
29.34855 119.000
29.36850 120.000
29.38845 130.000
29.40839 145.000
29.42834 105.000
29.44829 128.000
29.46823 133.000
29.48818 107.000
29.50813 120.000
29.52808 134.000
29.54802 136.000
29.56797 139.000
29.58792 130.000
29.60786 136.000
29.62781 165.000
29.64776 152.000
29.66770 164.000
29.68765 169.000
29.70760 179.000
29.72755 194.000
29.74749 165.000
29.76744 186.000
29.78739 169.000
29.80733 174.000
29.82728 142.000
29.84723 153.000
29.86717 161.000
29.88712 131.000
29.90707 122.000
29.92701 133.000
29.94696 132.000
29.96691 122.000
29.98686 98.000
30.00680 129.000
30.02675 114.000
30.04670 112.000
30.06664 123.000
30.08659 137.000
30.10654 108.000
30.12648 111.000
30.14643 120.000
30.16638 118.000
30.18633 116.000
30.20627 106.000
30.22622 104.000
30.24617 116.000
30.26611 114.000
30.28606 121.000
30.30601 109.000
30.32595 110.000
30.34590 93.000
30.36585 100.000
30.38579 117.000
30.40574 127.000
30.42569 124.000
30.44564 141.000
30.46558 120.000
30.48553 124.000
30.50548 122.000
30.52542 120.000
30.54537 129.000
30.56532 109.000
30.58526 119.000
30.60521 110.000
30.62516 122.000
30.64511 112.000
30.66505 104.000
30.68500 132.000
30.70495 124.000
30.72489 106.000
30.74484 114.000
30.76479 133.000
30.78473 112.000
30.80468 89.000
30.82463 104.000
30.84458 114.000
30.86452 114.000
30.88447 105.000
30.90442 100.000
30.92436 113.000
30.94431 107.000
30.96426 115.000
30.98420 118.000
31.00415 97.000
31.02410 103.000
31.04404 106.000
31.06399 97.000
31.08394 104.000
31.10389 99.000
31.12383 115.000
31.14378 99.000
31.16373 124.000
31.18367 104.000
31.20362 130.000
31.22357 113.000
31.24351 114.000
31.26346 99.000
31.28341 87.000
31.30336 106.000
31.32330 128.000
31.34325 121.000
31.36320 115.000
31.38314 112.000
31.40309 98.000
31.42304 117.000
31.44298 108.000
31.46293 105.000
31.48288 112.000
31.50282 112.000
31.52277 122.000
31.54272 113.000
31.56267 114.000
31.58261 91.000
31.60256 111.000
31.62251 130.000
31.64245 126.000
31.66240 120.000
31.68235 105.000
31.70229 139.000
31.72224 107.000
31.74219 131.000
31.76214 139.000
31.78208 165.000
31.80203 132.000
31.82198 141.000
31.84192 122.000
31.86187 140.000
31.88182 124.000
31.90176 133.000
31.92171 130.000
31.94166 116.000
31.96160 105.000
31.98155 128.000
32.00150 121.000
32.02145 111.000
32.04139 150.000
32.06134 120.000
32.08129 132.000
32.10123 126.000
32.12118 130.000
32.14113 140.000
32.16107 147.000
32.18102 146.000
32.20097 157.000
32.22092 145.000
32.24086 154.000
32.26081 170.000
32.28076 168.000
32.30070 193.000
32.32065 210.000
32.34060 174.000
32.36054 217.000
32.38049 196.000
32.40044 202.000
32.42039 200.000
32.44033 227.000
32.46028 243.000
32.48023 254.000
32.50017 219.000
32.52012 227.000
32.54007 238.000
32.56001 218.000
32.57996 235.000
32.59991 285.000
32.61985 268.000
32.63980 265.000
32.65975 272.000
32.67970 248.000
32.69964 249.000
32.71959 214.000
32.73954 197.000
32.75948 208.000
32.77943 156.000
32.79938 143.000
32.81932 132.000
32.83927 156.000
32.85922 141.000
32.87917 136.000
32.89911 142.000
32.91906 128.000
32.93901 141.000
32.95895 146.000
32.97890 161.000
32.99885 161.000
33.01879 176.000
33.03874 163.000
33.05869 200.000
33.07863 180.000
33.09858 202.000
33.11853 202.000
33.13848 215.000
33.15842 211.000
33.17837 216.000
33.19832 173.000
33.21826 224.000
33.23821 205.000
33.25816 190.000
33.27810 207.000
33.29805 181.000
33.31800 194.000
33.33795 192.000
33.35789 187.000
33.37784 226.000
33.39779 234.000
33.41773 236.000
33.43768 268.000
33.45763 277.000
33.47757 309.000
33.49752 330.000
33.51747 309.000
33.53741 349.000
33.55736 322.000
33.57731 336.000
33.59726 377.000
33.61720 364.000
33.63715 325.000
33.65710 352.000
33.67704 322.000
33.69699 345.000
33.71694 333.000
33.73688 346.000
33.75683 295.000
33.77678 374.000
33.79673 367.000
33.81667 367.000
33.83662 386.000
33.85657 329.000
33.87651 329.000
33.89646 298.000
33.91641 292.000
33.93635 292.000
33.95630 285.000
33.97625 281.000
33.99620 275.000
34.01614 255.000
34.03609 284.000
34.05604 238.000
34.07598 239.000
34.09593 226.000
34.11588 207.000
34.13582 215.000
34.15577 219.000
34.17572 173.000
34.19566 159.000
34.21561 155.000
34.23556 167.000
34.25551 160.000
34.27545 146.000
34.29540 167.000
34.31535 141.000
34.33529 133.000
34.35524 130.000
34.37519 125.000
34.39513 134.000
34.41508 123.000
34.43503 137.000
34.45498 139.000
34.47492 144.000
34.49487 139.000
34.51482 114.000
34.53476 127.000
34.55471 142.000
34.57466 129.000
34.59460 141.000
34.61455 110.000
34.63450 112.000
34.65444 146.000
34.67439 147.000
34.69434 163.000
34.71429 129.000
34.73423 135.000
34.75418 142.000
34.77413 161.000
34.79407 150.000
34.81402 156.000
34.83397 196.000
34.85391 194.000
34.87386 228.000
34.89381 243.000
34.91376 295.000
34.93370 356.000
34.95365 355.000
34.97360 403.000
34.99354 436.000
35.01349 519.000
35.03344 532.000
35.05338 598.000
35.07333 578.000
35.09328 585.000
35.11322 593.000
35.13317 593.000
35.15312 556.000
35.17307 573.000
35.19301 537.000
35.21296 498.000
35.23291 517.000
35.25285 512.000
35.27280 523.000
35.29275 519.000
35.31269 540.000
35.33264 487.000
35.35259 510.000
35.37254 525.000
35.39248 461.000
35.41243 438.000
35.43238 356.000
35.45232 319.000
35.47227 286.000
35.49222 239.000
35.51216 235.000
35.53211 206.000
35.55206 172.000
35.57201 183.000
35.59195 172.000
35.61190 143.000
35.63185 155.000
35.65179 148.000
35.67174 160.000
35.69169 150.000
35.71163 132.000
35.73158 137.000
35.75153 131.000
35.77147 121.000
35.79142 137.000
35.81137 149.000
35.83132 110.000
35.85126 139.000
35.87121 136.000
35.89116 97.000
35.91110 150.000
35.93105 109.000
35.95100 122.000
35.97094 117.000
35.99089 100.000
36.01084 124.000
36.03079 133.000
36.05073 119.000
36.07068 133.000
36.09063 138.000
36.11057 131.000
36.13052 170.000
36.15047 152.000
36.17041 201.000
36.19036 230.000
36.21031 259.000
36.23025 261.000
36.25020 282.000
36.27015 307.000
36.29010 380.000
36.31004 381.000
36.32999 370.000
36.34994 401.000
36.36988 377.000
36.38983 368.000
36.40978 359.000
36.42972 319.000
36.44967 289.000
36.46962 249.000
36.48957 264.000
36.50951 195.000
36.52946 219.000
36.54941 204.000
36.56935 186.000
36.58930 144.000
36.60925 142.000
36.62919 161.000
36.64914 136.000
36.66909 134.000
36.68903 155.000
36.70898 142.000
36.72893 129.000
36.74888 108.000
36.76882 119.000
36.78877 126.000
36.80872 130.000
36.82866 131.000
36.84861 124.000
36.86856 96.000
36.88850 121.000
36.90845 123.000
36.92840 105.000
36.94835 100.000
36.96829 118.000
36.98824 122.000
37.00819 103.000
37.02813 108.000
37.04808 100.000
37.06803 91.000
37.08797 99.000
37.10792 100.000
37.12787 109.000
37.14781 117.000
37.16776 96.000
37.18771 135.000
37.20766 92.000
37.22760 115.000
37.24755 110.000
37.26750 106.000
37.28744 97.000
37.30739 100.000
37.32734 98.000
37.34728 99.000
37.36723 102.000
37.38718 93.000
37.40713 109.000
37.42707 98.000
37.44702 98.000
37.46697 111.000
37.48691 101.000
37.50686 95.000
37.52681 112.000
37.54675 111.000
37.56670 97.000
37.58665 86.000
37.60660 116.000
37.62654 84.000
37.64649 108.000
37.66644 108.000
37.68638 88.000
37.70633 124.000
37.72628 108.000
37.74622 94.000
37.76617 105.000
37.78612 98.000
37.80606 95.000
37.82601 120.000
37.84596 119.000
37.86591 119.000
37.88585 132.000
37.90580 97.000
37.92575 121.000
37.94569 113.000
37.96564 117.000
37.98559 108.000
38.00553 97.000
38.02548 118.000
38.04543 100.000
38.06538 101.000
38.08532 96.000
38.10527 122.000
38.12522 114.000
38.14516 127.000
38.16511 129.000
38.18506 117.000
38.20500 119.000
38.22495 125.000
38.24490 130.000
38.26484 123.000
38.28479 137.000
38.30474 175.000
38.32469 156.000
38.34463 172.000
38.36458 167.000
38.38453 187.000
38.40447 201.000
38.42442 244.000
38.44437 276.000
38.46431 255.000
38.48426 331.000
38.50421 403.000
38.52416 419.000
38.54410 403.000
38.56405 441.000
38.58400 424.000
38.60394 421.000
38.62389 432.000
38.64384 381.000
38.66378 390.000
38.68373 366.000
38.70368 348.000
38.72362 324.000
38.74357 348.000
38.76352 310.000
38.78347 280.000
38.80341 247.000
38.82336 224.000
38.84331 217.000
38.86325 207.000
38.88320 191.000
38.90315 156.000
38.92309 172.000
38.94304 144.000
38.96299 120.000
38.98294 143.000
39.00288 128.000
39.02283 135.000
39.04278 129.000
39.06272 119.000
39.08267 117.000
39.10262 111.000
39.12256 104.000
39.14251 103.000
39.16246 104.000
39.18241 100.000
39.20235 117.000
39.22230 134.000
39.24225 108.000
39.26219 120.000
39.28214 104.000
39.30209 111.000
39.32203 104.000
39.34198 109.000
39.36193 133.000
39.38187 104.000
39.40182 109.000
39.42177 136.000
39.44172 114.000
39.46166 100.000
39.48161 116.000
39.50156 106.000
39.52150 96.000
39.54145 111.000
39.56140 131.000
39.58134 92.000
39.60129 113.000
39.62124 95.000
39.64119 117.000
39.66113 109.000
39.68108 112.000
39.70103 128.000
39.72097 92.000
39.74092 93.000
39.76087 112.000
39.78081 122.000
39.80076 102.000
39.82071 110.000
39.84065 98.000
39.86060 110.000
39.88055 113.000
39.90050 101.000
39.92044 100.000
39.94039 143.000
39.96034 100.000
39.98028 92.000
40.00023 87.000
40.02018 106.000
40.04012 94.000
40.06007 107.000
40.08002 121.000
40.09997 98.000
40.11991 98.000
40.13986 98.000
40.15981 92.000
40.17975 94.000
40.19970 84.000
40.21965 90.000
40.23959 104.000
40.25954 110.000
40.27949 113.000
40.29943 103.000
40.31938 103.000
40.33933 113.000
40.35928 115.000
40.37922 114.000
40.39917 113.000
40.41912 102.000
40.43906 99.000
40.45901 86.000
40.47896 107.000
40.49890 95.000
40.51885 106.000
40.53880 104.000
40.55875 101.000
40.57869 95.000
40.59864 108.000
40.61859 113.000
40.63853 119.000
40.65848 122.000
40.67843 119.000
40.69837 111.000
40.71832 131.000
40.73827 121.000
40.75822 131.000
40.77816 132.000
40.79811 138.000
40.81806 139.000
40.83800 138.000
40.85795 189.000
40.87790 172.000
40.89784 178.000
40.91779 192.000
40.93774 194.000
40.95768 263.000
40.97763 268.000
40.99758 330.000
41.01753 408.000
41.03747 521.000
41.05742 651.000
41.07737 788.000
41.09731 951.000
41.11726 973.000
41.13721 1156.000
41.15715 1340.000
41.17710 1486.000
41.19705 1478.000
41.21700 1444.000
41.23694 1315.000
41.25689 1289.000
41.27684 1141.000
41.29678 966.000
41.31673 859.000
41.33668 715.000
41.35662 570.000
41.37657 483.000
41.39652 381.000
41.41646 309.000
41.43641 253.000
41.45636 239.000
41.47631 198.000
41.49625 180.000
41.51620 162.000
41.53615 144.000
41.55609 141.000
41.57604 122.000
41.59599 134.000
41.61593 122.000
41.63588 132.000
41.65583 121.000
41.67578 127.000
41.69572 134.000
41.71567 139.000
41.73562 128.000
41.75556 134.000
41.77551 116.000
41.79546 113.000
41.81540 117.000
41.83535 127.000
41.85530 110.000
41.87524 105.000
41.89519 111.000
41.91514 108.000
41.93509 86.000
41.95503 133.000
41.97498 116.000
41.99493 122.000
42.01487 125.000
42.03482 123.000
42.05477 107.000
42.07471 106.000
42.09466 118.000
42.11461 113.000
42.13456 111.000
42.15450 94.000
42.17445 121.000
42.19440 100.000
42.21434 103.000
42.23429 82.000
42.25424 105.000
42.27418 105.000
42.29413 112.000
42.31408 112.000
42.33403 112.000
42.35397 108.000
42.37392 113.000
42.39387 106.000
42.41381 109.000
42.43376 110.000
42.45371 102.000
42.47365 105.000
42.49360 121.000
42.51355 108.000
42.53349 129.000
42.55344 124.000
42.57339 120.000
42.59334 113.000
42.61328 122.000
42.63323 148.000
42.65318 152.000
42.67312 133.000
42.69307 162.000
42.71302 140.000
42.73296 155.000
42.75291 170.000
42.77286 157.000
42.79281 144.000
42.81275 140.000
42.83270 138.000
42.85265 128.000
42.87259 150.000
42.89254 134.000
42.91249 123.000
42.93243 129.000
42.95238 142.000
42.97233 103.000
42.99227 113.000
43.01222 107.000
43.03217 114.000
43.05212 117.000
43.07206 102.000
43.09201 122.000
43.11196 107.000
43.13190 117.000
43.15185 120.000
43.17180 85.000
43.19174 80.000
43.21169 90.000
43.23164 127.000
43.25159 88.000
43.27153 100.000
43.29148 105.000
43.31143 90.000
43.33137 98.000
43.35132 91.000
43.37127 88.000
43.39121 86.000
43.41116 78.000
43.43111 93.000
43.45105 78.000
43.47100 105.000
43.49095 96.000
43.51090 92.000
43.53084 86.000
43.55079 91.000
43.57074 89.000
43.59068 92.000
43.61063 97.000
43.63058 102.000
43.65052 95.000
43.67047 101.000
43.69042 107.000
43.71037 78.000
43.73031 88.000
43.75026 90.000
43.77021 78.000
43.79015 82.000
43.81010 96.000
43.83005 89.000
43.84999 94.000
43.86994 95.000
43.88989 69.000
43.90984 92.000
43.92978 92.000
43.94973 84.000
43.96968 97.000
43.98962 102.000
44.00957 95.000
44.02952 106.000
44.04946 98.000
44.06941 90.000
44.08936 85.000
44.10930 94.000
44.12925 104.000
44.14920 106.000
44.16915 93.000
44.18909 99.000
44.20904 86.000
44.22899 81.000
44.24893 99.000
44.26888 81.000
44.28883 85.000
44.30877 115.000
44.32872 95.000
44.34867 122.000
44.36862 109.000
44.38856 110.000
44.40851 109.000
44.42846 119.000
44.44840 112.000
44.46835 128.000
44.48830 130.000
44.50824 147.000
44.52819 134.000
44.54814 146.000
44.56808 144.000
44.58803 130.000
44.60798 122.000
44.62793 106.000
44.64787 126.000
44.66782 97.000
44.68777 99.000
44.70771 104.000
44.72766 107.000
44.74761 102.000
44.76755 106.000
44.78750 87.000
44.80745 101.000
44.82740 93.000
44.84734 86.000
44.86729 107.000
44.88724 109.000
44.90718 92.000
44.92713 90.000
44.94708 90.000
44.96702 80.000
44.98697 104.000
45.00692 92.000
45.02686 90.000
45.04681 117.000
45.06676 90.000
45.08671 92.000
45.10665 100.000
45.12660 90.000
45.14655 94.000
45.16649 97.000
45.18644 105.000
45.20639 104.000
45.22633 93.000
45.24628 97.000
45.26623 96.000
45.28618 78.000
45.30612 93.000
45.32607 98.000
45.34602 82.000
45.36596 90.000
45.38591 98.000
45.40586 90.000
45.42580 72.000
45.44575 81.000
45.46570 100.000
45.48565 75.000
45.50559 73.000
45.52554 86.000
45.54549 81.000
45.56543 88.000
45.58538 98.000
45.60533 96.000
45.62527 93.000
45.64522 97.000
45.66517 102.000
45.68511 109.000
45.70506 86.000
45.72501 90.000
45.74496 95.000
45.76490 85.000
45.78485 77.000
45.80480 95.000
45.82474 93.000
45.84469 88.000
45.86464 80.000
45.88458 100.000
45.90453 93.000
45.92448 96.000
45.94443 108.000
45.96437 90.000
45.98432 87.000
46.00427 115.000
46.02421 90.000
46.04416 105.000
46.06411 94.000
46.08405 92.000
46.10400 113.000
46.12395 103.000
46.14389 99.000
46.16384 112.000
46.18379 97.000
46.20374 78.000
46.22368 80.000
46.24363 85.000
46.26358 93.000
46.28352 101.000
46.30347 99.000
46.32342 96.000
46.34336 90.000
46.36331 114.000
46.38326 99.000
46.40321 99.000
46.42315 81.000
46.44310 101.000
46.46305 91.000
46.48299 109.000
46.50294 100.000
46.52289 91.000
46.54283 93.000
46.56278 80.000
46.58273 93.000
46.60267 101.000
46.62262 88.000
46.64257 91.000
46.66252 66.000
46.68246 92.000
46.70241 92.000
46.72236 94.000
46.74230 84.000
46.76225 90.000
46.78220 109.000
46.80214 94.000
46.82209 93.000
46.84204 93.000
46.86199 105.000
46.88193 89.000
46.90188 84.000
46.92183 103.000
46.94177 94.000
46.96172 90.000
46.98167 81.000
47.00161 86.000
47.02156 91.000
47.04151 83.000
47.06146 91.000
47.08140 96.000
47.10135 86.000
47.12130 104.000
47.14124 92.000
47.16119 76.000
47.18114 101.000
47.20108 101.000
47.22103 105.000
47.24098 96.000
47.26092 113.000
47.28087 82.000
47.30082 100.000
47.32077 76.000
47.34071 88.000
47.36066 82.000
47.38061 104.000
47.40055 92.000
47.42050 98.000
47.44045 78.000
47.46039 82.000
47.48034 69.000
47.50029 75.000
47.52024 77.000
47.54018 83.000
47.56013 106.000
47.58008 87.000
47.60002 96.000
47.61997 100.000
47.63992 94.000
47.65986 86.000
47.67981 88.000
47.69976 108.000
47.71970 89.000
47.73965 88.000
47.75960 86.000
47.77955 97.000
47.79949 97.000
47.81944 104.000
47.83939 99.000
47.85933 89.000
47.87928 100.000
47.89923 113.000
47.91917 94.000
47.93912 111.000
47.95907 110.000
47.97902 107.000
47.99896 105.000
48.01891 113.000
48.03886 86.000
48.05880 104.000
48.07875 107.000
48.09870 110.000
48.11864 132.000
48.13859 132.000
48.15854 130.000
48.17848 150.000
48.19843 159.000
48.21838 143.000
48.23833 160.000
48.25827 147.000
48.27822 142.000
48.29817 138.000
48.31811 141.000
48.33806 139.000
48.35801 156.000
48.37795 178.000
48.39790 173.000
48.41785 171.000
48.43780 164.000
48.45774 199.000
48.47769 184.000
48.49764 183.000
48.51758 156.000
48.53753 169.000
48.55748 173.000
48.57742 169.000
48.59737 162.000
48.61732 151.000
48.63726 178.000
48.65721 145.000
48.67716 133.000
48.69711 137.000
48.71705 123.000
48.73700 121.000
48.75695 109.000
48.77689 115.000
48.79684 111.000
48.81679 108.000
48.83673 91.000
48.85668 89.000
48.87663 121.000
48.89658 114.000
48.91652 113.000
48.93647 67.000
48.95642 110.000
48.97636 85.000
48.99631 95.000
49.01626 107.000
49.03620 116.000
49.05615 83.000
49.07610 102.000
49.09605 108.000
49.11599 95.000
49.13594 96.000
49.15589 97.000
49.17583 87.000
49.19578 97.000
49.21573 105.000
49.23567 80.000
49.25562 120.000
49.27557 103.000
49.29551 99.000
49.31546 106.000
49.33541 80.000
49.35536 97.000
49.37530 103.000
49.39525 85.000
49.41520 90.000
49.43514 91.000
49.45509 91.000
49.47504 94.000
49.49498 91.000
49.51493 103.000
49.53488 111.000
49.55483 101.000
49.57477 91.000
49.59472 107.000
49.61467 98.000
49.63461 102.000
49.65456 89.000
49.67451 92.000
49.69445 102.000
49.71440 92.000
49.73435 105.000
49.75429 102.000
49.77424 105.000
49.79419 102.000
49.81414 90.000
49.83408 107.000
49.85403 92.000
49.87398 112.000
49.89392 98.000
49.91387 105.000
49.93382 99.000
49.95376 97.000
49.97371 87.000
49.99366 91.000
50.01361 92.000
50.03355 91.000
50.05350 87.000
50.07345 100.000
50.09339 88.000
50.11334 92.000
50.13329 76.000
50.15323 98.000
50.17318 101.000
50.19313 79.000
50.21307 78.000
50.23302 94.000
50.25297 105.000
50.27292 76.000
50.29286 89.000
50.31281 92.000
50.33276 82.000
50.35270 87.000
50.37265 94.000
50.39260 94.000
50.41254 90.000
50.43249 91.000
50.45244 95.000
50.47239 92.000
50.49233 77.000
50.51228 89.000
50.53223 69.000
50.55217 91.000
50.57212 105.000
50.59207 94.000
50.61201 103.000
50.63196 86.000
50.65191 103.000
50.67186 90.000
50.69180 106.000
50.71175 97.000
50.73170 79.000
50.75164 95.000
50.77159 93.000
50.79154 78.000
50.81148 92.000
50.83143 92.000
50.85138 101.000
50.87132 107.000
50.89127 93.000
50.91122 91.000
50.93117 76.000
50.95111 93.000
50.97106 84.000
50.99101 88.000
51.01095 89.000
51.03090 90.000
51.05085 86.000
51.07079 90.000
51.09074 85.000
51.11069 87.000
51.13064 108.000
51.15058 100.000
51.17053 85.000
51.19048 89.000
51.21042 81.000
51.23037 82.000
51.25032 103.000
51.27026 90.000
51.29021 91.000
51.31016 86.000
51.33010 91.000
51.35005 111.000
51.37000 105.000
51.38995 85.000
51.40989 97.000
51.42984 102.000
51.44979 120.000
51.46973 84.000
51.48968 94.000
51.50963 72.000
51.52957 83.000
51.54952 93.000
51.56947 86.000
51.58942 90.000
51.60936 85.000
51.62931 102.000
51.64926 82.000
51.66920 82.000
51.68915 108.000
51.70910 66.000
51.72904 86.000
51.74899 92.000
51.76894 79.000
51.78888 81.000
51.80883 93.000
51.82878 74.000
51.84873 85.000
51.86867 101.000
51.88862 73.000
51.90857 96.000
51.92851 105.000
51.94846 79.000
51.96841 98.000
51.98835 81.000
52.00830 87.000
52.02825 92.000
52.04820 72.000
52.06814 108.000
52.08809 101.000
52.10804 95.000
52.12798 82.000
52.14793 97.000
52.16788 109.000
52.18782 97.000
52.20777 83.000
52.22772 85.000
52.24767 89.000
52.26761 89.000
52.28756 105.000
52.30751 98.000
52.32745 107.000
52.34740 101.000
52.36735 121.000
52.38729 120.000
52.40724 119.000
52.42719 125.000
52.44713 151.000
52.46708 133.000
52.48703 139.000
52.50698 153.000
52.52692 180.000
52.54687 224.000
52.56682 218.000
52.58676 269.000
52.60671 267.000
52.62666 244.000
52.64660 300.000
52.66655 293.000
52.68650 317.000
52.70645 235.000
52.72639 262.000
52.74634 213.000
52.76629 230.000
52.78623 194.000
52.80618 189.000
52.82613 180.000
52.84607 170.000
52.86602 157.000
52.88597 130.000
52.90591 113.000
52.92586 123.000
52.94581 150.000
52.96576 113.000
52.98570 124.000
53.00565 124.000
53.02560 130.000
53.04554 145.000
53.06549 135.000
53.08544 119.000
53.10538 130.000
53.12533 115.000
53.14528 130.000
53.16523 117.000
53.18517 112.000
53.20512 127.000
53.22507 120.000
53.24501 114.000
53.26496 112.000
53.28491 125.000
53.30485 112.000
53.32480 140.000
53.34475 132.000
53.36469 121.000
53.38464 106.000
53.40459 116.000
53.42454 110.000
53.44448 115.000
53.46443 116.000
53.48438 105.000
53.50432 103.000
53.52427 113.000
53.54422 100.000
53.56416 108.000
53.58411 86.000
53.60406 92.000
53.62401 95.000
53.64395 112.000
53.66390 99.000
53.68385 103.000
53.70379 95.000
53.72374 96.000
53.74369 94.000
53.76363 95.000
53.78358 89.000
53.80353 95.000
53.82348 93.000
53.84342 86.000
53.86337 89.000
53.88332 102.000
53.90326 79.000
53.92321 82.000
53.94316 100.000
53.96310 82.000
53.98305 95.000
54.00300 90.000
54.02294 85.000
54.04289 98.000
54.06284 80.000
54.08279 78.000
54.10273 83.000
54.12268 93.000
54.14263 94.000
54.16257 89.000
54.18252 94.000
54.20247 100.000
54.22241 89.000
54.24236 96.000
54.26231 88.000
54.28226 77.000
54.30220 99.000
54.32215 96.000
54.34210 59.000
54.36204 106.000
54.38199 90.000
54.40194 102.000
54.42188 78.000
54.44183 71.000
54.46178 96.000
54.48172 97.000
54.50167 92.000
54.52162 79.000
54.54157 91.000
54.56151 93.000
54.58146 92.000
54.60141 85.000
54.62135 92.000
54.64130 98.000
54.66125 79.000
54.68119 103.000
54.70114 84.000
54.72109 95.000
54.74104 105.000
54.76098 81.000
54.78093 96.000
54.80088 98.000
54.82082 94.000
54.84077 75.000
54.86072 103.000
54.88066 108.000
54.90061 94.000
54.92056 95.000
54.94050 96.000
54.96045 90.000
54.98040 99.000
55.00035 80.000
55.02029 97.000
55.04024 99.000
55.06019 95.000
55.08013 116.000
55.10008 106.000
55.12003 79.000
55.13997 82.000
55.15992 84.000
55.17987 85.000
55.19982 100.000
55.21976 109.000
55.23971 94.000
55.25966 105.000
55.27960 123.000
55.29955 100.000
55.31950 84.000
55.33944 87.000
55.35939 106.000
55.37934 91.000
55.39929 93.000
55.41923 108.000
55.43918 102.000
55.45913 90.000
55.47907 87.000
55.49902 96.000
55.51897 79.000
55.53891 90.000
55.55886 109.000
55.57881 106.000
55.59875 92.000
55.61870 103.000
55.63865 102.000
55.65860 113.000
55.67854 83.000
55.69849 72.000
55.71844 84.000
55.73838 114.000
55.75833 95.000
55.77828 92.000
55.79822 107.000
55.81817 84.000
55.83812 88.000
55.85807 88.000
55.87801 99.000
55.89796 106.000
55.91791 88.000
55.93785 97.000
55.95780 97.000
55.97775 90.000
55.99769 87.000
56.01764 91.000
56.03759 77.000
56.05753 97.000
56.07748 100.000
56.09743 73.000
56.11738 100.000
56.13732 99.000
56.15727 99.000
56.17722 91.000
56.19716 111.000
56.21711 101.000
56.23706 108.000
56.25700 113.000
56.27695 85.000
56.29690 97.000
56.31685 84.000
56.33679 115.000
56.35674 115.000
56.37669 151.000
56.39663 149.000
56.41658 132.000
56.43653 141.000
56.45647 104.000
56.47642 137.000
56.49637 152.000
56.51631 149.000
56.53626 163.000
56.55621 193.000
56.57616 159.000
56.59610 179.000
56.61605 151.000
56.63600 163.000
56.65594 152.000
56.67589 132.000
56.69584 115.000
56.71578 95.000
56.73573 132.000
56.75568 119.000
56.77563 141.000
56.79557 110.000
56.81552 113.000
56.83547 102.000
56.85541 110.000
56.87536 91.000
56.89531 103.000
56.91525 123.000
56.93520 113.000
56.95515 103.000
56.97510 120.000
56.99504 125.000
57.01499 113.000
57.03494 150.000
57.05488 186.000
57.07483 161.000
57.09478 186.000
57.11472 213.000
57.13467 248.000
57.15462 247.000
57.17456 271.000
57.19451 314.000
57.21446 321.000
57.23441 350.000
57.25435 359.000
57.27430 359.000
57.29425 362.000
57.31419 356.000
57.33414 418.000
57.35409 342.000
57.37403 340.000
57.39398 259.000
57.41393 277.000
57.43388 238.000
57.45382 209.000
57.47377 213.000
57.49372 204.000
57.51366 197.000
57.53361 156.000
57.55356 140.000
57.57350 125.000
57.59345 103.000
57.61340 120.000
57.63334 117.000
57.65329 116.000
57.67324 127.000
57.69319 120.000
57.71313 98.000
57.73308 106.000
57.75303 90.000
57.77297 109.000
57.79292 128.000
57.81287 104.000
57.83281 113.000
57.85276 100.000
57.87271 106.000
57.89266 100.000
57.91260 120.000
57.93255 129.000
57.95250 107.000
57.97244 85.000
57.99239 114.000
58.01234 122.000
58.03228 116.000
58.05223 119.000
58.07218 130.000
58.09212 133.000
58.11207 149.000
58.13202 142.000
58.15197 137.000
58.17191 134.000
58.19186 172.000
58.21181 122.000
58.23175 116.000
58.25170 132.000
58.27165 118.000
58.29159 106.000
58.31154 114.000
58.33149 94.000
58.35144 112.000
58.37138 110.000
58.39133 101.000
58.41128 89.000
58.43122 118.000
58.45117 98.000
58.47112 115.000
58.49106 104.000
58.51101 89.000
58.53096 99.000
58.55090 85.000
58.57085 82.000
58.59080 88.000
58.61075 110.000
58.63069 83.000
58.65064 96.000
58.67059 101.000
58.69053 95.000
58.71048 96.000
58.73043 92.000
58.75037 88.000
58.77032 108.000
58.79027 86.000
58.81022 93.000
58.83016 100.000
58.85011 109.000
58.87006 87.000
58.89000 101.000
58.90995 93.000
58.92990 66.000
58.94984 87.000
58.96979 106.000
58.98974 99.000
59.00969 111.000
59.02963 98.000
59.04958 87.000
59.06953 111.000
59.08947 109.000
59.10942 104.000
59.12937 89.000
59.14931 83.000
59.16926 91.000
59.18921 84.000
59.20915 98.000
59.22910 111.000
59.24905 81.000
59.26900 89.000
59.28894 82.000
59.30889 100.000
59.32884 90.000
59.34878 93.000
59.36873 84.000
59.38868 71.000
59.40862 110.000
59.42857 87.000
59.44852 95.000
59.46847 89.000
59.48841 75.000
59.50836 91.000
59.52831 87.000
59.54825 82.000
59.56820 95.000
59.58815 107.000
59.60809 96.000
59.62804 103.000
59.64799 97.000
59.66793 112.000
59.68788 79.000
59.70783 112.000
59.72778 124.000
59.74772 103.000
59.76767 110.000
59.78762 90.000
59.80756 109.000
59.82751 96.000
59.84746 113.000
59.86740 131.000
59.88735 96.000
59.90730 129.000
59.92725 104.000
59.94719 118.000
59.96714 136.000
59.98709 108.000
60.00703 134.000
60.02698 124.000
60.04693 120.000
60.06687 116.000
60.08682 115.000
60.10677 125.000
60.12671 115.000
60.14666 155.000
60.16661 140.000
60.18656 146.000
60.20650 135.000
60.22645 141.000
60.24640 138.000
60.26634 133.000
60.28629 134.000
60.30624 142.000
60.32618 139.000
60.34613 132.000
60.36608 136.000
60.38603 122.000
60.40597 111.000
60.42592 124.000
60.44587 144.000
60.46581 127.000
60.48576 119.000
60.50571 143.000
60.52565 125.000
60.54560 140.000
60.56555 113.000
60.58550 127.000
60.60544 141.000
60.62539 139.000
60.64534 112.000
60.66528 113.000
60.68523 130.000
60.70518 131.000
60.72512 106.000
60.74507 120.000
60.76502 126.000
60.78496 94.000
60.80491 112.000
60.82486 109.000
60.84481 116.000
60.86475 111.000
60.88470 115.000
60.90465 130.000
60.92459 114.000
60.94454 129.000
60.96449 119.000
60.98443 142.000
61.00438 134.000
61.02433 147.000
61.04428 121.000
61.06422 120.000
61.08417 131.000
61.10412 118.000
61.12406 156.000
61.14401 145.000
61.16396 123.000
61.18390 159.000
61.20385 156.000
61.22380 139.000
61.24374 149.000
61.26369 158.000
61.28364 155.000
61.30359 162.000
61.32353 192.000
61.34348 158.000
61.36343 203.000
61.38337 176.000
61.40332 170.000
61.42327 190.000
61.44321 183.000
61.46316 177.000
61.48311 167.000
61.50306 187.000
61.52300 134.000
61.54295 160.000
61.56290 153.000
61.58284 137.000
61.60279 124.000
61.62274 117.000
61.64268 140.000
61.66263 130.000
61.68258 123.000
61.70252 138.000
61.72247 113.000
61.74242 110.000
61.76237 131.000
61.78231 111.000
61.80226 118.000
61.82221 139.000
61.84215 108.000
61.86210 131.000
61.88205 147.000
61.90199 147.000
61.92194 177.000
61.94189 169.000
61.96184 182.000
61.98178 184.000
62.00173 225.000
62.02168 229.000
62.04162 254.000
62.06157 301.000
62.08152 313.000
62.10146 312.000
62.12141 309.000
62.14136 325.000
62.16131 314.000
62.18125 314.000
62.20120 293.000
62.22115 269.000
62.24109 261.000
62.26104 270.000
62.28099 271.000
62.30093 275.000
62.32088 264.000
62.34083 252.000
62.36077 232.000
62.38072 199.000
62.40067 188.000
62.42062 196.000
62.44056 183.000
62.46051 175.000
62.48046 174.000
62.50040 200.000
62.52035 172.000
62.54030 139.000
62.56024 157.000
62.58019 158.000
62.60014 134.000
62.62009 127.000
62.64003 142.000
62.65998 130.000
62.67993 132.000
62.69987 128.000
62.71982 121.000
62.73977 123.000
62.75971 110.000
62.77966 118.000
62.79961 106.000
62.81955 128.000
62.83950 93.000
62.85945 99.000
62.87940 103.000
62.89934 102.000
62.91929 111.000
62.93924 111.000
62.95918 109.000
62.97913 97.000
62.99908 109.000
63.01902 105.000
63.03897 107.000
63.05892 110.000
63.07887 99.000
63.09881 105.000
63.11876 102.000
63.13871 118.000
63.15865 98.000
63.17860 80.000
63.19855 82.000
63.21849 90.000
63.23844 95.000
63.25839 97.000
63.27833 87.000
63.29828 94.000
63.31823 110.000
63.33818 98.000
63.35812 106.000
63.37807 95.000
63.39802 100.000
63.41796 106.000
63.43791 126.000
63.45786 109.000
63.47780 102.000
63.49775 115.000
63.51770 89.000
63.53765 89.000
63.55759 94.000
63.57754 100.000
63.59749 98.000
63.61743 101.000
63.63738 94.000
63.65733 98.000
63.67727 107.000
63.69722 106.000
63.71717 102.000
63.73712 97.000
63.75706 94.000
63.77701 88.000
63.79696 112.000
63.81690 119.000
63.83685 91.000
63.85680 90.000
63.87674 84.000
63.89669 86.000
63.91664 90.000
63.93658 96.000
63.95653 80.000
63.97648 88.000
63.99643 100.000
64.01637 87.000
64.03632 93.000
64.05627 72.000
64.07621 88.000
64.09616 100.000
64.11611 99.000
64.13605 98.000
64.15600 101.000
64.17595 96.000
64.19590 100.000
64.21584 85.000
64.23579 90.000
64.25574 123.000
64.27568 98.000
64.29563 91.000
64.31558 90.000
64.33552 107.000
64.35547 98.000
64.37542 100.000
64.39536 108.000
64.41531 103.000
64.43526 113.000
64.45521 112.000
64.47515 134.000
64.49510 103.000
64.51505 129.000
64.53499 120.000
64.55494 134.000
64.57489 135.000
64.59483 148.000
64.61478 158.000
64.63473 135.000
64.65468 180.000
64.67462 136.000
64.69457 181.000
64.71452 187.000
64.73446 165.000
64.75441 159.000
64.77436 193.000
64.79430 165.000
64.81425 168.000
64.83420 164.000
64.85414 146.000
64.87409 183.000
64.89404 181.000
64.91399 156.000
64.93393 146.000
64.95388 159.000
64.97383 152.000
64.99377 142.000
65.01372 135.000
65.03367 156.000
65.05361 132.000
65.07356 122.000
65.09351 139.000
65.11346 131.000
65.13340 126.000
65.15335 121.000
65.17330 120.000
65.19324 117.000
65.21319 132.000
65.23314 120.000
65.25308 112.000
65.27303 124.000
65.29298 113.000
65.31293 105.000
65.33287 108.000
65.35282 105.000
65.37277 84.000
65.39271 101.000
65.41266 100.000
65.43261 110.000
65.45255 90.000
65.47250 96.000
65.49245 100.000
65.51239 110.000
65.53234 105.000
65.55229 111.000
65.57224 113.000
65.59218 112.000
65.61213 122.000
65.63208 124.000
65.65202 128.000
65.67197 136.000
65.69192 102.000
65.71186 108.000
65.73181 135.000
65.75176 127.000
65.77171 125.000
65.79165 133.000
65.81160 126.000
65.83155 125.000
65.85149 147.000
65.87144 109.000
65.89139 131.000
65.91133 125.000
65.93128 152.000
65.95123 130.000
65.97117 133.000
65.99112 151.000
66.01107 130.000
66.03102 130.000
66.05096 156.000
66.07091 118.000
66.09086 118.000
66.11080 127.000
66.13075 123.000
66.15070 140.000
66.17064 117.000
66.19059 103.000
66.21054 125.000
66.23049 127.000
66.25043 106.000
66.27038 128.000
66.29033 107.000
66.31027 111.000
66.33022 119.000
66.35017 106.000
66.37011 103.000
66.39006 124.000
66.41001 97.000
66.42995 101.000
66.44990 99.000
66.46985 95.000
66.48980 107.000
66.50974 98.000
66.52969 98.000
66.54964 107.000
66.56958 98.000
66.58953 108.000
66.60948 81.000
66.62942 111.000
66.64937 80.000
66.66932 89.000
66.68927 117.000
66.70921 94.000
66.72916 92.000
66.74911 96.000
66.76905 79.000
66.78900 93.000
66.80895 94.000
66.82889 110.000
66.84884 89.000
66.86879 86.000
66.88874 90.000
66.90868 81.000
66.92863 91.000
66.94858 88.000
66.96852 95.000
66.98847 107.000
67.00842 90.000
67.02836 97.000
67.04831 92.000
67.06826 95.000
67.08820 81.000
67.10815 92.000
67.12810 83.000
67.14805 98.000
67.16799 89.000
67.18794 93.000
67.20789 98.000
67.22783 99.000
67.24778 85.000
67.26773 89.000
67.28767 97.000
67.30762 104.000
67.32757 118.000
67.34752 131.000
67.36746 127.000
67.38741 116.000
67.40736 128.000
67.42730 127.000
67.44725 131.000
67.46720 120.000
67.48714 117.000
67.50709 155.000
67.52704 156.000
67.54698 155.000
67.56693 172.000
67.58688 150.000
67.60683 144.000
67.62677 158.000
67.64672 169.000
67.66667 191.000
67.68661 152.000
67.70656 164.000
67.72651 195.000
67.74645 172.000
67.76640 174.000
67.78635 134.000
67.80630 153.000
67.82624 151.000
67.84619 167.000
67.86614 152.000
67.88608 165.000
67.90603 157.000
67.92598 144.000
67.94592 122.000
67.96587 156.000
67.98582 138.000
68.00576 109.000
68.02571 136.000
68.04566 141.000
68.06561 119.000
68.08555 124.000
68.10550 124.000
68.12545 109.000
68.14539 119.000
68.16534 113.000
68.18529 114.000
68.20523 122.000
68.22518 117.000
68.24513 113.000
68.26508 113.000
68.28502 98.000
68.30497 90.000
68.32492 87.000
68.34486 93.000
68.36481 102.000
68.38476 103.000
68.40470 93.000
68.42465 107.000
68.44460 88.000
68.46455 91.000
68.48449 88.000
68.50444 102.000
68.52439 96.000
68.54433 103.000
68.56428 99.000
68.58423 89.000
68.60417 94.000
68.62412 116.000
68.64407 95.000
68.66401 124.000
68.68396 105.000
68.70391 107.000
68.72386 107.000
68.74380 89.000
68.76375 106.000
68.78370 98.000
68.80364 91.000
68.82359 105.000
68.84354 103.000
68.86348 110.000
68.88343 111.000
68.90338 89.000
68.92333 116.000
68.94327 82.000
68.96322 96.000
68.98317 92.000
69.00311 99.000
69.02306 99.000
69.04301 97.000
69.06295 99.000
69.08290 97.000
69.10285 89.000
69.12279 79.000
69.14274 94.000
69.16269 86.000
69.18264 78.000
69.20258 84.000
69.22253 83.000
69.24248 79.000
69.26242 85.000
69.28237 79.000
69.30232 78.000
69.32226 82.000
69.34221 85.000
69.36216 84.000
69.38211 83.000
69.40205 82.000
69.42200 93.000
69.44195 81.000
69.46189 82.000
69.48184 86.000
69.50179 85.000
69.52173 70.000
69.54168 81.000
69.56163 93.000
69.58157 88.000
69.60152 84.000
69.62147 89.000
69.64142 75.000
69.66136 95.000
69.68131 89.000
69.70126 78.000
69.72120 78.000
69.74115 96.000
69.76110 82.000
69.78104 84.000
69.80099 65.000
69.82094 94.000
69.84089 78.000
69.86083 74.000
69.88078 82.000
69.90073 89.000
69.92067 65.000
69.94062 96.000
69.96057 82.000
69.98051 70.000
70.00046 86.000
70.02041 72.000
70.04035 87.000
70.06030 90.000
70.08025 85.000
70.10020 73.000
70.12014 76.000
70.14009 76.000
70.16004 80.000
70.17998 78.000
70.19993 80.000
70.21988 84.000
70.23982 93.000
70.25977 81.000
70.27972 85.000
70.29967 81.000
70.31961 83.000
70.33956 76.000
70.35951 87.000
70.37945 100.000
70.39940 84.000
70.41935 91.000
70.43929 75.000
70.45924 77.000
70.47919 96.000
70.49914 89.000
70.51908 94.000
70.53903 98.000
70.55898 94.000
70.57892 84.000
70.59887 87.000
70.61882 99.000
70.63876 105.000
70.65871 113.000
70.67866 86.000
70.69860 73.000
70.71855 90.000
70.73850 101.000
70.75845 105.000
70.77839 85.000
70.79834 83.000
70.81829 62.000
70.83823 86.000
70.85818 107.000
70.87813 81.000
70.89807 94.000
70.91802 94.000
70.93797 98.000
70.95792 101.000
70.97786 88.000
70.99781 94.000
71.01776 77.000
71.03770 80.000
71.05765 94.000
71.07760 93.000
71.09754 87.000
71.11749 85.000
71.13744 86.000
71.15738 81.000
71.17733 84.000
71.19728 105.000
71.21723 93.000
71.23717 97.000
71.25712 79.000
71.27707 84.000
71.29701 94.000
71.31696 102.000
71.33691 101.000
71.35685 99.000
71.37680 86.000
71.39675 91.000
71.41670 87.000
71.43664 97.000
71.45659 80.000
71.47654 83.000
71.49648 84.000
71.51643 106.000
71.53638 115.000
71.55632 103.000
71.57627 91.000
71.59622 95.000
71.61616 96.000
71.63611 99.000
71.65606 89.000
71.67601 100.000
71.69595 103.000
71.71590 89.000
71.73585 84.000
71.75579 93.000
71.77574 87.000
71.79569 91.000
71.81563 95.000
71.83558 94.000
71.85553 99.000
71.87548 106.000
71.89542 103.000
71.91537 98.000
71.93532 125.000
71.95526 116.000
71.97521 126.000
71.99516 171.000
72.01510 133.000
72.03505 147.000
72.05500 167.000
72.07495 159.000
72.09489 147.000
72.11484 184.000
72.13479 185.000
72.15473 157.000
72.17468 166.000
72.19463 167.000
72.21457 148.000
72.23452 152.000
72.25447 154.000
72.27441 160.000
72.29436 143.000
72.31431 162.000
72.33426 152.000
72.35420 137.000
72.37415 139.000
72.39410 143.000
72.41404 117.000
72.43399 116.000
72.45394 100.000
72.47388 112.000
72.49383 102.000
72.51378 110.000
72.53373 109.000
72.55367 90.000
72.57362 102.000
72.59357 101.000
72.61351 104.000
72.63346 105.000
72.65341 85.000
72.67335 99.000
72.69330 88.000
72.71325 90.000
72.73319 83.000
72.75314 75.000
72.77309 108.000
72.79304 86.000
72.81298 111.000
72.83293 115.000
72.85288 108.000
72.87282 116.000
72.89277 103.000
72.91272 108.000
72.93266 98.000
72.95261 111.000
72.97256 115.000
72.99251 108.000
73.01245 93.000
73.03240 114.000
73.05235 102.000
73.07229 105.000
73.09224 108.000
73.11219 137.000
73.13213 111.000
73.15208 127.000
73.17203 111.000
73.19197 116.000
73.21192 127.000
73.23187 132.000
73.25182 139.000
73.27176 133.000
73.29171 127.000
73.31166 112.000
73.33160 125.000
73.35155 151.000
73.37150 145.000
73.39144 158.000
73.41139 135.000
73.43134 155.000
73.45129 122.000
73.47123 152.000
73.49118 136.000
73.51113 106.000
73.53107 140.000
73.55102 133.000
73.57097 120.000
73.59091 119.000
73.61086 116.000
73.63081 107.000
73.65076 115.000
73.67070 103.000
73.69065 109.000
73.71060 102.000
73.73054 114.000
73.75049 101.000
73.77044 91.000
73.79038 111.000
73.81033 105.000
73.83028 93.000
73.85022 98.000
73.87017 80.000
73.89012 100.000
73.91007 108.000
73.93001 90.000
73.94996 85.000
73.96991 91.000
73.98985 91.000
74.00980 111.000
74.02975 92.000
74.04969 96.000
74.06964 107.000
74.08959 102.000
74.10954 99.000
74.12948 105.000
74.14943 99.000
74.16938 98.000
74.18932 116.000
74.20927 108.000
74.22922 116.000
74.24916 100.000
74.26911 118.000
74.28906 109.000
74.30900 132.000
74.32895 96.000
74.34890 111.000
74.36885 111.000
74.38879 107.000
74.40874 115.000
74.42869 102.000
74.44863 103.000
74.46858 92.000
74.48853 108.000
74.50847 88.000
74.52842 116.000
74.54837 94.000
74.56832 111.000
74.58826 92.000
74.60821 115.000
74.62816 109.000
74.64810 112.000
74.66805 115.000
74.68800 118.000
74.70794 94.000
74.72789 120.000
74.74784 107.000
74.76778 109.000
74.78773 100.000
74.80768 99.000
74.82763 120.000
74.84757 115.000
74.86752 124.000
74.88747 118.000
74.90741 115.000
74.92736 117.000
74.94731 87.000
74.96725 97.000
74.98720 103.000
75.00715 115.000
75.02710 110.000
75.04704 112.000
75.06699 116.000
75.08694 107.000
75.10688 105.000
75.12683 97.000
75.14678 120.000
75.16672 110.000
75.18667 114.000
75.20662 96.000
75.22657 101.000
75.24651 102.000
75.26646 92.000
75.28641 97.000
75.30635 98.000
75.32630 105.000
75.34625 93.000
75.36619 83.000
75.38614 87.000
75.40609 85.000
75.42603 85.000
75.44598 82.000
75.46593 103.000
75.48588 83.000
75.50582 73.000
75.52577 85.000
75.54572 81.000
75.56566 88.000
75.58561 78.000
75.60556 69.000
75.62550 91.000
75.64545 87.000
75.66540 73.000
75.68535 70.000
75.70529 82.000
75.72524 79.000
75.74519 81.000
75.76513 98.000
75.78508 85.000
75.80503 83.000
75.82497 98.000
75.84492 89.000
75.86487 90.000
75.88481 88.000
75.90476 92.000
75.92471 60.000
75.94466 79.000
75.96460 65.000
75.98455 90.000
76.00450 82.000
76.02444 84.000
76.04439 80.000
76.06434 80.000
76.08428 74.000
76.10423 96.000
76.12418 72.000
76.14413 95.000
76.16407 68.000
76.18402 87.000
76.20397 92.000
76.22391 78.000
76.24386 85.000
76.26381 61.000
76.28375 68.000
76.30370 90.000
76.32365 94.000
76.34359 97.000
76.36354 84.000
76.38349 66.000
76.40344 86.000
76.42338 90.000
76.44333 90.000
76.46328 83.000
76.48322 84.000
76.50317 81.000
76.52312 96.000
76.54306 88.000
76.56301 75.000
76.58296 90.000
76.60291 79.000
76.62285 91.000
76.64280 75.000
76.66275 80.000
76.68269 84.000
76.70264 86.000
76.72259 88.000
76.74253 79.000
76.76248 82.000
76.78243 82.000
76.80238 85.000
76.82232 84.000
76.84227 95.000
76.86222 77.000
76.88216 89.000
76.90211 77.000
76.92206 94.000
76.94200 92.000
76.96195 97.000
76.98190 82.000
77.00184 96.000
77.02179 88.000
77.04174 78.000
77.06169 85.000
77.08163 92.000
77.10158 75.000
77.12153 91.000
77.14147 73.000
77.16142 85.000
77.18137 107.000
77.20131 114.000
77.22126 112.000
77.24121 101.000
77.26116 113.000
77.28110 118.000
77.30105 139.000
77.32100 121.000
77.34094 131.000
77.36089 138.000
77.38084 133.000
77.40078 146.000
77.42073 136.000
77.44068 145.000
77.46062 132.000
77.48057 128.000
77.50052 155.000
77.52047 138.000
77.54041 136.000
77.56036 145.000
77.58031 153.000
77.60025 138.000
77.62020 137.000
77.64015 146.000
77.66009 131.000
77.68004 126.000
77.69999 141.000
77.71994 130.000
77.73988 118.000
77.75983 115.000
77.77978 124.000
77.79972 121.000
77.81967 123.000
77.83962 107.000
77.85956 125.000
77.87951 129.000
77.89946 114.000
77.91940 88.000
77.93935 102.000
77.95930 116.000
77.97925 114.000
77.99919 95.000
78.01914 83.000
78.03909 73.000
78.05903 94.000
78.07898 113.000
78.09893 90.000
78.11887 79.000
78.13882 96.000
78.15877 79.000
78.17872 68.000
78.19866 92.000
78.21861 82.000
78.23856 64.000
78.25850 84.000
78.27845 102.000
78.29840 86.000
78.31834 78.000
78.33829 83.000
78.35824 98.000
78.37819 80.000
78.39813 81.000
78.41808 81.000
78.43803 97.000
78.45797 72.000
78.47792 83.000
78.49787 83.000
78.51781 93.000
78.53776 67.000
78.55771 84.000
78.57765 74.000
78.59760 82.000
78.61755 72.000
78.63750 92.000
78.65744 81.000
78.67739 106.000
78.69734 74.000
78.71728 81.000
78.73723 72.000
78.75718 83.000
78.77712 67.000
78.79707 77.000
78.81702 76.000
78.83697 88.000
78.85691 73.000
78.87686 79.000
78.89681 93.000
78.91675 91.000
78.93670 80.000
78.95665 74.000
78.97659 86.000
78.99654 80.000
79.01649 71.000
79.03643 63.000
79.05638 72.000
79.07633 85.000
79.09628 91.000
79.11622 85.000
79.13617 84.000
79.15612 68.000
79.17606 80.000
79.19601 87.000
79.21596 92.000
79.23590 90.000
79.25585 82.000
79.27580 71.000
79.29575 68.000
79.31569 79.000
79.33564 88.000
79.35559 88.000
79.37553 79.000
79.39548 91.000
79.41543 84.000
79.43537 84.000
79.45532 77.000
79.47527 80.000
79.49521 76.000
79.51516 81.000
79.53511 87.000
79.55506 83.000
79.57500 91.000
79.59495 88.000
79.61490 87.000
79.63484 74.000
79.65479 84.000
79.67474 103.000
79.69468 84.000
79.71463 93.000
79.73458 83.000
79.75453 64.000
79.77447 79.000
79.79442 87.000
79.81437 102.000
79.83431 85.000
79.85426 91.000
79.87421 105.000
79.89415 76.000
79.91410 93.000
79.93405 89.000
79.95399 79.000
79.97394 81.000
79.99389 82.000
80.01384 90.000
80.03378 85.000
80.05373 70.000
80.07368 91.000
80.09362 82.000
80.11357 93.000
80.13352 90.000
80.15346 96.000
80.17341 82.000
80.19336 104.000
80.21331 87.000
80.23325 80.000
80.25320 70.000
80.27315 83.000
80.29309 87.000
80.31304 89.000
80.33299 91.000
80.35293 95.000
80.37288 86.000
80.39283 79.000
80.41278 88.000
80.43272 95.000
80.45267 97.000
80.47262 77.000
80.49256 85.000
80.51251 92.000
80.53246 75.000
80.55240 76.000
80.57235 93.000
80.59230 91.000
80.61224 93.000
80.63219 81.000
80.65214 66.000
80.67209 94.000
80.69203 90.000
80.71198 85.000
80.73193 75.000
80.75187 81.000
80.77182 75.000
80.79177 89.000
80.81171 91.000
80.83166 89.000
80.85161 96.000
80.87156 97.000
80.89150 88.000
80.91145 91.000
80.93140 94.000
80.95134 100.000
80.97129 77.000
80.99124 79.000
81.01118 90.000
81.03113 91.000
81.05108 77.000
81.07102 82.000
81.09097 73.000
81.11092 78.000
81.13087 77.000
81.15081 91.000
81.17076 84.000
81.19071 84.000
81.21065 79.000
81.23060 78.000
81.25055 88.000
81.27049 95.000
81.29044 69.000
81.31039 93.000
81.33034 83.000
81.35028 101.000
81.37023 86.000
81.39018 76.000
81.41012 78.000
81.43007 92.000
81.45002 102.000
81.46996 94.000
81.48991 96.000
81.50986 97.000
81.52980 79.000
81.54975 92.000
81.56970 80.000
81.58965 92.000
81.60959 85.000
81.62954 92.000
81.64949 78.000
81.66943 75.000
81.68938 71.000
81.70933 75.000
81.72927 85.000
81.74922 72.000
81.76917 85.000
81.78912 75.000
81.80906 66.000
81.82901 107.000
81.84896 79.000
81.86890 65.000
81.88885 69.000
81.90880 101.000
81.92874 85.000
81.94869 87.000
81.96864 77.000
81.98859 81.000
82.00853 90.000
82.02848 102.000
82.04843 86.000
82.06837 106.000
82.08832 92.000
82.10827 93.000
82.12821 95.000
82.14816 101.000
82.16811 90.000
82.18805 95.000
82.20800 94.000
82.22795 104.000
82.24790 97.000
82.26784 78.000
82.28779 88.000
82.30774 79.000
82.32768 96.000
82.34763 100.000
82.36758 87.000
82.38752 95.000
82.40747 88.000
82.42742 79.000
82.44737 102.000
82.46731 69.000
82.48726 80.000
82.50721 88.000
82.52715 96.000
82.54710 80.000
82.56705 89.000
82.58699 74.000
82.60694 93.000
82.62689 74.000
82.64683 83.000
82.66678 86.000
82.68673 85.000
82.70668 99.000
82.72662 73.000
82.74657 106.000
82.76652 75.000
82.78646 91.000
82.80641 84.000
82.82636 86.000
82.84630 100.000
82.86625 76.000
82.88620 81.000
82.90615 92.000
82.92609 86.000
82.94604 77.000
82.96599 86.000
82.98593 107.000
83.00588 109.000
83.02583 95.000
83.04577 100.000
83.06572 102.000
83.08567 92.000
83.10561 88.000
83.12556 84.000
83.14551 84.000
83.16546 89.000
83.18540 93.000
83.20535 94.000
83.22530 81.000
83.24524 92.000
83.26519 93.000
83.28514 84.000
83.30508 93.000
83.32503 103.000
83.34498 78.000
83.36493 92.000
83.38487 95.000
83.40482 97.000
83.42477 93.000
83.44471 102.000
83.46466 96.000
83.48461 93.000
83.50455 94.000
83.52450 99.000
83.54445 93.000
83.56440 98.000
83.58434 84.000
83.60429 97.000
83.62424 88.000
83.64418 84.000
83.66413 97.000
83.68408 107.000
83.70402 80.000
83.72397 95.000
83.74392 109.000
83.76386 88.000
83.78381 94.000
83.80376 114.000
83.82371 90.000
83.84365 70.000
83.86360 111.000
83.88355 99.000
83.90349 105.000
83.92344 93.000
83.94339 81.000
83.96333 76.000
83.98328 75.000
84.00323 93.000
84.02318 72.000
84.04312 87.000
84.06307 116.000
84.08302 72.000
84.10296 86.000
84.12291 83.000
84.14286 75.000
84.16280 92.000
84.18275 64.000
84.20270 96.000
84.22264 63.000
84.24259 91.000
84.26254 81.000
84.28249 72.000
84.30243 73.000
84.32238 76.000
84.34233 88.000
84.36227 98.000
84.38222 70.000
84.40217 73.000
84.42211 100.000
84.44206 93.000
84.46201 83.000
84.48196 81.000
84.50190 75.000
84.52185 90.000
84.54180 92.000
84.56174 90.000
84.58169 79.000
84.60164 80.000
84.62158 73.000
84.64153 70.000
84.66148 72.000
84.68142 91.000
84.70137 86.000
84.72132 95.000
84.74127 76.000
84.76121 88.000
84.78116 97.000
84.80111 88.000
84.82105 81.000
84.84100 75.000
84.86095 75.000
84.88089 68.000
84.90084 84.000
84.92079 65.000
84.94074 91.000
84.96068 72.000
84.98063 71.000
85.00058 81.000
85.02052 83.000
85.04047 84.000
85.06042 80.000
85.08036 93.000
85.10031 99.000
85.12026 74.000
85.14021 86.000
85.16015 79.000
85.18010 77.000
85.20005 71.000
85.21999 73.000
85.23994 86.000
85.25989 80.000
85.27983 88.000
85.29978 68.000
85.31973 86.000
85.33967 76.000
85.35962 79.000
85.37957 106.000
85.39952 93.000
85.41946 72.000
85.43941 79.000
85.45936 84.000
85.47930 74.000
85.49925 75.000
85.51920 94.000
85.53914 79.000
85.55909 81.000
85.57904 76.000
85.59899 88.000
85.61893 90.000
85.63888 85.000
85.65883 102.000
85.67877 83.000
85.69872 78.000
85.71867 89.000
85.73861 84.000
85.75856 83.000
85.77851 94.000
85.79845 88.000
85.81840 109.000
85.83835 92.000
85.85830 113.000
85.87824 86.000
85.89819 87.000
85.91814 106.000
85.93808 114.000
85.95803 119.000
85.97798 113.000
85.99792 99.000
86.01787 95.000
86.03782 101.000
86.05777 108.000
86.07771 120.000
86.09766 97.000
86.11761 107.000
86.13755 108.000
86.15750 119.000
86.17745 108.000
86.19739 114.000
86.21734 92.000
86.23729 118.000
86.25723 108.000
86.27718 89.000
86.29713 84.000
86.31708 97.000
86.33702 98.000
86.35697 108.000
86.37692 92.000
86.39686 105.000
86.41681 85.000
86.43676 106.000
86.45670 102.000
86.47665 81.000
86.49660 93.000
86.51655 89.000
86.53649 72.000
86.55644 80.000
86.57639 85.000
86.59633 88.000
86.61628 88.000
86.63623 100.000
86.65617 98.000
86.67612 97.000
86.69607 88.000
86.71602 82.000
86.73596 75.000
86.75591 90.000
86.77586 78.000
86.79580 83.000
86.81575 87.000
86.83570 62.000
86.85564 98.000
86.87559 77.000
86.89554 78.000
86.91548 84.000
86.93543 93.000
86.95538 93.000
86.97533 75.000
86.99527 72.000
87.01522 85.000
87.03517 88.000
87.05511 94.000
87.07506 88.000
87.09501 83.000
87.11495 83.000
87.13490 96.000
87.15485 85.000
87.17480 76.000
87.19474 83.000
87.21469 72.000
87.23464 86.000
87.25458 79.000
87.27453 108.000
87.29448 76.000
87.31442 63.000
87.33437 87.000
87.35432 65.000
87.37426 89.000
87.39421 78.000
87.41416 66.000
87.43411 80.000
87.45405 70.000
87.47400 72.000
87.49395 81.000
87.51389 78.000
87.53384 83.000
87.55379 86.000
87.57373 80.000
87.59368 75.000
87.61363 77.000
87.63358 72.000
87.65352 84.000
87.67347 73.000
87.69342 71.000
87.71336 88.000
87.73331 84.000
87.75326 83.000
87.77320 67.000
87.79315 85.000
87.81310 81.000
87.83304 76.000
87.85299 84.000
87.87294 85.000
87.89289 84.000
87.91283 71.000
87.93278 70.000
87.95273 71.000
87.97267 89.000
87.99262 62.000
88.01257 75.000
88.03251 78.000
88.05246 82.000
88.07241 77.000
88.09236 73.000
88.11230 81.000
88.13225 89.000
88.15220 84.000
88.17214 60.000
88.19209 80.000
88.21204 77.000
88.23198 68.000
88.25193 74.000
88.27188 89.000
88.29183 78.000
88.31177 97.000
88.33172 77.000
88.35167 77.000
88.37161 67.000
88.39156 76.000
88.41151 67.000
88.43145 81.000
88.45140 100.000
88.47135 86.000
88.49129 80.000
88.51124 92.000
88.53119 72.000
88.55114 84.000
88.57108 74.000
88.59103 98.000
88.61098 71.000
88.63092 89.000
88.65087 69.000
88.67082 85.000
88.69076 83.000
88.71071 71.000
88.73066 88.000
88.75061 95.000
88.77055 77.000
88.79050 82.000
88.81045 85.000
88.83039 76.000
88.85034 86.000
88.87029 90.000
88.89023 93.000
88.91018 99.000
88.93013 100.000
88.95007 94.000
88.97002 84.000
88.98997 97.000
89.00992 92.000
89.02986 107.000
89.04981 96.000
89.06976 97.000
89.08970 100.000
89.10965 98.000
89.12960 103.000
89.14954 99.000
89.16949 98.000
89.18944 101.000
89.20939 78.000
89.22933 75.000
89.24928 112.000
89.26923 88.000
89.28917 86.000
89.30912 92.000
89.32907 101.000
89.34901 97.000
89.36896 95.000
89.38891 85.000
89.40885 110.000
89.42880 86.000
89.44875 111.000
89.46870 102.000
89.48864 95.000
89.50859 78.000
89.52854 87.000
89.54848 118.000
89.56843 106.000
89.58838 103.000
89.60832 109.000
89.62827 144.000
89.64822 127.000
89.66817 126.000
89.68811 128.000
89.70806 128.000
89.72801 136.000
89.74795 148.000
89.76790 105.000
89.78785 144.000
89.80779 141.000
89.82774 135.000
89.84769 131.000
89.86764 131.000
89.88758 124.000
89.90753 116.000
89.92748 113.000
89.94742 137.000
89.96737 121.000
89.98732 113.000
90.00726 100.000
