10.00000 211.000
10.01995 251.000
10.03989 213.000
10.05984 237.000
10.07979 218.000
10.09973 207.000
10.11968 217.000
10.13963 218.000
10.15958 192.000
10.17952 220.000
10.19947 183.000
10.21942 223.000
10.23936 210.000
10.25931 206.000
10.27926 216.000
10.29920 235.000
10.31915 212.000
10.33910 203.000
10.35905 221.000
10.37899 227.000
10.39894 230.000
10.41889 233.000
10.43883 244.000
10.45878 228.000
10.47873 210.000
10.49867 200.000
10.51862 229.000
10.53857 210.000
10.55851 217.000
10.57846 234.000
10.59841 213.000
10.61836 190.000
10.63830 208.000
10.65825 213.000
10.67820 217.000
10.69814 211.000
10.71809 218.000
10.73804 222.000
10.75798 206.000
10.77793 210.000
10.79788 198.000
10.81783 216.000
10.83777 213.000
10.85772 211.000
10.87767 197.000
10.89761 234.000
10.91756 231.000
10.93751 211.000
10.95745 213.000
10.97740 192.000
10.99735 214.000
11.01730 206.000
11.03724 221.000
11.05719 206.000
11.07714 232.000
11.09708 212.000
11.11703 190.000
11.13698 228.000
11.15692 229.000
11.17687 219.000
11.19682 219.000
11.21676 204.000
11.23671 218.000
11.25666 225.000
11.27661 238.000
11.29655 198.000
11.31650 218.000
11.33645 228.000
11.35639 212.000
11.37634 204.000
11.39629 204.000
11.41623 242.000
11.43618 244.000
11.45613 246.000
11.47608 209.000
11.49602 216.000
11.51597 201.000
11.53592 219.000
11.55586 231.000
11.57581 224.000
11.59576 220.000
11.61570 220.000
11.63565 208.000
11.65560 219.000
11.67554 240.000
11.69549 227.000
11.71544 221.000
11.73539 231.000
11.75533 208.000
11.77528 203.000
11.79523 201.000
11.81517 229.000
11.83512 211.000
11.85507 220.000
11.87501 240.000
11.89496 201.000
11.91491 254.000
11.93486 217.000
11.95480 205.000
11.97475 234.000
11.99470 216.000
12.01464 206.000
12.03459 232.000
12.05454 218.000
12.07448 217.000
12.09443 222.000
12.11438 227.000
12.13432 232.000
12.15427 205.000
12.17422 212.000
12.19417 224.000
12.21411 235.000
12.23406 211.000
12.25401 220.000
12.27395 240.000
12.29390 209.000
12.31385 215.000
12.33379 225.000
12.35374 198.000
12.37369 234.000
12.39364 216.000
12.41358 209.000
12.43353 229.000
12.45348 240.000
12.47342 216.000
12.49337 217.000
12.51332 217.000
12.53326 222.000
12.55321 220.000
12.57316 220.000
12.59311 219.000
12.61305 215.000
12.63300 194.000
12.65295 227.000
12.67289 195.000
12.69284 214.000
12.71279 201.000
12.73273 229.000
12.75268 220.000
12.77263 197.000
12.79257 232.000
12.81252 239.000
12.83247 220.000
12.85242 214.000
12.87236 244.000
12.89231 230.000
12.91226 217.000
12.93220 244.000
12.95215 218.000
12.97210 209.000
12.99204 243.000
13.01199 246.000
13.03194 217.000
13.05189 225.000
13.07183 221.000
13.09178 227.000
13.11173 202.000
13.13167 214.000
13.15162 201.000
13.17157 247.000
13.19151 217.000
13.21146 242.000
13.23141 239.000
13.25135 242.000
13.27130 225.000
13.29125 183.000
13.31120 205.000
13.33114 211.000
13.35109 215.000
13.37104 211.000
13.39098 208.000
13.41093 218.000
13.43088 248.000
13.45082 217.000
13.47077 199.000
13.49072 208.000
13.51067 224.000
13.53061 218.000
13.55056 222.000
13.57051 211.000
13.59045 236.000
13.61040 208.000
13.63035 230.000
13.65029 228.000
13.67024 207.000
13.69019 221.000
13.71013 237.000
13.73008 209.000
13.75003 219.000
13.76998 198.000
13.78992 249.000
13.80987 208.000
13.82982 226.000
13.84976 228.000
13.86971 205.000
13.88966 202.000
13.90960 228.000
13.92955 193.000
13.94950 229.000
13.96945 210.000
13.98939 219.000
14.00934 212.000
14.02929 205.000
14.04923 222.000
14.06918 228.000
14.08913 227.000
14.10907 239.000
14.12902 219.000
14.14897 195.000
14.16892 224.000
14.18886 225.000
14.20881 224.000
14.22876 236.000
14.24870 238.000
14.26865 234.000
14.28860 229.000
14.30854 251.000
14.32849 212.000
14.34844 265.000
14.36838 225.000
14.38833 253.000
14.40828 205.000
14.42823 223.000
14.44817 239.000
14.46812 227.000
14.48807 228.000
14.50801 212.000
14.52796 241.000
14.54791 257.000
14.56785 208.000
14.58780 235.000
14.60775 210.000
14.62770 205.000
14.64764 245.000
14.66759 223.000
14.68754 241.000
14.70748 234.000
14.72743 224.000
14.74738 257.000
14.76732 252.000
14.78727 223.000
14.80722 243.000
14.82716 222.000
14.84711 237.000
14.86706 207.000
14.88701 228.000
14.90695 236.000
14.92690 228.000
14.94685 253.000
14.96679 239.000
14.98674 227.000
15.00669 266.000
15.02663 241.000
15.04658 256.000
15.06653 237.000
15.08648 208.000
15.10642 231.000
15.12637 264.000
15.14632 273.000
15.16626 291.000
15.18621 301.000
15.20616 259.000
15.22610 322.000
15.24605 246.000
15.26600 273.000
15.28594 256.000
15.30589 248.000
15.32584 299.000
15.34579 287.000
15.36573 276.000
15.38568 284.000
15.40563 305.000
15.42557 291.000
15.44552 298.000
15.46547 328.000
15.48541 320.000
15.50536 309.000
15.52531 311.000
15.54526 343.000
15.56520 373.000
15.58515 377.000
15.60510 395.000
15.62504 407.000
15.64499 446.000
15.66494 524.000
15.68488 670.000
15.70483 865.000
15.72478 1227.000
15.74472 1884.000
15.76467 3135.000
15.78462 5146.000
15.80457 8538.000
15.82451 12125.000
15.84446 14444.000
15.86441 14632.000
15.88435 12525.000
15.90430 8659.000
15.92425 5402.000
15.94419 2728.000
15.96414 1478.000
15.98409 825.000
16.00404 654.000
16.02398 472.000
16.04393 477.000
16.06388 440.000
16.08382 386.000
16.10377 408.000
16.12372 461.000
16.14366 407.000
16.16361 394.000
16.18356 346.000
16.20351 337.000
16.22345 325.000
16.24340 280.000
16.26335 295.000
16.28329 312.000
16.30324 266.000
16.32319 304.000
16.34313 302.000
16.36308 296.000
16.38303 271.000
16.40297 285.000
16.42292 258.000
16.44287 266.000
16.46282 281.000
16.48276 293.000
16.50271 255.000
16.52266 272.000
16.54260 253.000
16.56255 263.000
16.58250 267.000
16.60244 236.000
16.62239 254.000
16.64234 258.000
16.66229 261.000
16.68223 265.000
16.70218 234.000
16.72213 236.000
16.74207 237.000
16.76202 258.000
16.78197 266.000
16.80191 243.000
16.82186 296.000
16.84181 307.000
16.86175 305.000
16.88170 322.000
16.90165 315.000
16.92160 263.000
16.94154 247.000
16.96149 260.000
16.98144 217.000
17.00138 215.000
17.02133 247.000
17.04128 247.000
17.06122 236.000
17.08117 221.000
17.10112 224.000
17.12107 205.000
17.14101 212.000
17.16096 220.000
17.18091 221.000
17.20085 234.000
17.22080 204.000
17.24075 223.000
17.26069 185.000
17.28064 222.000
17.30059 214.000
17.32053 231.000
17.34048 210.000
17.36043 247.000
17.38038 237.000
17.40032 214.000
17.42027 198.000
17.44022 206.000
17.46016 226.000
17.48011 206.000
17.50006 236.000
17.52000 223.000
17.53995 214.000
17.55990 234.000
17.57985 234.000
17.59979 228.000
17.61974 223.000
17.63969 197.000
17.65963 206.000
17.67958 210.000
17.69953 235.000
17.71947 212.000
17.73942 222.000
17.75937 226.000
17.77932 231.000
17.79926 230.000
17.81921 230.000
17.83916 228.000
17.85910 211.000
17.87905 225.000
17.89900 234.000
17.91894 231.000
17.93889 218.000
17.95884 223.000
17.97878 242.000
17.99873 203.000
18.01868 213.000
18.03863 214.000
18.05857 219.000
18.07852 254.000
18.09847 226.000
18.11841 215.000
18.13836 230.000
18.15831 210.000
18.17825 223.000
18.19820 252.000
18.21815 185.000
18.23810 214.000
18.25804 226.000
18.27799 215.000
18.29794 258.000
18.31788 247.000
18.33783 244.000
18.35778 205.000
18.37772 235.000
18.39767 216.000
18.41762 260.000
18.43756 236.000
18.45751 212.000
18.47746 240.000
18.49741 238.000
18.51735 215.000
18.53730 236.000
18.55725 232.000
18.57719 230.000
18.59714 210.000
18.61709 201.000
18.63703 225.000
18.65698 233.000
18.67693 220.000
18.69688 219.000
18.71682 230.000
18.73677 232.000
18.75672 221.000
18.77666 220.000
18.79661 201.000
18.81656 225.000
18.83650 226.000
18.85645 228.000
18.87640 225.000
18.89634 235.000
18.91629 206.000
18.93624 203.000
18.95619 217.000
18.97613 210.000
18.99608 214.000
19.01603 227.000
19.03597 186.000
19.05592 223.000
19.07587 209.000
19.09581 218.000
19.11576 228.000
19.13571 200.000
19.15566 230.000
19.17560 201.000
19.19555 201.000
19.21550 224.000
19.23544 206.000
19.25539 231.000
19.27534 202.000
19.29528 231.000
19.31523 225.000
19.33518 258.000
19.35513 204.000
19.37507 212.000
19.39502 221.000
19.41497 228.000
19.43491 197.000
19.45486 218.000
19.47481 232.000
19.49475 254.000
19.51470 217.000
19.53465 218.000
19.55459 217.000
19.57454 217.000
19.59449 224.000
19.61444 206.000
19.63438 204.000
19.65433 201.000
19.67428 213.000
19.69422 210.000
19.71417 213.000
19.73412 234.000
19.75406 219.000
19.77401 201.000
19.79396 231.000
19.81391 240.000
19.83385 199.000
19.85380 207.000
19.87375 223.000
19.89369 216.000
19.91364 188.000
19.93359 230.000
19.95353 240.000
19.97348 206.000
19.99343 208.000
20.01337 213.000
20.03332 210.000
20.05327 237.000
20.07322 193.000
20.09316 246.000
20.11311 232.000
20.13306 228.000
20.15300 224.000
20.17295 216.000
20.19290 224.000
20.21284 225.000
20.23279 213.000
20.25274 229.000
20.27269 233.000
20.29263 213.000
20.31258 202.000
20.33253 203.000
20.35247 229.000
20.37242 222.000
20.39237 255.000
20.41231 219.000
20.43226 239.000
20.45221 214.000
20.47215 226.000
20.49210 214.000
20.51205 243.000
20.53200 243.000
20.55194 220.000
20.57189 222.000
20.59184 193.000
20.61178 237.000
20.63173 231.000
20.65168 248.000
20.67162 251.000
20.69157 232.000
20.71152 229.000
20.73147 261.000
20.75141 241.000
20.77136 248.000
20.79131 245.000
20.81125 248.000
20.83120 270.000
20.85115 264.000
20.87109 305.000
20.89104 323.000
20.91099 315.000
20.93094 380.000
20.95088 387.000
20.97083 367.000
20.99078 390.000
21.01072 347.000
21.03067 391.000
21.05062 370.000
21.07056 371.000
21.09051 374.000
21.11046 309.000
21.13040 303.000
21.15035 278.000
21.17030 260.000
21.19025 242.000
21.21019 240.000
21.23014 245.000
21.25009 274.000
21.27003 238.000
21.28998 230.000
21.30993 228.000
21.32987 232.000
21.34982 214.000
21.36977 253.000
21.38972 213.000
21.40966 228.000
21.42961 220.000
21.44956 232.000
21.46950 251.000
21.48945 231.000
21.50940 232.000
21.52934 211.000
21.54929 224.000
21.56924 216.000
21.58918 226.000
21.60913 205.000
21.62908 207.000
21.64903 192.000
21.66897 219.000
21.68892 227.000
21.70887 200.000
21.72881 219.000
21.74876 239.000
21.76871 212.000
21.78865 210.000
21.80860 238.000
21.82855 230.000
21.84850 255.000
21.86844 212.000
21.88839 205.000
21.90834 234.000
21.92828 226.000
21.94823 246.000
21.96818 238.000
21.98812 213.000
22.00807 221.000
22.02802 211.000
22.04796 208.000
22.06791 225.000
22.08786 212.000
22.10781 219.000
22.12775 222.000
22.14770 235.000
22.16765 280.000
22.18759 205.000
22.20754 258.000
22.22749 204.000
22.24743 259.000
22.26738 217.000
22.28733 226.000
22.30728 237.000
22.32722 218.000
22.34717 205.000
22.36712 234.000
22.38706 197.000
22.40701 219.000
22.42696 210.000
22.44690 234.000
22.46685 246.000
22.48680 238.000
22.50675 220.000
22.52669 217.000
22.54664 223.000
22.56659 234.000
22.58653 217.000
22.60648 207.000
22.62643 234.000
22.64637 211.000
22.66632 182.000
22.68627 246.000
22.70621 232.000
22.72616 228.000
22.74611 241.000
22.76606 253.000
22.78600 233.000
22.80595 242.000
22.82590 222.000
22.84584 229.000
22.86579 233.000
22.88574 239.000
22.90568 237.000
22.92563 225.000
22.94558 234.000
22.96553 256.000
22.98547 220.000
23.00542 192.000
23.02537 214.000
23.04531 239.000
23.06526 230.000
23.08521 227.000
23.10515 265.000
23.12510 234.000
23.14505 222.000
23.16499 230.000
23.18494 228.000
23.20489 232.000
23.22484 226.000
23.24478 232.000
23.26473 236.000
23.28468 262.000
23.30462 223.000
23.32457 222.000
23.34452 232.000
23.36446 235.000
23.38441 202.000
23.40436 210.000
23.42431 225.000
23.44425 241.000
23.46420 221.000
23.48415 223.000
23.50409 224.000
23.52404 213.000
23.54399 216.000
23.56393 242.000
23.58388 229.000
23.60383 204.000
23.62377 234.000
23.64372 220.000
23.66367 231.000
23.68362 238.000
23.70356 241.000
23.72351 216.000
23.74346 253.000
23.76340 231.000
23.78335 246.000
23.80330 230.000
23.82324 217.000
23.84319 211.000
23.86314 248.000
23.88309 223.000
23.90303 223.000
23.92298 220.000
23.94293 234.000
23.96287 209.000
23.98282 222.000
24.00277 218.000
24.02271 210.000
24.04266 226.000
24.06261 233.000
24.08256 209.000
24.10250 228.000
24.12245 229.000
24.14240 251.000
24.16234 220.000
24.18229 224.000
24.20224 220.000
24.22218 234.000
24.24213 249.000
24.26208 220.000
24.28202 226.000
24.30197 227.000
24.32192 252.000
24.34187 245.000
24.36181 250.000
24.38176 243.000
24.40171 219.000
24.42165 239.000
24.44160 204.000
24.46155 215.000
24.48149 215.000
24.50144 236.000
24.52139 228.000
24.54134 249.000
24.56128 242.000
24.58123 257.000
24.60118 215.000
24.62112 226.000
24.64107 213.000
24.66102 213.000
24.68096 227.000
24.70091 214.000
24.72086 225.000
24.74080 238.000
24.76075 236.000
24.78070 230.000
24.80065 240.000
24.82059 221.000
24.84054 243.000
24.86049 222.000
24.88043 243.000
24.90038 255.000
24.92033 246.000
24.94027 247.000
24.96022 268.000
24.98017 259.000
25.00012 242.000
25.02006 283.000
25.04001 239.000
25.05996 275.000
25.07990 274.000
25.09985 246.000
25.11980 230.000
25.13974 231.000
25.15969 252.000
25.17964 232.000
25.19958 215.000
25.21953 211.000
25.23948 250.000
25.25943 212.000
25.27937 252.000
25.29932 227.000
25.31927 247.000
25.33921 238.000
25.35916 267.000
25.37911 234.000
25.39905 244.000
25.41900 237.000
25.43895 206.000
25.45890 230.000
25.47884 202.000
25.49879 245.000
25.51874 232.000
25.53868 217.000
25.55863 233.000
25.57858 232.000
25.59852 243.000
25.61847 245.000
25.63842 229.000
25.65837 244.000
25.67831 239.000
25.69826 226.000
25.71821 222.000
25.73815 240.000
25.75810 227.000
25.77805 243.000
25.79799 204.000
25.81794 206.000
25.83789 234.000
25.85783 236.000
25.87778 254.000
25.89773 222.000
25.91768 233.000
25.93762 240.000
25.95757 227.000
25.97752 205.000
25.99746 218.000
26.01741 231.000
26.03736 236.000
26.05730 229.000
26.07725 246.000
26.09720 259.000
26.11715 237.000
26.13709 238.000
26.15704 241.000
26.17699 261.000
26.19693 202.000
26.21688 253.000
26.23683 223.000
26.25677 229.000
26.27672 244.000
26.29667 217.000
26.31661 246.000
26.33656 246.000
26.35651 224.000
26.37646 233.000
26.39640 250.000
26.41635 208.000
26.43630 230.000
26.45624 239.000
26.47619 251.000
26.49614 225.000
26.51608 218.000
26.53603 205.000
26.55598 226.000
26.57593 266.000
26.59587 227.000
26.61582 234.000
26.63577 244.000
26.65571 245.000
26.67566 230.000
26.69561 262.000
26.71555 245.000
26.73550 245.000
26.75545 250.000
26.77539 216.000
26.79534 234.000
26.81529 241.000
26.83524 274.000
26.85518 257.000
26.87513 227.000
26.89508 222.000
26.91502 223.000
26.93497 208.000
26.95492 232.000
26.97486 228.000
26.99481 246.000
27.01476 244.000
27.03471 212.000
27.05465 240.000
27.07460 238.000
27.09455 239.000
27.11449 245.000
27.13444 230.000
27.15439 250.000
27.17433 231.000
27.19428 233.000
27.21423 236.000
27.23417 266.000
27.25412 225.000
27.27407 229.000
27.29402 239.000
27.31396 235.000
27.33391 249.000
27.35386 253.000
27.37380 243.000
27.39375 241.000
27.41370 270.000
27.43364 223.000
27.45359 234.000
27.47354 235.000
27.49349 256.000
27.51343 257.000
27.53338 252.000
27.55333 227.000
27.57327 218.000
27.59322 261.000
27.61317 212.000
27.63311 256.000
27.65306 217.000
27.67301 227.000
27.69296 264.000
27.71290 229.000
27.73285 240.000
27.75280 233.000
27.77274 248.000
27.79269 244.000
27.81264 235.000
27.83258 264.000
27.85253 256.000
27.87248 230.000
27.89242 223.000
27.91237 225.000
27.93232 205.000
27.95227 212.000
27.97221 242.000
27.99216 259.000
28.01211 237.000
28.03205 238.000
28.05200 239.000
28.07195 234.000
28.09189 281.000
28.11184 226.000
28.13179 241.000
28.15174 244.000
28.17168 211.000
28.19163 235.000
28.21158 259.000
28.23152 247.000
28.25147 264.000
28.27142 232.000
28.29136 220.000
28.31131 235.000
28.33126 221.000
28.35120 213.000
28.37115 243.000
28.39110 238.000
28.41105 250.000
28.43099 241.000
28.45094 260.000
28.47089 246.000
28.49083 256.000
28.51078 216.000
28.53073 247.000
28.55067 258.000
28.57062 243.000
28.59057 259.000
28.61052 241.000
28.63046 228.000
28.65041 226.000
28.67036 225.000
28.69030 242.000
28.71025 247.000
28.73020 257.000
28.75014 258.000
28.77009 237.000
28.79004 249.000
28.80998 260.000
28.82993 223.000
28.84988 212.000
28.86983 284.000
28.88977 237.000
28.90972 238.000
28.92967 231.000
28.94961 251.000
28.96956 252.000
28.98951 216.000
29.00945 237.000
29.02940 224.000
29.04935 240.000
29.06930 240.000
29.08924 224.000
29.10919 220.000
29.12914 242.000
29.14908 251.000
29.16903 254.000
29.18898 233.000
29.20892 266.000
29.22887 256.000
29.24882 270.000
29.26877 294.000
29.28871 293.000
29.30866 307.000
29.32861 356.000
29.34855 381.000
29.36850 391.000
29.38845 383.000
29.40839 397.000
29.42834 382.000
29.44829 353.000
29.46823 318.000
29.48818 320.000
29.50813 358.000
29.52808 288.000
29.54802 297.000
29.56797 271.000
29.58792 277.000
29.60786 233.000
29.62781 268.000
29.64776 250.000
29.66770 249.000
29.68765 250.000
29.70760 249.000
29.72755 258.000
29.74749 234.000
29.76744 272.000
29.78739 240.000
29.80733 230.000
29.82728 257.000
29.84723 236.000
29.86717 269.000
29.88712 258.000
29.90707 234.000
29.92701 234.000
29.94696 238.000
29.96691 238.000
29.98686 250.000
30.00680 266.000
30.02675 237.000
30.04670 237.000
30.06664 259.000
30.08659 260.000
30.10654 272.000
30.12648 289.000
30.14643 285.000
30.16638 242.000
30.18633 263.000
30.20627 239.000
30.22622 273.000
30.24617 256.000
30.26611 241.000
30.28606 290.000
30.30601 262.000
30.32595 265.000
30.34590 287.000
30.36585 277.000
30.38579 274.000
30.40574 272.000
30.42569 233.000
30.44564 235.000
30.46558 260.000
30.48553 288.000
30.50548 254.000
30.52542 238.000
30.54537 269.000
30.56532 254.000
30.58526 244.000
30.60521 255.000
30.62516 247.000
30.64511 261.000
30.66505 241.000
30.68500 282.000
30.70495 233.000
30.72489 240.000
30.74484 246.000
30.76479 251.000
30.78473 260.000
30.80468 238.000
30.82463 247.000
30.84458 247.000
30.86452 246.000
30.88447 250.000
30.90442 256.000
30.92436 239.000
30.94431 251.000
30.96426 231.000
30.98420 230.000
31.00415 255.000
31.02410 259.000
31.04404 241.000
31.06399 244.000
31.08394 231.000
31.10389 278.000
31.12383 253.000
31.14378 255.000
31.16373 232.000
31.18367 243.000
31.20362 236.000
31.22357 262.000
31.24351 237.000
31.26346 261.000
31.28341 231.000
31.30336 282.000
31.32330 255.000
31.34325 251.000
31.36320 259.000
31.38314 241.000
31.40309 261.000
31.42304 267.000
31.44298 240.000
31.46293 252.000
31.48288 278.000
31.50282 246.000
31.52277 286.000
31.54272 263.000
31.56267 230.000
31.58261 252.000
31.60256 285.000
31.62251 227.000
31.64245 255.000
31.66240 246.000
31.68235 254.000
31.70229 268.000
31.72224 277.000
31.74219 296.000
31.76214 297.000
31.78208 291.000
31.80203 301.000
31.82198 334.000
31.84192 338.000
31.86187 393.000
31.88182 490.000
31.90176 603.000
31.92171 698.000
31.94166 781.000
31.96160 1018.000
31.98155 1153.000
32.00150 1210.000
32.02145 1273.000
32.04139 1172.000
32.06134 1132.000
32.08129 1003.000
32.10123 823.000
32.12118 748.000
32.14113 656.000
32.16107 511.000
32.18102 409.000
32.20097 363.000
32.22092 338.000
32.24086 322.000
32.26081 271.000
32.28076 300.000
32.30070 265.000
32.32065 239.000
32.34060 258.000
32.36054 263.000
32.38049 274.000
32.40044 271.000
32.42039 281.000
32.44033 312.000
32.46028 363.000
32.48023 408.000
32.50017 433.000
32.52012 459.000
32.54007 376.000
32.56001 377.000
32.57996 373.000
32.59991 370.000
32.61985 322.000
32.63980 281.000
32.65975 280.000
32.67970 284.000
32.69964 288.000
32.71959 230.000
32.73954 293.000
32.75948 279.000
32.77943 261.000
32.79938 250.000
32.81932 241.000
32.83927 253.000
32.85922 240.000
32.87917 265.000
32.89911 251.000
32.91906 252.000
32.93901 271.000
32.95895 254.000
32.97890 242.000
32.99885 247.000
33.01879 249.000
33.03874 257.000
33.05869 233.000
33.07863 243.000
33.09858 261.000
33.11853 249.000
33.13848 252.000
33.15842 254.000
33.17837 242.000
33.19832 246.000
33.21826 253.000
33.23821 213.000
33.25816 261.000
33.27810 241.000
33.29805 237.000
33.31800 227.000
33.33795 274.000
33.35789 209.000
33.37784 244.000
33.39779 241.000
33.41773 246.000
33.43768 260.000
33.45763 255.000
33.47757 236.000
33.49752 261.000
33.51747 247.000
33.53741 257.000
33.55736 266.000
33.57731 244.000
33.59726 217.000
33.61720 259.000
33.63715 246.000
33.65710 226.000
33.67704 239.000
33.69699 232.000
33.71694 261.000
33.73688 224.000
33.75683 225.000
33.77678 258.000
33.79673 259.000
33.81667 240.000
33.83662 244.000
33.85657 267.000
33.87651 235.000
33.89646 258.000
33.91641 256.000
33.93635 259.000
33.95630 275.000
33.97625 284.000
33.99620 245.000
34.01614 257.000
34.03609 271.000
34.05604 239.000
34.07598 274.000
34.09593 270.000
34.11588 307.000
34.13582 276.000
34.15577 272.000
34.17572 253.000
34.19566 292.000
34.21561 285.000
34.23556 285.000
34.25551 283.000
34.27545 272.000
34.29540 269.000
34.31535 283.000
34.33529 325.000
34.35524 318.000
34.37519 354.000
34.39513 338.000
34.41508 344.000
34.43503 399.000
34.45498 340.000
34.47492 386.000
34.49487 404.000
34.51482 406.000
34.53476 427.000
34.55471 435.000
34.57466 438.000
34.59460 449.000
34.61455 400.000
34.63450 408.000
34.65444 367.000
34.67439 356.000
34.69434 394.000
34.71429 410.000
34.73423 386.000
34.75418 387.000
34.77413 376.000
34.79407 368.000
34.81402 407.000
34.83397 411.000
34.85391 333.000
34.87386 364.000
34.89381 357.000
34.91376 329.000
34.93370 310.000
34.95365 339.000
34.97360 326.000
34.99354 306.000
35.01349 281.000
35.03344 315.000
35.05338 278.000
35.07333 283.000
35.09328 291.000
35.11322 293.000
35.13317 281.000
35.15312 320.000
35.17307 298.000
35.19301 312.000
35.21296 339.000
35.23291 325.000
35.25285 326.000
35.27280 358.000
35.29275 356.000
35.31269 409.000
35.33264 363.000
35.35259 470.000
35.37254 568.000
35.39248 720.000
35.41243 948.000
35.43238 1206.000
35.45232 1232.000
35.47227 1215.000
35.49222 1414.000
35.51216 1775.000
35.53211 2245.000
35.55206 2114.000
35.57201 1790.000
35.59195 1652.000
35.61190 1579.000
35.63185 1628.000
35.65179 1493.000
35.67174 1212.000
35.69169 1106.000
35.71163 971.000
35.73158 1015.000
35.75153 1007.000
35.77147 960.000
35.79142 918.000
35.81137 905.000
35.83132 790.000
35.85126 699.000
35.87121 682.000
35.89116 640.000
35.91110 590.000
35.93105 508.000
35.95100 444.000
35.97094 390.000
35.99089 358.000
36.01084 371.000
36.03079 357.000
36.05073 336.000
36.07068 289.000
36.09063 341.000
36.11057 310.000
36.13052 333.000
36.15047 306.000
36.17041 283.000
36.19036 277.000
36.21031 303.000
36.23025 260.000
36.25020 273.000
36.27015 260.000
36.29010 301.000
36.31004 277.000
36.32999 273.000
36.34994 300.000
36.36988 293.000
36.38983 265.000
36.40978 280.000
36.42972 279.000
36.44967 291.000
36.46962 281.000
36.48957 268.000
36.50951 236.000
36.52946 268.000
36.54941 284.000
36.56935 290.000
36.58930 314.000
36.60925 282.000
36.62919 313.000
36.64914 294.000
36.66909 274.000
36.68903 301.000
36.70898 341.000
36.72893 306.000
36.74888 274.000
36.76882 297.000
36.78877 278.000
36.80872 256.000
36.82866 277.000
36.84861 283.000
36.86856 275.000
36.88850 284.000
36.90845 289.000
36.92840 268.000
36.94835 247.000
36.96829 278.000
36.98824 271.000
37.00819 291.000
37.02813 246.000
37.04808 294.000
37.06803 317.000
37.08797 288.000
37.10792 315.000
37.12787 330.000
37.14781 334.000
37.16776 350.000
37.18771 327.000
37.20766 343.000
37.22760 320.000
37.24755 348.000
37.26750 335.000
37.28744 350.000
37.30739 296.000
37.32734 304.000
37.34728 335.000
37.36723 312.000
37.38718 277.000
37.40713 281.000
37.42707 275.000
37.44702 241.000
37.46697 250.000
37.48691 245.000
37.50686 287.000
37.52681 264.000
37.54675 277.000
37.56670 266.000
37.58665 282.000
37.60660 292.000
37.62654 276.000
37.64649 253.000
37.66644 278.000
37.68638 258.000
37.70633 264.000
37.72628 249.000
37.74622 251.000
37.76617 278.000
37.78612 269.000
37.80606 244.000
37.82601 247.000
37.84596 268.000
37.86591 273.000
37.88585 248.000
37.90580 265.000
37.92575 291.000
37.94569 249.000
37.96564 286.000
37.98559 285.000
38.00553 284.000
38.02548 297.000
38.04543 286.000
38.06538 292.000
38.08532 292.000
38.10527 280.000
38.12522 286.000
38.14516 269.000
38.16511 313.000
38.18506 287.000
38.20500 301.000
38.22495 292.000
38.24490 290.000
38.26484 305.000
38.28479 317.000
38.30474 283.000
38.32469 300.000
38.34463 291.000
38.36458 336.000
38.38453 339.000
38.40447 326.000
38.42442 358.000
38.44437 355.000
38.46431 407.000
38.48426 405.000
38.50421 443.000
38.52416 448.000
38.54410 523.000
38.56405 595.000
38.58400 692.000
38.60394 858.000
38.62389 1023.000
38.64384 1410.000
38.66378 1627.000
38.68373 1861.000
38.70368 1901.000
38.72362 1787.000
38.74357 1634.000
38.76352 1613.000
38.78347 1542.000
38.80341 1344.000
38.82336 1223.000
38.84331 1027.000
38.86325 859.000
38.88320 751.000
38.90315 764.000
38.92309 781.000
38.94304 726.000
38.96299 762.000
38.98294 790.000
39.00288 780.000
39.02283 750.000
39.04278 666.000
39.06272 664.000
39.08267 600.000
39.10262 624.000
39.12256 596.000
39.14251 577.000
39.16246 583.000
39.18241 615.000
39.20235 665.000
39.22230 729.000
39.24225 857.000
39.26219 1071.000
39.28214 1314.000
39.30209 1531.000
39.32203 1670.000
39.34198 1796.000
39.36193 1841.000
39.38187 1682.000
39.40182 1454.000
39.42177 1325.000
39.44172 1271.000
39.46166 1191.000
39.48161 1034.000
39.50156 786.000
39.52150 679.000
39.54145 547.000
39.56140 467.000
39.58134 445.000
39.60129 397.000
39.62124 385.000
39.64119 372.000
39.66113 331.000
39.68108 287.000
39.70103 293.000
39.72097 290.000
39.74092 268.000
39.76087 296.000
39.78081 281.000
39.80076 322.000
39.82071 283.000
39.84065 237.000
39.86060 282.000
39.88055 260.000
39.90050 278.000
39.92044 292.000
39.94039 282.000
39.96034 284.000
39.98028 260.000
40.00023 279.000
40.02018 248.000
40.04012 253.000
40.06007 238.000
40.08002 275.000
40.09997 259.000
40.11991 269.000
40.13986 300.000
40.15981 255.000
40.17975 276.000
40.19970 235.000
40.21965 224.000
40.23959 282.000
40.25954 239.000
40.27949 257.000
40.29943 229.000
40.31938 243.000
40.33933 250.000
40.35928 246.000
40.37922 254.000
40.39917 251.000
40.41912 225.000
40.43906 253.000
40.45901 245.000
40.47896 273.000
40.49890 255.000
40.51885 233.000
40.53880 214.000
40.55875 252.000
40.57869 230.000
40.59864 260.000
40.61859 270.000
40.63853 275.000
40.65848 252.000
40.67843 258.000
40.69837 240.000
40.71832 243.000
40.73827 243.000
40.75822 250.000
40.77816 233.000
40.79811 240.000
40.81806 262.000
40.83800 263.000
40.85795 244.000
40.87790 277.000
40.89784 262.000
40.91779 292.000
40.93774 244.000
40.95768 235.000
40.97763 239.000
40.99758 262.000
41.01753 269.000
41.03747 236.000
41.05742 227.000
41.07737 283.000
41.09731 268.000
41.11726 253.000
41.13721 248.000
41.15715 249.000
41.17710 279.000
41.19705 264.000
41.21700 230.000
41.23694 248.000
41.25689 256.000
41.27684 246.000
41.29678 254.000
41.31673 232.000
41.33668 253.000
41.35662 237.000
41.37657 266.000
41.39652 249.000
41.41646 265.000
41.43641 246.000
41.45636 252.000
41.47631 248.000
41.49625 243.000
41.51620 258.000
41.53615 240.000
41.55609 277.000
41.57604 261.000
41.59599 244.000
41.61593 287.000
41.63588 242.000
41.65583 259.000
41.67578 246.000
41.69572 271.000
41.71567 229.000
41.73562 288.000
41.75556 296.000
41.77551 298.000
41.79546 257.000
41.81540 264.000
41.83535 273.000
41.85530 295.000
41.87524 279.000
41.89519 252.000
41.91514 257.000
41.93509 262.000
41.95503 267.000
41.97498 230.000
41.99493 254.000
42.01487 274.000
42.03482 268.000
42.05477 268.000
42.07471 223.000
42.09466 219.000
42.11461 254.000
42.13456 223.000
42.15450 221.000
42.17445 226.000
42.19440 225.000
42.21434 249.000
42.23429 248.000
42.25424 260.000
42.27418 228.000
42.29413 252.000
42.31408 248.000
42.33403 247.000
42.35397 253.000
42.37392 244.000
42.39387 241.000
42.41381 242.000
42.43376 235.000
42.45371 243.000
42.47365 278.000
42.49360 241.000
42.51355 261.000
42.53349 249.000
42.55344 268.000
42.57339 231.000
42.59334 258.000
42.61328 259.000
42.63323 242.000
42.65318 267.000
42.67312 242.000
42.69307 238.000
42.71302 246.000
42.73296 276.000
42.75291 243.000
42.77286 253.000
42.79281 268.000
42.81275 259.000
42.83270 255.000
42.85265 300.000
42.87259 255.000
42.89254 272.000
42.91249 249.000
42.93243 270.000
42.95238 264.000
42.97233 254.000
42.99227 241.000
43.01222 261.000
43.03217 281.000
43.05212 278.000
43.07206 287.000
43.09201 251.000
43.11196 305.000
43.13190 286.000
43.15185 321.000
43.17180 287.000
43.19174 287.000
43.21169 300.000
43.23164 320.000
43.25159 328.000
43.27153 373.000
43.29148 400.000
43.31143 398.000
43.33137 450.000
43.35132 494.000
43.37127 520.000
43.39121 638.000
43.41116 713.000
43.43111 755.000
43.45105 753.000
43.47100 735.000
43.49095 725.000
43.51090 661.000
43.53084 696.000
43.55079 586.000
43.57074 569.000
43.59068 502.000
43.61063 474.000
43.63058 431.000
43.65052 400.000
43.67047 358.000
43.69042 331.000
43.71037 336.000
43.73031 303.000
43.75026 305.000
43.77021 283.000
43.79015 260.000
43.81010 258.000
43.83005 247.000
43.84999 292.000
43.86994 275.000
43.88989 270.000
43.90984 255.000
43.92978 232.000
43.94973 246.000
43.96968 239.000
43.98962 227.000
44.00957 257.000
44.02952 220.000
44.04946 285.000
44.06941 262.000
44.08936 262.000
44.10930 246.000
44.12925 260.000
44.14920 227.000
44.16915 263.000
44.18909 237.000
44.20904 212.000
44.22899 269.000
44.24893 262.000
44.26888 258.000
44.28883 233.000
44.30877 241.000
44.32872 258.000
44.34867 260.000
44.36862 240.000
44.38856 252.000
44.40851 256.000
44.42846 281.000
44.44840 239.000
44.46835 224.000
44.48830 231.000
44.50824 236.000
44.52819 227.000
44.54814 256.000
44.56808 276.000
44.58803 255.000
44.60798 244.000
44.62793 240.000
44.64787 248.000
44.66782 266.000
44.68777 236.000
44.70771 262.000
44.72766 234.000
44.74761 250.000
44.76755 253.000
44.78750 240.000
44.80745 304.000
44.82740 232.000
44.84734 235.000
44.86729 242.000
44.88724 233.000
44.90718 255.000
44.92713 238.000
44.94708 240.000
44.96702 250.000
44.98697 270.000
45.00692 276.000
45.02686 245.000
45.04681 238.000
45.06676 256.000
45.08671 240.000
45.10665 259.000
45.12660 268.000
45.14655 285.000
45.16649 265.000
45.18644 250.000
45.20639 273.000
45.22633 241.000
45.24628 241.000
45.26623 239.000
45.28618 266.000
45.30612 266.000
45.32607 273.000
45.34602 259.000
45.36596 211.000
45.38591 245.000
45.40586 227.000
45.42580 254.000
45.44575 258.000
45.46570 248.000
45.48565 255.000
45.50559 233.000
45.52554 244.000
45.54549 260.000
45.56543 230.000
45.58538 265.000
45.60533 235.000
45.62527 241.000
45.64522 241.000
45.66517 283.000
45.68511 219.000
45.70506 246.000
45.72501 242.000
45.74496 249.000
45.76490 250.000
45.78485 234.000
45.80480 225.000
45.82474 245.000
45.84469 239.000
45.86464 244.000
45.88458 256.000
45.90453 233.000
45.92448 253.000
45.94443 228.000
45.96437 243.000
45.98432 236.000
46.00427 252.000
46.02421 248.000
46.04416 252.000
46.06411 257.000
46.08405 240.000
46.10400 233.000
46.12395 227.000
46.14389 240.000
46.16384 268.000
46.18379 245.000
46.20374 279.000
46.22368 273.000
46.24363 314.000
46.26358 305.000
46.28352 281.000
46.30347 289.000
46.32342 280.000
46.34336 262.000
46.36331 260.000
46.38326 275.000
46.40321 279.000
46.42315 260.000
46.44310 235.000
46.46305 263.000
46.48299 237.000
46.50294 261.000
46.52289 271.000
46.54283 266.000
46.56278 244.000
46.58273 254.000
46.60267 254.000
46.62262 233.000
46.64257 258.000
46.66252 267.000
46.68246 263.000
46.70241 264.000
46.72236 248.000
46.74230 246.000
46.76225 233.000
46.78220 243.000
46.80214 234.000
46.82209 249.000
46.84204 247.000
46.86199 230.000
46.88193 254.000
46.90188 244.000
46.92183 240.000
46.94177 265.000
46.96172 219.000
46.98167 261.000
47.00161 243.000
47.02156 237.000
47.04151 251.000
47.06146 228.000
47.08140 243.000
47.10135 271.000
47.12130 243.000
47.14124 239.000
47.16119 259.000
47.18114 215.000
47.20108 244.000
47.22103 250.000
47.24098 213.000
47.26092 235.000
47.28087 264.000
47.30082 247.000
47.32077 239.000
47.34071 252.000
47.36066 223.000
47.38061 233.000
47.40055 278.000
47.42050 228.000
47.44045 244.000
47.46039 271.000
47.48034 231.000
47.50029 251.000
47.52024 237.000
47.54018 253.000
47.56013 235.000
47.58008 268.000
47.60002 267.000
47.61997 250.000
47.63992 266.000
47.65986 241.000
47.67981 266.000
47.69976 240.000
47.71970 268.000
47.73965 247.000
47.75960 267.000
47.77955 225.000
47.79949 251.000
47.81944 262.000
47.83939 276.000
47.85933 265.000
47.87928 279.000
47.89923 245.000
47.91917 267.000
47.93912 265.000
47.95907 260.000
47.97902 257.000
47.99896 267.000
48.01891 307.000
48.03886 273.000
48.05880 299.000
48.07875 267.000
48.09870 266.000
48.11864 294.000
48.13859 323.000
48.15854 297.000
48.17848 294.000
48.19843 313.000
48.21838 313.000
48.23833 277.000
48.25827 282.000
48.27822 313.000
48.29817 299.000
48.31811 291.000
48.33806 318.000
48.35801 326.000
48.37795 342.000
48.39790 338.000
48.41785 336.000
48.43780 365.000
48.45774 367.000
48.47769 387.000
48.49764 376.000
48.51758 468.000
48.53753 434.000
48.55748 540.000
48.57742 533.000
48.59737 656.000
48.61732 748.000
48.63726 906.000
48.65721 1108.000
48.67716 1343.000
48.69711 1631.000
48.71705 1784.000
48.73700 1834.000
48.75695 1790.000
48.77689 1755.000
48.79684 1706.000
48.81679 1675.000
48.83673 1714.000
48.85668 1590.000
48.87663 1438.000
48.89658 1215.000
48.91652 1072.000
48.93647 1002.000
48.95642 839.000
48.97636 743.000
48.99631 645.000
49.01626 584.000
49.03620 481.000
49.05615 472.000
49.07610 438.000
49.09605 398.000
49.11599 337.000
49.13594 320.000
49.15589 332.000
49.17583 309.000
49.19578 321.000
49.21573 318.000
49.23567 294.000
49.25562 309.000
49.27557 325.000
49.29551 305.000
49.31546 265.000
49.33541 300.000
49.35536 299.000
49.37530 256.000
49.39525 296.000
49.41520 277.000
49.43514 298.000
49.45509 323.000
49.47504 297.000
49.49498 266.000
49.51493 258.000
49.53488 296.000
49.55483 248.000
49.57477 246.000
49.59472 269.000
49.61467 281.000
49.63461 286.000
49.65456 282.000
49.67451 272.000
49.69445 270.000
49.71440 245.000
49.73435 245.000
49.75429 248.000
49.77424 263.000
49.79419 276.000
49.81414 266.000
49.83408 251.000
49.85403 259.000
49.87398 237.000
49.89392 249.000
49.91387 238.000
49.93382 251.000
49.95376 284.000
49.97371 275.000
49.99366 257.000
50.01361 236.000
50.03355 246.000
50.05350 220.000
50.07345 294.000
50.09339 232.000
50.11334 243.000
50.13329 259.000
50.15323 283.000
50.17318 252.000
50.19313 253.000
50.21307 238.000
50.23302 261.000
50.25297 289.000
50.27292 246.000
50.29286 252.000
50.31281 253.000
50.33276 234.000
50.35270 223.000
50.37265 246.000
50.39260 225.000
50.41254 258.000
50.43249 247.000
50.45244 245.000
50.47239 257.000
50.49233 243.000
50.51228 236.000
50.53223 276.000
50.55217 264.000
50.57212 245.000
50.59207 251.000
50.61201 232.000
50.63196 272.000
50.65191 271.000
50.67186 260.000
50.69180 258.000
50.71175 245.000
50.73170 230.000
50.75164 241.000
50.77159 237.000
50.79154 230.000
50.81148 250.000
50.83143 230.000
50.85138 237.000
50.87132 237.000
50.89127 266.000
50.91122 241.000
50.93117 216.000
50.95111 264.000
50.97106 231.000
50.99101 235.000
51.01095 252.000
51.03090 231.000
51.05085 237.000
51.07079 258.000
51.09074 245.000
51.11069 243.000
51.13064 264.000
51.15058 242.000
51.17053 250.000
51.19048 218.000
51.21042 257.000
51.23037 249.000
51.25032 236.000
51.27026 275.000
51.29021 228.000
51.31016 260.000
51.33010 266.000
51.35005 298.000
51.37000 229.000
51.38995 263.000
51.40989 225.000
51.42984 250.000
51.44979 278.000
51.46973 307.000
51.48968 244.000
51.50963 267.000
51.52957 257.000
51.54952 234.000
51.56947 254.000
51.58942 260.000
51.60936 263.000
51.62931 224.000
51.64926 236.000
51.66920 228.000
51.68915 236.000
51.70910 270.000
51.72904 259.000
51.74899 249.000
51.76894 281.000
51.78888 250.000
51.80883 228.000
51.82878 233.000
51.84873 239.000
51.86867 249.000
51.88862 246.000
51.90857 267.000
51.92851 272.000
51.94846 262.000
51.96841 266.000
51.98835 230.000
52.00830 273.000
52.02825 266.000
52.04820 268.000
52.06814 271.000
52.08809 283.000
52.10804 289.000
52.12798 287.000
52.14793 256.000
52.16788 256.000
52.18782 258.000
52.20777 251.000
52.22772 281.000
52.24767 265.000
52.26761 256.000
52.28756 280.000
52.30751 262.000
52.32745 271.000
52.34740 264.000
52.36735 229.000
52.38729 228.000
52.40724 246.000
52.42719 256.000
52.44713 262.000
52.46708 223.000
52.48703 249.000
52.50698 248.000
52.52692 220.000
52.54687 260.000
52.56682 258.000
52.58676 273.000
52.60671 256.000
52.62666 242.000
52.64660 249.000
52.66655 262.000
52.68650 255.000
52.70645 245.000
52.72639 285.000
52.74634 231.000
52.76629 226.000
52.78623 218.000
52.80618 232.000
52.82613 224.000
52.84607 259.000
52.86602 268.000
52.88597 235.000
52.90591 237.000
52.92586 245.000
52.94581 256.000
52.96576 252.000
52.98570 241.000
53.00565 271.000
53.02560 283.000
53.04554 265.000
53.06549 254.000
53.08544 243.000
53.10538 260.000
53.12533 258.000
53.14528 258.000
53.16523 272.000
53.18517 278.000
53.20512 251.000
53.22507 297.000
53.24501 251.000
53.26496 282.000
53.28491 300.000
53.30485 315.000
53.32480 320.000
53.34475 329.000
53.36469 304.000
53.38464 354.000
53.40459 310.000
53.42454 320.000
53.44448 334.000
53.46443 339.000
53.48438 330.000
53.50432 346.000
53.52427 313.000
53.54422 319.000
53.56416 343.000
53.58411 285.000
53.60406 314.000
53.62401 280.000
53.64395 286.000
53.66390 285.000
53.68385 286.000
53.70379 301.000
53.72374 257.000
53.74369 278.000
53.76363 263.000
53.78358 279.000
53.80353 235.000
53.82348 270.000
53.84342 271.000
53.86337 242.000
53.88332 278.000
53.90326 255.000
53.92321 240.000
53.94316 254.000
53.96310 272.000
53.98305 253.000
54.00300 269.000
54.02294 254.000
54.04289 264.000
54.06284 253.000
54.08279 233.000
54.10273 241.000
54.12268 222.000
54.14263 227.000
54.16257 248.000
54.18252 263.000
54.20247 237.000
54.22241 238.000
54.24236 242.000
54.26231 233.000
54.28226 234.000
54.30220 230.000
54.32215 243.000
54.34210 266.000
54.36204 236.000
54.38199 245.000
54.40194 242.000
54.42188 256.000
54.44183 240.000
54.46178 216.000
54.48172 242.000
54.50167 256.000
54.52162 259.000
54.54157 263.000
54.56151 257.000
54.58146 247.000
54.60141 250.000
54.62135 262.000
54.64130 252.000
54.66125 269.000
54.68119 225.000
54.70114 262.000
54.72109 232.000
54.74104 247.000
54.76098 258.000
54.78093 239.000
54.80088 243.000
54.82082 228.000
54.84077 242.000
54.86072 250.000
54.88066 263.000
54.90061 258.000
54.92056 228.000
54.94050 233.000
54.96045 266.000
54.98040 252.000
55.00035 266.000
55.02029 235.000
55.04024 248.000
55.06019 243.000
55.08013 229.000
55.10008 253.000
55.12003 252.000
55.13997 229.000
55.15992 235.000
55.17987 234.000
55.19982 239.000
55.21976 263.000
55.23971 234.000
55.25966 236.000
55.27960 232.000
55.29955 264.000
55.31950 237.000
55.33944 218.000
55.35939 251.000
55.37934 251.000
55.39929 260.000
55.41923 272.000
55.43918 235.000
55.45913 224.000
55.47907 251.000
55.49902 230.000
55.51897 234.000
55.53891 246.000
55.55886 271.000
55.57881 209.000
55.59875 234.000
55.61870 239.000
55.63865 263.000
55.65860 215.000
55.67854 222.000
55.69849 217.000
55.71844 245.000
55.73838 250.000
55.75833 251.000
55.77828 250.000
55.79822 245.000
55.81817 247.000
55.83812 231.000
55.85807 245.000
55.87801 243.000
55.89796 227.000
55.91791 258.000
55.93785 229.000
55.95780 233.000
55.97775 233.000
55.99769 256.000
56.01764 256.000
56.03759 262.000
56.05753 226.000
56.07748 229.000
56.09743 247.000
56.11738 251.000
56.13732 242.000
56.15727 241.000
56.17722 235.000
56.19716 263.000
56.21711 269.000
56.23706 237.000
56.25700 266.000
56.27695 247.000
56.29690 252.000
56.31685 256.000
56.33679 238.000
56.35674 243.000
56.37669 230.000
56.39663 241.000
56.41658 223.000
56.43653 198.000
56.45647 246.000
56.47642 269.000
56.49637 237.000
56.51631 251.000
56.53626 255.000
56.55621 268.000
56.57616 238.000
56.59610 256.000
56.61605 255.000
56.63600 234.000
56.65594 260.000
56.67589 237.000
56.69584 248.000
56.71578 242.000
56.73573 228.000
56.75568 266.000
56.77563 240.000
56.79557 240.000
56.81552 250.000
56.83547 252.000
56.85541 265.000
56.87536 266.000
56.89531 244.000
56.91525 232.000
56.93520 281.000
56.95515 206.000
56.97510 236.000
56.99504 243.000
57.01499 213.000
57.03494 264.000
57.05488 257.000
57.07483 235.000
57.09478 259.000
57.11472 232.000
57.13467 238.000
57.15462 248.000
57.17456 254.000
57.19451 256.000
57.21446 284.000
57.23441 256.000
57.25435 277.000
57.27430 240.000
57.29425 261.000
57.31419 238.000
57.33414 264.000
57.35409 262.000
57.37403 256.000
57.39398 258.000
57.41393 264.000
57.43388 261.000
57.45382 238.000
57.47377 244.000
57.49372 281.000
57.51366 256.000
57.53361 258.000
57.55356 266.000
57.57350 235.000
57.59345 231.000
57.61340 257.000
57.63334 253.000
57.65329 254.000
57.67324 246.000
57.69319 244.000
57.71313 261.000
57.73308 253.000
57.75303 252.000
57.77297 270.000
57.79292 245.000
57.81287 225.000
57.83281 267.000
57.85276 251.000
57.87271 237.000
57.89266 273.000
57.91260 249.000
57.93255 269.000
57.95250 236.000
57.97244 262.000
57.99239 230.000
58.01234 288.000
58.03228 268.000
58.05223 247.000
58.07218 291.000
58.09212 255.000
58.11207 308.000
58.13202 280.000
58.15197 304.000
58.17191 307.000
58.19186 349.000
58.21181 381.000
58.23175 392.000
58.25170 410.000
58.27165 427.000
58.29159 445.000
58.31154 439.000
58.33149 417.000
58.35144 404.000
58.37138 392.000
58.39133 387.000
58.41128 375.000
58.43122 378.000
58.45117 364.000
58.47112 378.000
58.49106 345.000
58.51101 325.000
58.53096 304.000
58.55090 293.000
58.57085 286.000
58.59080 250.000
58.61075 276.000
58.63069 249.000
58.65064 265.000
58.67059 266.000
58.69053 242.000
58.71048 233.000
58.73043 257.000
58.75037 239.000
58.77032 267.000
58.79027 258.000
58.81022 244.000
58.83016 230.000
58.85011 243.000
58.87006 273.000
58.89000 243.000
58.90995 271.000
58.92990 242.000
58.94984 247.000
58.96979 222.000
58.98974 226.000
59.00969 258.000
59.02963 267.000
59.04958 247.000
59.06953 226.000
59.08947 249.000
59.10942 244.000
59.12937 211.000
59.14931 274.000
59.16926 241.000
59.18921 252.000
59.20915 255.000
59.22910 250.000
59.24905 257.000
59.26900 239.000
59.28894 247.000
59.30889 259.000
59.32884 244.000
59.34878 250.000
59.36873 260.000
59.38868 253.000
59.40862 240.000
59.42857 255.000
59.44852 237.000
59.46847 259.000
59.48841 260.000
59.50836 261.000
59.52831 236.000
59.54825 254.000
59.56820 248.000
59.58815 231.000
59.60809 251.000
59.62804 236.000
59.64799 253.000
59.66793 238.000
59.68788 246.000
59.70783 256.000
59.72778 253.000
59.74772 249.000
59.76767 235.000
59.78762 231.000
59.80756 251.000
59.82751 261.000
59.84746 273.000
59.86740 224.000
59.88735 233.000
59.90730 230.000
59.92725 266.000
59.94719 224.000
59.96714 257.000
59.98709 274.000
60.00703 248.000
60.02698 217.000
60.04693 264.000
60.06687 243.000
60.08682 248.000
60.10677 246.000
60.12671 258.000
60.14666 244.000
60.16661 258.000
60.18656 245.000
60.20650 240.000
60.22645 279.000
60.24640 232.000
60.26634 266.000
60.28629 247.000
60.30624 235.000
60.32618 239.000
60.34613 243.000
60.36608 260.000
60.38603 221.000
60.40597 249.000
60.42592 253.000
60.44587 263.000
60.46581 252.000
60.48576 260.000
60.50571 237.000
60.52565 253.000
60.54560 244.000
60.56555 273.000
60.58550 256.000
60.60544 248.000
60.62539 249.000
60.64534 264.000
60.66528 261.000
60.68523 246.000
60.70518 232.000
60.72512 221.000
60.74507 255.000
60.76502 287.000
60.78496 234.000
60.80491 282.000
60.82486 267.000
60.84481 251.000
60.86475 246.000
60.88470 235.000
60.90465 257.000
60.92459 280.000
60.94454 248.000
60.96449 292.000
60.98443 263.000
61.00438 268.000
61.02433 217.000
61.04428 267.000
61.06422 234.000
61.08417 242.000
61.10412 258.000
61.12406 295.000
61.14401 256.000
61.16396 295.000
61.18390 267.000
61.20385 280.000
61.22380 277.000
61.24374 301.000
61.26369 280.000
61.28364 297.000
61.30359 304.000
61.32353 285.000
61.34348 291.000
61.36343 301.000
61.38337 329.000
61.40332 347.000
61.42327 326.000
61.44321 354.000
61.46316 385.000
61.48311 459.000
61.50306 510.000
61.52300 579.000
61.54295 540.000
61.56290 582.000
61.58284 560.000
61.60279 502.000
61.62274 522.000
61.64268 498.000
61.66263 501.000
61.68258 511.000
61.70252 538.000
61.72247 510.000
61.74242 500.000
61.76237 477.000
61.78231 479.000
61.80226 504.000
61.82221 502.000
61.84215 549.000
61.86210 575.000
61.88205 579.000
61.90199 639.000
61.92194 693.000
61.94189 776.000
61.96184 791.000
61.98178 821.000
62.00173 811.000
62.02168 723.000
62.04162 735.000
62.06157 677.000
62.08152 700.000
62.10146 647.000
62.12141 629.000
62.14136 663.000
62.16131 640.000
62.18125 566.000
62.20120 532.000
62.22115 492.000
62.24109 448.000
62.26104 437.000
62.28099 398.000
62.30093 415.000
62.32088 365.000
62.34083 316.000
62.36077 312.000
62.38072 311.000
62.40067 295.000
62.42062 278.000
62.44056 316.000
62.46051 311.000
62.48046 307.000
62.50040 272.000
62.52035 291.000
62.54030 313.000
62.56024 303.000
62.58019 302.000
62.60014 268.000
62.62009 268.000
62.64003 252.000
62.65998 274.000
62.67993 293.000
62.69987 255.000
62.71982 271.000
62.73977 302.000
62.75971 310.000
62.77966 263.000
62.79961 278.000
62.81955 295.000
62.83950 285.000
62.85945 280.000
62.87940 290.000
62.89934 299.000
62.91929 261.000
62.93924 264.000
62.95918 247.000
62.97913 262.000
62.99908 268.000
63.01902 277.000
63.03897 274.000
63.05892 252.000
63.07887 246.000
63.09881 243.000
63.11876 251.000
63.13871 244.000
63.15865 245.000
63.17860 232.000
63.19855 262.000
63.21849 250.000
63.23844 264.000
63.25839 277.000
63.27833 253.000
63.29828 286.000
63.31823 251.000
63.33818 268.000
63.35812 236.000
63.37807 269.000
63.39802 262.000
63.41796 228.000
63.43791 260.000
63.45786 286.000
63.47780 240.000
63.49775 260.000
63.51770 241.000
63.53765 265.000
63.55759 270.000
63.57754 247.000
63.59749 273.000
63.61743 263.000
63.63738 239.000
63.65733 257.000
63.67727 263.000
63.69722 253.000
63.71717 260.000
63.73712 266.000
63.75706 289.000
63.77701 279.000
63.79696 243.000
63.81690 276.000
63.83685 313.000
63.85680 286.000
63.87674 288.000
63.89669 262.000
63.91664 286.000
63.93658 310.000
63.95653 340.000
63.97648 367.000
63.99643 339.000
64.01637 348.000
64.03632 360.000
64.05627 414.000
64.07621 402.000
64.09616 429.000
64.11611 409.000
64.13605 449.000
64.15600 473.000
64.17595 509.000
64.19590 512.000
64.21584 584.000
64.23579 547.000
64.25574 615.000
64.27568 617.000
64.29563 582.000
64.31558 585.000
64.33552 563.000
64.35547 559.000
64.37542 552.000
64.39536 492.000
64.41531 484.000
64.43526 493.000
64.45521 464.000
64.47515 426.000
64.49510 466.000
64.51505 426.000
64.53499 424.000
64.55494 338.000
64.57489 359.000
64.59483 329.000
64.61478 349.000
64.63473 291.000
64.65468 328.000
64.67462 294.000
64.69457 299.000
64.71452 300.000
64.73446 300.000
64.75441 247.000
64.77436 287.000
64.79430 303.000
64.81425 266.000
64.83420 277.000
64.85414 281.000
64.87409 251.000
64.89404 243.000
64.91399 252.000
64.93393 274.000
64.95388 270.000
64.97383 270.000
64.99377 291.000
65.01372 257.000
65.03367 277.000
65.05361 272.000
65.07356 287.000
65.09351 296.000
65.11346 259.000
65.13340 276.000
65.15335 280.000
65.17330 241.000
65.19324 272.000
65.21319 274.000
65.23314 274.000
65.25308 276.000
65.27303 273.000
65.29298 281.000
65.31293 257.000
65.33287 281.000
65.35282 277.000
65.37277 257.000
65.39271 257.000
65.41266 279.000
65.43261 300.000
65.45255 277.000
65.47250 280.000
65.49245 265.000
65.51239 307.000
65.53234 322.000
65.55229 334.000
65.57224 326.000
65.59218 334.000
65.61213 369.000
65.63208 341.000
65.65202 343.000
65.67197 398.000
65.69192 405.000
65.71186 381.000
65.73181 384.000
65.75176 432.000
65.77171 455.000
65.79165 385.000
65.81160 411.000
65.83155 394.000
65.85149 410.000
65.87144 396.000
65.89139 384.000
65.91133 368.000
65.93128 362.000
65.95123 336.000
65.97117 370.000
65.99112 334.000
66.01107 306.000
66.03102 324.000
66.05096 314.000
66.07091 356.000
66.09086 342.000
66.11080 328.000
66.13075 345.000
66.15070 338.000
66.17064 358.000
66.19059 359.000
66.21054 381.000
66.23049 394.000
66.25043 408.000
66.27038 455.000
66.29033 443.000
66.31027 466.000
66.33022 492.000
66.35017 504.000
66.37011 509.000
66.39006 485.000
66.41001 430.000
66.42995 453.000
66.44990 494.000
66.46985 440.000
66.48980 502.000
66.50974 539.000
66.52969 491.000
66.54964 508.000
66.56958 501.000
66.58953 475.000
66.60948 491.000
66.62942 480.000
66.64937 456.000
66.66932 487.000
66.68927 456.000
66.70921 460.000
66.72916 464.000
66.74911 502.000
66.76905 507.000
66.78900 483.000
66.80895 495.000
66.82889 510.000
66.84884 454.000
66.86879 438.000
66.88874 448.000
66.90868 492.000
66.92863 428.000
66.94858 434.000
66.96852 395.000
66.98847 390.000
67.00842 388.000
67.02836 387.000
67.04831 370.000
67.06826 321.000
67.08820 320.000
67.10815 336.000
67.12810 292.000
67.14805 346.000
67.16799 327.000
67.18794 307.000
67.20789 287.000
67.22783 303.000
67.24778 261.000
67.26773 252.000
67.28767 299.000
67.30762 282.000
67.32757 278.000
67.34752 282.000
67.36746 242.000
67.38741 270.000
67.40736 280.000
67.42730 277.000
67.44725 255.000
67.46720 269.000
67.48714 255.000
67.50709 242.000
67.52704 250.000
67.54698 256.000
67.56693 302.000
67.58688 282.000
67.60683 273.000
67.62677 285.000
67.64672 269.000
67.66667 297.000
67.68661 263.000
67.70656 312.000
67.72651 313.000
67.74645 316.000
67.76640 326.000
67.78635 353.000
67.80630 349.000
67.82624 378.000
67.84619 387.000
67.86614 382.000
67.88608 376.000
67.90603 397.000
67.92598 359.000
67.94592 397.000
67.96587 386.000
67.98582 423.000
68.00576 439.000
68.02571 465.000
68.04566 426.000
68.06561 425.000
68.08555 421.000
68.10550 431.000
68.12545 388.000
68.14539 390.000
68.16534 411.000
68.18529 371.000
68.20523 346.000
68.22518 374.000
68.24513 352.000
68.26508 347.000
68.28502 332.000
68.30497 330.000
68.32492 336.000
68.34486 314.000
68.36481 304.000
68.38476 279.000
68.40470 297.000
68.42465 268.000
68.44460 279.000
68.46455 267.000
68.48449 292.000
68.50444 277.000
68.52439 253.000
68.54433 255.000
68.56428 253.000
68.58423 271.000
68.60417 264.000
68.62412 247.000
68.64407 254.000
68.66401 227.000
68.68396 260.000
68.70391 263.000
68.72386 265.000
68.74380 271.000
68.76375 261.000
68.78370 271.000
68.80364 237.000
68.82359 231.000
68.84354 232.000
68.86348 244.000
68.88343 273.000
68.90338 239.000
68.92333 263.000
68.94327 244.000
68.96322 252.000
68.98317 227.000
69.00311 236.000
69.02306 264.000
69.04301 267.000
69.06295 257.000
69.08290 237.000
69.10285 228.000
69.12279 247.000
69.14274 233.000
69.16269 226.000
69.18264 221.000
69.20258 226.000
69.22253 266.000
69.24248 233.000
69.26242 258.000
69.28237 249.000
69.30232 226.000
69.32226 236.000
69.34221 241.000
69.36216 249.000
69.38211 261.000
69.40205 238.000
69.42200 240.000
69.44195 232.000
69.46189 236.000
69.48184 270.000
69.50179 240.000
69.52173 254.000
69.54168 265.000
69.56163 225.000
69.58157 244.000
69.60152 255.000
69.62147 228.000
69.64142 271.000
69.66136 212.000
69.68131 230.000
69.70126 240.000
69.72120 258.000
69.74115 280.000
69.76110 257.000
69.78104 259.000
69.80099 243.000
69.82094 220.000
69.84089 253.000
69.86083 240.000
69.88078 253.000
69.90073 231.000
69.92067 267.000
69.94062 248.000
69.96057 222.000
69.98051 229.000
70.00046 220.000
70.02041 257.000
70.04035 241.000
70.06030 261.000
70.08025 245.000
70.10020 256.000
70.12014 251.000
70.14009 238.000
70.16004 250.000
70.17998 249.000
70.19993 242.000
70.21988 256.000
70.23982 246.000
70.25977 224.000
70.27972 281.000
70.29967 261.000
70.31961 250.000
70.33956 240.000
70.35951 248.000
70.37945 229.000
70.39940 248.000
70.41935 236.000
70.43929 218.000
70.45924 225.000
70.47919 249.000
70.49914 228.000
70.51908 256.000
70.53903 259.000
70.55898 241.000
70.57892 249.000
70.59887 243.000
70.61882 243.000
70.63876 232.000
70.65871 218.000
70.67866 227.000
70.69860 249.000
70.71855 243.000
70.73850 254.000
70.75845 241.000
70.77839 272.000
70.79834 248.000
70.81829 254.000
70.83823 242.000
70.85818 262.000
70.87813 231.000
70.89807 262.000
70.91802 213.000
70.93797 252.000
70.95792 258.000
70.97786 233.000
70.99781 245.000
71.01776 246.000
71.03770 233.000
71.05765 213.000
71.07760 264.000
71.09754 233.000
71.11749 202.000
71.13744 261.000
71.15738 247.000
71.17733 215.000
71.19728 225.000
71.21723 262.000
71.23717 222.000
71.25712 238.000
71.27707 258.000
71.29701 232.000
71.31696 234.000
71.33691 244.000
71.35685 238.000
71.37680 267.000
71.39675 241.000
71.41670 238.000
71.43664 242.000
71.45659 243.000
71.47654 239.000
71.49648 256.000
71.51643 238.000
71.53638 254.000
71.55632 265.000
71.57627 235.000
71.59622 241.000
71.61616 248.000
71.63611 239.000
71.65606 249.000
71.67601 240.000
71.69595 269.000
71.71590 245.000
71.73585 244.000
71.75579 240.000
71.77574 250.000
71.79569 244.000
71.81563 234.000
71.83558 244.000
71.85553 236.000
71.87548 266.000
71.89542 248.000
71.91537 244.000
71.93532 259.000
71.95526 234.000
71.97521 240.000
71.99516 256.000
72.01510 267.000
72.03505 282.000
72.05500 273.000
72.07495 263.000
72.09489 238.000
72.11484 226.000
72.13479 235.000
72.15473 237.000
72.17468 242.000
72.19463 228.000
72.21457 264.000
72.23452 293.000
72.25447 271.000
72.27441 249.000
72.29436 289.000
72.31431 314.000
72.33426 314.000
72.35420 291.000
72.37415 292.000
72.39410 312.000
72.41404 290.000
72.43399 311.000
72.45394 329.000
72.47388 306.000
72.49383 334.000
72.51378 327.000
72.53373 310.000
72.55367 266.000
72.57362 306.000
72.59357 289.000
72.61351 328.000
72.63346 297.000
72.65341 270.000
72.67335 301.000
72.69330 278.000
72.71325 270.000
72.73319 268.000
72.75314 269.000
72.77309 263.000
72.79304 283.000
72.81298 256.000
72.83293 251.000
72.85288 272.000
72.87282 264.000
72.89277 234.000
72.91272 295.000
72.93266 262.000
72.95261 258.000
72.97256 235.000
72.99251 236.000
73.01245 257.000
73.03240 255.000
73.05235 273.000
73.07229 267.000
73.09224 250.000
73.11219 249.000
73.13213 298.000
73.15208 239.000
73.17203 249.000
73.19197 264.000
73.21192 260.000
73.23187 233.000
73.25182 262.000
73.27176 251.000
73.29171 263.000
73.31166 279.000
73.33160 272.000
73.35155 273.000
73.37150 266.000
73.39144 305.000
73.41139 269.000
73.43134 286.000
73.45129 305.000
73.47123 330.000
73.49118 332.000
73.51113 316.000
73.53107 339.000
73.55102 377.000
73.57097 334.000
73.59091 343.000
73.61086 336.000
73.63081 336.000
73.65076 336.000
73.67070 334.000
73.69065 326.000
73.71060 318.000
73.73054 327.000
73.75049 322.000
73.77044 275.000
73.79038 302.000
73.81033 313.000
73.83028 304.000
73.85022 298.000
73.87017 263.000
73.89012 282.000
73.91007 267.000
73.93001 270.000
73.94996 291.000
73.96991 243.000
73.98985 287.000
74.00980 268.000
74.02975 245.000
74.04969 223.000
74.06964 236.000
74.08959 255.000
74.10954 285.000
74.12948 260.000
74.14943 221.000
74.16938 229.000
74.18932 266.000
74.20927 240.000
74.22922 242.000
74.24916 258.000
74.26911 264.000
74.28906 247.000
74.30900 265.000
74.32895 252.000
74.34890 234.000
74.36885 224.000
74.38879 224.000
74.40874 254.000
74.42869 274.000
74.44863 239.000
74.46858 243.000
74.48853 265.000
74.50847 265.000
74.52842 281.000
74.54837 249.000
74.56832 258.000
74.58826 250.000
74.60821 246.000
74.62816 289.000
74.64810 260.000
74.66805 243.000
74.68800 240.000
74.70794 228.000
74.72789 292.000
74.74784 230.000
74.76778 261.000
74.78773 249.000
74.80768 280.000
74.82763 278.000
74.84757 248.000
74.86752 316.000
74.88747 292.000
74.90741 295.000
74.92736 283.000
74.94731 282.000
74.96725 313.000
74.98720 320.000
75.00715 348.000
75.02710 323.000
75.04704 330.000
75.06699 286.000
75.08694 295.000
75.10688 308.000
75.12683 325.000
75.14678 346.000
75.16672 346.000
75.18667 342.000
75.20662 330.000
75.22657 385.000
75.24651 345.000
75.26646 315.000
75.28641 328.000
75.30635 310.000
75.32630 308.000
75.34625 310.000
75.36619 315.000
75.38614 286.000
75.40609 301.000
75.42603 306.000
75.44598 295.000
75.46593 304.000
75.48588 323.000
75.50582 284.000
75.52577 292.000
75.54572 293.000
75.56566 272.000
75.58561 255.000
75.60556 289.000
75.62550 288.000
75.64545 293.000
75.66540 277.000
75.68535 295.000
75.70529 300.000
75.72524 272.000
75.74519 299.000
75.76513 263.000
75.78508 264.000
75.80503 259.000
75.82497 289.000
75.84492 247.000
75.86487 305.000
75.88481 264.000
75.90476 276.000
75.92471 277.000
75.94466 277.000
75.96460 284.000
75.98455 269.000
76.00450 270.000
76.02444 265.000
76.04439 246.000
76.06434 259.000
76.08428 263.000
76.10423 293.000
76.12418 281.000
76.14413 276.000
76.16407 254.000
76.18402 251.000
76.20397 233.000
76.22391 270.000
76.24386 253.000
76.26381 237.000
76.28375 247.000
76.30370 235.000
76.32365 260.000
76.34359 255.000
76.36354 262.000
76.38349 224.000
76.40344 236.000
76.42338 279.000
76.44333 259.000
76.46328 230.000
76.48322 215.000
76.50317 244.000
76.52312 247.000
76.54306 258.000
76.56301 232.000
76.58296 275.000
76.60291 239.000
76.62285 234.000
76.64280 251.000
76.66275 212.000
76.68269 251.000
76.70264 239.000
76.72259 224.000
76.74253 258.000
76.76248 249.000
76.78243 213.000
76.80238 251.000
76.82232 226.000
76.84227 227.000
76.86222 251.000
76.88216 244.000
76.90211 275.000
76.92206 222.000
76.94200 258.000
76.96195 210.000
76.98190 255.000
77.00184 237.000
77.02179 227.000
77.04174 253.000
77.06169 232.000
77.08163 252.000
77.10158 215.000
77.12153 225.000
77.14147 273.000
77.16142 245.000
77.18137 243.000
77.20131 266.000
77.22126 230.000
77.24121 243.000
77.26116 219.000
77.28110 240.000
77.30105 280.000
77.32100 229.000
77.34094 259.000
77.36089 259.000
77.38084 238.000
77.40078 216.000
77.42073 239.000
77.44068 248.000
77.46062 249.000
77.48057 241.000
77.50052 299.000
77.52047 230.000
77.54041 254.000
77.56036 248.000
77.58031 252.000
77.60025 222.000
77.62020 265.000
77.64015 277.000
77.66009 258.000
77.68004 267.000
77.69999 259.000
77.71994 267.000
77.73988 259.000
77.75983 264.000
77.77978 294.000
77.79972 289.000
77.81967 279.000
77.83962 325.000
77.85956 303.000
77.87951 283.000
77.89946 315.000
77.91940 297.000
77.93935 336.000
77.95930 323.000
77.97925 328.000
77.99919 356.000
78.01914 371.000
78.03909 362.000
78.05903 371.000
78.07898 375.000
78.09893 404.000
78.11887 380.000
78.13882 430.000
78.15877 417.000
78.17872 408.000
78.19866 438.000
78.21861 391.000
78.23856 386.000
78.25850 416.000
78.27845 405.000
78.29840 386.000
78.31834 394.000
78.33829 379.000
78.35824 409.000
78.37819 366.000
78.39813 368.000
78.41808 374.000
78.43803 370.000
78.45797 330.000
78.47792 344.000
78.49787 310.000
78.51781 342.000
78.53776 321.000
78.55771 324.000
78.57765 285.000
78.59760 273.000
78.61755 276.000
78.63750 275.000
78.65744 278.000
78.67739 303.000
78.69734 260.000
78.71728 227.000
78.73723 254.000
78.75718 252.000
78.77712 253.000
78.79707 253.000
78.81702 261.000
78.83697 266.000
78.85691 235.000
78.87686 256.000
78.89681 245.000
78.91675 248.000
78.93670 239.000
78.95665 253.000
78.97659 272.000
78.99654 242.000
79.01649 260.000
79.03643 262.000
79.05638 239.000
79.07633 255.000
79.09628 241.000
79.11622 277.000
79.13617 246.000
79.15612 242.000
79.17606 296.000
79.19601 262.000
79.21596 290.000
79.23590 260.000
79.25585 233.000
79.27580 249.000
79.29575 239.000
79.31569 263.000
79.33564 276.000
79.35559 248.000
79.37553 240.000
79.39548 242.000
79.41543 224.000
79.43537 239.000
79.45532 230.000
79.47527 245.000
79.49521 229.000
79.51516 259.000
79.53511 230.000
79.55506 283.000
79.57500 215.000
79.59495 269.000
79.61490 241.000
79.63484 231.000
79.65479 257.000
79.67474 233.000
79.69468 275.000
79.71463 251.000
79.73458 253.000
79.75453 248.000
79.77447 241.000
79.79442 251.000
79.81437 234.000
79.83431 272.000
79.85426 251.000
79.87421 267.000
79.89415 235.000
79.91410 250.000
79.93405 229.000
79.95399 242.000
79.97394 237.000
79.99389 270.000
80.01384 232.000
80.03378 249.000
80.05373 238.000
80.07368 262.000
80.09362 228.000
80.11357 246.000
80.13352 243.000
80.15346 247.000
80.17341 238.000
80.19336 270.000
80.21331 282.000
80.23325 292.000
80.25320 288.000
80.27315 277.000
80.29309 273.000
80.31304 261.000
80.33299 269.000
80.35293 284.000
80.37288 259.000
80.39283 241.000
80.41278 273.000
80.43272 265.000
80.45267 269.000
80.47262 253.000
80.49256 254.000
80.51251 277.000
80.53246 250.000
80.55240 260.000
80.57235 253.000
80.59230 251.000
80.61224 255.000
80.63219 266.000
80.65214 254.000
80.67209 247.000
80.69203 261.000
80.71198 272.000
80.73193 283.000
80.75187 246.000
80.77182 253.000
80.79177 277.000
80.81171 285.000
80.83166 267.000
80.85161 257.000
80.87156 246.000
80.89150 283.000
80.91145 248.000
80.93140 236.000
80.95134 251.000
80.97129 239.000
80.99124 269.000
81.01118 260.000
81.03113 255.000
81.05108 256.000
81.07102 278.000
81.09097 264.000
81.11092 280.000
81.13087 247.000
81.15081 253.000
81.17076 239.000
81.19071 270.000
81.21065 228.000
81.23060 235.000
81.25055 209.000
81.27049 240.000
81.29044 234.000
81.31039 279.000
81.33034 234.000
81.35028 243.000
81.37023 237.000
81.39018 244.000
81.41012 259.000
81.43007 233.000
81.45002 254.000
81.46996 258.000
81.48991 243.000
81.50986 237.000
81.52980 214.000
81.54975 220.000
81.56970 242.000
81.58965 246.000
81.60959 258.000
81.62954 252.000
81.64949 243.000
81.66943 260.000
81.68938 249.000
81.70933 223.000
81.72927 244.000
81.74922 244.000
81.76917 251.000
81.78912 249.000
81.80906 227.000
81.82901 240.000
81.84896 266.000
81.86890 234.000
81.88885 219.000
81.90880 246.000
81.92874 233.000
81.94869 257.000
81.96864 240.000
81.98859 268.000
82.00853 249.000
82.02848 242.000
82.04843 235.000
82.06837 243.000
82.08832 234.000
82.10827 244.000
82.12821 277.000
82.14816 264.000
82.16811 269.000
82.18805 267.000
82.20800 255.000
82.22795 268.000
82.24790 247.000
82.26784 267.000
82.28779 292.000
82.30774 271.000
82.32768 306.000
82.34763 285.000
82.36758 299.000
82.38752 266.000
82.40747 271.000
82.42742 281.000
82.44737 292.000
82.46731 322.000
82.48726 293.000
82.50721 305.000
82.52715 282.000
82.54710 283.000
82.56705 294.000
82.58699 282.000
82.60694 268.000
82.62689 274.000
82.64683 280.000
82.66678 283.000
82.68673 312.000
82.70668 267.000
82.72662 264.000
82.74657 323.000
82.76652 286.000
82.78646 269.000
82.80641 274.000
82.82636 246.000
82.84630 299.000
82.86625 299.000
82.88620 277.000
82.90615 283.000
82.92609 282.000
82.94604 289.000
82.96599 296.000
82.98593 263.000
83.00588 269.000
83.02583 284.000
83.04577 278.000
83.06572 266.000
83.08567 293.000
83.10561 275.000
83.12556 271.000
83.14551 256.000
83.16546 240.000
83.18540 261.000
83.20535 264.000
83.22530 261.000
83.24524 260.000
83.26519 278.000
83.28514 287.000
83.30508 250.000
83.32503 259.000
83.34498 244.000
83.36493 275.000
83.38487 277.000
83.40482 268.000
83.42477 279.000
83.44471 251.000
83.46466 272.000
83.48461 279.000
83.50455 274.000
83.52450 284.000
83.54445 290.000
83.56440 258.000
83.58434 299.000
83.60429 251.000
83.62424 279.000
83.64418 264.000
83.66413 273.000
83.68408 283.000
83.70402 276.000
83.72397 271.000
83.74392 281.000
83.76386 278.000
83.78381 273.000
83.80376 295.000
83.82371 273.000
83.84365 293.000
83.86360 284.000
83.88355 266.000
83.90349 242.000
83.92344 301.000
83.94339 285.000
83.96333 249.000
83.98328 301.000
84.00323 254.000
84.02318 253.000
84.04312 266.000
84.06307 279.000
84.08302 259.000
84.10296 242.000
84.12291 250.000
84.14286 273.000
84.16280 243.000
84.18275 269.000
84.20270 308.000
84.22264 292.000
84.24259 279.000
84.26254 262.000
84.28249 273.000
84.30243 268.000
84.32238 270.000
84.34233 290.000
84.36227 281.000
84.38222 278.000
84.40217 280.000
84.42211 273.000
84.44206 312.000
84.46201 314.000
84.48196 327.000
84.50190 328.000
84.52185 351.000
84.54180 321.000
84.56174 331.000
84.58169 330.000
84.60164 351.000
84.62158 322.000
84.64153 341.000
84.66148 344.000
84.68142 382.000
84.70137 349.000
84.72132 366.000
84.74127 343.000
84.76121 328.000
84.78116 294.000
84.80111 317.000
84.82105 310.000
84.84100 304.000
84.86095 288.000
84.88089 362.000
84.90084 293.000
84.92079 304.000
84.94074 308.000
84.96068 261.000
84.98063 292.000
85.00058 262.000
85.02052 285.000
85.04047 267.000
85.06042 294.000
85.08036 280.000
85.10031 252.000
85.12026 258.000
85.14021 253.000
85.16015 239.000
85.18010 263.000
85.20005 243.000
85.21999 269.000
85.23994 246.000
85.25989 245.000
85.27983 243.000
85.29978 269.000
85.31973 261.000
85.33967 238.000
85.35962 252.000
85.37957 223.000
85.39952 235.000
85.41946 242.000
85.43941 263.000
85.45936 250.000
85.47930 230.000
85.49925 233.000
85.51920 264.000
85.53914 229.000
85.55909 257.000
85.57904 269.000
85.59899 225.000
85.61893 251.000
85.63888 220.000
85.65883 282.000
85.67877 262.000
85.69872 229.000
85.71867 241.000
85.73861 228.000
85.75856 235.000
85.77851 220.000
85.79845 251.000
85.81840 222.000
85.83835 252.000
85.85830 250.000
85.87824 268.000
85.89819 244.000
85.91814 228.000
85.93808 257.000
85.95803 239.000
85.97798 266.000
85.99792 239.000
86.01787 245.000
86.03782 247.000
86.05777 267.000
86.07771 248.000
86.09766 229.000
86.11761 252.000
86.13755 241.000
86.15750 246.000
86.17745 255.000
86.19739 256.000
86.21734 240.000
86.23729 242.000
86.25723 242.000
86.27718 245.000
86.29713 244.000
86.31708 251.000
86.33702 257.000
86.35697 244.000
86.37692 246.000
86.39686 221.000
86.41681 222.000
86.43676 253.000
86.45670 246.000
86.47665 253.000
86.49660 261.000
86.51655 225.000
86.53649 265.000
86.55644 265.000
86.57639 256.000
86.59633 257.000
86.61628 258.000
86.63623 273.000
86.65617 250.000
86.67612 271.000
86.69607 263.000
86.71602 263.000
86.73596 258.000
86.75591 250.000
86.77586 252.000
86.79580 286.000
86.81575 245.000
86.83570 295.000
86.85564 290.000
86.87559 268.000
86.89554 270.000
86.91548 277.000
86.93543 278.000
86.95538 268.000
86.97533 286.000
86.99527 288.000
87.01522 265.000
87.03517 282.000
87.05511 297.000
87.07506 282.000
87.09501 280.000
87.11495 267.000
87.13490 269.000
87.15485 270.000
87.17480 253.000
87.19474 276.000
87.21469 258.000
87.23464 284.000
87.25458 269.000
87.27453 253.000
87.29448 287.000
87.31442 260.000
87.33437 275.000
87.35432 264.000
87.37426 258.000
87.39421 272.000
87.41416 266.000
87.43411 281.000
87.45405 253.000
87.47400 234.000
87.49395 243.000
87.51389 289.000
87.53384 234.000
87.55379 273.000
87.57373 264.000
87.59368 253.000
87.61363 245.000
87.63358 264.000
87.65352 254.000
87.67347 249.000
87.69342 263.000
87.71336 266.000
87.73331 256.000
87.75326 264.000
87.77320 260.000
87.79315 249.000
87.81310 237.000
87.83304 274.000
87.85299 270.000
87.87294 257.000
87.89289 259.000
87.91283 263.000
87.93278 275.000
87.95273 234.000
87.97267 276.000
87.99262 247.000
88.01257 233.000
88.03251 228.000
88.05246 257.000
88.07241 238.000
88.09236 237.000
88.11230 240.000
88.13225 234.000
88.15220 250.000
88.17214 246.000
88.19209 273.000
88.21204 241.000
88.23198 239.000
88.25193 265.000
88.27188 262.000
88.29183 263.000
88.31177 238.000
88.33172 221.000
88.35167 222.000
88.37161 238.000
88.39156 250.000
88.41151 250.000
88.43145 270.000
88.45140 236.000
88.47135 256.000
88.49129 238.000
88.51124 262.000
88.53119 254.000
88.55114 266.000
88.57108 253.000
88.59103 245.000
88.61098 237.000
88.63092 266.000
88.65087 248.000
88.67082 245.000
88.69076 260.000
88.71071 267.000
88.73066 272.000
88.75061 219.000
88.77055 227.000
88.79050 257.000
88.81045 238.000
88.83039 261.000
88.85034 244.000
88.87029 216.000
88.89023 250.000
88.91018 209.000
88.93013 233.000
88.95007 241.000
88.97002 264.000
88.98997 260.000
89.00992 236.000
89.02986 255.000
89.04981 256.000
89.06976 287.000
89.08970 218.000
89.10965 254.000
89.12960 253.000
89.14954 257.000
89.16949 250.000
89.18944 235.000
89.20939 269.000
89.22933 239.000
89.24928 255.000
89.26923 258.000
89.28917 239.000
89.30912 252.000
89.32907 280.000
89.34901 243.000
89.36896 229.000
89.38891 264.000
89.40885 259.000
89.42880 291.000
89.44875 253.000
89.46870 264.000
89.48864 269.000
89.50859 298.000
89.52854 288.000
89.54848 270.000
89.56843 256.000
89.58838 301.000
89.60832 286.000
89.62827 263.000
89.64822 274.000
89.66817 278.000
89.68811 265.000
89.70806 281.000
89.72801 278.000
89.74795 258.000
89.76790 259.000
89.78785 283.000
89.80779 271.000
89.82774 261.000
89.84769 279.000
89.86764 267.000
89.88758 262.000
89.90753 259.000
89.92748 259.000
89.94742 276.000
89.96737 241.000
89.98732 256.000
90.00726 258.000
