10.00000 124.000
10.01995 134.000
10.03989 148.000
10.05984 143.000
10.07979 114.000
10.09973 137.000
10.11968 129.000
10.13963 123.000
10.15958 129.000
10.17952 130.000
10.19947 133.000
10.21942 133.000
10.23936 128.000
10.25931 150.000
10.27926 116.000
10.29920 129.000
10.31915 128.000
10.33910 132.000
10.35905 115.000
10.37899 137.000
10.39894 136.000
10.41889 125.000
10.43883 115.000
10.45878 144.000
10.47873 119.000
10.49867 129.000
10.51862 121.000
10.53857 131.000
10.55851 119.000
10.57846 136.000
10.59841 149.000
10.61836 149.000
10.63830 157.000
10.65825 128.000
10.67820 132.000
10.69814 157.000
10.71809 129.000
10.73804 158.000
10.75798 143.000
10.77793 142.000
10.79788 146.000
10.81783 122.000
10.83777 142.000
10.85772 133.000
10.87767 132.000
10.89761 125.000
10.91756 138.000
10.93751 123.000
10.95745 135.000
10.97740 137.000
10.99735 147.000
11.01730 142.000
11.03724 129.000
11.05719 167.000
11.07714 154.000
11.09708 128.000
11.11703 146.000
11.13698 149.000
11.15692 131.000
11.17687 155.000
11.19682 153.000
11.21676 143.000
11.23671 164.000
11.25666 143.000
11.27661 122.000
11.29655 126.000
11.31650 143.000
11.33645 149.000
11.35639 133.000
11.37634 143.000
11.39629 145.000
11.41623 129.000
11.43618 144.000
11.45613 138.000
11.47608 156.000
11.49602 129.000
11.51597 152.000
11.53592 168.000
11.55586 143.000
11.57581 149.000
11.59576 162.000
11.61570 146.000
11.63565 125.000
11.65560 146.000
11.67554 135.000
11.69549 153.000
11.71544 130.000
11.73539 131.000
11.75533 144.000
11.77528 151.000
11.79523 174.000
11.81517 163.000
11.83512 150.000
11.85507 172.000
11.87501 145.000
11.89496 134.000
11.91491 158.000
11.93486 159.000
11.95480 154.000
11.97475 155.000
11.99470 140.000
12.01464 132.000
12.03459 147.000
12.05454 140.000
12.07448 140.000
12.09443 157.000
12.11438 167.000
12.13432 162.000
12.15427 164.000
12.17422 154.000
12.19417 154.000
12.21411 163.000
12.23406 154.000
12.25401 149.000
12.27395 146.000
12.29390 142.000
12.31385 139.000
12.33379 162.000
12.35374 130.000
12.37369 142.000
12.39364 170.000
12.41358 135.000
12.43353 160.000
12.45348 157.000
12.47342 157.000
12.49337 148.000
12.51332 171.000
12.53326 169.000
12.55321 140.000
12.57316 177.000
12.59311 183.000
12.61305 160.000
12.63300 156.000
12.65295 158.000
12.67289 161.000
12.69284 148.000
12.71279 153.000
12.73273 148.000
12.75268 174.000
12.77263 164.000
12.79257 157.000
12.81252 162.000
12.83247 145.000
12.85242 163.000
12.87236 158.000
12.89231 160.000
12.91226 183.000
12.93220 167.000
12.95215 177.000
12.97210 163.000
12.99204 168.000
13.01199 171.000
13.03194 173.000
13.05189 151.000
13.07183 151.000
13.09178 173.000
13.11173 170.000
13.13167 167.000
13.15162 157.000
13.17157 167.000
13.19151 173.000
13.21146 160.000
13.23141 172.000
13.25135 161.000
13.27130 155.000
13.29125 157.000
13.31120 153.000
13.33114 146.000
13.35109 174.000
13.37104 157.000
13.39098 165.000
13.41093 160.000
13.43088 166.000
13.45082 173.000
13.47077 200.000
13.49072 168.000
13.51067 169.000
13.53061 174.000
13.55056 190.000
13.57051 180.000
13.59045 171.000
13.61040 179.000
13.63035 175.000
13.65029 181.000
13.67024 195.000
13.69019 172.000
13.71013 160.000
13.73008 187.000
13.75003 185.000
13.76998 150.000
13.78992 143.000
13.80987 174.000
13.82982 194.000
13.84976 165.000
13.86971 177.000
13.88966 173.000
13.90960 181.000
13.92955 170.000
13.94950 164.000
13.96945 194.000
13.98939 214.000
14.00934 171.000
14.02929 176.000
14.04923 175.000
14.06918 187.000
14.08913 175.000
14.10907 182.000
14.12902 176.000
14.14897 193.000
14.16892 172.000
14.18886 181.000
14.20881 189.000
14.22876 179.000
14.24870 219.000
14.26865 201.000
14.28860 188.000
14.30854 166.000
14.32849 208.000
14.34844 161.000
14.36838 180.000
14.38833 174.000
14.40828 175.000
14.42823 195.000
14.44817 193.000
14.46812 172.000
14.48807 172.000
14.50801 167.000
14.52796 174.000
14.54791 176.000
14.56785 210.000
14.58780 193.000
14.60775 180.000
14.62770 186.000
14.64764 208.000
14.66759 176.000
14.68754 191.000
14.70748 201.000
14.72743 185.000
14.74738 196.000
14.76732 195.000
14.78727 195.000
14.80722 180.000
14.82716 175.000
14.84711 171.000
14.86706 188.000
14.88701 206.000
14.90695 194.000
14.92690 191.000
14.94685 194.000
14.96679 194.000
14.98674 194.000
15.00669 205.000
15.02663 215.000
15.04658 206.000
15.06653 220.000
15.08648 178.000
15.10642 182.000
15.12637 192.000
15.14632 193.000
15.16626 178.000
15.18621 167.000
15.20616 221.000
15.22610 207.000
15.24605 176.000
15.26600 187.000
15.28594 200.000
15.30589 191.000
15.32584 204.000
15.34579 196.000
15.36573 180.000
15.38568 240.000
15.40563 211.000
15.42557 195.000
15.44552 192.000
15.46547 200.000
15.48541 201.000
15.50536 203.000
15.52531 186.000
15.54526 208.000
15.56520 221.000
15.58515 194.000
15.60510 221.000
15.62504 219.000
15.64499 187.000
15.66494 206.000
15.68488 175.000
15.70483 197.000
15.72478 198.000
15.74472 235.000
15.76467 215.000
15.78462 219.000
15.80457 224.000
15.82451 203.000
15.84446 204.000
15.86441 214.000
15.88435 206.000
15.90430 200.000
15.92425 208.000
15.94419 259.000
15.96414 203.000
15.98409 206.000
16.00404 209.000
16.02398 208.000
16.04393 197.000
16.06388 191.000
16.08382 202.000
16.10377 200.000
16.12372 226.000
16.14366 217.000
16.16361 187.000
16.18356 192.000
16.20351 228.000
16.22345 232.000
16.24340 203.000
16.26335 221.000
16.28329 240.000
16.30324 228.000
16.32319 241.000
16.34313 194.000
16.36308 214.000
16.38303 212.000
16.40297 214.000
16.42292 206.000
16.44287 224.000
16.46282 252.000
16.48276 209.000
16.50271 228.000
16.52266 196.000
16.54260 223.000
16.56255 225.000
16.58250 229.000
16.60244 227.000
16.62239 219.000
16.64234 202.000
16.66229 206.000
16.68223 252.000
16.70218 203.000
16.72213 214.000
16.74207 235.000
16.76202 224.000
16.78197 228.000
16.80191 226.000
16.82186 230.000
16.84181 221.000
16.86175 246.000
16.88170 256.000
16.90165 220.000
16.92160 217.000
16.94154 244.000
16.96149 221.000
16.98144 235.000
17.00138 247.000
17.02133 204.000
17.04128 230.000
17.06122 247.000
17.08117 215.000
17.10112 263.000
17.12107 239.000
17.14101 238.000
17.16096 223.000
17.18091 247.000
17.20085 228.000
17.22080 217.000
17.24075 232.000
17.26069 232.000
17.28064 239.000
17.30059 207.000
17.32053 254.000
17.34048 239.000
17.36043 255.000
17.38038 230.000
17.40032 236.000
17.42027 229.000
17.44022 234.000
17.46016 231.000
17.48011 212.000
17.50006 229.000
17.52000 206.000
17.53995 218.000
17.55990 238.000
17.57985 234.000
17.59979 235.000
17.61974 240.000
17.63969 218.000
17.65963 254.000
17.67958 267.000
17.69953 238.000
17.71947 248.000
17.73942 231.000
17.75937 248.000
17.77932 261.000
17.79926 257.000
17.81921 284.000
17.83916 262.000
17.85910 235.000
17.87905 242.000
17.89900 252.000
17.91894 258.000
17.93889 222.000
17.95884 275.000
17.97878 227.000
17.99873 262.000
18.01868 225.000
18.03863 287.000
18.05857 250.000
18.07852 245.000
18.09847 245.000
18.11841 280.000
18.13836 264.000
18.15831 284.000
18.17825 240.000
18.19820 222.000
18.21815 210.000
18.23810 279.000
18.25804 233.000
18.27799 270.000
18.29794 264.000
18.31788 247.000
18.33783 228.000
18.35778 243.000
18.37772 219.000
18.39767 233.000
18.41762 230.000
18.43756 269.000
18.45751 261.000
18.47746 273.000
18.49741 253.000
18.51735 239.000
18.53730 292.000
18.55725 244.000
18.57719 232.000
18.59714 248.000
18.61709 258.000
18.63703 266.000
18.65698 223.000
18.67693 226.000
18.69688 247.000
18.71682 252.000
18.73677 238.000
18.75672 247.000
18.77666 264.000
18.79661 286.000
18.81656 255.000
18.83650 243.000
18.85645 251.000
18.87640 252.000
18.89634 289.000
18.91629 239.000
18.93624 263.000
18.95619 247.000
18.97613 263.000
18.99608 264.000
19.01603 256.000
19.03597 291.000
19.05592 247.000
19.07587 274.000
19.09581 260.000
19.11576 270.000
19.13571 228.000
19.15566 254.000
19.17560 255.000
19.19555 260.000
19.21550 238.000
19.23544 305.000
19.25539 237.000
19.27534 271.000
19.29528 256.000
19.31523 255.000
19.33518 297.000
19.35513 233.000
19.37507 234.000
19.39502 245.000
19.41497 260.000
19.43491 273.000
19.45486 244.000
19.47481 282.000
19.49475 258.000
19.51470 275.000
19.53465 251.000
19.55459 254.000
19.57454 265.000
19.59449 270.000
19.61444 252.000
19.63438 242.000
19.65433 256.000
19.67428 243.000
19.69422 297.000
19.71417 275.000
19.73412 271.000
19.75406 269.000
19.77401 265.000
19.79396 261.000
19.81391 252.000
19.83385 315.000
19.85380 252.000
19.87375 276.000
19.89369 264.000
19.91364 277.000
19.93359 273.000
19.95353 252.000
19.97348 279.000
19.99343 254.000
20.01337 255.000
20.03332 270.000
20.05327 261.000
20.07322 251.000
20.09316 315.000
20.11311 288.000
20.13306 273.000
20.15300 257.000
20.17295 271.000
20.19290 266.000
20.21284 258.000
20.23279 279.000
20.25274 243.000
20.27269 276.000
20.29263 269.000
20.31258 248.000
20.33253 274.000
20.35247 266.000
20.37242 271.000
20.39237 255.000
20.41231 283.000
20.43226 268.000
20.45221 264.000
20.47215 274.000
20.49210 299.000
20.51205 275.000
20.53200 299.000
20.55194 292.000
20.57189 265.000
20.59184 272.000
20.61178 284.000
20.63173 261.000
20.65168 258.000
20.67162 299.000
20.69157 305.000
20.71152 253.000
20.73147 295.000
20.75141 290.000
20.77136 283.000
20.79131 280.000
20.81125 280.000
20.83120 270.000
20.85115 291.000
20.87109 289.000
20.89104 288.000
20.91099 249.000
20.93094 292.000
20.95088 307.000
20.97083 262.000
20.99078 257.000
21.01072 268.000
21.03067 295.000
21.05062 296.000
21.07056 293.000
21.09051 287.000
21.11046 290.000
21.13040 295.000
21.15035 296.000
21.17030 314.000
21.19025 301.000
21.21019 290.000
21.23014 283.000
21.25009 281.000
21.27003 282.000
21.28998 299.000
21.30993 292.000
21.32987 280.000
21.34982 286.000
21.36977 279.000
21.38972 305.000
21.40966 283.000
21.42961 270.000
21.44956 282.000
21.46950 273.000
21.48945 266.000
21.50940 274.000
21.52934 314.000
21.54929 306.000
21.56924 269.000
21.58918 280.000
21.60913 263.000
21.62908 245.000
21.64903 261.000
21.66897 293.000
21.68892 293.000
21.70887 296.000
21.72881 304.000
21.74876 281.000
21.76871 288.000
21.78865 284.000
21.80860 296.000
21.82855 283.000
21.84850 292.000
21.86844 315.000
21.88839 283.000
21.90834 267.000
21.92828 305.000
21.94823 288.000
21.96818 306.000
21.98812 308.000
22.00807 262.000
22.02802 304.000
22.04796 302.000
22.06791 268.000
22.08786 295.000
22.10781 268.000
22.12775 288.000
22.14770 239.000
22.16765 277.000
22.18759 257.000
22.20754 267.000
22.22749 290.000
22.24743 267.000
22.26738 312.000
22.28733 283.000
22.30728 260.000
22.32722 299.000
22.34717 286.000
22.36712 303.000
22.38706 279.000
22.40701 331.000
22.42696 272.000
22.44690 279.000
22.46685 264.000
22.48680 273.000
22.50675 322.000
22.52669 277.000
22.54664 263.000
22.56659 274.000
22.58653 296.000
22.60648 271.000
22.62643 286.000
22.64637 283.000
22.66632 282.000
22.68627 278.000
22.70621 280.000
22.72616 302.000
22.74611 297.000
22.76606 289.000
22.78600 292.000
22.80595 310.000
22.82590 267.000
22.84584 279.000
22.86579 292.000
22.88574 277.000
22.90568 279.000
22.92563 263.000
22.94558 321.000
22.96553 266.000
22.98547 263.000
23.00542 313.000
23.02537 305.000
23.04531 285.000
23.06526 291.000
23.08521 310.000
23.10515 326.000
23.12510 310.000
23.14505 316.000
23.16499 300.000
23.18494 261.000
23.20489 320.000
23.22484 296.000
23.24478 327.000
23.26473 306.000
23.28468 305.000
23.30462 276.000
23.32457 316.000
23.34452 276.000
23.36446 274.000
23.38441 291.000
23.40436 297.000
23.42431 261.000
23.44425 296.000
23.46420 314.000
23.48415 298.000
23.50409 345.000
23.52404 286.000
23.54399 297.000
23.56393 326.000
23.58388 273.000
23.60383 264.000
23.62377 308.000
23.64372 301.000
23.66367 275.000
23.68362 302.000
23.70356 290.000
23.72351 310.000
23.74346 276.000
23.76340 287.000
23.78335 304.000
23.80330 313.000
23.82324 277.000
23.84319 285.000
23.86314 289.000
23.88309 298.000
23.90303 304.000
23.92298 284.000
23.94293 274.000
23.96287 313.000
23.98282 309.000
24.00277 288.000
24.02271 281.000
24.04266 322.000
24.06261 309.000
24.08256 314.000
24.10250 283.000
24.12245 278.000
24.14240 299.000
24.16234 278.000
24.18229 294.000
24.20224 288.000
24.22218 276.000
24.24213 300.000
24.26208 319.000
24.28202 316.000
24.30197 296.000
24.32192 308.000
24.34187 325.000
24.36181 301.000
24.38176 310.000
24.40171 275.000
24.42165 286.000
24.44160 287.000
24.46155 302.000
24.48149 283.000
24.50144 327.000
24.52139 307.000
24.54134 315.000
24.56128 312.000
24.58123 277.000
24.60118 312.000
24.62112 329.000
24.64107 281.000
24.66102 279.000
24.68096 265.000
24.70091 318.000
24.72086 289.000
24.74080 319.000
24.76075 300.000
24.78070 304.000
24.80065 310.000
24.82059 359.000
24.84054 302.000
24.86049 325.000
24.88043 306.000
24.90038 325.000
24.92033 305.000
24.94027 313.000
24.96022 301.000
24.98017 343.000
25.00012 280.000
25.02006 313.000
25.04001 278.000
25.05996 308.000
25.07990 337.000
25.09985 282.000
25.11980 267.000
25.13974 309.000
25.15969 268.000
25.17964 303.000
25.19958 296.000
25.21953 326.000
25.23948 328.000
25.25943 316.000
25.27937 309.000
25.29932 290.000
25.31927 319.000
25.33921 292.000
25.35916 286.000
25.37911 298.000
25.39905 309.000
25.41900 306.000
25.43895 300.000
25.45890 320.000
25.47884 305.000
25.49879 322.000
25.51874 303.000
25.53868 302.000
25.55863 321.000
25.57858 300.000
25.59852 322.000
25.61847 315.000
25.63842 289.000
25.65837 313.000
25.67831 296.000
25.69826 335.000
25.71821 308.000
25.73815 311.000
25.75810 317.000
25.77805 310.000
25.79799 295.000
25.81794 288.000
25.83789 277.000
25.85783 319.000
25.87778 333.000
25.89773 316.000
25.91768 331.000
25.93762 307.000
25.95757 307.000
25.97752 305.000
25.99746 308.000
26.01741 345.000
26.03736 323.000
26.05730 287.000
26.07725 307.000
26.09720 286.000
26.11715 289.000
26.13709 313.000
26.15704 340.000
26.17699 310.000
26.19693 313.000
26.21688 327.000
26.23683 303.000
26.25677 317.000
26.27672 300.000
26.29667 320.000
26.31661 292.000
26.33656 296.000
26.35651 330.000
26.37646 332.000
26.39640 311.000
26.41635 287.000
26.43630 266.000
26.45624 331.000
26.47619 329.000
26.49614 321.000
26.51608 328.000
26.53603 263.000
26.55598 319.000
26.57593 297.000
26.59587 322.000
26.61582 316.000
26.63577 319.000
26.65571 292.000
26.67566 352.000
26.69561 340.000
26.71555 313.000
26.73550 328.000
26.75545 326.000
26.77539 322.000
26.79534 331.000
26.81529 297.000
26.83524 318.000
26.85518 316.000
26.87513 324.000
26.89508 347.000
26.91502 339.000
26.93497 292.000
26.95492 301.000
26.97486 325.000
26.99481 302.000
27.01476 311.000
27.03471 348.000
27.05465 310.000
27.07460 309.000
27.09455 304.000
27.11449 321.000
27.13444 315.000
27.15439 328.000
27.17433 329.000
27.19428 329.000
27.21423 318.000
27.23417 329.000
27.25412 324.000
27.27407 316.000
27.29402 295.000
27.31396 332.000
27.33391 297.000
27.35386 338.000
27.37380 337.000
27.39375 288.000
27.41370 337.000
27.43364 323.000
27.45359 314.000
27.47354 317.000
27.49349 295.000
27.51343 291.000
27.53338 308.000
27.55333 316.000
27.57327 330.000
27.59322 301.000
27.61317 328.000
27.63311 331.000
27.65306 342.000
27.67301 318.000
27.69296 334.000
27.71290 329.000
27.73285 333.000
27.75280 350.000
27.77274 338.000
27.79269 365.000
27.81264 331.000
27.83258 315.000
27.85253 309.000
27.87248 310.000
27.89242 288.000
27.91237 327.000
27.93232 333.000
27.95227 330.000
27.97221 322.000
27.99216 332.000
28.01211 321.000
28.03205 342.000
28.05200 318.000
28.07195 327.000
28.09189 363.000
28.11184 314.000
28.13179 311.000
28.15174 307.000
28.17168 348.000
28.19163 301.000
28.21158 311.000
28.23152 332.000
28.25147 325.000
28.27142 342.000
28.29136 314.000
28.31131 347.000
28.33126 322.000
28.35120 343.000
28.37115 322.000
28.39110 329.000
28.41105 327.000
28.43099 354.000
28.45094 320.000
28.47089 341.000
28.49083 319.000
28.51078 320.000
28.53073 337.000
28.55067 327.000
28.57062 306.000
28.59057 325.000
28.61052 345.000
28.63046 302.000
28.65041 324.000
28.67036 332.000
28.69030 334.000
28.71025 336.000
28.73020 323.000
28.75014 326.000
28.77009 357.000
28.79004 318.000
28.80998 346.000
28.82993 340.000
28.84988 313.000
28.86983 295.000
28.88977 322.000
28.90972 303.000
28.92967 332.000
28.94961 332.000
28.96956 320.000
28.98951 347.000
29.00945 326.000
29.02940 326.000
29.04935 310.000
29.06930 307.000
29.08924 323.000
29.10919 359.000
29.12914 338.000
29.14908 300.000
29.16903 299.000
29.18898 339.000
29.20892 337.000
29.22887 374.000
29.24882 337.000
29.26877 342.000
29.28871 323.000
29.30866 305.000
29.32861 346.000
29.34855 316.000
29.36850 364.000
29.38845 339.000
29.40839 298.000
29.42834 321.000
29.44829 335.000
29.46823 326.000
29.48818 325.000
29.50813 321.000
29.52808 323.000
29.54802 319.000
29.56797 316.000
29.58792 339.000
29.60786 316.000
29.62781 312.000
29.64776 315.000
29.66770 368.000
29.68765 328.000
29.70760 331.000
29.72755 362.000
29.74749 326.000
29.76744 314.000
29.78739 311.000
29.80733 329.000
29.82728 342.000
29.84723 326.000
29.86717 316.000
29.88712 320.000
29.90707 313.000
29.92701 323.000
29.94696 341.000
29.96691 316.000
29.98686 336.000
30.00680 341.000
30.02675 340.000
30.04670 325.000
30.06664 323.000
30.08659 345.000
30.10654 311.000
30.12648 328.000
30.14643 324.000
30.16638 294.000
30.18633 323.000
30.20627 321.000
30.22622 350.000
30.24617 330.000
30.26611 358.000
30.28606 364.000
30.30601 348.000
30.32595 329.000
30.34590 340.000
30.36585 341.000
30.38579 346.000
30.40574 313.000
30.42569 310.000
30.44564 342.000
30.46558 345.000
30.48553 328.000
30.50548 334.000
30.52542 351.000
30.54537 350.000
30.56532 336.000
30.58526 339.000
30.60521 353.000
30.62516 340.000
30.64511 351.000
30.66505 335.000
30.68500 337.000
30.70495 340.000
30.72489 360.000
30.74484 299.000
30.76479 336.000
30.78473 315.000
30.80468 339.000
30.82463 326.000
30.84458 322.000
30.86452 339.000
30.88447 338.000
30.90442 337.000
30.92436 318.000
30.94431 359.000
30.96426 337.000
30.98420 311.000
31.00415 367.000
31.02410 356.000
31.04404 329.000
31.06399 330.000
31.08394 321.000
31.10389 342.000
31.12383 342.000
31.14378 289.000
31.16373 346.000
31.18367 301.000
31.20362 314.000
31.22357 327.000
31.24351 323.000
31.26346 341.000
31.28341 355.000
31.30336 343.000
31.32330 312.000
31.34325 310.000
31.36320 311.000
31.38314 330.000
31.40309 313.000
31.42304 330.000
31.44298 340.000
31.46293 320.000
31.48288 335.000
31.50282 342.000
31.52277 365.000
31.54272 378.000
31.56267 356.000
31.58261 338.000
31.60256 312.000
31.62251 313.000
31.64245 345.000
31.66240 360.000
31.68235 336.000
31.70229 318.000
31.72224 323.000
31.74219 355.000
31.76214 334.000
31.78208 347.000
31.80203 341.000
31.82198 332.000
31.84192 325.000
31.86187 297.000
31.88182 334.000
31.90176 308.000
31.92171 335.000
31.94166 352.000
31.96160 324.000
31.98155 345.000
32.00150 301.000
32.02145 345.000
32.04139 334.000
32.06134 333.000
32.08129 320.000
32.10123 346.000
32.12118 338.000
32.14113 369.000
32.16107 306.000
32.18102 315.000
32.20097 334.000
32.22092 326.000
32.24086 327.000
32.26081 302.000
32.28076 311.000
32.30070 314.000
32.32065 345.000
32.34060 356.000
32.36054 310.000
32.38049 339.000
32.40044 294.000
32.42039 338.000
32.44033 335.000
32.46028 343.000
32.48023 315.000
32.50017 340.000
32.52012 321.000
32.54007 305.000
32.56001 334.000
32.57996 333.000
32.59991 318.000
32.61985 337.000
32.63980 348.000
32.65975 344.000
32.67970 302.000
32.69964 357.000
32.71959 326.000
32.73954 350.000
32.75948 372.000
32.77943 331.000
32.79938 311.000
32.81932 346.000
32.83927 322.000
32.85922 350.000
32.87917 319.000
32.89911 333.000
32.91906 310.000
32.93901 329.000
32.95895 324.000
32.97890 349.000
32.99885 358.000
33.01879 340.000
33.03874 334.000
33.05869 300.000
33.07863 303.000
33.09858 333.000
33.11853 312.000
33.13848 328.000
33.15842 343.000
33.17837 328.000
33.19832 312.000
33.21826 320.000
33.23821 352.000
33.25816 346.000
33.27810 303.000
33.29805 317.000
33.31800 331.000
33.33795 366.000
33.35789 335.000
33.37784 319.000
33.39779 306.000
33.41773 326.000
33.43768 304.000
33.45763 365.000
33.47757 319.000
33.49752 312.000
33.51747 344.000
33.53741 338.000
33.55736 373.000
33.57731 336.000
33.59726 324.000
33.61720 338.000
33.63715 336.000
33.65710 349.000
33.67704 339.000
33.69699 353.000
33.71694 354.000
33.73688 312.000
33.75683 334.000
33.77678 328.000
33.79673 335.000
33.81667 337.000
33.83662 331.000
33.85657 343.000
33.87651 318.000
33.89646 307.000
33.91641 329.000
33.93635 352.000
33.95630 310.000
33.97625 314.000
33.99620 347.000
34.01614 326.000
34.03609 324.000
34.05604 315.000
34.07598 346.000
34.09593 318.000
34.11588 340.000
34.13582 328.000
34.15577 346.000
34.17572 311.000
34.19566 316.000
34.21561 323.000
34.23556 350.000
34.25551 348.000
34.27545 303.000
34.29540 310.000
34.31535 307.000
34.33529 318.000
34.35524 309.000
34.37519 311.000
34.39513 367.000
34.41508 339.000
34.43503 304.000
34.45498 322.000
34.47492 320.000
34.49487 332.000
34.51482 307.000
34.53476 319.000
34.55471 352.000
34.57466 333.000
34.59460 320.000
34.61455 335.000
34.63450 298.000
34.65444 302.000
34.67439 339.000
34.69434 341.000
34.71429 315.000
34.73423 343.000
34.75418 306.000
34.77413 317.000
34.79407 294.000
34.81402 318.000
34.83397 311.000
34.85391 329.000
34.87386 305.000
34.89381 311.000
34.91376 306.000
34.93370 320.000
34.95365 328.000
34.97360 338.000
34.99354 279.000
35.01349 318.000
35.03344 332.000
35.05338 315.000
35.07333 347.000
35.09328 296.000
35.11322 318.000
35.13317 349.000
35.15312 328.000
35.17307 304.000
35.19301 309.000
35.21296 297.000
35.23291 321.000
35.25285 325.000
35.27280 345.000
35.29275 317.000
35.31269 332.000
35.33264 328.000
35.35259 347.000
35.37254 332.000
35.39248 311.000
35.41243 341.000
35.43238 339.000
35.45232 328.000
35.47227 291.000
35.49222 340.000
35.51216 332.000
35.53211 295.000
35.55206 307.000
35.57201 339.000
35.59195 342.000
35.61190 323.000
35.63185 325.000
35.65179 313.000
35.67174 318.000
35.69169 310.000
35.71163 343.000
35.73158 299.000
35.75153 350.000
35.77147 333.000
35.79142 318.000
35.81137 329.000
35.83132 312.000
35.85126 343.000
35.87121 346.000
35.89116 373.000
35.91110 365.000
35.93105 333.000
35.95100 338.000
35.97094 346.000
35.99089 345.000
36.01084 368.000
36.03079 346.000
36.05073 359.000
36.07068 338.000
36.09063 380.000
36.11057 346.000
36.13052 357.000
36.15047 339.000
36.17041 374.000
36.19036 387.000
36.21031 376.000
36.23025 366.000
36.25020 364.000
36.27015 386.000
36.29010 350.000
36.31004 398.000
36.32999 393.000
36.34994 416.000
36.36988 436.000
36.38983 495.000
36.40978 458.000
36.42972 444.000
36.44967 484.000
36.46962 508.000
36.48957 493.000
36.50951 584.000
36.52946 591.000
36.54941 665.000
36.56935 655.000
36.58930 745.000
36.60925 881.000
36.62919 1027.000
36.64914 1138.000
36.66909 1268.000
36.68903 1569.000
36.70898 1806.000
36.72893 2208.000
36.74888 2809.000
36.76882 3378.000
36.78877 3902.000
36.80872 4713.000
36.82866 5753.000
36.84861 6424.000
36.86856 7086.000
36.88850 7827.000
36.90845 8451.000
36.92840 9029.000
36.94835 9435.000
36.96829 9178.000
36.98824 8561.000
37.00819 7597.000
37.02813 6568.000
37.04808 5710.000
37.06803 4723.000
37.08797 3826.000
37.10792 2920.000
37.12787 2287.000
37.14781 1664.000
37.16776 1202.000
37.18771 952.000
37.20766 848.000
37.22760 754.000
37.24755 621.000
37.26750 598.000
37.28744 554.000
37.30739 518.000
37.32734 460.000
37.34728 438.000
37.36723 434.000
37.38718 414.000
37.40713 410.000
37.42707 451.000
37.44702 407.000
37.46697 428.000
37.48691 406.000
37.50686 405.000
37.52681 402.000
37.54675 404.000
37.56670 388.000
37.58665 362.000
37.60660 386.000
37.62654 369.000
37.64649 363.000
37.66644 391.000
37.68638 361.000
37.70633 347.000
37.72628 361.000
37.74622 351.000
37.76617 342.000
37.78612 328.000
37.80606 331.000
37.82601 322.000
37.84596 306.000
37.86591 337.000
37.88585 391.000
37.90580 345.000
37.92575 374.000
37.94569 334.000
37.96564 350.000
37.98559 333.000
38.00553 370.000
38.02548 345.000
38.04543 313.000
38.06538 339.000
38.08532 297.000
38.10527 354.000
38.12522 332.000
38.14516 305.000
38.16511 298.000
38.18506 357.000
38.20500 320.000
38.22495 359.000
38.24490 306.000
38.26484 287.000
38.28479 334.000
38.30474 328.000
38.32469 316.000
38.34463 299.000
38.36458 322.000
38.38453 323.000
38.40447 313.000
38.42442 339.000
38.44437 354.000
38.46431 297.000
38.48426 348.000
38.50421 324.000
38.52416 328.000
38.54410 340.000
38.56405 310.000
38.58400 317.000
38.60394 315.000
38.62389 324.000
38.64384 318.000
38.66378 319.000
38.68373 327.000
38.70368 317.000
38.72362 306.000
38.74357 290.000
38.76352 309.000
38.78347 333.000
38.80341 301.000
38.82336 322.000
38.84331 312.000
38.86325 306.000
38.88320 306.000
38.90315 313.000
38.92309 317.000
38.94304 305.000
38.96299 311.000
38.98294 316.000
39.00288 312.000
39.02283 316.000
39.04278 310.000
39.06272 323.000
39.08267 333.000
39.10262 328.000
39.12256 296.000
39.14251 301.000
39.16246 319.000
39.18241 292.000
39.20235 324.000
39.22230 283.000
39.24225 291.000
39.26219 283.000
39.28214 302.000
39.30209 293.000
39.32203 318.000
39.34198 307.000
39.36193 266.000
39.38187 312.000
39.40182 280.000
39.42177 318.000
39.44172 306.000
39.46166 315.000
39.48161 279.000
39.50156 299.000
39.52150 288.000
39.54145 321.000
39.56140 296.000
39.58134 306.000
39.60129 301.000
39.62124 323.000
39.64119 313.000
39.66113 307.000
39.68108 309.000
39.70103 296.000
39.72097 308.000
39.74092 286.000
39.76087 364.000
39.78081 294.000
39.80076 281.000
39.82071 326.000
39.84065 296.000
39.86060 280.000
39.88055 308.000
39.90050 313.000
39.92044 321.000
39.94039 320.000
39.96034 302.000
39.98028 338.000
40.00023 280.000
40.02018 292.000
40.04012 312.000
40.06007 309.000
40.08002 320.000
40.09997 302.000
40.11991 258.000
40.13986 285.000
40.15981 328.000
40.17975 312.000
40.19970 312.000
40.21965 294.000
40.23959 281.000
40.25954 273.000
40.27949 319.000
40.29943 290.000
40.31938 311.000
40.33933 296.000
40.35928 312.000
40.37922 257.000
40.39917 286.000
40.41912 281.000
40.43906 289.000
40.45901 299.000
40.47896 302.000
40.49890 319.000
40.51885 329.000
40.53880 327.000
40.55875 297.000
40.57869 309.000
40.59864 288.000
40.61859 293.000
40.63853 335.000
40.65848 312.000
40.67843 293.000
40.69837 327.000
40.71832 282.000
40.73827 322.000
40.75822 294.000
40.77816 292.000
40.79811 285.000
40.81806 313.000
40.83800 296.000
40.85795 319.000
40.87790 312.000
40.89784 287.000
40.91779 327.000
40.93774 312.000
40.95768 270.000
40.97763 291.000
40.99758 301.000
41.01753 294.000
41.03747 323.000
41.05742 287.000
41.07737 326.000
41.09731 310.000
41.11726 323.000
41.13721 305.000
41.15715 304.000
41.17710 309.000
41.19705 324.000
41.21700 300.000
41.23694 303.000
41.25689 330.000
41.27684 303.000
41.29678 333.000
41.31673 305.000
41.33668 320.000
41.35662 299.000
41.37657 324.000
41.39652 325.000
41.41646 292.000
41.43641 319.000
41.45636 337.000
41.47631 333.000
41.49625 304.000
41.51620 327.000
41.53615 347.000
41.55609 304.000
41.57604 332.000
41.59599 337.000
41.61593 321.000
41.63588 368.000
41.65583 346.000
41.67578 319.000
41.69572 368.000
41.71567 351.000
41.73562 323.000
41.75556 331.000
41.77551 311.000
41.79546 298.000
41.81540 309.000
41.83535 383.000
41.85530 337.000
41.87524 332.000
41.89519 389.000
41.91514 387.000
41.93509 337.000
41.95503 350.000
41.97498 344.000
41.99493 346.000
42.01487 361.000
42.03482 358.000
42.05477 356.000
42.07471 359.000
42.09466 346.000
42.11461 356.000
42.13456 390.000
42.15450 370.000
42.17445 403.000
42.19440 390.000
42.21434 420.000
42.23429 381.000
42.25424 401.000
42.27418 389.000
42.29413 406.000
42.31408 463.000
42.33403 478.000
42.35397 472.000
42.37392 487.000
42.39387 482.000
42.41381 493.000
42.43376 524.000
42.45371 582.000
42.47365 565.000
42.49360 565.000
42.51355 659.000
42.53349 696.000
42.55344 718.000
42.57339 823.000
42.59334 930.000
42.61328 910.000
42.63323 1082.000
42.65318 1240.000
42.67312 1429.000
42.69307 1609.000
42.71302 1955.000
42.73296 2211.000
42.75291 2686.000
42.77286 3194.000
42.79281 4008.000
42.81275 4931.000
42.83270 6118.000
42.85265 7317.000
42.87259 8733.000
42.89254 10093.000
42.91249 11748.000
42.93243 13060.000
42.95238 14012.000
42.97233 15106.000
42.99227 15441.000
43.01222 14743.000
43.03217 13604.000
43.05212 11705.000
43.07206 10089.000
43.09201 8745.000
43.11196 7563.000
43.13190 6541.000
43.15185 5042.000
43.17180 3709.000
43.19174 2717.000
43.21169 1971.000
43.23164 1541.000
43.25159 1199.000
43.27153 998.000
43.29148 912.000
43.31143 759.000
43.33137 717.000
43.35132 687.000
43.37127 628.000
43.39121 540.000
43.41116 571.000
43.43111 584.000
43.45105 501.000
43.47100 497.000
43.49095 460.000
43.51090 475.000
43.53084 449.000
43.55079 452.000
43.57074 445.000
43.59068 464.000
43.61063 398.000
43.63058 428.000
43.65052 389.000
43.67047 404.000
43.69042 389.000
43.71037 411.000
43.73031 389.000
43.75026 376.000
43.77021 367.000
43.79015 380.000
43.81010 352.000
43.83005 407.000
43.84999 397.000
43.86994 379.000
43.88989 381.000
43.90984 349.000
43.92978 366.000
43.94973 376.000
43.96968 356.000
43.98962 366.000
44.00957 347.000
44.02952 365.000
44.04946 343.000
44.06941 357.000
44.08936 353.000
44.10930 351.000
44.12925 344.000
44.14920 332.000
44.16915 335.000
44.18909 344.000
44.20904 358.000
44.22899 347.000
44.24893 301.000
44.26888 354.000
44.28883 388.000
44.30877 368.000
44.32872 340.000
44.34867 308.000
44.36862 348.000
44.38856 339.000
44.40851 297.000
44.42846 332.000
44.44840 333.000
44.46835 329.000
44.48830 351.000
44.50824 321.000
44.52819 335.000
44.54814 313.000
44.56808 361.000
44.58803 333.000
44.60798 308.000
44.62793 316.000
44.64787 338.000
44.66782 316.000
44.68777 342.000
44.70771 322.000
44.72766 334.000
44.74761 329.000
44.76755 337.000
44.78750 304.000
44.80745 331.000
44.82740 338.000
44.84734 315.000
44.86729 323.000
44.88724 327.000
44.90718 296.000
44.92713 335.000
44.94708 314.000
44.96702 322.000
44.98697 313.000
45.00692 311.000
45.02686 312.000
45.04681 297.000
45.06676 285.000
45.08671 310.000
45.10665 274.000
45.12660 290.000
45.14655 333.000
45.16649 307.000
45.18644 315.000
45.20639 310.000
45.22633 331.000
45.24628 303.000
45.26623 316.000
45.28618 323.000
45.30612 322.000
45.32607 314.000
45.34602 289.000
45.36596 291.000
45.38591 294.000
45.40586 329.000
45.42580 305.000
45.44575 316.000
45.46570 322.000
45.48565 268.000
45.50559 309.000
45.52554 290.000
45.54549 286.000
45.56543 304.000
45.58538 311.000
45.60533 335.000
45.62527 315.000
45.64522 301.000
45.66517 283.000
45.68511 294.000
45.70506 281.000
45.72501 289.000
45.74496 272.000
45.76490 282.000
45.78485 303.000
45.80480 297.000
45.82474 283.000
45.84469 287.000
45.86464 300.000
45.88458 285.000
45.90453 291.000
45.92448 293.000
45.94443 290.000
45.96437 288.000
45.98432 299.000
46.00427 304.000
46.02421 317.000
46.04416 288.000
46.06411 312.000
46.08405 291.000
46.10400 273.000
46.12395 313.000
46.14389 309.000
46.16384 287.000
46.18379 288.000
46.20374 290.000
46.22368 267.000
46.24363 303.000
46.26358 307.000
46.28352 311.000
46.30347 275.000
46.32342 300.000
46.34336 304.000
46.36331 291.000
46.38326 329.000
46.40321 295.000
46.42315 274.000
46.44310 281.000
46.46305 306.000
46.48299 272.000
46.50294 292.000
46.52289 290.000
46.54283 282.000
46.56278 258.000
46.58273 300.000
46.60267 244.000
46.62262 306.000
46.64257 276.000
46.66252 311.000
46.68246 297.000
46.70241 283.000
46.72236 304.000
46.74230 293.000
46.76225 280.000
46.78220 285.000
46.80214 299.000
46.82209 281.000
46.84204 334.000
46.86199 301.000
46.88193 303.000
46.90188 297.000
46.92183 262.000
46.94177 303.000
46.96172 290.000
46.98167 317.000
47.00161 264.000
47.02156 285.000
47.04151 243.000
47.06146 285.000
47.08140 309.000
47.10135 267.000
47.12130 309.000
47.14124 282.000
47.16119 256.000
47.18114 314.000
47.20108 303.000
47.22103 275.000
47.24098 272.000
47.26092 280.000
47.28087 281.000
47.30082 262.000
47.32077 306.000
47.34071 301.000
47.36066 309.000
47.38061 276.000
47.40055 308.000
47.42050 279.000
47.44045 307.000
47.46039 277.000
47.48034 330.000
47.50029 286.000
47.52024 296.000
47.54018 280.000
47.56013 316.000
47.58008 265.000
47.60002 271.000
47.61997 296.000
47.63992 282.000
47.65986 322.000
47.67981 285.000
47.69976 274.000
47.71970 290.000
47.73965 293.000
47.75960 295.000
47.77955 274.000
47.79949 261.000
47.81944 293.000
47.83939 300.000
47.85933 270.000
47.87928 303.000
47.89923 315.000
47.91917 280.000
47.93912 300.000
47.95907 303.000
47.97902 271.000
47.99896 266.000
48.01891 283.000
48.03886 290.000
48.05880 278.000
48.07875 268.000
48.09870 280.000
48.11864 290.000
48.13859 285.000
48.15854 288.000
48.17848 269.000
48.19843 264.000
48.21838 268.000
48.23833 293.000
48.25827 266.000
48.27822 246.000
48.29817 307.000
48.31811 308.000
48.33806 298.000
48.35801 278.000
48.37795 302.000
48.39790 281.000
48.41785 291.000
48.43780 303.000
48.45774 288.000
48.47769 286.000
48.49764 280.000
48.51758 279.000
48.53753 270.000
48.55748 285.000
48.57742 298.000
48.59737 289.000
48.61732 279.000
48.63726 295.000
48.65721 296.000
48.67716 286.000
48.69711 273.000
48.71705 281.000
48.73700 302.000
48.75695 264.000
48.77689 283.000
48.79684 280.000
48.81679 269.000
48.83673 275.000
48.85668 286.000
48.87663 304.000
48.89658 260.000
48.91652 286.000
48.93647 273.000
48.95642 250.000
48.97636 274.000
48.99631 284.000
49.01626 251.000
49.03620 324.000
49.05615 282.000
49.07610 284.000
49.09605 280.000
49.11599 262.000
49.13594 257.000
49.15589 276.000
49.17583 267.000
49.19578 263.000
49.21573 267.000
49.23567 314.000
49.25562 270.000
49.27557 254.000
49.29551 288.000
49.31546 305.000
49.33541 300.000
49.35536 283.000
49.37530 259.000
49.39525 293.000
49.41520 297.000
49.43514 264.000
49.45509 315.000
49.47504 305.000
49.49498 269.000
49.51493 298.000
49.53488 314.000
49.55483 325.000
49.57477 316.000
49.59472 256.000
49.61467 259.000
49.63461 255.000
49.65456 257.000
49.67451 291.000
49.69445 251.000
49.71440 292.000
49.73435 275.000
49.75429 294.000
49.77424 309.000
49.79419 300.000
49.81414 302.000
49.83408 300.000
49.85403 322.000
49.87398 274.000
49.89392 286.000
49.91387 301.000
49.93382 278.000
49.95376 278.000
49.97371 290.000
49.99366 267.000
50.01361 280.000
50.03355 285.000
50.05350 273.000
50.07345 305.000
50.09339 283.000
50.11334 289.000
50.13329 287.000
50.15323 261.000
50.17318 279.000
50.19313 282.000
50.21307 262.000
50.23302 252.000
50.25297 274.000
50.27292 301.000
50.29286 266.000
50.31281 260.000
50.33276 287.000
50.35270 273.000
50.37265 325.000
50.39260 292.000
50.41254 280.000
50.43249 294.000
50.45244 279.000
50.47239 278.000
50.49233 289.000
50.51228 284.000
50.53223 241.000
50.55217 267.000
50.57212 261.000
50.59207 292.000
50.61201 299.000
50.63196 249.000
50.65191 296.000
50.67186 303.000
50.69180 254.000
50.71175 293.000
50.73170 318.000
50.75164 294.000
50.77159 309.000
50.79154 295.000
50.81148 269.000
50.83143 292.000
50.85138 300.000
50.87132 278.000
50.89127 262.000
50.91122 305.000
50.93117 302.000
50.95111 285.000
50.97106 270.000
50.99101 294.000
51.01095 274.000
51.03090 306.000
51.05085 265.000
51.07079 244.000
51.09074 296.000
51.11069 277.000
51.13064 310.000
51.15058 300.000
51.17053 287.000
51.19048 302.000
51.21042 280.000
51.23037 291.000
51.25032 278.000
51.27026 290.000
51.29021 262.000
51.31016 270.000
51.33010 267.000
51.35005 283.000
51.37000 274.000
51.38995 303.000
51.40989 315.000
51.42984 287.000
51.44979 281.000
51.46973 289.000
51.48968 275.000
51.50963 272.000
51.52957 250.000
51.54952 265.000
51.56947 285.000
51.58942 271.000
51.60936 284.000
51.62931 301.000
51.64926 282.000
51.66920 264.000
51.68915 261.000
51.70910 295.000
51.72904 281.000
51.74899 310.000
51.76894 314.000
51.78888 273.000
51.80883 270.000
51.82878 268.000
51.84873 276.000
51.86867 314.000
51.88862 298.000
51.90857 292.000
51.92851 293.000
51.94846 276.000
51.96841 271.000
51.98835 292.000
52.00830 291.000
52.02825 286.000
52.04820 304.000
52.06814 276.000
52.08809 299.000
52.10804 289.000
52.12798 300.000
52.14793 271.000
52.16788 295.000
52.18782 312.000
52.20777 269.000
52.22772 274.000
52.24767 289.000
52.26761 273.000
52.28756 293.000
52.30751 279.000
52.32745 281.000
52.34740 278.000
52.36735 278.000
52.38729 277.000
52.40724 278.000
52.42719 266.000
52.44713 277.000
52.46708 265.000
52.48703 290.000
52.50698 323.000
52.52692 285.000
52.54687 260.000
52.56682 275.000
52.58676 284.000
52.60671 313.000
52.62666 284.000
52.64660 310.000
52.66655 273.000
52.68650 292.000
52.70645 289.000
52.72639 304.000
52.74634 286.000
52.76629 305.000
52.78623 292.000
52.80618 261.000
52.82613 256.000
52.84607 261.000
52.86602 289.000
52.88597 267.000
52.90591 275.000
52.92586 335.000
52.94581 285.000
52.96576 291.000
52.98570 310.000
53.00565 304.000
53.02560 302.000
53.04554 304.000
53.06549 273.000
53.08544 280.000
53.10538 262.000
53.12533 291.000
53.14528 253.000
53.16523 292.000
53.18517 247.000
53.20512 266.000
53.22507 254.000
53.24501 300.000
53.26496 291.000
53.28491 274.000
53.30485 284.000
53.32480 276.000
53.34475 261.000
53.36469 295.000
53.38464 285.000
53.40459 267.000
53.42454 255.000
53.44448 295.000
53.46443 272.000
53.48438 278.000
53.50432 267.000
53.52427 297.000
53.54422 266.000
53.56416 294.000
53.58411 279.000
53.60406 263.000
53.62401 252.000
53.64395 326.000
53.66390 308.000
53.68385 289.000
53.70379 289.000
53.72374 281.000
53.74369 270.000
53.76363 265.000
53.78358 297.000
53.80353 297.000
53.82348 304.000
53.84342 291.000
53.86337 281.000
53.88332 282.000
53.90326 287.000
53.92321 250.000
53.94316 293.000
53.96310 312.000
53.98305 261.000
54.00300 292.000
54.02294 271.000
54.04289 276.000
54.06284 282.000
54.08279 266.000
54.10273 273.000
54.12268 288.000
54.14263 287.000
54.16257 308.000
54.18252 276.000
54.20247 299.000
54.22241 270.000
54.24236 276.000
54.26231 268.000
54.28226 289.000
54.30220 270.000
54.32215 269.000
54.34210 300.000
54.36204 303.000
54.38199 273.000
54.40194 293.000
54.42188 281.000
54.44183 269.000
54.46178 277.000
54.48172 287.000
54.50167 278.000
54.52162 286.000
54.54157 259.000
54.56151 266.000
54.58146 300.000
54.60141 286.000
54.62135 282.000
54.64130 286.000
54.66125 314.000
54.68119 287.000
54.70114 292.000
54.72109 251.000
54.74104 273.000
54.76098 304.000
54.78093 256.000
54.80088 301.000
54.82082 292.000
54.84077 275.000
54.86072 280.000
54.88066 262.000
54.90061 250.000
54.92056 294.000
54.94050 309.000
54.96045 285.000
54.98040 293.000
55.00035 285.000
55.02029 301.000
55.04024 326.000
55.06019 263.000
55.08013 285.000
55.10008 266.000
55.12003 264.000
55.13997 293.000
55.15992 281.000
55.17987 299.000
55.19982 316.000
55.21976 301.000
55.23971 307.000
55.25966 295.000
55.27960 286.000
55.29955 280.000
55.31950 266.000
55.33944 286.000
55.35939 256.000
55.37934 263.000
55.39929 281.000
55.41923 283.000
55.43918 272.000
55.45913 291.000
55.47907 307.000
55.49902 293.000
55.51897 312.000
55.53891 284.000
55.55886 303.000
55.57881 280.000
55.59875 282.000
55.61870 313.000
55.63865 311.000
55.65860 266.000
55.67854 280.000
55.69849 267.000
55.71844 278.000
55.73838 293.000
55.75833 285.000
55.77828 299.000
55.79822 284.000
55.81817 310.000
55.83812 281.000
55.85807 287.000
55.87801 285.000
55.89796 306.000
55.91791 268.000
55.93785 293.000
55.95780 306.000
55.97775 291.000
55.99769 292.000
56.01764 283.000
56.03759 282.000
56.05753 305.000
56.07748 313.000
56.09743 331.000
56.11738 272.000
56.13732 316.000
56.15727 284.000
56.17722 306.000
56.19716 279.000
56.21711 300.000
56.23706 281.000
56.25700 267.000
56.27695 281.000
56.29690 290.000
56.31685 301.000
56.33679 297.000
56.35674 286.000
56.37669 308.000
56.39663 290.000
56.41658 271.000
56.43653 288.000
56.45647 256.000
56.47642 308.000
56.49637 290.000
56.51631 309.000
56.53626 269.000
56.55621 279.000
56.57616 304.000
56.59610 306.000
56.61605 280.000
56.63600 263.000
56.65594 273.000
56.67589 281.000
56.69584 240.000
56.71578 259.000
56.73573 277.000
56.75568 305.000
56.77563 256.000
56.79557 291.000
56.81552 302.000
56.83547 281.000
56.85541 268.000
56.87536 300.000
56.89531 310.000
56.91525 274.000
56.93520 316.000
56.95515 283.000
56.97510 274.000
56.99504 267.000
57.01499 289.000
57.03494 295.000
57.05488 264.000
57.07483 316.000
57.09478 265.000
57.11472 292.000
57.13467 296.000
57.15462 271.000
57.17456 261.000
57.19451 257.000
57.21446 297.000
57.23441 304.000
57.25435 302.000
57.27430 313.000
57.29425 278.000
57.31419 281.000
57.33414 263.000
57.35409 291.000
57.37403 307.000
57.39398 261.000
57.41393 284.000
57.43388 297.000
57.45382 265.000
57.47377 311.000
57.49372 286.000
57.51366 304.000
57.53361 271.000
57.55356 291.000
57.57350 306.000
57.59345 292.000
57.61340 279.000
57.63334 291.000
57.65329 301.000
57.67324 276.000
57.69319 271.000
57.71313 274.000
57.73308 292.000
57.75303 278.000
57.77297 273.000
57.79292 274.000
57.81287 323.000
57.83281 339.000
57.85276 293.000
57.87271 285.000
57.89266 275.000
57.91260 310.000
57.93255 298.000
57.95250 269.000
57.97244 319.000
57.99239 284.000
58.01234 299.000
58.03228 285.000
58.05223 278.000
58.07218 258.000
58.09212 294.000
58.11207 271.000
58.13202 273.000
58.15197 272.000
58.17191 290.000
58.19186 363.000
58.21181 274.000
58.23175 283.000
58.25170 299.000
58.27165 306.000
58.29159 268.000
58.31154 306.000
58.33149 306.000
58.35144 264.000
58.37138 322.000
58.39133 319.000
58.41128 286.000
58.43122 301.000
58.45117 275.000
58.47112 270.000
58.49106 280.000
58.51101 276.000
58.53096 274.000
58.55090 283.000
58.57085 300.000
58.59080 273.000
58.61075 300.000
58.63069 299.000
58.65064 284.000
58.67059 268.000
58.69053 291.000
58.71048 290.000
58.73043 293.000
58.75037 260.000
58.77032 276.000
58.79027 291.000
58.81022 277.000
58.83016 297.000
58.85011 303.000
58.87006 293.000
58.89000 289.000
58.90995 268.000
58.92990 306.000
58.94984 288.000
58.96979 292.000
58.98974 285.000
59.00969 285.000
59.02963 265.000
59.04958 285.000
59.06953 285.000
59.08947 256.000
59.10942 271.000
59.12937 275.000
59.14931 297.000
59.16926 310.000
59.18921 286.000
59.20915 265.000
59.22910 281.000
59.24905 286.000
59.26900 273.000
59.28894 271.000
59.30889 309.000
59.32884 288.000
59.34878 272.000
59.36873 280.000
59.38868 281.000
59.40862 276.000
59.42857 305.000
59.44852 268.000
59.46847 285.000
59.48841 279.000
59.50836 290.000
59.52831 290.000
59.54825 306.000
59.56820 299.000
59.58815 326.000
59.60809 292.000
59.62804 300.000
59.64799 282.000
59.66793 310.000
59.68788 365.000
59.70783 264.000
59.72778 295.000
59.74772 321.000
59.76767 307.000
59.78762 267.000
59.80756 313.000
59.82751 305.000
59.84746 291.000
59.86740 286.000
59.88735 278.000
59.90730 290.000
59.92725 312.000
59.94719 279.000
59.96714 287.000
59.98709 273.000
60.00703 286.000
60.02698 307.000
60.04693 253.000
60.06687 292.000
60.08682 295.000
60.10677 291.000
60.12671 275.000
60.14666 254.000
60.16661 297.000
60.18656 308.000
60.20650 290.000
60.22645 298.000
60.24640 308.000
60.26634 268.000
60.28629 340.000
60.30624 303.000
60.32618 280.000
60.34613 303.000
60.36608 251.000
60.38603 297.000
60.40597 298.000
60.42592 295.000
60.44587 289.000
60.46581 285.000
60.48576 310.000
60.50571 300.000
60.52565 293.000
60.54560 292.000
60.56555 290.000
60.58550 308.000
60.60544 315.000
60.62539 301.000
60.64534 289.000
60.66528 299.000
60.68523 306.000
60.70518 286.000
60.72512 347.000
60.74507 289.000
60.76502 323.000
60.78496 294.000
60.80491 268.000
60.82486 281.000
60.84481 279.000
60.86475 265.000
60.88470 308.000
60.90465 297.000
60.92459 288.000
60.94454 290.000
60.96449 315.000
60.98443 297.000
61.00438 328.000
61.02433 325.000
61.04428 329.000
61.06422 301.000
61.08417 313.000
61.10412 303.000
61.12406 319.000
61.14401 314.000
61.16396 305.000
61.18390 338.000
61.20385 299.000
61.22380 285.000
61.24374 311.000
61.26369 285.000
61.28364 348.000
61.30359 301.000
61.32353 290.000
61.34348 317.000
61.36343 338.000
61.38337 300.000
61.40332 319.000
61.42327 344.000
61.44321 297.000
61.46316 335.000
61.48311 332.000
61.50306 318.000
61.52300 303.000
61.54295 327.000
61.56290 302.000
61.58284 328.000
61.60279 319.000
61.62274 297.000
61.64268 317.000
61.66263 319.000
61.68258 307.000
61.70252 329.000
61.72247 364.000
61.74242 348.000
61.76237 381.000
61.78231 352.000
61.80226 320.000
61.82221 341.000
61.84215 332.000
61.86210 359.000
61.88205 344.000
61.90199 380.000
61.92194 379.000
61.94189 375.000
61.96184 396.000
61.98178 363.000
62.00173 386.000
62.02168 372.000
62.04162 406.000
62.06157 434.000
62.08152 445.000
62.10146 424.000
62.12141 434.000
62.14136 533.000
62.16131 539.000
62.18125 633.000
62.20120 620.000
62.22115 645.000
62.24109 778.000
62.26104 810.000
62.28099 920.000
62.30093 1012.000
62.32088 1122.000
62.34083 1238.000
62.36077 1510.000
62.38072 1677.000
62.40067 1981.000
62.42062 2367.000
62.44056 2872.000
62.46051 3398.000
62.48046 3983.000
62.50040 4768.000
62.52035 5183.000
62.54030 5977.000
62.56024 6348.000
62.58019 6602.000
62.60014 6524.000
62.62009 6339.000
62.64003 5987.000
62.65998 5405.000
62.67993 4923.000
62.69987 4670.000
62.71982 4377.000
62.73977 4154.000
62.75971 3850.000
62.77966 3515.000
62.79961 3119.000
62.81955 2613.000
62.83950 2280.000
62.85945 1880.000
62.87940 1473.000
62.89934 1203.000
62.91929 1067.000
62.93924 863.000
62.95918 715.000
62.97913 705.000
62.99908 602.000
63.01902 556.000
63.03897 518.000
63.05892 514.000
63.07887 450.000
63.09881 455.000
63.11876 458.000
63.13871 428.000
63.15865 412.000
63.17860 431.000
63.19855 375.000
63.21849 384.000
63.23844 366.000
63.25839 388.000
63.27833 399.000
63.29828 366.000
63.31823 375.000
63.33818 329.000
63.35812 376.000
63.37807 341.000
63.39802 339.000
63.41796 341.000
63.43791 339.000
63.45786 318.000
63.47780 350.000
63.49775 314.000
63.51770 361.000
63.53765 344.000
63.55759 305.000
63.57754 335.000
63.59749 326.000
63.61743 321.000
63.63738 300.000
63.65733 315.000
63.67727 313.000
63.69722 327.000
63.71717 336.000
63.73712 306.000
63.75706 344.000
63.77701 327.000
63.79696 322.000
63.81690 336.000
63.83685 304.000
63.85680 272.000
63.87674 318.000
63.89669 340.000
63.91664 310.000
63.93658 322.000
63.95653 293.000
63.97648 313.000
63.99643 330.000
64.01637 307.000
64.03632 319.000
64.05627 286.000
64.07621 339.000
64.09616 319.000
64.11611 305.000
64.13605 333.000
64.15600 305.000
64.17595 285.000
64.19590 291.000
64.21584 291.000
64.23579 312.000
64.25574 306.000
64.27568 323.000
64.29563 306.000
64.31558 343.000
64.33552 294.000
64.35547 330.000
64.37542 292.000
64.39536 341.000
64.41531 296.000
64.43526 307.000
64.45521 305.000
64.47515 303.000
64.49510 298.000
64.51505 304.000
64.53499 299.000
64.55494 294.000
64.57489 304.000
64.59483 321.000
64.61478 284.000
64.63473 297.000
64.65468 326.000
64.67462 281.000
64.69457 294.000
64.71452 339.000
64.73446 299.000
64.75441 313.000
64.77436 291.000
64.79430 279.000
64.81425 326.000
64.83420 313.000
64.85414 282.000
64.87409 300.000
64.89404 290.000
64.91399 314.000
64.93393 300.000
64.95388 302.000
64.97383 280.000
64.99377 280.000
65.01372 270.000
65.03367 286.000
65.05361 309.000
65.07356 306.000
65.09351 334.000
65.11346 312.000
65.13340 295.000
65.15335 294.000
65.17330 281.000
65.19324 269.000
65.21319 275.000
65.23314 295.000
65.25308 298.000
65.27303 279.000
65.29298 309.000
65.31293 289.000
65.33287 293.000
65.35282 309.000
65.37277 253.000
65.39271 295.000
65.41266 290.000
65.43261 306.000
65.45255 286.000
65.47250 300.000
65.49245 299.000
65.51239 260.000
65.53234 293.000
65.55229 293.000
65.57224 293.000
65.59218 292.000
65.61213 287.000
65.63208 291.000
65.65202 292.000
65.67197 320.000
65.69192 305.000
65.71186 253.000
65.73181 270.000
65.75176 310.000
65.77171 294.000
65.79165 270.000
65.81160 281.000
65.83155 309.000
65.85149 299.000
65.87144 287.000
65.89139 289.000
65.91133 290.000
65.93128 287.000
65.95123 314.000
65.97117 258.000
65.99112 266.000
66.01107 309.000
66.03102 286.000
66.05096 270.000
66.07091 287.000
66.09086 304.000
66.11080 279.000
66.13075 275.000
66.15070 270.000
66.17064 313.000
66.19059 309.000
66.21054 281.000
66.23049 299.000
66.25043 294.000
66.27038 300.000
66.29033 264.000
66.31027 317.000
66.33022 290.000
66.35017 282.000
66.37011 304.000
66.39006 259.000
66.41001 264.000
66.42995 288.000
66.44990 281.000
66.46985 274.000
66.48980 252.000
66.50974 276.000
66.52969 298.000
66.54964 263.000
66.56958 288.000
66.58953 294.000
66.60948 295.000
66.62942 295.000
66.64937 277.000
66.66932 283.000
66.68927 278.000
66.70921 283.000
66.72916 281.000
66.74911 305.000
66.76905 305.000
66.78900 280.000
66.80895 293.000
66.82889 292.000
66.84884 297.000
66.86879 298.000
66.88874 272.000
66.90868 266.000
66.92863 300.000
66.94858 316.000
66.96852 301.000
66.98847 268.000
67.00842 284.000
67.02836 303.000
67.04831 287.000
67.06826 299.000
67.08820 286.000
67.10815 291.000
67.12810 298.000
67.14805 291.000
67.16799 276.000
67.18794 252.000
67.20789 273.000
67.22783 312.000
67.24778 289.000
67.26773 328.000
67.28767 289.000
67.30762 290.000
67.32757 291.000
67.34752 302.000
67.36746 313.000
67.38741 280.000
67.40736 265.000
67.42730 301.000
67.44725 285.000
67.46720 281.000
67.48714 264.000
67.50709 282.000
67.52704 298.000
67.54698 246.000
67.56693 282.000
67.58688 284.000
67.60683 283.000
67.62677 289.000
67.64672 274.000
67.66667 302.000
67.68661 256.000
67.70656 268.000
67.72651 288.000
67.74645 283.000
67.76640 296.000
67.78635 269.000
67.80630 314.000
67.82624 286.000
67.84619 274.000
67.86614 245.000
67.88608 309.000
67.90603 239.000
67.92598 305.000
67.94592 278.000
67.96587 285.000
67.98582 284.000
68.00576 281.000
68.02571 299.000
68.04566 271.000
68.06561 268.000
68.08555 287.000
68.10550 272.000
68.12545 294.000
68.14539 292.000
68.16534 272.000
68.18529 288.000
68.20523 272.000
68.22518 243.000
68.24513 304.000
68.26508 303.000
68.28502 269.000
68.30497 277.000
68.32492 297.000
68.34486 261.000
68.36481 262.000
68.38476 266.000
68.40470 293.000
68.42465 294.000
68.44460 294.000
68.46455 273.000
68.48449 262.000
68.50444 272.000
68.52439 290.000
68.54433 290.000
68.56428 277.000
68.58423 282.000
68.60417 265.000
68.62412 250.000
68.64407 301.000
68.66401 277.000
68.68396 290.000
68.70391 301.000
68.72386 271.000
68.74380 283.000
68.76375 259.000
68.78370 251.000
68.80364 271.000
68.82359 268.000
68.84354 308.000
68.86348 275.000
68.88343 258.000
68.90338 269.000
68.92333 274.000
68.94327 250.000
68.96322 283.000
68.98317 301.000
69.00311 277.000
69.02306 288.000
69.04301 278.000
69.06295 281.000
69.08290 273.000
69.10285 259.000
69.12279 273.000
69.14274 277.000
69.16269 259.000
69.18264 266.000
69.20258 269.000
69.22253 265.000
69.24248 269.000
69.26242 300.000
69.28237 278.000
69.30232 264.000
69.32226 263.000
69.34221 307.000
69.36216 288.000
69.38211 295.000
69.40205 274.000
69.42200 307.000
69.44195 280.000
69.46189 295.000
69.48184 261.000
69.50179 296.000
69.52173 261.000
69.54168 281.000
69.56163 292.000
69.58157 297.000
69.60152 298.000
69.62147 264.000
69.64142 281.000
69.66136 296.000
69.68131 279.000
69.70126 286.000
69.72120 282.000
69.74115 288.000
69.76110 312.000
69.78104 266.000
69.80099 279.000
69.82094 301.000
69.84089 288.000
69.86083 278.000
69.88078 313.000
69.90073 311.000
69.92067 277.000
69.94062 274.000
69.96057 272.000
69.98051 277.000
70.00046 274.000
70.02041 276.000
70.04035 281.000
70.06030 283.000
70.08025 303.000
70.10020 254.000
70.12014 273.000
70.14009 274.000
70.16004 287.000
70.17998 299.000
70.19993 280.000
70.21988 266.000
70.23982 275.000
70.25977 271.000
70.27972 272.000
70.29967 261.000
70.31961 257.000
70.33956 280.000
70.35951 300.000
70.37945 300.000
70.39940 254.000
70.41935 304.000
70.43929 278.000
70.45924 289.000
70.47919 301.000
70.49914 311.000
70.51908 271.000
70.53903 287.000
70.55898 288.000
70.57892 261.000
70.59887 311.000
70.61882 265.000
70.63876 269.000
70.65871 272.000
70.67866 272.000
70.69860 280.000
70.71855 276.000
70.73850 275.000
70.75845 272.000
70.77839 251.000
70.79834 256.000
70.81829 278.000
70.83823 284.000
70.85818 311.000
70.87813 285.000
70.89807 308.000
70.91802 253.000
70.93797 301.000
70.95792 258.000
70.97786 313.000
70.99781 277.000
71.01776 274.000
71.03770 291.000
71.05765 301.000
71.07760 276.000
71.09754 283.000
71.11749 260.000
71.13744 275.000
71.15738 281.000
71.17733 281.000
71.19728 254.000
71.21723 267.000
71.23717 309.000
71.25712 265.000
71.27707 290.000
71.29701 267.000
71.31696 282.000
71.33691 265.000
71.35685 282.000
71.37680 278.000
71.39675 259.000
71.41670 290.000
71.43664 267.000
71.45659 261.000
71.47654 291.000
71.49648 294.000
71.51643 284.000
71.53638 285.000
71.55632 281.000
71.57627 313.000
71.59622 244.000
71.61616 299.000
71.63611 275.000
71.65606 298.000
71.67601 275.000
71.69595 258.000
71.71590 293.000
71.73585 328.000
71.75579 269.000
71.77574 296.000
71.79569 288.000
71.81563 319.000
71.83558 272.000
71.85553 267.000
71.87548 293.000
71.89542 296.000
71.91537 273.000
71.93532 277.000
71.95526 282.000
71.97521 288.000
71.99516 284.000
72.01510 292.000
72.03505 311.000
72.05500 291.000
72.07495 288.000
72.09489 292.000
72.11484 317.000
72.13479 280.000
72.15473 277.000
72.17468 284.000
72.19463 315.000
72.21457 251.000
72.23452 292.000
72.25447 277.000
72.27441 257.000
72.29436 294.000
72.31431 277.000
72.33426 304.000
72.35420 245.000
72.37415 271.000
72.39410 270.000
72.41404 264.000
72.43399 308.000
72.45394 272.000
72.47388 298.000
72.49383 288.000
72.51378 273.000
72.53373 266.000
72.55367 269.000
72.57362 264.000
72.59357 300.000
72.61351 267.000
72.63346 293.000
72.65341 270.000
72.67335 273.000
72.69330 282.000
72.71325 289.000
72.73319 254.000
72.75314 291.000
72.77309 289.000
72.79304 272.000
72.81298 256.000
72.83293 270.000
72.85288 282.000
72.87282 299.000
72.89277 266.000
72.91272 290.000
72.93266 275.000
72.95261 287.000
72.97256 268.000
72.99251 272.000
73.01245 262.000
73.03240 266.000
73.05235 313.000
73.07229 283.000
73.09224 281.000
73.11219 310.000
73.13213 276.000
73.15208 265.000
73.17203 278.000
73.19197 273.000
73.21192 292.000
73.23187 291.000
73.25182 288.000
73.27176 281.000
73.29171 290.000
73.31166 289.000
73.33160 296.000
73.35155 304.000
73.37150 279.000
73.39144 291.000
73.41139 280.000
73.43134 304.000
73.45129 299.000
73.47123 290.000
73.49118 280.000
73.51113 297.000
73.53107 249.000
73.55102 280.000
73.57097 309.000
73.59091 297.000
73.61086 282.000
73.63081 274.000
73.65076 293.000
73.67070 270.000
73.69065 273.000
73.71060 280.000
73.73054 308.000
73.75049 305.000
73.77044 262.000
73.79038 272.000
73.81033 321.000
73.83028 338.000
73.85022 272.000
73.87017 252.000
73.89012 307.000
73.91007 306.000
73.93001 299.000
73.94996 283.000
73.96991 275.000
73.98985 280.000
74.00980 323.000
74.02975 264.000
74.04969 299.000
74.06964 252.000
74.08959 340.000
74.10954 295.000
74.12948 316.000
74.14943 268.000
74.16938 314.000
74.18932 284.000
74.20927 313.000
74.22922 277.000
74.24916 286.000
74.26911 252.000
74.28906 287.000
74.30900 292.000
74.32895 292.000
74.34890 281.000
74.36885 291.000
74.38879 308.000
74.40874 313.000
74.42869 311.000
74.44863 310.000
74.46858 335.000
74.48853 276.000
74.50847 291.000
74.52842 282.000
74.54837 323.000
74.56832 304.000
74.58826 336.000
74.60821 352.000
74.62816 320.000
74.64810 345.000
74.66805 340.000
74.68800 349.000
74.70794 356.000
74.72789 384.000
74.74784 409.000
74.76778 434.000
74.78773 439.000
74.80768 463.000
74.82763 509.000
74.84757 492.000
74.86752 502.000
74.88747 592.000
74.90741 628.000
74.92736 702.000
74.94731 850.000
74.96725 945.000
74.98720 1118.000
75.00715 1342.000
75.02710 1523.000
75.04704 1756.000
75.06699 2015.000
75.08694 2241.000
75.10688 2436.000
75.12683 2514.000
75.14678 2460.000
75.16672 2348.000
75.18667 2147.000
75.20662 1962.000
75.22657 1850.000
75.24651 1665.000
75.26646 1647.000
75.28641 1612.000
75.30635 1584.000
75.32630 1540.000
75.34625 1533.000
75.36619 1457.000
75.38614 1356.000
75.40609 1266.000
75.42603 1025.000
75.44598 960.000
75.46593 748.000
75.48588 706.000
75.50582 572.000
75.52577 560.000
75.54572 466.000
75.56566 451.000
75.58561 405.000
75.60556 405.000
75.62550 375.000
75.64545 374.000
75.66540 338.000
75.68535 381.000
75.70529 350.000
75.72524 357.000
75.74519 322.000
75.76513 345.000
75.78508 321.000
75.80503 322.000
75.82497 297.000
75.84492 298.000
75.86487 317.000
75.88481 337.000
75.90476 324.000
75.92471 324.000
75.94466 323.000
75.96460 307.000
75.98455 295.000
76.00450 282.000
76.02444 296.000
76.04439 321.000
76.06434 331.000
76.08428 306.000
76.10423 305.000
76.12418 283.000
76.14413 320.000
76.16407 307.000
76.18402 265.000
76.20397 318.000
76.22391 278.000
76.24386 262.000
76.26381 309.000
76.28375 298.000
76.30370 291.000
76.32365 291.000
76.34359 268.000
76.36354 286.000
76.38349 279.000
76.40344 296.000
76.42338 267.000
76.44333 304.000
76.46328 298.000
76.48322 314.000
76.50317 276.000
76.52312 260.000
76.54306 311.000
76.56301 273.000
76.58296 303.000
76.60291 301.000
76.62285 308.000
76.64280 265.000
76.66275 273.000
76.68269 278.000
76.70264 279.000
76.72259 325.000
76.74253 305.000
76.76248 298.000
76.78243 274.000
76.80238 273.000
76.82232 280.000
76.84227 296.000
76.86222 274.000
76.88216 262.000
76.90211 294.000
76.92206 258.000
76.94200 288.000
76.96195 302.000
76.98190 315.000
77.00184 286.000
77.02179 301.000
77.04174 279.000
77.06169 279.000
77.08163 292.000
77.10158 278.000
77.12153 312.000
77.14147 301.000
77.16142 275.000
77.18137 286.000
77.20131 304.000
77.22126 271.000
77.24121 303.000
77.26116 280.000
77.28110 254.000
77.30105 277.000
77.32100 283.000
77.34094 288.000
77.36089 286.000
77.38084 275.000
77.40078 291.000
77.42073 293.000
77.44068 295.000
77.46062 283.000
77.48057 278.000
77.50052 312.000
77.52047 298.000
77.54041 270.000
77.56036 278.000
77.58031 282.000
77.60025 268.000
77.62020 285.000
77.64015 285.000
77.66009 288.000
77.68004 295.000
77.69999 288.000
77.71994 296.000
77.73988 303.000
77.75983 296.000
77.77978 289.000
77.79972 316.000
77.81967 292.000
77.83962 275.000
77.85956 326.000
77.87951 272.000
77.89946 295.000
77.91940 285.000
77.93935 326.000
77.95930 263.000
77.97925 316.000
77.99919 286.000
78.01914 276.000
78.03909 266.000
78.05903 275.000
78.07898 293.000
78.09893 309.000
78.11887 288.000
78.13882 298.000
78.15877 278.000
78.17872 291.000
78.19866 310.000
78.21861 297.000
78.23856 323.000
78.25850 296.000
78.27845 286.000
78.29840 280.000
78.31834 317.000
78.33829 291.000
78.35824 304.000
78.37819 293.000
78.39813 291.000
78.41808 299.000
78.43803 300.000
78.45797 285.000
78.47792 316.000
78.49787 304.000
78.51781 338.000
78.53776 288.000
78.55771 329.000
78.57765 291.000
78.59760 315.000
78.61755 313.000
78.63750 315.000
78.65744 321.000
78.67739 352.000
78.69734 333.000
78.71728 389.000
78.73723 342.000
78.75718 354.000
78.77712 396.000
78.79707 376.000
78.81702 423.000
78.83697 467.000
78.85691 456.000
78.87686 530.000
78.89681 507.000
78.91675 633.000
78.93670 692.000
78.95665 775.000
78.97659 892.000
78.99654 1049.000
79.01649 1130.000
79.03643 1380.000
79.05638 1471.000
79.07633 1677.000
79.09628 1767.000
79.11622 1780.000
79.13617 1775.000
79.15612 1695.000
79.17606 1654.000
79.19601 1580.000
79.21596 1352.000
79.23590 1368.000
79.25585 1282.000
79.27580 1304.000
79.29575 1248.000
79.31569 1213.000
79.33564 1269.000
79.35559 1192.000
79.37553 1068.000
79.39548 1065.000
79.41543 948.000
79.43537 847.000
79.45532 817.000
79.47527 711.000
79.49521 690.000
79.51516 601.000
79.53511 537.000
79.55506 490.000
79.57500 476.000
79.59495 385.000
79.61490 395.000
79.63484 345.000
79.65479 354.000
79.67474 349.000
79.69468 326.000
79.71463 333.000
79.73458 341.000
79.75453 317.000
79.77447 306.000
79.79442 320.000
79.81437 325.000
79.83431 315.000
79.85426 289.000
79.87421 285.000
79.89415 306.000
79.91410 300.000
79.93405 280.000
79.95399 311.000
79.97394 305.000
79.99389 315.000
80.01384 282.000
80.03378 301.000
80.05373 299.000
80.07368 275.000
80.09362 297.000
80.11357 298.000
80.13352 272.000
80.15346 292.000
80.17341 295.000
80.19336 276.000
80.21331 278.000
80.23325 265.000
80.25320 313.000
80.27315 301.000
80.29309 281.000
80.31304 294.000
80.33299 274.000
80.35293 315.000
80.37288 281.000
80.39283 263.000
80.41278 295.000
80.43272 309.000
80.45267 294.000
80.47262 269.000
80.49256 276.000
80.51251 286.000
80.53246 282.000
80.55240 292.000
80.57235 284.000
80.59230 293.000
80.61224 294.000
80.63219 276.000
80.65214 270.000
80.67209 273.000
80.69203 296.000
80.71198 285.000
80.73193 290.000
80.75187 299.000
80.77182 303.000
80.79177 277.000
80.81171 257.000
80.83166 267.000
80.85161 272.000
80.87156 297.000
80.89150 292.000
80.91145 316.000
80.93140 315.000
80.95134 245.000
80.97129 289.000
80.99124 269.000
81.01118 261.000
81.03113 289.000
81.05108 291.000
81.07102 264.000
81.09097 276.000
81.11092 261.000
81.13087 260.000
81.15081 309.000
81.17076 278.000
81.19071 276.000
81.21065 265.000
81.23060 239.000
81.25055 301.000
81.27049 270.000
81.29044 266.000
81.31039 308.000
81.33034 290.000
81.35028 281.000
81.37023 282.000
81.39018 274.000
81.41012 271.000
81.43007 306.000
81.45002 267.000
81.46996 295.000
81.48991 253.000
81.50986 278.000
81.52980 275.000
81.54975 295.000
81.56970 292.000
81.58965 262.000
81.60959 261.000
81.62954 279.000
81.64949 270.000
81.66943 273.000
81.68938 278.000
81.70933 296.000
81.72927 275.000
81.74922 274.000
81.76917 282.000
81.78912 276.000
81.80906 262.000
81.82901 301.000
81.84896 318.000
81.86890 279.000
81.88885 272.000
81.90880 272.000
81.92874 267.000
81.94869 300.000
81.96864 288.000
81.98859 257.000
82.00853 268.000
82.02848 254.000
82.04843 282.000
82.06837 272.000
82.08832 272.000
82.10827 269.000
82.12821 277.000
82.14816 297.000
82.16811 285.000
82.18805 270.000
82.20800 279.000
82.22795 298.000
82.24790 281.000
82.26784 271.000
82.28779 255.000
82.30774 281.000
82.32768 256.000
82.34763 260.000
82.36758 268.000
82.38752 285.000
82.40747 273.000
82.42742 264.000
82.44737 315.000
82.46731 269.000
82.48726 288.000
82.50721 273.000
82.52715 277.000
82.54710 284.000
82.56705 241.000
82.58699 281.000
82.60694 257.000
82.62689 260.000
82.64683 250.000
82.66678 265.000
82.68673 284.000
82.70668 281.000
82.72662 304.000
82.74657 279.000
82.76652 277.000
82.78646 306.000
82.80641 279.000
82.82636 252.000
82.84630 279.000
82.86625 260.000
82.88620 255.000
82.90615 273.000
82.92609 277.000
82.94604 306.000
82.96599 244.000
82.98593 268.000
83.00588 285.000
83.02583 280.000
83.04577 298.000
83.06572 278.000
83.08567 246.000
83.10561 258.000
83.12556 279.000
83.14551 288.000
83.16546 299.000
83.18540 264.000
83.20535 265.000
83.22530 262.000
83.24524 277.000
83.26519 284.000
83.28514 272.000
83.30508 268.000
83.32503 258.000
83.34498 236.000
83.36493 285.000
83.38487 284.000
83.40482 268.000
83.42477 287.000
83.44471 289.000
83.46466 296.000
83.48461 255.000
83.50455 303.000
83.52450 253.000
83.54445 291.000
83.56440 252.000
83.58434 268.000
83.60429 270.000
83.62424 272.000
83.64418 279.000
83.66413 268.000
83.68408 292.000
83.70402 266.000
83.72397 285.000
83.74392 241.000
83.76386 284.000
83.78381 271.000
83.80376 280.000
83.82371 278.000
83.84365 296.000
83.86360 277.000
83.88355 287.000
83.90349 261.000
83.92344 283.000
83.94339 265.000
83.96333 260.000
83.98328 246.000
84.00323 296.000
84.02318 230.000
84.04312 306.000
84.06307 292.000
84.08302 264.000
84.10296 272.000
84.12291 264.000
84.14286 278.000
84.16280 279.000
84.18275 286.000
84.20270 279.000
84.22264 267.000
84.24259 270.000
84.26254 269.000
84.28249 255.000
84.30243 287.000
84.32238 275.000
84.34233 285.000
84.36227 244.000
84.38222 256.000
84.40217 301.000
84.42211 266.000
84.44206 277.000
84.46201 270.000
84.48196 298.000
84.50190 285.000
84.52185 282.000
84.54180 258.000
84.56174 247.000
84.58169 299.000
84.60164 275.000
84.62158 270.000
84.64153 265.000
84.66148 281.000
84.68142 250.000
84.70137 264.000
84.72132 265.000
84.74127 250.000
84.76121 272.000
84.78116 253.000
84.80111 240.000
84.82105 293.000
84.84100 250.000
84.86095 271.000
84.88089 259.000
84.90084 283.000
84.92079 291.000
84.94074 271.000
84.96068 275.000
84.98063 271.000
85.00058 251.000
85.02052 270.000
85.04047 251.000
85.06042 276.000
85.08036 283.000
85.10031 275.000
85.12026 259.000
85.14021 307.000
85.16015 247.000
85.18010 280.000
85.20005 280.000
85.21999 259.000
85.23994 278.000
85.25989 273.000
85.27983 263.000
85.29978 274.000
85.31973 267.000
85.33967 265.000
85.35962 235.000
85.37957 249.000
85.39952 265.000
85.41946 282.000
85.43941 255.000
85.45936 295.000
85.47930 276.000
85.49925 267.000
85.51920 262.000
85.53914 280.000
85.55909 273.000
85.57904 291.000
85.59899 288.000
85.61893 240.000
85.63888 270.000
85.65883 229.000
85.67877 264.000
85.69872 254.000
85.71867 261.000
85.73861 271.000
85.75856 280.000
85.77851 268.000
85.79845 285.000
85.81840 254.000
85.83835 273.000
85.85830 295.000
85.87824 289.000
85.89819 261.000
85.91814 286.000
85.93808 272.000
85.95803 281.000
85.97798 290.000
85.99792 259.000
86.01787 300.000
86.03782 272.000
86.05777 269.000
86.07771 248.000
86.09766 272.000
86.11761 321.000
86.13755 288.000
86.15750 231.000
86.17745 298.000
86.19739 280.000
86.21734 267.000
86.23729 281.000
86.25723 252.000
86.27718 273.000
86.29713 257.000
86.31708 284.000
86.33702 249.000
86.35697 247.000
86.37692 260.000
86.39686 276.000
86.41681 294.000
86.43676 276.000
86.45670 290.000
86.47665 243.000
86.49660 270.000
86.51655 267.000
86.53649 256.000
86.55644 272.000
86.57639 252.000
86.59633 256.000
86.61628 297.000
86.63623 277.000
86.65617 259.000
86.67612 267.000
86.69607 280.000
86.71602 294.000
86.73596 273.000
86.75591 277.000
86.77586 272.000
86.79580 292.000
86.81575 238.000
86.83570 295.000
86.85564 270.000
86.87559 280.000
86.89554 282.000
86.91548 266.000
86.93543 264.000
86.95538 289.000
86.97533 261.000
86.99527 252.000
87.01522 262.000
87.03517 262.000
87.05511 291.000
87.07506 289.000
87.09501 265.000
87.11495 241.000
87.13490 263.000
87.15485 286.000
87.17480 254.000
87.19474 242.000
87.21469 274.000
87.23464 253.000
87.25458 278.000
87.27453 266.000
87.29448 311.000
87.31442 272.000
87.33437 268.000
87.35432 241.000
87.37426 286.000
87.39421 254.000
87.41416 258.000
87.43411 274.000
87.45405 280.000
87.47400 275.000
87.49395 246.000
87.51389 269.000
87.53384 256.000
87.55379 277.000
87.57373 287.000
87.59368 275.000
87.61363 272.000
87.63358 280.000
87.65352 246.000
87.67347 299.000
87.69342 259.000
87.71336 255.000
87.73331 265.000
87.75326 264.000
87.77320 271.000
87.79315 271.000
87.81310 280.000
87.83304 270.000
87.85299 280.000
87.87294 277.000
87.89289 266.000
87.91283 284.000
87.93278 295.000
87.95273 281.000
87.97267 245.000
87.99262 282.000
88.01257 255.000
88.03251 267.000
88.05246 248.000
88.07241 254.000
88.09236 242.000
88.11230 260.000
88.13225 267.000
88.15220 286.000
88.17214 251.000
88.19209 273.000
88.21204 265.000
88.23198 239.000
88.25193 261.000
88.27188 269.000
88.29183 301.000
88.31177 278.000
88.33172 278.000
88.35167 270.000
88.37161 262.000
88.39156 274.000
88.41151 273.000
88.43145 305.000
88.45140 269.000
88.47135 256.000
88.49129 267.000
88.51124 276.000
88.53119 253.000
88.55114 273.000
88.57108 257.000
88.59103 292.000
88.61098 243.000
88.63092 250.000
88.65087 260.000
88.67082 285.000
88.69076 248.000
88.71071 250.000
88.73066 260.000
88.75061 281.000
88.77055 264.000
88.79050 248.000
88.81045 269.000
88.83039 266.000
88.85034 299.000
88.87029 246.000
88.89023 254.000
88.91018 287.000
88.93013 271.000
88.95007 285.000
88.97002 247.000
88.98997 272.000
89.00992 226.000
89.02986 265.000
89.04981 270.000
89.06976 263.000
89.08970 295.000
89.10965 256.000
89.12960 319.000
89.14954 297.000
89.16949 242.000
89.18944 260.000
89.20939 267.000
89.22933 292.000
89.24928 268.000
89.26923 255.000
89.28917 288.000
89.30912 234.000
89.32907 238.000
89.34901 259.000
89.36896 296.000
89.38891 272.000
89.40885 276.000
89.42880 242.000
89.44875 270.000
89.46870 263.000
89.48864 260.000
89.50859 243.000
89.52854 272.000
89.54848 281.000
89.56843 282.000
89.58838 291.000
89.60832 304.000
89.62827 275.000
89.64822 287.000
89.66817 266.000
89.68811 272.000
89.70806 255.000
89.72801 254.000
89.74795 274.000
89.76790 273.000
89.78785 268.000
89.80779 268.000
89.82774 275.000
89.84769 295.000
89.86764 263.000
89.88758 274.000
89.90753 262.000
89.92748 231.000
89.94742 301.000
89.96737 287.000
89.98732 295.000
90.00726 257.000
