10.00000 192.000
10.01995 168.000
10.03989 182.000
10.05984 162.000
10.07979 190.000
10.09973 164.000
10.11968 181.000
10.13963 161.000
10.15958 205.000
10.17952 181.000
10.19947 197.000
10.21942 164.000
10.23936 199.000
10.25931 166.000
10.27926 196.000
10.29920 173.000
10.31915 182.000
10.33910 200.000
10.35905 206.000
10.37899 194.000
10.39894 189.000
10.41889 180.000
10.43883 175.000
10.45878 184.000
10.47873 171.000
10.49867 173.000
10.51862 173.000
10.53857 192.000
10.55851 186.000
10.57846 208.000
10.59841 173.000
10.61836 178.000
10.63830 174.000
10.65825 177.000
10.67820 194.000
10.69814 160.000
10.71809 171.000
10.73804 169.000
10.75798 191.000
10.77793 169.000
10.79788 155.000
10.81783 196.000
10.83777 187.000
10.85772 171.000
10.87767 178.000
10.89761 186.000
10.91756 168.000
10.93751 170.000
10.95745 168.000
10.97740 210.000
10.99735 185.000
11.01730 179.000
11.03724 187.000
11.05719 170.000
11.07714 190.000
11.09708 183.000
11.11703 194.000
11.13698 180.000
11.15692 187.000
11.17687 191.000
11.19682 200.000
11.21676 183.000
11.23671 177.000
11.25666 156.000
11.27661 175.000
11.29655 204.000
11.31650 167.000
11.33645 174.000
11.35639 197.000
11.37634 185.000
11.39629 186.000
11.41623 194.000
11.43618 193.000
11.45613 179.000
11.47608 187.000
11.49602 147.000
11.51597 178.000
11.53592 179.000
11.55586 158.000
11.57581 178.000
11.59576 167.000
11.61570 166.000
11.63565 183.000
11.65560 170.000
11.67554 159.000
11.69549 179.000
11.71544 176.000
11.73539 177.000
11.75533 192.000
11.77528 184.000
11.79523 172.000
11.81517 161.000
11.83512 168.000
11.85507 180.000
11.87501 189.000
11.89496 182.000
11.91491 182.000
11.93486 168.000
11.95480 202.000
11.97475 177.000
11.99470 187.000
12.01464 170.000
12.03459 169.000
12.05454 198.000
12.07448 169.000
12.09443 185.000
12.11438 179.000
12.13432 180.000
12.15427 198.000
12.17422 174.000
12.19417 196.000
12.21411 197.000
12.23406 176.000
12.25401 156.000
12.27395 186.000
12.29390 159.000
12.31385 177.000
12.33379 161.000
12.35374 187.000
12.37369 170.000
12.39364 166.000
12.41358 183.000
12.43353 204.000
12.45348 175.000
12.47342 187.000
12.49337 186.000
12.51332 182.000
12.53326 185.000
12.55321 197.000
12.57316 167.000
12.59311 176.000
12.61305 178.000
12.63300 190.000
12.65295 196.000
12.67289 179.000
12.69284 155.000
12.71279 196.000
12.73273 162.000
12.75268 167.000
12.77263 185.000
12.79257 181.000
12.81252 167.000
12.83247 189.000
12.85242 174.000
12.87236 188.000
12.89231 169.000
12.91226 160.000
12.93220 164.000
12.95215 182.000
12.97210 187.000
12.99204 192.000
13.01199 202.000
13.03194 196.000
13.05189 198.000
13.07183 180.000
13.09178 202.000
13.11173 177.000
13.13167 182.000
13.15162 189.000
13.17157 185.000
13.19151 194.000
13.21146 187.000
13.23141 193.000
13.25135 194.000
13.27130 158.000
13.29125 191.000
13.31120 164.000
13.33114 184.000
13.35109 187.000
13.37104 174.000
13.39098 180.000
13.41093 183.000
13.43088 151.000
13.45082 207.000
13.47077 176.000
13.49072 191.000
13.51067 165.000
13.53061 170.000
13.55056 201.000
13.57051 166.000
13.59045 203.000
13.61040 193.000
13.63035 185.000
13.65029 179.000
13.67024 163.000
13.69019 179.000
13.71013 202.000
13.73008 195.000
13.75003 171.000
13.76998 184.000
13.78992 189.000
13.80987 190.000
13.82982 182.000
13.84976 197.000
13.86971 183.000
13.88966 194.000
13.90960 179.000
13.92955 194.000
13.94950 178.000
13.96945 175.000
13.98939 173.000
14.00934 185.000
14.02929 179.000
14.04923 194.000
14.06918 194.000
14.08913 218.000
14.10907 178.000
14.12902 191.000
14.14897 212.000
14.16892 178.000
14.18886 191.000
14.20881 206.000
14.22876 212.000
14.24870 180.000
14.26865 188.000
14.28860 159.000
14.30854 179.000
14.32849 195.000
14.34844 195.000
14.36838 213.000
14.38833 189.000
14.40828 182.000
14.42823 182.000
14.44817 193.000
14.46812 181.000
14.48807 186.000
14.50801 205.000
14.52796 191.000
14.54791 167.000
14.56785 180.000
14.58780 197.000
14.60775 195.000
14.62770 161.000
14.64764 182.000
14.66759 184.000
14.68754 184.000
14.70748 187.000
14.72743 190.000
14.74738 205.000
14.76732 171.000
14.78727 192.000
14.80722 192.000
14.82716 174.000
14.84711 210.000
14.86706 197.000
14.88701 206.000
14.90695 211.000
14.92690 206.000
14.94685 199.000
14.96679 211.000
14.98674 220.000
15.00669 186.000
15.02663 189.000
15.04658 192.000
15.06653 185.000
15.08648 197.000
15.10642 207.000
15.12637 194.000
15.14632 212.000
15.16626 227.000
15.18621 193.000
15.20616 221.000
15.22610 195.000
15.24605 238.000
15.26600 201.000
15.28594 219.000
15.30589 209.000
15.32584 204.000
15.34579 223.000
15.36573 239.000
15.38568 220.000
15.40563 218.000
15.42557 213.000
15.44552 231.000
15.46547 230.000
15.48541 248.000
15.50536 242.000
15.52531 232.000
15.54526 261.000
15.56520 274.000
15.58515 276.000
15.60510 278.000
15.62504 283.000
15.64499 291.000
15.66494 304.000
15.68488 334.000
15.70483 384.000
15.72478 413.000
15.74472 461.000
15.76467 615.000
15.78462 793.000
15.80457 1121.000
15.82451 1706.000
15.84446 2589.000
15.86441 3623.000
15.88435 4745.000
15.90430 4932.000
15.92425 3969.000
15.94419 3002.000
15.96414 1810.000
15.98409 1075.000
16.00404 696.000
16.02398 577.000
16.04393 570.000
16.06388 585.000
16.08382 577.000
16.10377 783.000
16.12372 841.000
16.14366 1046.000
16.16361 1082.000
16.18356 1265.000
16.20351 1276.000
16.22345 1318.000
16.24340 1211.000
16.26335 1004.000
16.28329 890.000
16.30324 710.000
16.32319 543.000
16.34313 416.000
16.36308 351.000
16.38303 313.000
16.40297 306.000
16.42292 279.000
16.44287 255.000
16.46282 262.000
16.48276 239.000
16.50271 210.000
16.52266 230.000
16.54260 238.000
16.56255 226.000
16.58250 232.000
16.60244 238.000
16.62239 199.000
16.64234 230.000
16.66229 196.000
16.68223 190.000
16.70218 203.000
16.72213 218.000
16.74207 231.000
16.76202 225.000
16.78197 225.000
16.80191 262.000
16.82186 283.000
16.84181 251.000
16.86175 238.000
16.88170 254.000
16.90165 246.000
16.92160 246.000
16.94154 232.000
16.96149 192.000
16.98144 203.000
17.00138 193.000
17.02133 191.000
17.04128 175.000
17.06122 226.000
17.08117 206.000
17.10112 215.000
17.12107 203.000
17.14101 211.000
17.16096 199.000
17.18091 215.000
17.20085 176.000
17.22080 196.000
17.24075 161.000
17.26069 205.000
17.28064 177.000
17.30059 198.000
17.32053 219.000
17.34048 208.000
17.36043 207.000
17.38038 188.000
17.40032 190.000
17.42027 207.000
17.44022 200.000
17.46016 166.000
17.48011 196.000
17.50006 202.000
17.52000 192.000
17.53995 179.000
17.55990 170.000
17.57985 184.000
17.59979 186.000
17.61974 180.000
17.63969 185.000
17.65963 186.000
17.67958 198.000
17.69953 209.000
17.71947 185.000
17.73942 182.000
17.75937 185.000
17.77932 186.000
17.79926 215.000
17.81921 179.000
17.83916 187.000
17.85910 182.000
17.87905 195.000
17.89900 193.000
17.91894 186.000
17.93889 209.000
17.95884 163.000
17.97878 177.000
17.99873 205.000
18.01868 179.000
18.03863 198.000
18.05857 199.000
18.07852 186.000
18.09847 195.000
18.11841 187.000
18.13836 187.000
18.15831 203.000
18.17825 202.000
18.19820 183.000
18.21815 172.000
18.23810 198.000
18.25804 173.000
18.27799 178.000
18.29794 204.000
18.31788 211.000
18.33783 203.000
18.35778 215.000
18.37772 267.000
18.39767 277.000
18.41762 305.000
18.43756 273.000
18.45751 263.000
18.47746 265.000
18.49741 202.000
18.51735 193.000
18.53730 206.000
18.55725 206.000
18.57719 190.000
18.59714 176.000
18.61709 166.000
18.63703 207.000
18.65698 183.000
18.67693 199.000
18.69688 189.000
18.71682 221.000
18.73677 195.000
18.75672 186.000
18.77666 191.000
18.79661 185.000
18.81656 157.000
18.83650 164.000
18.85645 177.000
18.87640 183.000
18.89634 193.000
18.91629 170.000
18.93624 172.000
18.95619 154.000
18.97613 216.000
18.99608 219.000
19.01603 169.000
19.03597 204.000
19.05592 192.000
19.07587 185.000
19.09581 210.000
19.11576 198.000
19.13571 204.000
19.15566 181.000
19.17560 178.000
19.19555 185.000
19.21550 203.000
19.23544 189.000
19.25539 187.000
19.27534 202.000
19.29528 198.000
19.31523 197.000
19.33518 180.000
19.35513 169.000
19.37507 199.000
19.39502 192.000
19.41497 177.000
19.43491 218.000
19.45486 177.000
19.47481 205.000
19.49475 198.000
19.51470 190.000
19.53465 186.000
19.55459 183.000
19.57454 183.000
19.59449 182.000
19.61444 203.000
19.63438 189.000
19.65433 189.000
19.67428 168.000
19.69422 194.000
19.71417 184.000
19.73412 192.000
19.75406 201.000
19.77401 190.000
19.79396 183.000
19.81391 178.000
19.83385 187.000
19.85380 183.000
19.87375 223.000
19.89369 175.000
19.91364 194.000
19.93359 182.000
19.95353 201.000
19.97348 192.000
19.99343 177.000
20.01337 218.000
20.03332 185.000
20.05327 209.000
20.07322 188.000
20.09316 179.000
20.11311 176.000
20.13306 190.000
20.15300 193.000
20.17295 196.000
20.19290 217.000
20.21284 174.000
20.23279 189.000
20.25274 195.000
20.27269 180.000
20.29263 220.000
20.31258 182.000
20.33253 209.000
20.35247 182.000
20.37242 192.000
20.39237 174.000
20.41231 207.000
20.43226 207.000
20.45221 200.000
20.47215 193.000
20.49210 218.000
20.51205 197.000
20.53200 207.000
20.55194 223.000
20.57189 224.000
20.59184 225.000
20.61178 202.000
20.63173 233.000
20.65168 214.000
20.67162 253.000
20.69157 241.000
20.71152 269.000
20.73147 254.000
20.75141 240.000
20.77136 285.000
20.79131 366.000
20.81125 404.000
20.83120 438.000
20.85115 604.000
20.87109 600.000
20.89104 665.000
20.91099 669.000
20.93094 725.000
20.95088 642.000
20.97083 541.000
20.99078 541.000
21.01072 508.000
21.03067 492.000
21.05062 453.000
21.07056 343.000
21.09051 335.000
21.11046 303.000
21.13040 272.000
21.15035 229.000
21.17030 226.000
21.19025 215.000
21.21019 214.000
21.23014 219.000
21.25009 200.000
21.27003 219.000
21.28998 193.000
21.30993 190.000
21.32987 175.000
21.34982 211.000
21.36977 208.000
21.38972 207.000
21.40966 186.000
21.42961 199.000
21.44956 178.000
21.46950 188.000
21.48945 172.000
21.50940 186.000
21.52934 192.000
21.54929 214.000
21.56924 175.000
21.58918 205.000
21.60913 192.000
21.62908 217.000
21.64903 231.000
21.66897 189.000
21.68892 211.000
21.70887 203.000
21.72881 227.000
21.74876 191.000
21.76871 174.000
21.78865 194.000
21.80860 192.000
21.82855 186.000
21.84850 218.000
21.86844 196.000
21.88839 194.000
21.90834 192.000
21.92828 189.000
21.94823 195.000
21.96818 210.000
21.98812 221.000
22.00807 185.000
22.02802 199.000
22.04796 188.000
22.06791 207.000
22.08786 240.000
22.10781 212.000
22.12775 232.000
22.14770 222.000
22.16765 191.000
22.18759 190.000
22.20754 181.000
22.22749 207.000
22.24743 199.000
22.26738 224.000
22.28733 220.000
22.30728 205.000
22.32722 172.000
22.34717 191.000
22.36712 189.000
22.38706 215.000
22.40701 165.000
22.42696 209.000
22.44690 205.000
22.46685 193.000
22.48680 214.000
22.50675 218.000
22.52669 209.000
22.54664 220.000
22.56659 189.000
22.58653 184.000
22.60648 200.000
22.62643 218.000
22.64637 198.000
22.66632 206.000
22.68627 193.000
22.70621 205.000
22.72616 198.000
22.74611 172.000
22.76606 193.000
22.78600 210.000
22.80595 204.000
22.82590 181.000
22.84584 189.000
22.86579 192.000
22.88574 228.000
22.90568 211.000
22.92563 182.000
22.94558 193.000
22.96553 196.000
22.98547 209.000
23.00542 210.000
23.02537 180.000
23.04531 205.000
23.06526 193.000
23.08521 176.000
23.10515 201.000
23.12510 209.000
23.14505 201.000
23.16499 204.000
23.18494 181.000
23.20489 180.000
23.22484 201.000
23.24478 207.000
23.26473 173.000
23.28468 186.000
23.30462 195.000
23.32457 201.000
23.34452 228.000
23.36446 225.000
23.38441 186.000
23.40436 188.000
23.42431 194.000
23.44425 197.000
23.46420 175.000
23.48415 209.000
23.50409 188.000
23.52404 219.000
23.54399 172.000
23.56393 177.000
23.58388 209.000
23.60383 200.000
23.62377 190.000
23.64372 202.000
23.66367 197.000
23.68362 193.000
23.70356 196.000
23.72351 217.000
23.74346 196.000
23.76340 207.000
23.78335 222.000
23.80330 190.000
23.82324 193.000
23.84319 166.000
23.86314 203.000
23.88309 216.000
23.90303 209.000
23.92298 203.000
23.94293 226.000
23.96287 198.000
23.98282 175.000
24.00277 207.000
24.02271 208.000
24.04266 202.000
24.06261 205.000
24.08256 186.000
24.10250 228.000
24.12245 215.000
24.14240 200.000
24.16234 227.000
24.18229 200.000
24.20224 229.000
24.22218 231.000
24.24213 220.000
24.26208 220.000
24.28202 207.000
24.30197 185.000
24.32192 221.000
24.34187 213.000
24.36181 200.000
24.38176 216.000
24.40171 221.000
24.42165 243.000
24.44160 211.000
24.46155 193.000
24.48149 201.000
24.50144 200.000
24.52139 226.000
24.54134 211.000
24.56128 193.000
24.58123 207.000
24.60118 201.000
24.62112 205.000
24.64107 224.000
24.66102 219.000
24.68096 199.000
24.70091 190.000
24.72086 204.000
24.74080 188.000
24.76075 195.000
24.78070 184.000
24.80065 204.000
24.82059 172.000
24.84054 209.000
24.86049 214.000
24.88043 244.000
24.90038 214.000
24.92033 243.000
24.94027 244.000
24.96022 267.000
24.98017 225.000
25.00012 258.000
25.02006 271.000
25.04001 213.000
25.05996 227.000
25.07990 232.000
25.09985 214.000
25.11980 223.000
25.13974 201.000
25.15969 212.000
25.17964 226.000
25.19958 238.000
25.21953 211.000
25.23948 201.000
25.25943 181.000
25.27937 183.000
25.29932 190.000
25.31927 210.000
25.33921 211.000
25.35916 211.000
25.37911 219.000
25.39905 229.000
25.41900 215.000
25.43895 234.000
25.45890 199.000
25.47884 229.000
25.49879 211.000
25.51874 239.000
25.53868 207.000
25.55863 220.000
25.57858 221.000
25.59852 202.000
25.61847 206.000
25.63842 215.000
25.65837 204.000
25.67831 219.000
25.69826 207.000
25.71821 180.000
25.73815 232.000
25.75810 201.000
25.77805 199.000
25.79799 231.000
25.81794 189.000
25.83789 208.000
25.85783 205.000
25.87778 235.000
25.89773 198.000
25.91768 207.000
25.93762 228.000
25.95757 240.000
25.97752 215.000
25.99746 184.000
26.01741 212.000
26.03736 193.000
26.05730 188.000
26.07725 194.000
26.09720 220.000
26.11715 205.000
26.13709 202.000
26.15704 204.000
26.17699 224.000
26.19693 225.000
26.21688 241.000
26.23683 219.000
26.25677 203.000
26.27672 194.000
26.29667 234.000
26.31661 248.000
26.33656 221.000
26.35651 211.000
26.37646 207.000
26.39640 219.000
26.41635 208.000
26.43630 246.000
26.45624 217.000
26.47619 232.000
26.49614 221.000
26.51608 237.000
26.53603 226.000
26.55598 221.000
26.57593 216.000
26.59587 215.000
26.61582 236.000
26.63577 225.000
26.65571 228.000
26.67566 220.000
26.69561 210.000
26.71555 237.000
26.73550 253.000
26.75545 204.000
26.77539 221.000
26.79534 230.000
26.81529 230.000
26.83524 224.000
26.85518 200.000
26.87513 202.000
26.89508 219.000
26.91502 235.000
26.93497 209.000
26.95492 245.000
26.97486 230.000
26.99481 235.000
27.01476 209.000
27.03471 227.000
27.05465 202.000
27.07460 221.000
27.09455 221.000
27.11449 204.000
27.13444 211.000
27.15439 250.000
27.17433 234.000
27.19428 209.000
27.21423 205.000
27.23417 212.000
27.25412 195.000
27.27407 206.000
27.29402 252.000
27.31396 232.000
27.33391 243.000
27.35386 228.000
27.37380 213.000
27.39375 218.000
27.41370 224.000
27.43364 226.000
27.45359 204.000
27.47354 234.000
27.49349 230.000
27.51343 226.000
27.53338 244.000
27.55333 241.000
27.57327 226.000
27.59322 213.000
27.61317 249.000
27.63311 233.000
27.65306 231.000
27.67301 225.000
27.69296 208.000
27.71290 222.000
27.73285 214.000
27.75280 224.000
27.77274 225.000
27.79269 215.000
27.81264 223.000
27.83258 243.000
27.85253 222.000
27.87248 219.000
27.89242 219.000
27.91237 213.000
27.93232 271.000
27.95227 252.000
27.97221 238.000
27.99216 225.000
28.01211 192.000
28.03205 220.000
28.05200 217.000
28.07195 198.000
28.09189 223.000
28.11184 228.000
28.13179 218.000
28.15174 219.000
28.17168 217.000
28.19163 243.000
28.21158 225.000
28.23152 238.000
28.25147 254.000
28.27142 211.000
28.29136 249.000
28.31131 232.000
28.33126 224.000
28.35120 252.000
28.37115 219.000
28.39110 212.000
28.41105 217.000
28.43099 246.000
28.45094 221.000
28.47089 223.000
28.49083 253.000
28.51078 232.000
28.53073 250.000
28.55067 228.000
28.57062 224.000
28.59057 241.000
28.61052 227.000
28.63046 240.000
28.65041 229.000
28.67036 258.000
28.69030 229.000
28.71025 243.000
28.73020 226.000
28.75014 246.000
28.77009 224.000
28.79004 230.000
28.80998 211.000
28.82993 216.000
28.84988 230.000
28.86983 226.000
28.88977 223.000
28.90972 229.000
28.92967 236.000
28.94961 246.000
28.96956 258.000
28.98951 261.000
29.00945 256.000
29.02940 249.000
29.04935 227.000
29.06930 250.000
29.08924 240.000
29.10919 226.000
29.12914 222.000
29.14908 230.000
29.16903 240.000
29.18898 262.000
29.20892 251.000
29.22887 242.000
29.24882 288.000
29.26877 262.000
29.28871 257.000
29.30866 293.000
29.32861 313.000
29.34855 320.000
29.36850 325.000
29.38845 325.000
29.40839 380.000
29.42834 326.000
29.44829 349.000
29.46823 344.000
29.48818 328.000
29.50813 272.000
29.52808 295.000
29.54802 272.000
29.56797 273.000
29.58792 259.000
29.60786 234.000
29.62781 225.000
29.64776 238.000
29.66770 268.000
29.68765 233.000
29.70760 232.000
29.72755 248.000
29.74749 239.000
29.76744 275.000
29.78739 220.000
29.80733 236.000
29.82728 234.000
29.84723 221.000
29.86717 218.000
29.88712 238.000
29.90707 244.000
29.92701 251.000
29.94696 231.000
29.96691 225.000
29.98686 245.000
30.00680 235.000
30.02675 263.000
30.04670 276.000
30.06664 231.000
30.08659 261.000
30.10654 228.000
30.12648 266.000
30.14643 315.000
30.16638 302.000
30.18633 312.000
30.20627 305.000
30.22622 311.000
30.24617 359.000
30.26611 423.000
30.28606 495.000
30.30601 377.000
30.32595 357.000
30.34590 374.000
30.36585 390.000
30.38579 299.000
30.40574 301.000
30.42569 295.000
30.44564 282.000
30.46558 254.000
30.48553 252.000
30.50548 259.000
30.52542 268.000
30.54537 257.000
30.56532 251.000
30.58526 262.000
30.60521 257.000
30.62516 253.000
30.64511 254.000
30.66505 252.000
30.68500 256.000
30.70495 276.000
30.72489 234.000
30.74484 233.000
30.76479 228.000
30.78473 261.000
30.80468 240.000
30.82463 261.000
30.84458 249.000
30.86452 278.000
30.88447 243.000
30.90442 238.000
30.92436 242.000
30.94431 252.000
30.96426 226.000
30.98420 257.000
31.00415 228.000
31.02410 232.000
31.04404 262.000
31.06399 251.000
31.08394 232.000
31.10389 254.000
31.12383 224.000
31.14378 232.000
31.16373 248.000
31.18367 238.000
31.20362 241.000
31.22357 237.000
31.24351 219.000
31.26346 248.000
31.28341 241.000
31.30336 243.000
31.32330 244.000
31.34325 242.000
31.36320 259.000
31.38314 249.000
31.40309 232.000
31.42304 256.000
31.44298 254.000
31.46293 224.000
31.48288 257.000
31.50282 240.000
31.52277 236.000
31.54272 241.000
31.56267 253.000
31.58261 232.000
31.60256 242.000
31.62251 274.000
31.64245 252.000
31.66240 253.000
31.68235 269.000
31.70229 250.000
31.72224 210.000
31.74219 224.000
31.76214 245.000
31.78208 244.000
31.80203 202.000
31.82198 251.000
31.84192 278.000
31.86187 286.000
31.88182 246.000
31.90176 267.000
31.92171 256.000
31.94166 281.000
31.96160 311.000
31.98155 376.000
32.00150 385.000
32.02145 441.000
32.04139 518.000
32.06134 536.000
32.08129 589.000
32.10123 589.000
32.12118 545.000
32.14113 523.000
32.16107 496.000
32.18102 475.000
32.20097 389.000
32.22092 343.000
32.24086 289.000
32.26081 270.000
32.28076 249.000
32.30070 242.000
32.32065 259.000
32.34060 250.000
32.36054 274.000
32.38049 278.000
32.40044 296.000
32.42039 273.000
32.44033 270.000
32.46028 292.000
32.48023 321.000
32.50017 297.000
32.52012 340.000
32.54007 311.000
32.56001 355.000
32.57996 322.000
32.59991 309.000
32.61985 362.000
32.63980 343.000
32.65975 360.000
32.67970 327.000
32.69964 301.000
32.71959 327.000
32.73954 320.000
32.75948 352.000
32.77943 289.000
32.79938 304.000
32.81932 307.000
32.83927 284.000
32.85922 290.000
32.87917 307.000
32.89911 306.000
32.91906 317.000
32.93901 277.000
32.95895 263.000
32.97890 312.000
32.99885 278.000
33.01879 253.000
33.03874 244.000
33.05869 248.000
33.07863 243.000
33.09858 232.000
33.11853 233.000
33.13848 244.000
33.15842 239.000
33.17837 245.000
33.19832 235.000
33.21826 234.000
33.23821 246.000
33.25816 227.000
33.27810 242.000
33.29805 253.000
33.31800 236.000
33.33795 235.000
33.35789 258.000
33.37784 221.000
33.39779 256.000
33.41773 226.000
33.43768 255.000
33.45763 243.000
33.47757 236.000
33.49752 236.000
33.51747 237.000
33.53741 241.000
33.55736 239.000
33.57731 249.000
33.59726 248.000
33.61720 240.000
33.63715 284.000
33.65710 230.000
33.67704 240.000
33.69699 255.000
33.71694 261.000
33.73688 239.000
33.75683 242.000
33.77678 243.000
33.79673 242.000
33.81667 246.000
33.83662 285.000
33.85657 224.000
33.87651 252.000
33.89646 241.000
33.91641 272.000
33.93635 252.000
33.95630 268.000
33.97625 262.000
33.99620 259.000
34.01614 259.000
34.03609 228.000
34.05604 256.000
34.07598 249.000
34.09593 264.000
34.11588 258.000
34.13582 284.000
34.15577 291.000
34.17572 305.000
34.19566 333.000
34.21561 381.000
34.23556 353.000
34.25551 394.000
34.27545 385.000
34.29540 422.000
34.31535 443.000
34.33529 512.000
34.35524 585.000
34.37519 575.000
34.39513 602.000
34.41508 669.000
34.43503 672.000
34.45498 672.000
34.47492 718.000
34.49487 639.000
34.51482 662.000
34.53476 582.000
34.55471 616.000
34.57466 608.000
34.59460 563.000
34.61455 526.000
34.63450 458.000
34.65444 478.000
34.67439 428.000
34.69434 467.000
34.71429 434.000
34.73423 382.000
34.75418 417.000
34.77413 411.000
34.79407 384.000
34.81402 397.000
34.83397 358.000
34.85391 378.000
34.87386 359.000
34.89381 334.000
34.91376 342.000
34.93370 336.000
34.95365 302.000
34.97360 313.000
34.99354 302.000
35.01349 311.000
35.03344 305.000
35.05338 288.000
35.07333 273.000
35.09328 290.000
35.11322 274.000
35.13317 298.000
35.15312 326.000
35.17307 290.000
35.19301 332.000
35.21296 346.000
35.23291 354.000
35.25285 359.000
35.27280 356.000
35.29275 357.000
35.31269 425.000
35.33264 435.000
35.35259 460.000
35.37254 508.000
35.39248 571.000
35.41243 617.000
35.43238 687.000
35.45232 811.000
35.47227 911.000
35.49222 1027.000
35.51216 1093.000
35.53211 1208.000
35.55206 1262.000
35.57201 1334.000
35.59195 1396.000
35.61190 1429.000
35.63185 1461.000
35.65179 1663.000
35.67174 1728.000
35.69169 1431.000
35.71163 1348.000
35.73158 1243.000
35.75153 1184.000
35.77147 1032.000
35.79142 889.000
35.81137 784.000
35.83132 621.000
35.85126 533.000
35.87121 503.000
35.89116 456.000
35.91110 418.000
35.93105 377.000
35.95100 380.000
35.97094 371.000
35.99089 352.000
36.01084 362.000
36.03079 357.000
36.05073 324.000
36.07068 329.000
36.09063 333.000
36.11057 318.000
36.13052 332.000
36.15047 332.000
36.17041 285.000
36.19036 326.000
36.21031 282.000
36.23025 312.000
36.25020 283.000
36.27015 309.000
36.29010 315.000
36.31004 273.000
36.32999 330.000
36.34994 320.000
36.36988 278.000
36.38983 265.000
36.40978 298.000
36.42972 285.000
36.44967 279.000
36.46962 302.000
36.48957 304.000
36.50951 292.000
36.52946 286.000
36.54941 279.000
36.56935 280.000
36.58930 307.000
36.60925 310.000
36.62919 307.000
36.64914 297.000
36.66909 280.000
36.68903 281.000
36.70898 302.000
36.72893 287.000
36.74888 322.000
36.76882 378.000
36.78877 345.000
36.80872 356.000
36.82866 390.000
36.84861 415.000
36.86856 403.000
36.88850 482.000
36.90845 447.000
36.92840 527.000
36.94835 557.000
36.96829 550.000
36.98824 580.000
37.00819 594.000
37.02813 606.000
37.04808 714.000
37.06803 757.000
37.08797 795.000
37.10792 818.000
37.12787 786.000
37.14781 751.000
37.16776 809.000
37.18771 699.000
37.20766 656.000
37.22760 655.000
37.24755 544.000
37.26750 516.000
37.28744 491.000
37.30739 493.000
37.32734 426.000
37.34728 392.000
37.36723 375.000
37.38718 360.000
37.40713 326.000
37.42707 302.000
37.44702 289.000
37.46697 297.000
37.48691 303.000
37.50686 272.000
37.52681 299.000
37.54675 273.000
37.56670 245.000
37.58665 277.000
37.60660 252.000
37.62654 238.000
37.64649 266.000
37.66644 265.000
37.68638 281.000
37.70633 231.000
37.72628 292.000
37.74622 247.000
37.76617 277.000
37.78612 263.000
37.80606 262.000
37.82601 264.000
37.84596 256.000
37.86591 270.000
37.88585 244.000
37.90580 277.000
37.92575 289.000
37.94569 284.000
37.96564 266.000
37.98559 234.000
38.00553 251.000
38.02548 281.000
38.04543 262.000
38.06538 245.000
38.08532 272.000
38.10527 286.000
38.12522 271.000
38.14516 254.000
38.16511 282.000
38.18506 251.000
38.20500 282.000
38.22495 280.000
38.24490 266.000
38.26484 289.000
38.28479 295.000
38.30474 302.000
38.32469 289.000
38.34463 296.000
38.36458 322.000
38.38453 325.000
38.40447 319.000
38.42442 316.000
38.44437 343.000
38.46431 347.000
38.48426 402.000
38.50421 391.000
38.52416 433.000
38.54410 441.000
38.56405 459.000
38.58400 495.000
38.60394 532.000
38.62389 559.000
38.64384 625.000
38.66378 665.000
38.68373 700.000
38.70368 717.000
38.72362 699.000
38.74357 734.000
38.76352 776.000
38.78347 652.000
38.80341 673.000
38.82336 642.000
38.84331 620.000
38.86325 637.000
38.88320 580.000
38.90315 552.000
38.92309 498.000
38.94304 560.000
38.96299 559.000
38.98294 547.000
39.00288 505.000
39.02283 578.000
39.04278 535.000
39.06272 521.000
39.08267 493.000
39.10262 540.000
39.12256 563.000
39.14251 581.000
39.16246 622.000
39.18241 694.000
39.20235 688.000
39.22230 747.000
39.24225 803.000
39.26219 749.000
39.28214 773.000
39.30209 702.000
39.32203 681.000
39.34198 629.000
39.36193 624.000
39.38187 540.000
39.40182 533.000
39.42177 472.000
39.44172 390.000
39.46166 398.000
39.48161 352.000
39.50156 395.000
39.52150 311.000
39.54145 312.000
39.56140 285.000
39.58134 319.000
39.60129 276.000
39.62124 292.000
39.64119 274.000
39.66113 251.000
39.68108 243.000
39.70103 262.000
39.72097 269.000
39.74092 229.000
39.76087 244.000
39.78081 273.000
39.80076 261.000
39.82071 267.000
39.84065 248.000
39.86060 248.000
39.88055 273.000
39.90050 231.000
39.92044 251.000
39.94039 225.000
39.96034 213.000
39.98028 244.000
40.00023 241.000
40.02018 229.000
40.04012 258.000
40.06007 245.000
40.08002 251.000
40.09997 250.000
40.11991 209.000
40.13986 221.000
40.15981 230.000
40.17975 219.000
40.19970 247.000
40.21965 234.000
40.23959 229.000
40.25954 223.000
40.27949 253.000
40.29943 232.000
40.31938 241.000
40.33933 231.000
40.35928 244.000
40.37922 258.000
40.39917 256.000
40.41912 238.000
40.43906 257.000
40.45901 228.000
40.47896 236.000
40.49890 258.000
40.51885 229.000
40.53880 203.000
40.55875 229.000
40.57869 235.000
40.59864 279.000
40.61859 224.000
40.63853 257.000
40.65848 235.000
40.67843 226.000
40.69837 245.000
40.71832 236.000
40.73827 225.000
40.75822 236.000
40.77816 235.000
40.79811 257.000
40.81806 244.000
40.83800 243.000
40.85795 263.000
40.87790 248.000
40.89784 227.000
40.91779 265.000
40.93774 215.000
40.95768 258.000
40.97763 250.000
40.99758 238.000
41.01753 224.000
41.03747 244.000
41.05742 263.000
41.07737 227.000
41.09731 287.000
41.11726 266.000
41.13721 259.000
41.15715 265.000
41.17710 251.000
41.19705 263.000
41.21700 247.000
41.23694 257.000
41.25689 286.000
41.27684 293.000
41.29678 258.000
41.31673 253.000
41.33668 269.000
41.35662 295.000
41.37657 274.000
41.39652 267.000
41.41646 295.000
41.43641 305.000
41.45636 276.000
41.47631 283.000
41.49625 328.000
41.51620 309.000
41.53615 336.000
41.55609 371.000
41.57604 461.000
41.59599 460.000
41.61593 607.000
41.63588 675.000
41.65583 814.000
41.67578 942.000
41.69572 891.000
41.71567 924.000
41.73562 854.000
41.75556 815.000
41.77551 782.000
41.79546 723.000
41.81540 663.000
41.83535 617.000
41.85530 549.000
41.87524 481.000
41.89519 404.000
41.91514 379.000
41.93509 338.000
41.95503 319.000
41.97498 275.000
41.99493 282.000
42.01487 321.000
42.03482 281.000
42.05477 277.000
42.07471 311.000
42.09466 284.000
42.11461 293.000
42.13456 275.000
42.15450 259.000
42.17445 252.000
42.19440 265.000
42.21434 262.000
42.23429 216.000
42.25424 256.000
42.27418 273.000
42.29413 253.000
42.31408 263.000
42.33403 279.000
42.35397 240.000
42.37392 244.000
42.39387 272.000
42.41381 270.000
42.43376 275.000
42.45371 272.000
42.47365 276.000
42.49360 293.000
42.51355 274.000
42.53349 302.000
42.55344 258.000
42.57339 281.000
42.59334 311.000
42.61328 263.000
42.63323 259.000
42.65318 311.000
42.67312 314.000
42.69307 285.000
42.71302 320.000
42.73296 301.000
42.75291 314.000
42.77286 353.000
42.79281 361.000
42.81275 366.000
42.83270 364.000
42.85265 370.000
42.87259 397.000
42.89254 394.000
42.91249 457.000
42.93243 439.000
42.95238 473.000
42.97233 517.000
42.99227 592.000
43.01222 584.000
43.03217 609.000
43.05212 668.000
43.07206 694.000
43.09201 758.000
43.11196 745.000
43.13190 750.000
43.15185 805.000
43.17180 839.000
43.19174 789.000
43.21169 766.000
43.23164 742.000
43.25159 762.000
43.27153 765.000
43.29148 727.000
43.31143 776.000
43.33137 792.000
43.35132 755.000
43.37127 698.000
43.39121 705.000
43.41116 639.000
43.43111 602.000
43.45105 585.000
43.47100 563.000
43.49095 534.000
43.51090 484.000
43.53084 395.000
43.55079 428.000
43.57074 408.000
43.59068 341.000
43.61063 368.000
43.63058 300.000
43.65052 305.000
43.67047 278.000
43.69042 316.000
43.71037 273.000
43.73031 248.000
43.75026 262.000
43.77021 237.000
43.79015 243.000
43.81010 232.000
43.83005 242.000
43.84999 251.000
43.86994 253.000
43.88989 227.000
43.90984 268.000
43.92978 235.000
43.94973 213.000
43.96968 207.000
43.98962 252.000
44.00957 244.000
44.02952 233.000
44.04946 223.000
44.06941 247.000
44.08936 268.000
44.10930 214.000
44.12925 233.000
44.14920 234.000
44.16915 234.000
44.18909 238.000
44.20904 230.000
44.22899 221.000
44.24893 233.000
44.26888 248.000
44.28883 212.000
44.30877 206.000
44.32872 238.000
44.34867 241.000
44.36862 212.000
44.38856 231.000
44.40851 242.000
44.42846 196.000
44.44840 217.000
44.46835 202.000
44.48830 244.000
44.50824 209.000
44.52819 238.000
44.54814 234.000
44.56808 226.000
44.58803 251.000
44.60798 233.000
44.62793 242.000
44.64787 234.000
44.66782 223.000
44.68777 230.000
44.70771 214.000
44.72766 211.000
44.74761 231.000
44.76755 222.000
44.78750 244.000
44.80745 225.000
44.82740 193.000
44.84734 213.000
44.86729 230.000
44.88724 220.000
44.90718 257.000
44.92713 230.000
44.94708 223.000
44.96702 242.000
44.98697 245.000
45.00692 250.000
45.02686 253.000
45.04681 252.000
45.06676 220.000
45.08671 245.000
45.10665 265.000
45.12660 263.000
45.14655 237.000
45.16649 259.000
45.18644 227.000
45.20639 230.000
45.22633 226.000
45.24628 211.000
45.26623 234.000
45.28618 201.000
45.30612 202.000
45.32607 224.000
45.34602 218.000
45.36596 216.000
45.38591 240.000
45.40586 240.000
45.42580 212.000
45.44575 222.000
45.46570 203.000
45.48565 232.000
45.50559 195.000
45.52554 200.000
45.54549 199.000
45.56543 221.000
45.58538 226.000
45.60533 220.000
45.62527 229.000
45.64522 236.000
45.66517 255.000
45.68511 219.000
45.70506 233.000
45.72501 207.000
45.74496 225.000
45.76490 250.000
45.78485 226.000
45.80480 202.000
45.82474 202.000
45.84469 211.000
45.86464 235.000
45.88458 225.000
45.90453 208.000
45.92448 221.000
45.94443 215.000
45.96437 219.000
45.98432 224.000
46.00427 199.000
46.02421 228.000
46.04416 238.000
46.06411 234.000
46.08405 201.000
46.10400 208.000
46.12395 218.000
46.14389 216.000
46.16384 209.000
46.18379 225.000
46.20374 216.000
46.22368 242.000
46.24363 235.000
46.26358 258.000
46.28352 213.000
46.30347 212.000
46.32342 224.000
46.34336 243.000
46.36331 219.000
46.38326 221.000
46.40321 249.000
46.42315 220.000
46.44310 222.000
46.46305 256.000
46.48299 228.000
46.50294 196.000
46.52289 213.000
46.54283 231.000
46.56278 201.000
46.58273 211.000
46.60267 245.000
46.62262 215.000
46.64257 222.000
46.66252 208.000
46.68246 243.000
46.70241 195.000
46.72236 222.000
46.74230 216.000
46.76225 207.000
46.78220 196.000
46.80214 190.000
46.82209 228.000
46.84204 217.000
46.86199 219.000
46.88193 220.000
46.90188 196.000
46.92183 228.000
46.94177 226.000
46.96172 221.000
46.98167 209.000
47.00161 242.000
47.02156 227.000
47.04151 218.000
47.06146 222.000
47.08140 190.000
47.10135 181.000
47.12130 195.000
47.14124 214.000
47.16119 230.000
47.18114 220.000
47.20108 201.000
47.22103 208.000
47.24098 227.000
47.26092 213.000
47.28087 233.000
47.30082 233.000
47.32077 202.000
47.34071 189.000
47.36066 181.000
47.38061 207.000
47.40055 232.000
47.42050 217.000
47.44045 225.000
47.46039 214.000
47.48034 227.000
47.50029 213.000
47.52024 223.000
47.54018 231.000
47.56013 239.000
47.58008 197.000
47.60002 222.000
47.61997 263.000
47.63992 232.000
47.65986 212.000
47.67981 212.000
47.69976 231.000
47.71970 215.000
47.73965 211.000
47.75960 218.000
47.77955 233.000
47.79949 254.000
47.81944 191.000
47.83939 207.000
47.85933 238.000
47.87928 231.000
47.89923 225.000
47.91917 241.000
47.93912 246.000
47.95907 250.000
47.97902 253.000
47.99896 229.000
48.01891 250.000
48.03886 263.000
48.05880 221.000
48.07875 262.000
48.09870 242.000
48.11864 259.000
48.13859 263.000
48.15854 264.000
48.17848 259.000
48.19843 228.000
48.21838 265.000
48.23833 275.000
48.25827 281.000
48.27822 258.000
48.29817 269.000
48.31811 267.000
48.33806 270.000
48.35801 275.000
48.37795 254.000
48.39790 291.000
48.41785 307.000
48.43780 286.000
48.45774 282.000
48.47769 335.000
48.49764 316.000
48.51758 292.000
48.53753 336.000
48.55748 396.000
48.57742 425.000
48.59737 493.000
48.61732 574.000
48.63726 612.000
48.65721 655.000
48.67716 684.000
48.69711 714.000
48.71705 731.000
48.73700 717.000
48.75695 698.000
48.77689 766.000
48.79684 709.000
48.81679 623.000
48.83673 645.000
48.85668 563.000
48.87663 579.000
48.89658 547.000
48.91652 487.000
48.93647 495.000
48.95642 416.000
48.97636 403.000
48.99631 385.000
49.01626 358.000
49.03620 349.000
49.05615 298.000
49.07610 324.000
49.09605 294.000
49.11599 275.000
49.13594 291.000
49.15589 300.000
49.17583 265.000
49.19578 263.000
49.21573 230.000
49.23567 241.000
49.25562 302.000
49.27557 256.000
49.29551 271.000
49.31546 237.000
49.33541 241.000
49.35536 255.000
49.37530 262.000
49.39525 244.000
49.41520 260.000
49.43514 281.000
49.45509 227.000
49.47504 296.000
49.49498 267.000
49.51493 301.000
49.53488 263.000
49.55483 275.000
49.57477 266.000
49.59472 272.000
49.61467 229.000
49.63461 250.000
49.65456 254.000
49.67451 238.000
49.69445 247.000
49.71440 247.000
49.73435 220.000
49.75429 246.000
49.77424 266.000
49.79419 231.000
49.81414 202.000
49.83408 208.000
49.85403 202.000
49.87398 252.000
49.89392 215.000
49.91387 215.000
49.93382 219.000
49.95376 238.000
49.97371 230.000
49.99366 230.000
50.01361 196.000
50.03355 210.000
50.05350 218.000
50.07345 220.000
50.09339 261.000
50.11334 229.000
50.13329 210.000
50.15323 224.000
50.17318 260.000
50.19313 204.000
50.21307 208.000
50.23302 219.000
50.25297 229.000
50.27292 221.000
50.29286 209.000
50.31281 204.000
50.33276 227.000
50.35270 261.000
50.37265 196.000
50.39260 203.000
50.41254 189.000
50.43249 215.000
50.45244 204.000
50.47239 227.000
50.49233 205.000
50.51228 216.000
50.53223 214.000
50.55217 228.000
50.57212 209.000
50.59207 196.000
50.61201 200.000
50.63196 222.000
50.65191 206.000
50.67186 231.000
50.69180 202.000
50.71175 210.000
50.73170 198.000
50.75164 213.000
50.77159 225.000
50.79154 235.000
50.81148 214.000
50.83143 196.000
50.85138 212.000
50.87132 203.000
50.89127 219.000
50.91122 206.000
50.93117 210.000
50.95111 230.000
50.97106 205.000
50.99101 205.000
51.01095 210.000
51.03090 192.000
51.05085 213.000
51.07079 212.000
51.09074 192.000
51.11069 211.000
51.13064 225.000
51.15058 237.000
51.17053 219.000
51.19048 233.000
51.21042 203.000
51.23037 222.000
51.25032 208.000
51.27026 239.000
51.29021 212.000
51.31016 221.000
51.33010 210.000
51.35005 234.000
51.37000 208.000
51.38995 218.000
51.40989 207.000
51.42984 225.000
51.44979 209.000
51.46973 227.000
51.48968 196.000
51.50963 228.000
51.52957 216.000
51.54952 206.000
51.56947 209.000
51.58942 241.000
51.60936 224.000
51.62931 233.000
51.64926 204.000
51.66920 191.000
51.68915 222.000
51.70910 217.000
51.72904 210.000
51.74899 244.000
51.76894 197.000
51.78888 219.000
51.80883 206.000
51.82878 208.000
51.84873 208.000
51.86867 238.000
51.88862 212.000
51.90857 229.000
51.92851 256.000
51.94846 233.000
51.96841 218.000
51.98835 229.000
52.00830 227.000
52.02825 252.000
52.04820 222.000
52.06814 228.000
52.08809 236.000
52.10804 229.000
52.12798 252.000
52.14793 249.000
52.16788 223.000
52.18782 217.000
52.20777 221.000
52.22772 251.000
52.24767 212.000
52.26761 221.000
52.28756 228.000
52.30751 238.000
52.32745 236.000
52.34740 256.000
52.36735 239.000
52.38729 228.000
52.40724 235.000
52.42719 213.000
52.44713 223.000
52.46708 215.000
52.48703 239.000
52.50698 222.000
52.52692 212.000
52.54687 200.000
52.56682 206.000
52.58676 204.000
52.60671 226.000
52.62666 217.000
52.64660 255.000
52.66655 222.000
52.68650 218.000
52.70645 201.000
52.72639 198.000
52.74634 227.000
52.76629 213.000
52.78623 243.000
52.80618 240.000
52.82613 232.000
52.84607 209.000
52.86602 265.000
52.88597 230.000
52.90591 248.000
52.92586 254.000
52.94581 261.000
52.96576 269.000
52.98570 285.000
53.00565 285.000
53.02560 315.000
53.04554 338.000
53.06549 307.000
53.08544 351.000
53.10538 311.000
53.12533 309.000
53.14528 274.000
53.16523 319.000
53.18517 304.000
53.20512 283.000
53.22507 261.000
53.24501 268.000
53.26496 266.000
53.28491 276.000
53.30485 265.000
53.32480 263.000
53.34475 276.000
53.36469 241.000
53.38464 280.000
53.40459 267.000
53.42454 259.000
53.44448 259.000
53.46443 249.000
53.48438 280.000
53.50432 245.000
53.52427 229.000
53.54422 257.000
53.56416 239.000
53.58411 240.000
53.60406 264.000
53.62401 247.000
53.64395 257.000
53.66390 252.000
53.68385 249.000
53.70379 232.000
53.72374 248.000
53.74369 256.000
53.76363 259.000
53.78358 299.000
53.80353 264.000
53.82348 246.000
53.84342 241.000
53.86337 235.000
53.88332 254.000
53.90326 263.000
53.92321 237.000
53.94316 238.000
53.96310 225.000
53.98305 229.000
54.00300 192.000
54.02294 223.000
54.04289 233.000
54.06284 210.000
54.08279 232.000
54.10273 261.000
54.12268 239.000
54.14263 222.000
54.16257 204.000
54.18252 231.000
54.20247 237.000
54.22241 225.000
54.24236 216.000
54.26231 217.000
54.28226 235.000
54.30220 217.000
54.32215 231.000
54.34210 248.000
54.36204 221.000
54.38199 218.000
54.40194 216.000
54.42188 213.000
54.44183 235.000
54.46178 219.000
54.48172 237.000
54.50167 217.000
54.52162 227.000
54.54157 213.000
54.56151 228.000
54.58146 205.000
54.60141 223.000
54.62135 204.000
54.64130 215.000
54.66125 227.000
54.68119 196.000
54.70114 228.000
54.72109 200.000
54.74104 215.000
54.76098 222.000
54.78093 224.000
54.80088 236.000
54.82082 191.000
54.84077 205.000
54.86072 213.000
54.88066 192.000
54.90061 189.000
54.92056 192.000
54.94050 246.000
54.96045 207.000
54.98040 201.000
55.00035 176.000
55.02029 209.000
55.04024 200.000
55.06019 203.000
55.08013 216.000
55.10008 213.000
55.12003 194.000
55.13997 195.000
55.15992 230.000
55.17987 216.000
55.19982 220.000
55.21976 193.000
55.23971 179.000
55.25966 187.000
55.27960 238.000
55.29955 197.000
55.31950 205.000
55.33944 227.000
55.35939 202.000
55.37934 182.000
55.39929 200.000
55.41923 215.000
55.43918 189.000
55.45913 218.000
55.47907 228.000
55.49902 211.000
55.51897 221.000
55.53891 216.000
55.55886 220.000
55.57881 210.000
55.59875 213.000
55.61870 234.000
55.63865 206.000
55.65860 218.000
55.67854 230.000
55.69849 213.000
55.71844 194.000
55.73838 200.000
55.75833 214.000
55.77828 231.000
55.79822 214.000
55.81817 229.000
55.83812 204.000
55.85807 222.000
55.87801 213.000
55.89796 194.000
55.91791 225.000
55.93785 192.000
55.95780 210.000
55.97775 225.000
55.99769 225.000
56.01764 223.000
56.03759 217.000
56.05753 214.000
56.07748 210.000
56.09743 217.000
56.11738 249.000
56.13732 220.000
56.15727 227.000
56.17722 240.000
56.19716 227.000
56.21711 228.000
56.23706 214.000
56.25700 214.000
56.27695 258.000
56.29690 215.000
56.31685 211.000
56.33679 218.000
56.35674 252.000
56.37669 234.000
56.39663 201.000
56.41658 235.000
56.43653 200.000
56.45647 222.000
56.47642 239.000
56.49637 218.000
56.51631 227.000
56.53626 211.000
56.55621 228.000
56.57616 209.000
56.59610 221.000
56.61605 203.000
56.63600 224.000
56.65594 216.000
56.67589 209.000
56.69584 224.000
56.71578 221.000
56.73573 234.000
56.75568 205.000
56.77563 234.000
56.79557 208.000
56.81552 225.000
56.83547 208.000
56.85541 244.000
56.87536 222.000
56.89531 184.000
56.91525 236.000
56.93520 216.000
56.95515 228.000
56.97510 236.000
56.99504 211.000
57.01499 223.000
57.03494 239.000
57.05488 237.000
57.07483 247.000
57.09478 223.000
57.11472 223.000
57.13467 265.000
57.15462 244.000
57.17456 284.000
57.19451 244.000
57.21446 262.000
57.23441 269.000
57.25435 266.000
57.27430 340.000
57.29425 358.000
57.31419 326.000
57.33414 400.000
57.35409 345.000
57.37403 313.000
57.39398 332.000
57.41393 315.000
57.43388 332.000
57.45382 342.000
57.47377 302.000
57.49372 375.000
57.51366 340.000
57.53361 344.000
57.55356 341.000
57.57350 323.000
57.59345 319.000
57.61340 330.000
57.63334 340.000
57.65329 325.000
57.67324 358.000
57.69319 331.000
57.71313 346.000
57.73308 354.000
57.75303 326.000
57.77297 308.000
57.79292 298.000
57.81287 307.000
57.83281 327.000
57.85276 287.000
57.87271 280.000
57.89266 301.000
57.91260 280.000
57.93255 275.000
57.95250 249.000
57.97244 236.000
57.99239 239.000
58.01234 258.000
58.03228 273.000
58.05223 213.000
58.07218 222.000
58.09212 251.000
58.11207 239.000
58.13202 257.000
58.15197 255.000
58.17191 257.000
58.19186 305.000
58.21181 275.000
58.23175 269.000
58.25170 289.000
58.27165 291.000
58.29159 270.000
58.31154 254.000
58.33149 264.000
58.35144 269.000
58.37138 269.000
58.39133 275.000
58.41128 270.000
58.43122 271.000
58.45117 266.000
58.47112 263.000
58.49106 252.000
58.51101 271.000
58.53096 237.000
58.55090 249.000
58.57085 237.000
58.59080 249.000
58.61075 237.000
58.63069 234.000
58.65064 232.000
58.67059 215.000
58.69053 214.000
58.71048 188.000
58.73043 202.000
58.75037 234.000
58.77032 206.000
58.79027 211.000
58.81022 255.000
58.83016 227.000
58.85011 214.000
58.87006 211.000
58.89000 220.000
58.90995 207.000
58.92990 221.000
58.94984 211.000
58.96979 211.000
58.98974 196.000
59.00969 223.000
59.02963 215.000
59.04958 212.000
59.06953 214.000
59.08947 191.000
59.10942 222.000
59.12937 211.000
59.14931 213.000
59.16926 217.000
59.18921 182.000
59.20915 232.000
59.22910 192.000
59.24905 217.000
59.26900 215.000
59.28894 236.000
59.30889 205.000
59.32884 228.000
59.34878 230.000
59.36873 215.000
59.38868 217.000
59.40862 205.000
59.42857 215.000
59.44852 220.000
59.46847 238.000
59.48841 244.000
59.50836 217.000
59.52831 207.000
59.54825 225.000
59.56820 196.000
59.58815 227.000
59.60809 202.000
59.62804 210.000
59.64799 191.000
59.66793 203.000
59.68788 203.000
59.70783 218.000
59.72778 210.000
59.74772 206.000
59.76767 220.000
59.78762 229.000
59.80756 228.000
59.82751 219.000
59.84746 206.000
59.86740 240.000
59.88735 189.000
59.90730 187.000
59.92725 223.000
59.94719 211.000
59.96714 209.000
59.98709 185.000
60.00703 210.000
60.02698 216.000
60.04693 226.000
60.06687 211.000
60.08682 237.000
60.10677 205.000
60.12671 216.000
60.14666 211.000
60.16661 203.000
60.18656 208.000
60.20650 225.000
60.22645 226.000
60.24640 209.000
60.26634 211.000
60.28629 208.000
60.30624 199.000
60.32618 220.000
60.34613 214.000
60.36608 216.000
60.38603 241.000
60.40597 196.000
60.42592 188.000
60.44587 243.000
60.46581 214.000
60.48576 218.000
60.50571 233.000
60.52565 227.000
60.54560 192.000
60.56555 238.000
60.58550 195.000
60.60544 212.000
60.62539 222.000
60.64534 191.000
60.66528 225.000
60.68523 211.000
60.70518 243.000
60.72512 218.000
60.74507 216.000
60.76502 243.000
60.78496 211.000
60.80491 224.000
60.82486 218.000
60.84481 230.000
60.86475 227.000
60.88470 209.000
60.90465 217.000
60.92459 234.000
60.94454 212.000
60.96449 230.000
60.98443 211.000
61.00438 216.000
61.02433 241.000
61.04428 227.000
61.06422 228.000
61.08417 250.000
61.10412 227.000
61.12406 235.000
61.14401 228.000
61.16396 257.000
61.18390 230.000
61.20385 268.000
61.22380 235.000
61.24374 241.000
61.26369 276.000
61.28364 240.000
61.30359 234.000
61.32353 267.000
61.34348 264.000
61.36343 261.000
61.38337 291.000
61.40332 273.000
61.42327 306.000
61.44321 312.000
61.46316 292.000
61.48311 306.000
61.50306 333.000
61.52300 368.000
61.54295 386.000
61.56290 339.000
61.58284 397.000
61.60279 382.000
61.62274 393.000
61.64268 377.000
61.66263 368.000
61.68258 416.000
61.70252 385.000
61.72247 400.000
61.74242 402.000
61.76237 397.000
61.78231 406.000
61.80226 365.000
61.82221 367.000
61.84215 355.000
61.86210 354.000
61.88205 428.000
61.90199 419.000
61.92194 424.000
61.94189 409.000
61.96184 410.000
61.98178 453.000
62.00173 447.000
62.02168 472.000
62.04162 476.000
62.06157 432.000
62.08152 405.000
62.10146 445.000
62.12141 457.000
62.14136 423.000
62.16131 426.000
62.18125 399.000
62.20120 390.000
62.22115 405.000
62.24109 374.000
62.26104 369.000
62.28099 355.000
62.30093 369.000
62.32088 358.000
62.34083 367.000
62.36077 357.000
62.38072 364.000
62.40067 366.000
62.42062 381.000
62.44056 398.000
62.46051 415.000
62.48046 380.000
62.50040 413.000
62.52035 423.000
62.54030 434.000
62.56024 439.000
62.58019 447.000
62.60014 492.000
62.62009 462.000
62.64003 443.000
62.65998 499.000
62.67993 447.000
62.69987 475.000
62.71982 445.000
62.73977 452.000
62.75971 463.000
62.77966 468.000
62.79961 455.000
62.81955 457.000
62.83950 451.000
62.85945 454.000
62.87940 403.000
62.89934 529.000
62.91929 472.000
62.93924 508.000
62.95918 497.000
62.97913 505.000
62.99908 478.000
63.01902 462.000
63.03897 458.000
63.05892 392.000
63.07887 428.000
63.09881 434.000
63.11876 433.000
63.13871 424.000
63.15865 436.000
63.17860 424.000
63.19855 389.000
63.21849 372.000
63.23844 372.000
63.25839 366.000
63.27833 371.000
63.29828 336.000
63.31823 322.000
63.33818 310.000
63.35812 341.000
63.37807 299.000
63.39802 288.000
63.41796 322.000
63.43791 304.000
63.45786 289.000
63.47780 290.000
63.49775 269.000
63.51770 265.000
63.53765 260.000
63.55759 272.000
63.57754 265.000
63.59749 255.000
63.61743 290.000
63.63738 219.000
63.65733 223.000
63.67727 247.000
63.69722 262.000
63.71717 276.000
63.73712 262.000
63.75706 250.000
63.77701 299.000
63.79696 240.000
63.81690 237.000
63.83685 273.000
63.85680 275.000
63.87674 297.000
63.89669 311.000
63.91664 306.000
63.93658 319.000
63.95653 316.000
63.97648 293.000
63.99643 313.000
64.01637 330.000
64.03632 343.000
64.05627 312.000
64.07621 332.000
64.09616 312.000
64.11611 315.000
64.13605 319.000
64.15600 301.000
64.17595 307.000
64.19590 326.000
64.21584 301.000
64.23579 300.000
64.25574 296.000
64.27568 267.000
64.29563 273.000
64.31558 319.000
64.33552 252.000
64.35547 270.000
64.37542 244.000
64.39536 256.000
64.41531 228.000
64.43526 255.000
64.45521 237.000
64.47515 242.000
64.49510 213.000
64.51505 225.000
64.53499 232.000
64.55494 218.000
64.57489 235.000
64.59483 244.000
64.61478 206.000
64.63473 239.000
64.65468 237.000
64.67462 240.000
64.69457 243.000
64.71452 231.000
64.73446 243.000
64.75441 199.000
64.77436 225.000
64.79430 225.000
64.81425 199.000
64.83420 211.000
64.85414 238.000
64.87409 218.000
64.89404 234.000
64.91399 221.000
64.93393 215.000
64.95388 225.000
64.97383 217.000
64.99377 222.000
65.01372 215.000
65.03367 223.000
65.05361 233.000
65.07356 226.000
65.09351 240.000
65.11346 237.000
65.13340 222.000
65.15335 198.000
65.17330 233.000
65.19324 247.000
65.21319 228.000
65.23314 220.000
65.25308 267.000
65.27303 222.000
65.29298 210.000
65.31293 224.000
65.33287 225.000
65.35282 264.000
65.37277 250.000
65.39271 265.000
65.41266 241.000
65.43261 249.000
65.45255 279.000
65.47250 290.000
65.49245 289.000
65.51239 265.000
65.53234 264.000
65.55229 283.000
65.57224 297.000
65.59218 298.000
65.61213 332.000
65.63208 336.000
65.65202 312.000
65.67197 306.000
65.69192 330.000
65.71186 324.000
65.73181 320.000
65.75176 336.000
65.77171 337.000
65.79165 308.000
65.81160 330.000
65.83155 303.000
65.85149 314.000
65.87144 329.000
65.89139 300.000
65.91133 290.000
65.93128 303.000
65.95123 300.000
65.97117 303.000
65.99112 300.000
66.01107 295.000
66.03102 274.000
66.05096 272.000
66.07091 286.000
66.09086 264.000
66.11080 264.000
66.13075 297.000
66.15070 282.000
66.17064 290.000
66.19059 309.000
66.21054 296.000
66.23049 329.000
66.25043 329.000
66.27038 337.000
66.29033 340.000
66.31027 346.000
66.33022 367.000
66.35017 340.000
66.37011 372.000
66.39006 351.000
66.41001 372.000
66.42995 371.000
66.44990 308.000
66.46985 350.000
66.48980 355.000
66.50974 327.000
66.52969 283.000
66.54964 308.000
66.56958 311.000
66.58953 300.000
66.60948 284.000
66.62942 285.000
66.64937 289.000
66.66932 293.000
66.68927 299.000
66.70921 265.000
66.72916 256.000
66.74911 252.000
66.76905 255.000
66.78900 273.000
66.80895 250.000
66.82889 260.000
66.84884 271.000
66.86879 263.000
66.88874 257.000
66.90868 255.000
66.92863 243.000
66.94858 247.000
66.96852 271.000
66.98847 234.000
67.00842 239.000
67.02836 251.000
67.04831 259.000
67.06826 226.000
67.08820 244.000
67.10815 262.000
67.12810 239.000
67.14805 235.000
67.16799 266.000
67.18794 267.000
67.20789 258.000
67.22783 251.000
67.24778 254.000
67.26773 230.000
67.28767 266.000
67.30762 230.000
67.32757 273.000
67.34752 228.000
67.36746 248.000
67.38741 250.000
67.40736 213.000
67.42730 221.000
67.44725 255.000
67.46720 230.000
67.48714 266.000
67.50709 234.000
67.52704 217.000
67.54698 232.000
67.56693 214.000
67.58688 214.000
67.60683 235.000
67.62677 223.000
67.64672 246.000
67.66667 200.000
67.68661 252.000
67.70656 217.000
67.72651 280.000
67.74645 241.000
67.76640 255.000
67.78635 268.000
67.80630 243.000
67.82624 265.000
67.84619 278.000
67.86614 291.000
67.88608 306.000
67.90603 260.000
67.92598 262.000
67.94592 307.000
67.96587 347.000
67.98582 309.000
68.00576 293.000
68.02571 354.000
68.04566 310.000
68.06561 326.000
68.08555 279.000
68.10550 298.000
68.12545 304.000
68.14539 289.000
68.16534 287.000
68.18529 307.000
68.20523 288.000
68.22518 284.000
68.24513 297.000
68.26508 263.000
68.28502 279.000
68.30497 271.000
68.32492 262.000
68.34486 258.000
68.36481 243.000
68.38476 217.000
68.40470 246.000
68.42465 248.000
68.44460 252.000
68.46455 248.000
68.48449 217.000
68.50444 235.000
68.52439 238.000
68.54433 242.000
68.56428 246.000
68.58423 247.000
68.60417 228.000
68.62412 213.000
68.64407 219.000
68.66401 222.000
68.68396 208.000
68.70391 202.000
68.72386 209.000
68.74380 216.000
68.76375 226.000
68.78370 214.000
68.80364 226.000
68.82359 216.000
68.84354 203.000
68.86348 225.000
68.88343 231.000
68.90338 234.000
68.92333 233.000
68.94327 233.000
68.96322 222.000
68.98317 212.000
69.00311 217.000
69.02306 205.000
69.04301 222.000
69.06295 234.000
69.08290 189.000
69.10285 210.000
69.12279 199.000
69.14274 193.000
69.16269 206.000
69.18264 220.000
69.20258 187.000
69.22253 198.000
69.24248 216.000
69.26242 216.000
69.28237 186.000
69.30232 217.000
69.32226 209.000
69.34221 210.000
69.36216 199.000
69.38211 221.000
69.40205 213.000
69.42200 201.000
69.44195 210.000
69.46189 203.000
69.48184 225.000
69.50179 194.000
69.52173 202.000
69.54168 199.000
69.56163 185.000
69.58157 198.000
69.60152 195.000
69.62147 178.000
69.64142 187.000
69.66136 180.000
69.68131 196.000
69.70126 196.000
69.72120 195.000
69.74115 214.000
69.76110 212.000
69.78104 179.000
69.80099 223.000
69.82094 179.000
69.84089 222.000
69.86083 183.000
69.88078 225.000
69.90073 212.000
69.92067 229.000
69.94062 221.000
69.96057 200.000
69.98051 215.000
70.00046 205.000
70.02041 240.000
70.04035 214.000
70.06030 208.000
70.08025 217.000
70.10020 200.000
70.12014 199.000
70.14009 182.000
70.16004 193.000
70.17998 218.000
70.19993 191.000
70.21988 187.000
70.23982 207.000
70.25977 233.000
70.27972 224.000
70.29967 225.000
70.31961 201.000
70.33956 210.000
70.35951 202.000
70.37945 203.000
70.39940 208.000
70.41935 178.000
70.43929 202.000
70.45924 176.000
70.47919 216.000
70.49914 189.000
70.51908 212.000
70.53903 190.000
70.55898 206.000
70.57892 185.000
70.59887 197.000
70.61882 196.000
70.63876 205.000
70.65871 185.000
70.67866 188.000
70.69860 196.000
70.71855 205.000
70.73850 218.000
70.75845 220.000
70.77839 202.000
70.79834 214.000
70.81829 201.000
70.83823 214.000
70.85818 189.000
70.87813 197.000
70.89807 200.000
70.91802 197.000
70.93797 192.000
70.95792 190.000
70.97786 209.000
70.99781 214.000
71.01776 222.000
71.03770 212.000
71.05765 192.000
71.07760 183.000
71.09754 182.000
71.11749 183.000
71.13744 172.000
71.15738 190.000
71.17733 236.000
71.19728 183.000
71.21723 220.000
71.23717 226.000
71.25712 214.000
71.27707 207.000
71.29701 209.000
71.31696 218.000
71.33691 188.000
71.35685 215.000
71.37680 227.000
71.39675 199.000
71.41670 227.000
71.43664 203.000
71.45659 209.000
71.47654 209.000
71.49648 225.000
71.51643 197.000
71.53638 225.000
71.55632 207.000
71.57627 221.000
71.59622 244.000
71.61616 209.000
71.63611 213.000
71.65606 223.000
71.67601 214.000
71.69595 222.000
71.71590 218.000
71.73585 215.000
71.75579 208.000
71.77574 199.000
71.79569 203.000
71.81563 202.000
71.83558 206.000
71.85553 210.000
71.87548 199.000
71.89542 200.000
71.91537 215.000
71.93532 202.000
71.95526 218.000
71.97521 222.000
71.99516 229.000
72.01510 208.000
72.03505 228.000
72.05500 217.000
72.07495 196.000
72.09489 228.000
72.11484 214.000
72.13479 209.000
72.15473 215.000
72.17468 211.000
72.19463 214.000
72.21457 202.000
72.23452 222.000
72.25447 246.000
72.27441 212.000
72.29436 216.000
72.31431 232.000
72.33426 245.000
72.35420 210.000
72.37415 205.000
72.39410 232.000
72.41404 241.000
72.43399 236.000
72.45394 232.000
72.47388 259.000
72.49383 230.000
72.51378 255.000
72.53373 232.000
72.55367 260.000
72.57362 232.000
72.59357 227.000
72.61351 233.000
72.63346 252.000
72.65341 220.000
72.67335 239.000
72.69330 212.000
72.71325 231.000
72.73319 227.000
72.75314 225.000
72.77309 218.000
72.79304 259.000
72.81298 262.000
72.83293 245.000
72.85288 254.000
72.87282 266.000
72.89277 218.000
72.91272 261.000
72.93266 264.000
72.95261 259.000
72.97256 254.000
72.99251 262.000
73.01245 216.000
73.03240 243.000
73.05235 246.000
73.07229 231.000
73.09224 257.000
73.11219 245.000
73.13213 220.000
73.15208 247.000
73.17203 263.000
73.19197 249.000
73.21192 233.000
73.23187 236.000
73.25182 256.000
73.27176 257.000
73.29171 226.000
73.31166 248.000
73.33160 275.000
73.35155 283.000
73.37150 260.000
73.39144 260.000
73.41139 245.000
73.43134 249.000
73.45129 271.000
73.47123 274.000
73.49118 255.000
73.51113 277.000
73.53107 241.000
73.55102 268.000
73.57097 263.000
73.59091 271.000
73.61086 225.000
73.63081 245.000
73.65076 234.000
73.67070 229.000
73.69065 243.000
73.71060 246.000
73.73054 222.000
73.75049 235.000
73.77044 261.000
73.79038 227.000
73.81033 213.000
73.83028 215.000
73.85022 208.000
73.87017 214.000
73.89012 222.000
73.91007 190.000
73.93001 242.000
73.94996 197.000
73.96991 238.000
73.98985 221.000
74.00980 233.000
74.02975 213.000
74.04969 245.000
74.06964 210.000
74.08959 181.000
74.10954 187.000
74.12948 194.000
74.14943 218.000
74.16938 225.000
74.18932 215.000
74.20927 220.000
74.22922 207.000
74.24916 233.000
74.26911 219.000
74.28906 233.000
74.30900 223.000
74.32895 207.000
74.34890 240.000
74.36885 244.000
74.38879 216.000
74.40874 268.000
74.42869 234.000
74.44863 242.000
74.46858 232.000
74.48853 258.000
74.50847 260.000
74.52842 238.000
74.54837 259.000
74.56832 265.000
74.58826 262.000
74.60821 242.000
74.62816 233.000
74.64810 263.000
74.66805 259.000
74.68800 280.000
74.70794 292.000
74.72789 295.000
74.74784 254.000
74.76778 284.000
74.78773 279.000
74.80768 245.000
74.82763 271.000
74.84757 265.000
74.86752 274.000
74.88747 295.000
74.90741 273.000
74.92736 303.000
74.94731 283.000
74.96725 336.000
74.98720 304.000
75.00715 273.000
75.02710 314.000
75.04704 304.000
75.06699 289.000
75.08694 341.000
75.10688 332.000
75.12683 289.000
75.14678 325.000
75.16672 323.000
75.18667 278.000
75.20662 305.000
75.22657 319.000
75.24651 323.000
75.26646 342.000
75.28641 318.000
75.30635 282.000
75.32630 319.000
75.34625 341.000
75.36619 339.000
75.38614 299.000
75.40609 287.000
75.42603 281.000
75.44598 279.000
75.46593 274.000
75.48588 264.000
75.50582 277.000
75.52577 249.000
75.54572 294.000
75.56566 289.000
75.58561 252.000
75.60556 250.000
75.62550 258.000
75.64545 258.000
75.66540 229.000
75.68535 258.000
75.70529 227.000
75.72524 280.000
75.74519 237.000
75.76513 217.000
75.78508 266.000
75.80503 209.000
75.82497 229.000
75.84492 241.000
75.86487 231.000
75.88481 238.000
75.90476 224.000
75.92471 203.000
75.94466 216.000
75.96460 215.000
75.98455 233.000
76.00450 235.000
76.02444 226.000
76.04439 220.000
76.06434 211.000
76.08428 214.000
76.10423 224.000
76.12418 228.000
76.14413 186.000
76.16407 219.000
76.18402 202.000
76.20397 187.000
76.22391 209.000
76.24386 188.000
76.26381 192.000
76.28375 214.000
76.30370 239.000
76.32365 184.000
76.34359 203.000
76.36354 205.000
76.38349 209.000
76.40344 235.000
76.42338 210.000
76.44333 226.000
76.46328 227.000
76.48322 202.000
76.50317 196.000
76.52312 209.000
76.54306 199.000
76.56301 186.000
76.58296 220.000
76.60291 228.000
76.62285 226.000
76.64280 214.000
76.66275 209.000
76.68269 220.000
76.70264 178.000
76.72259 205.000
76.74253 215.000
76.76248 234.000
76.78243 196.000
76.80238 182.000
76.82232 210.000
76.84227 181.000
76.86222 224.000
76.88216 172.000
76.90211 205.000
76.92206 225.000
76.94200 186.000
76.96195 222.000
76.98190 191.000
77.00184 199.000
77.02179 190.000
77.04174 230.000
77.06169 210.000
77.08163 204.000
77.10158 205.000
77.12153 174.000
77.14147 195.000
77.16142 208.000
77.18137 212.000
77.20131 215.000
77.22126 197.000
77.24121 206.000
77.26116 196.000
77.28110 226.000
77.30105 226.000
77.32100 197.000
77.34094 225.000
77.36089 233.000
77.38084 209.000
77.40078 229.000
77.42073 213.000
77.44068 196.000
77.46062 228.000
77.48057 228.000
77.50052 231.000
77.52047 225.000
77.54041 232.000
77.56036 211.000
77.58031 213.000
77.60025 180.000
77.62020 237.000
77.64015 222.000
77.66009 249.000
77.68004 219.000
77.69999 270.000
77.71994 227.000
77.73988 257.000
77.75983 247.000
77.77978 220.000
77.79972 217.000
77.81967 232.000
77.83962 222.000
77.85956 241.000
77.87951 203.000
77.89946 219.000
77.91940 231.000
77.93935 220.000
77.95930 199.000
77.97925 214.000
77.99919 249.000
78.01914 233.000
78.03909 203.000
78.05903 255.000
78.07898 237.000
78.09893 212.000
78.11887 235.000
78.13882 224.000
78.15877 228.000
78.17872 252.000
78.19866 243.000
78.21861 270.000
78.23856 253.000
78.25850 262.000
78.27845 272.000
78.29840 297.000
78.31834 281.000
78.33829 276.000
78.35824 278.000
78.37819 245.000
78.39813 244.000
78.41808 265.000
78.43803 285.000
78.45797 295.000
78.47792 284.000
78.49787 274.000
78.51781 277.000
78.53776 280.000
78.55771 287.000
78.57765 269.000
78.59760 270.000
78.61755 285.000
78.63750 266.000
78.65744 259.000
78.67739 226.000
78.69734 246.000
78.71728 263.000
78.73723 261.000
78.75718 251.000
78.77712 267.000
78.79707 231.000
78.81702 260.000
78.83697 259.000
78.85691 256.000
78.87686 255.000
78.89681 257.000
78.91675 270.000
78.93670 264.000
78.95665 257.000
78.97659 260.000
78.99654 284.000
79.01649 268.000
79.03643 264.000
79.05638 290.000
79.07633 306.000
79.09628 282.000
79.11622 268.000
79.13617 240.000
79.15612 258.000
79.17606 258.000
79.19601 265.000
79.21596 246.000
79.23590 256.000
79.25585 238.000
79.27580 216.000
79.29575 242.000
79.31569 256.000
79.33564 227.000
79.35559 232.000
79.37553 250.000
79.39548 247.000
79.41543 221.000
79.43537 213.000
79.45532 245.000
79.47527 240.000
79.49521 223.000
79.51516 216.000
79.53511 219.000
79.55506 193.000
79.57500 233.000
79.59495 238.000
79.61490 219.000
79.63484 231.000
79.65479 206.000
79.67474 171.000
79.69468 220.000
79.71463 218.000
79.73458 189.000
79.75453 236.000
79.77447 216.000
79.79442 233.000
79.81437 210.000
79.83431 197.000
79.85426 182.000
79.87421 219.000
79.89415 210.000
79.91410 213.000
79.93405 219.000
79.95399 200.000
79.97394 220.000
79.99389 183.000
80.01384 222.000
80.03378 203.000
80.05373 208.000
80.07368 230.000
80.09362 222.000
80.11357 221.000
80.13352 205.000
80.15346 220.000
80.17341 226.000
80.19336 203.000
80.21331 204.000
80.23325 245.000
80.25320 185.000
80.27315 232.000
80.29309 220.000
80.31304 215.000
80.33299 231.000
80.35293 214.000
80.37288 228.000
80.39283 221.000
80.41278 174.000
80.43272 217.000
80.45267 195.000
80.47262 227.000
80.49256 201.000
80.51251 226.000
80.53246 220.000
80.55240 203.000
80.57235 205.000
80.59230 194.000
80.61224 213.000
80.63219 242.000
80.65214 197.000
80.67209 212.000
80.69203 225.000
80.71198 203.000
80.73193 218.000
80.75187 194.000
80.77182 224.000
80.79177 200.000
80.81171 199.000
80.83166 223.000
80.85161 208.000
80.87156 202.000
80.89150 227.000
80.91145 212.000
80.93140 198.000
80.95134 192.000
80.97129 208.000
80.99124 195.000
81.01118 208.000
81.03113 200.000
81.05108 222.000
81.07102 230.000
81.09097 205.000
81.11092 222.000
81.13087 211.000
81.15081 204.000
81.17076 199.000
81.19071 201.000
81.21065 190.000
81.23060 193.000
81.25055 219.000
81.27049 208.000
81.29044 203.000
81.31039 210.000
81.33034 177.000
81.35028 201.000
81.37023 201.000
81.39018 207.000
81.41012 199.000
81.43007 208.000
81.45002 182.000
81.46996 186.000
81.48991 187.000
81.50986 184.000
81.52980 187.000
81.54975 203.000
81.56970 220.000
81.58965 232.000
81.60959 222.000
81.62954 208.000
81.64949 183.000
81.66943 202.000
81.68938 201.000
81.70933 198.000
81.72927 208.000
81.74922 222.000
81.76917 202.000
81.78912 202.000
81.80906 202.000
81.82901 194.000
81.84896 185.000
81.86890 197.000
81.88885 196.000
81.90880 199.000
81.92874 192.000
81.94869 199.000
81.96864 195.000
81.98859 212.000
82.00853 197.000
82.02848 198.000
82.04843 189.000
82.06837 210.000
82.08832 217.000
82.10827 182.000
82.12821 201.000
82.14816 199.000
82.16811 223.000
82.18805 199.000
82.20800 206.000
82.22795 216.000
82.24790 186.000
82.26784 214.000
82.28779 216.000
82.30774 204.000
82.32768 227.000
82.34763 217.000
82.36758 225.000
82.38752 223.000
82.40747 236.000
82.42742 209.000
82.44737 208.000
82.46731 233.000
82.48726 205.000
82.50721 220.000
82.52715 216.000
82.54710 253.000
82.56705 208.000
82.58699 237.000
82.60694 228.000
82.62689 235.000
82.64683 234.000
82.66678 210.000
82.68673 233.000
82.70668 232.000
82.72662 224.000
82.74657 223.000
82.76652 194.000
82.78646 210.000
82.80641 213.000
82.82636 233.000
82.84630 227.000
82.86625 225.000
82.88620 228.000
82.90615 242.000
82.92609 233.000
82.94604 210.000
82.96599 217.000
82.98593 234.000
83.00588 232.000
83.02583 221.000
83.04577 227.000
83.06572 219.000
83.08567 235.000
83.10561 244.000
83.12556 205.000
83.14551 220.000
83.16546 214.000
83.18540 222.000
83.20535 214.000
83.22530 219.000
83.24524 219.000
83.26519 206.000
83.28514 215.000
83.30508 222.000
83.32503 245.000
83.34498 214.000
83.36493 208.000
83.38487 215.000
83.40482 234.000
83.42477 212.000
83.44471 245.000
83.46466 220.000
83.48461 197.000
83.50455 231.000
83.52450 222.000
83.54445 240.000
83.56440 189.000
83.58434 221.000
83.60429 189.000
83.62424 226.000
83.64418 230.000
83.66413 246.000
83.68408 228.000
83.70402 236.000
83.72397 223.000
83.74392 189.000
83.76386 218.000
83.78381 212.000
83.80376 242.000
83.82371 218.000
83.84365 238.000
83.86360 237.000
83.88355 233.000
83.90349 218.000
83.92344 215.000
83.94339 222.000
83.96333 221.000
83.98328 217.000
84.00323 207.000
84.02318 206.000
84.04312 197.000
84.06307 215.000
84.08302 222.000
84.10296 204.000
84.12291 219.000
84.14286 239.000
84.16280 231.000
84.18275 224.000
84.20270 197.000
84.22264 243.000
84.24259 222.000
84.26254 219.000
84.28249 264.000
84.30243 243.000
84.32238 224.000
84.34233 205.000
84.36227 218.000
84.38222 239.000
84.40217 218.000
84.42211 253.000
84.44206 250.000
84.46201 234.000
84.48196 207.000
84.50190 227.000
84.52185 209.000
84.54180 255.000
84.56174 214.000
84.58169 237.000
84.60164 244.000
84.62158 253.000
84.64153 235.000
84.66148 212.000
84.68142 229.000
84.70137 210.000
84.72132 232.000
84.74127 230.000
84.76121 234.000
84.78116 214.000
84.80111 212.000
84.82105 209.000
84.84100 205.000
84.86095 210.000
84.88089 203.000
84.90084 206.000
84.92079 227.000
84.94074 222.000
84.96068 207.000
84.98063 185.000
85.00058 212.000
85.02052 222.000
85.04047 225.000
85.06042 216.000
85.08036 231.000
85.10031 183.000
85.12026 206.000
85.14021 187.000
85.16015 194.000
85.18010 207.000
85.20005 190.000
85.21999 212.000
85.23994 185.000
85.25989 221.000
85.27983 201.000
85.29978 198.000
85.31973 189.000
85.33967 198.000
85.35962 204.000
85.37957 206.000
85.39952 191.000
85.41946 218.000
85.43941 184.000
85.45936 208.000
85.47930 209.000
85.49925 221.000
85.51920 217.000
85.53914 225.000
85.55909 193.000
85.57904 182.000
85.59899 214.000
85.61893 213.000
85.63888 190.000
85.65883 193.000
85.67877 201.000
85.69872 224.000
85.71867 193.000
85.73861 213.000
85.75856 214.000
85.77851 207.000
85.79845 145.000
85.81840 173.000
85.83835 180.000
85.85830 177.000
85.87824 203.000
85.89819 183.000
85.91814 198.000
85.93808 185.000
85.95803 261.000
85.97798 207.000
85.99792 192.000
86.01787 224.000
86.03782 195.000
86.05777 181.000
86.07771 203.000
86.09766 198.000
86.11761 203.000
86.13755 201.000
86.15750 202.000
86.17745 228.000
86.19739 172.000
86.21734 196.000
86.23729 205.000
86.25723 212.000
86.27718 202.000
86.29713 188.000
86.31708 214.000
86.33702 194.000
86.35697 198.000
86.37692 191.000
86.39686 183.000
86.41681 191.000
86.43676 210.000
86.45670 214.000
86.47665 201.000
86.49660 160.000
86.51655 178.000
86.53649 195.000
86.55644 196.000
86.57639 209.000
86.59633 204.000
86.61628 204.000
86.63623 209.000
86.65617 191.000
86.67612 183.000
86.69607 195.000
86.71602 211.000
86.73596 214.000
86.75591 199.000
86.77586 185.000
86.79580 209.000
86.81575 216.000
86.83570 195.000
86.85564 211.000
86.87559 198.000
86.89554 209.000
86.91548 209.000
86.93543 211.000
86.95538 205.000
86.97533 214.000
86.99527 210.000
87.01522 239.000
87.03517 202.000
87.05511 221.000
87.07506 218.000
87.09501 211.000
87.11495 225.000
87.13490 222.000
87.15485 212.000
87.17480 232.000
87.19474 222.000
87.21469 225.000
87.23464 212.000
87.25458 220.000
87.27453 249.000
87.29448 225.000
87.31442 210.000
87.33437 243.000
87.35432 215.000
87.37426 208.000
87.39421 213.000
87.41416 205.000
87.43411 230.000
87.45405 248.000
87.47400 206.000
87.49395 221.000
87.51389 209.000
87.53384 192.000
87.55379 202.000
87.57373 229.000
87.59368 221.000
87.61363 231.000
87.63358 221.000
87.65352 205.000
87.67347 240.000
87.69342 213.000
87.71336 214.000
87.73331 241.000
87.75326 267.000
87.77320 234.000
87.79315 216.000
87.81310 217.000
87.83304 217.000
87.85299 219.000
87.87294 205.000
87.89289 216.000
87.91283 205.000
87.93278 218.000
87.95273 225.000
87.97267 221.000
87.99262 216.000
88.01257 238.000
88.03251 194.000
88.05246 191.000
88.07241 220.000
88.09236 226.000
88.11230 198.000
88.13225 216.000
88.15220 193.000
88.17214 199.000
88.19209 186.000
88.21204 205.000
88.23198 195.000
88.25193 205.000
88.27188 210.000
88.29183 207.000
88.31177 214.000
88.33172 213.000
88.35167 200.000
88.37161 197.000
88.39156 194.000
88.41151 186.000
88.43145 203.000
88.45140 213.000
88.47135 194.000
88.49129 195.000
88.51124 220.000
88.53119 218.000
88.55114 193.000
88.57108 196.000
88.59103 223.000
88.61098 215.000
88.63092 194.000
88.65087 193.000
88.67082 215.000
88.69076 190.000
88.71071 215.000
88.73066 219.000
88.75061 176.000
88.77055 222.000
88.79050 198.000
88.81045 206.000
88.83039 186.000
88.85034 190.000
88.87029 218.000
88.89023 195.000
88.91018 199.000
88.93013 242.000
88.95007 214.000
88.97002 204.000
88.98997 191.000
89.00992 212.000
89.02986 204.000
89.04981 179.000
89.06976 212.000
89.08970 200.000
89.10965 202.000
89.12960 200.000
89.14954 229.000
89.16949 182.000
89.18944 194.000
89.20939 225.000
89.22933 237.000
89.24928 190.000
89.26923 183.000
89.28917 193.000
89.30912 212.000
89.32907 207.000
89.34901 223.000
89.36896 227.000
89.38891 231.000
89.40885 226.000
89.42880 205.000
89.44875 214.000
89.46870 197.000
89.48864 214.000
89.50859 211.000
89.52854 198.000
89.54848 194.000
89.56843 222.000
89.58838 196.000
89.60832 209.000
89.62827 196.000
89.64822 213.000
89.66817 214.000
89.68811 211.000
89.70806 211.000
89.72801 199.000
89.74795 210.000
89.76790 242.000
89.78785 213.000
89.80779 212.000
89.82774 220.000
89.84769 238.000
89.86764 205.000
89.88758 206.000
89.90753 233.000
89.92748 230.000
89.94742 213.000
89.96737 230.000
89.98732 200.000
90.00726 226.000
