10.00000 78.000
10.01995 69.000
10.03989 77.000
10.05984 68.000
10.07979 77.000
10.09973 74.000
10.11968 76.000
10.13963 67.000
10.15958 69.000
10.17952 69.000
10.19947 76.000
10.21942 74.000
10.23936 71.000
10.25931 75.000
10.27926 74.000
10.29920 73.000
10.31915 82.000
10.33910 89.000
10.35905 65.000
10.37899 80.000
10.39894 79.000
10.41889 78.000
10.43883 73.000
10.45878 79.000
10.47873 75.000
10.49867 82.000
10.51862 86.000
10.53857 83.000
10.55851 89.000
10.57846 69.000
10.59841 90.000
10.61836 67.000
10.63830 62.000
10.65825 64.000
10.67820 86.000
10.69814 83.000
10.71809 70.000
10.73804 67.000
10.75798 81.000
10.77793 73.000
10.79788 79.000
10.81783 72.000
10.83777 79.000
10.85772 93.000
10.87767 86.000
10.89761 79.000
10.91756 89.000
10.93751 81.000
10.95745 57.000
10.97740 78.000
10.99735 89.000
11.01730 78.000
11.03724 88.000
11.05719 72.000
11.07714 91.000
11.09708 72.000
11.11703 101.000
11.13698 78.000
11.15692 62.000
11.17687 86.000
11.19682 72.000
11.21676 67.000
11.23671 80.000
11.25666 95.000
11.27661 84.000
11.29655 76.000
11.31650 83.000
11.33645 76.000
11.35639 79.000
11.37634 83.000
11.39629 93.000
11.41623 82.000
11.43618 82.000
11.45613 93.000
11.47608 67.000
11.49602 74.000
11.51597 79.000
11.53592 81.000
11.55586 76.000
11.57581 82.000
11.59576 82.000
11.61570 82.000
11.63565 79.000
11.65560 94.000
11.67554 78.000
11.69549 90.000
11.71544 86.000
11.73539 85.000
11.75533 76.000
11.77528 72.000
11.79523 82.000
11.81517 77.000
11.83512 88.000
11.85507 93.000
11.87501 78.000
11.89496 93.000
11.91491 96.000
11.93486 79.000
11.95480 73.000
11.97475 95.000
11.99470 86.000
12.01464 84.000
12.03459 76.000
12.05454 88.000
12.07448 73.000
12.09443 86.000
12.11438 77.000
12.13432 95.000
12.15427 90.000
12.17422 91.000
12.19417 76.000
12.21411 81.000
12.23406 79.000
12.25401 78.000
12.27395 78.000
12.29390 79.000
12.31385 84.000
12.33379 85.000
12.35374 92.000
12.37369 87.000
12.39364 106.000
12.41358 91.000
12.43353 93.000
12.45348 83.000
12.47342 70.000
12.49337 72.000
12.51332 85.000
12.53326 77.000
12.55321 86.000
12.57316 86.000
12.59311 87.000
12.61305 83.000
12.63300 86.000
12.65295 104.000
12.67289 81.000
12.69284 80.000
12.71279 108.000
12.73273 84.000
12.75268 92.000
12.77263 90.000
12.79257 81.000
12.81252 73.000
12.83247 93.000
12.85242 85.000
12.87236 90.000
12.89231 76.000
12.91226 72.000
12.93220 95.000
12.95215 79.000
12.97210 82.000
12.99204 89.000
13.01199 65.000
13.03194 92.000
13.05189 80.000
13.07183 83.000
13.09178 89.000
13.11173 83.000
13.13167 79.000
13.15162 104.000
13.17157 87.000
13.19151 109.000
13.21146 88.000
13.23141 77.000
13.25135 90.000
13.27130 78.000
13.29125 90.000
13.31120 95.000
13.33114 96.000
13.35109 93.000
13.37104 79.000
13.39098 80.000
13.41093 80.000
13.43088 104.000
13.45082 96.000
13.47077 91.000
13.49072 86.000
13.51067 91.000
13.53061 102.000
13.55056 92.000
13.57051 98.000
13.59045 79.000
13.61040 77.000
13.63035 86.000
13.65029 82.000
13.67024 100.000
13.69019 86.000
13.71013 71.000
13.73008 93.000
13.75003 107.000
13.76998 104.000
13.78992 92.000
13.80987 95.000
13.82982 83.000
13.84976 92.000
13.86971 87.000
13.88966 76.000
13.90960 103.000
13.92955 88.000
13.94950 94.000
13.96945 77.000
13.98939 117.000
14.00934 94.000
14.02929 90.000
14.04923 94.000
14.06918 88.000
14.08913 85.000
14.10907 87.000
14.12902 80.000
14.14897 83.000
14.16892 81.000
14.18886 94.000
14.20881 97.000
14.22876 82.000
14.24870 97.000
14.26865 86.000
14.28860 96.000
14.30854 100.000
14.32849 92.000
14.34844 95.000
14.36838 97.000
14.38833 101.000
14.40828 90.000
14.42823 87.000
14.44817 95.000
14.46812 81.000
14.48807 108.000
14.50801 102.000
14.52796 97.000
14.54791 115.000
14.56785 76.000
14.58780 80.000
14.60775 105.000
14.62770 87.000
14.64764 80.000
14.66759 100.000
14.68754 99.000
14.70748 100.000
14.72743 111.000
14.74738 110.000
14.76732 93.000
14.78727 75.000
14.80722 102.000
14.82716 89.000
14.84711 87.000
14.86706 92.000
14.88701 114.000
14.90695 96.000
14.92690 95.000
14.94685 83.000
14.96679 97.000
14.98674 70.000
15.00669 106.000
15.02663 90.000
15.04658 85.000
15.06653 85.000
15.08648 103.000
15.10642 117.000
15.12637 98.000
15.14632 113.000
15.16626 118.000
15.18621 112.000
15.20616 99.000
15.22610 100.000
15.24605 101.000
15.26600 107.000
15.28594 101.000
15.30589 120.000
15.32584 126.000
15.34579 93.000
15.36573 99.000
15.38568 107.000
15.40563 112.000
15.42557 116.000
15.44552 134.000
15.46547 125.000
15.48541 128.000
15.50536 119.000
15.52531 161.000
15.54526 118.000
15.56520 115.000
15.58515 148.000
15.60510 160.000
15.62504 137.000
15.64499 172.000
15.66494 179.000
15.68488 175.000
15.70483 187.000
15.72478 242.000
15.74472 307.000
15.76467 366.000
15.78462 396.000
15.80457 504.000
15.82451 757.000
15.84446 945.000
15.86441 1327.000
15.88435 1678.000
15.90430 2007.000
15.92425 1872.000
15.94419 1676.000
15.96414 1209.000
15.98409 903.000
16.00404 694.000
16.02398 688.000
16.04393 703.000
16.06388 832.000
16.08382 1032.000
16.10377 1297.000
16.12372 1465.000
16.14366 1566.000
16.16361 1531.000
16.18356 1504.000
16.20351 1292.000
16.22345 1064.000
16.24340 880.000
16.26335 671.000
16.28329 520.000
16.30324 359.000
16.32319 275.000
16.34313 216.000
16.36308 184.000
16.38303 165.000
16.40297 147.000
16.42292 166.000
16.44287 144.000
16.46282 143.000
16.48276 130.000
16.50271 110.000
16.52266 131.000
16.54260 122.000
16.56255 102.000
16.58250 118.000
16.60244 108.000
16.62239 131.000
16.64234 115.000
16.66229 111.000
16.68223 117.000
16.70218 137.000
16.72213 120.000
16.74207 108.000
16.76202 122.000
16.78197 133.000
16.80191 104.000
16.82186 113.000
16.84181 102.000
16.86175 120.000
16.88170 123.000
16.90165 124.000
16.92160 143.000
16.94154 130.000
16.96149 142.000
16.98144 127.000
17.00138 126.000
17.02133 130.000
17.04128 110.000
17.06122 109.000
17.08117 116.000
17.10112 110.000
17.12107 87.000
17.14101 114.000
17.16096 110.000
17.18091 93.000
17.20085 107.000
17.22080 105.000
17.24075 123.000
17.26069 101.000
17.28064 118.000
17.30059 108.000
17.32053 96.000
17.34048 95.000
17.36043 103.000
17.38038 113.000
17.40032 95.000
17.42027 109.000
17.44022 102.000
17.46016 95.000
17.48011 94.000
17.50006 99.000
17.52000 100.000
17.53995 105.000
17.55990 79.000
17.57985 111.000
17.59979 134.000
17.61974 100.000
17.63969 90.000
17.65963 93.000
17.67958 87.000
17.69953 111.000
17.71947 102.000
17.73942 114.000
17.75937 95.000
17.77932 118.000
17.79926 98.000
17.81921 128.000
17.83916 114.000
17.85910 129.000
17.87905 107.000
17.89900 118.000
17.91894 102.000
17.93889 98.000
17.95884 90.000
17.97878 124.000
17.99873 110.000
18.01868 102.000
18.03863 99.000
18.05857 127.000
18.07852 106.000
18.09847 98.000
18.11841 97.000
18.13836 120.000
18.15831 128.000
18.17825 102.000
18.19820 84.000
18.21815 110.000
18.23810 103.000
18.25804 110.000
18.27799 123.000
18.29794 98.000
18.31788 94.000
18.33783 116.000
18.35778 100.000
18.37772 106.000
18.39767 95.000
18.41762 107.000
18.43756 111.000
18.45751 99.000
18.47746 103.000
18.49741 114.000
18.51735 117.000
18.53730 115.000
18.55725 91.000
18.57719 96.000
18.59714 105.000
18.61709 115.000
18.63703 98.000
18.65698 123.000
18.67693 100.000
18.69688 100.000
18.71682 106.000
18.73677 96.000
18.75672 104.000
18.77666 107.000
18.79661 102.000
18.81656 87.000
18.83650 105.000
18.85645 124.000
18.87640 107.000
18.89634 116.000
18.91629 107.000
18.93624 98.000
18.95619 94.000
18.97613 101.000
18.99608 107.000
19.01603 96.000
19.03597 97.000
19.05592 135.000
19.07587 111.000
19.09581 101.000
19.11576 112.000
19.13571 94.000
19.15566 112.000
19.17560 116.000
19.19555 127.000
19.21550 115.000
19.23544 126.000
19.25539 86.000
19.27534 114.000
19.29528 122.000
19.31523 109.000
19.33518 124.000
19.35513 113.000
19.37507 107.000
19.39502 84.000
19.41497 113.000
19.43491 117.000
19.45486 115.000
19.47481 120.000
19.49475 117.000
19.51470 97.000
19.53465 115.000
19.55459 120.000
19.57454 106.000
19.59449 116.000
19.61444 116.000
19.63438 101.000
19.65433 110.000
19.67428 99.000
19.69422 115.000
19.71417 120.000
19.73412 100.000
19.75406 121.000
19.77401 114.000
19.79396 107.000
19.81391 107.000
19.83385 120.000
19.85380 105.000
19.87375 95.000
19.89369 117.000
19.91364 109.000
19.93359 97.000
19.95353 125.000
19.97348 98.000
19.99343 114.000
20.01337 110.000
20.03332 115.000
20.05327 123.000
20.07322 109.000
20.09316 109.000
20.11311 126.000
20.13306 121.000
20.15300 124.000
20.17295 122.000
20.19290 121.000
20.21284 101.000
20.23279 108.000
20.25274 103.000
20.27269 111.000
20.29263 122.000
20.31258 100.000
20.33253 108.000
20.35247 91.000
20.37242 108.000
20.39237 113.000
20.41231 116.000
20.43226 102.000
20.45221 98.000
20.47215 121.000
20.49210 115.000
20.51205 97.000
20.53200 129.000
20.55194 117.000
20.57189 97.000
20.59184 114.000
20.61178 106.000
20.63173 114.000
20.65168 125.000
20.67162 136.000
20.69157 114.000
20.71152 127.000
20.73147 113.000
20.75141 111.000
20.77136 102.000
20.79131 130.000
20.81125 113.000
20.83120 118.000
20.85115 144.000
20.87109 141.000
20.89104 176.000
20.91099 193.000
20.93094 174.000
20.95088 204.000
20.97083 205.000
20.99078 166.000
21.01072 207.000
21.03067 212.000
21.05062 194.000
21.07056 167.000
21.09051 178.000
21.11046 179.000
21.13040 154.000
21.15035 140.000
21.17030 141.000
21.19025 148.000
21.21019 128.000
21.23014 129.000
21.25009 140.000
21.27003 120.000
21.28998 113.000
21.30993 128.000
21.32987 114.000
21.34982 115.000
21.36977 113.000
21.38972 103.000
21.40966 123.000
21.42961 117.000
21.44956 118.000
21.46950 123.000
21.48945 117.000
21.50940 134.000
21.52934 131.000
21.54929 123.000
21.56924 104.000
21.58918 131.000
21.60913 104.000
21.62908 122.000
21.64903 142.000
21.66897 101.000
21.68892 128.000
21.70887 128.000
21.72881 102.000
21.74876 111.000
21.76871 116.000
21.78865 137.000
21.80860 105.000
21.82855 120.000
21.84850 105.000
21.86844 107.000
21.88839 113.000
21.90834 101.000
21.92828 115.000
21.94823 112.000
21.96818 120.000
21.98812 104.000
22.00807 108.000
22.02802 114.000
22.04796 115.000
22.06791 126.000
22.08786 110.000
22.10781 114.000
22.12775 126.000
22.14770 122.000
22.16765 129.000
22.18759 146.000
22.20754 122.000
22.22749 111.000
22.24743 112.000
22.26738 116.000
22.28733 128.000
22.30728 137.000
22.32722 106.000
22.34717 108.000
22.36712 121.000
22.38706 122.000
22.40701 145.000
22.42696 104.000
22.44690 122.000
22.46685 116.000
22.48680 121.000
22.50675 132.000
22.52669 121.000
22.54664 101.000
22.56659 129.000
22.58653 120.000
22.60648 131.000
22.62643 109.000
22.64637 128.000
22.66632 119.000
22.68627 147.000
22.70621 122.000
22.72616 113.000
22.74611 112.000
22.76606 129.000
22.78600 130.000
22.80595 129.000
22.82590 109.000
22.84584 132.000
22.86579 127.000
22.88574 119.000
22.90568 113.000
22.92563 134.000
22.94558 133.000
22.96553 119.000
22.98547 127.000
23.00542 101.000
23.02537 118.000
23.04531 105.000
23.06526 138.000
23.08521 115.000
23.10515 119.000
23.12510 128.000
23.14505 115.000
23.16499 124.000
23.18494 136.000
23.20489 125.000
23.22484 134.000
23.24478 115.000
23.26473 110.000
23.28468 108.000
23.30462 137.000
23.32457 115.000
23.34452 106.000
23.36446 102.000
23.38441 133.000
23.40436 137.000
23.42431 155.000
23.44425 130.000
23.46420 140.000
23.48415 121.000
23.50409 110.000
23.52404 130.000
23.54399 116.000
23.56393 139.000
23.58388 137.000
23.60383 137.000
23.62377 112.000
23.64372 113.000
23.66367 138.000
23.68362 114.000
23.70356 118.000
23.72351 120.000
23.74346 143.000
23.76340 117.000
23.78335 113.000
23.80330 132.000
23.82324 126.000
23.84319 139.000
23.86314 111.000
23.88309 125.000
23.90303 122.000
23.92298 122.000
23.94293 133.000
23.96287 127.000
23.98282 109.000
24.00277 127.000
24.02271 117.000
24.04266 117.000
24.06261 123.000
24.08256 116.000
24.10250 132.000
24.12245 133.000
24.14240 129.000
24.16234 148.000
24.18229 139.000
24.20224 127.000
24.22218 146.000
24.24213 106.000
24.26208 143.000
24.28202 149.000
24.30197 128.000
24.32192 128.000
24.34187 131.000
24.36181 130.000
24.38176 128.000
24.40171 139.000
24.42165 138.000
24.44160 107.000
24.46155 129.000
24.48149 123.000
24.50144 115.000
24.52139 127.000
24.54134 120.000
24.56128 127.000
24.58123 120.000
24.60118 136.000
24.62112 129.000
24.64107 104.000
24.66102 142.000
24.68096 145.000
24.70091 113.000
24.72086 138.000
24.74080 136.000
24.76075 137.000
24.78070 114.000
24.80065 132.000
24.82059 139.000
24.84054 133.000
24.86049 130.000
24.88043 132.000
24.90038 151.000
24.92033 147.000
24.94027 131.000
24.96022 157.000
24.98017 159.000
25.00012 162.000
25.02006 123.000
25.04001 151.000
25.05996 169.000
25.07990 165.000
25.09985 143.000
25.11980 169.000
25.13974 153.000
25.15969 142.000
25.17964 147.000
25.19958 144.000
25.21953 149.000
25.23948 126.000
25.25943 119.000
25.27937 129.000
25.29932 136.000
25.31927 130.000
25.33921 138.000
25.35916 132.000
25.37911 148.000
25.39905 146.000
25.41900 136.000
25.43895 132.000
25.45890 134.000
25.47884 162.000
25.49879 135.000
25.51874 146.000
25.53868 131.000
25.55863 123.000
25.57858 126.000
25.59852 130.000
25.61847 137.000
25.63842 126.000
25.65837 124.000
25.67831 128.000
25.69826 143.000
25.71821 128.000
25.73815 135.000
25.75810 120.000
25.77805 133.000
25.79799 113.000
25.81794 127.000
25.83789 149.000
25.85783 135.000
25.87778 141.000
25.89773 128.000
25.91768 148.000
25.93762 135.000
25.95757 146.000
25.97752 146.000
25.99746 132.000
26.01741 162.000
26.03736 130.000
26.05730 129.000
26.07725 143.000
26.09720 139.000
26.11715 132.000
26.13709 130.000
26.15704 137.000
26.17699 143.000
26.19693 145.000
26.21688 130.000
26.23683 144.000
26.25677 147.000
26.27672 137.000
26.29667 140.000
26.31661 131.000
26.33656 163.000
26.35651 130.000
26.37646 140.000
26.39640 166.000
26.41635 141.000
26.43630 158.000
26.45624 148.000
26.47619 130.000
26.49614 136.000
26.51608 136.000
26.53603 140.000
26.55598 129.000
26.57593 142.000
26.59587 129.000
26.61582 164.000
26.63577 123.000
26.65571 126.000
26.67566 152.000
26.69561 114.000
26.71555 145.000
26.73550 150.000
26.75545 134.000
26.77539 141.000
26.79534 123.000
26.81529 136.000
26.83524 166.000
26.85518 129.000
26.87513 141.000
26.89508 133.000
26.91502 134.000
26.93497 155.000
26.95492 142.000
26.97486 135.000
26.99481 159.000
27.01476 151.000
27.03471 148.000
27.05465 137.000
27.07460 127.000
27.09455 139.000
27.11449 148.000
27.13444 148.000
27.15439 136.000
27.17433 153.000
27.19428 137.000
27.21423 152.000
27.23417 136.000
27.25412 162.000
27.27407 148.000
27.29402 114.000
27.31396 139.000
27.33391 146.000
27.35386 156.000
27.37380 146.000
27.39375 155.000
27.41370 139.000
27.43364 143.000
27.45359 169.000
27.47354 165.000
27.49349 148.000
27.51343 131.000
27.53338 150.000
27.55333 138.000
27.57327 118.000
27.59322 139.000
27.61317 134.000
27.63311 181.000
27.65306 110.000
27.67301 170.000
27.69296 162.000
27.71290 176.000
27.73285 153.000
27.75280 149.000
27.77274 155.000
27.79269 122.000
27.81264 151.000
27.83258 136.000
27.85253 144.000
27.87248 146.000
27.89242 159.000
27.91237 152.000
27.93232 132.000
27.95227 166.000
27.97221 164.000
27.99216 172.000
28.01211 141.000
28.03205 142.000
28.05200 132.000
28.07195 141.000
28.09189 149.000
28.11184 134.000
28.13179 151.000
28.15174 136.000
28.17168 153.000
28.19163 150.000
28.21158 155.000
28.23152 117.000
28.25147 140.000
28.27142 160.000
28.29136 143.000
28.31131 135.000
28.33126 148.000
28.35120 161.000
28.37115 166.000
28.39110 167.000
28.41105 130.000
28.43099 134.000
28.45094 170.000
28.47089 142.000
28.49083 169.000
28.51078 164.000
28.53073 166.000
28.55067 149.000
28.57062 140.000
28.59057 136.000
28.61052 142.000
28.63046 135.000
28.65041 140.000
28.67036 148.000
28.69030 141.000
28.71025 136.000
28.73020 157.000
28.75014 170.000
28.77009 166.000
28.79004 155.000
28.80998 158.000
28.82993 155.000
28.84988 154.000
28.86983 152.000
28.88977 154.000
28.90972 160.000
28.92967 162.000
28.94961 163.000
28.96956 150.000
28.98951 170.000
29.00945 183.000
29.02940 147.000
29.04935 146.000
29.06930 146.000
29.08924 160.000
29.10919 151.000
29.12914 171.000
29.14908 145.000
29.16903 143.000
29.18898 171.000
29.20892 172.000
29.22887 153.000
29.24882 147.000
29.26877 170.000
29.28871 166.000
29.30866 183.000
29.32861 158.000
29.34855 176.000
29.36850 196.000
29.38845 174.000
29.40839 177.000
29.42834 197.000
29.44829 249.000
29.46823 230.000
29.48818 243.000
29.50813 247.000
29.52808 219.000
29.54802 241.000
29.56797 216.000
29.58792 219.000
29.60786 189.000
29.62781 199.000
29.64776 154.000
29.66770 184.000
29.68765 180.000
29.70760 173.000
29.72755 168.000
29.74749 157.000
29.76744 166.000
29.78739 180.000
29.80733 180.000
29.82728 137.000
29.84723 154.000
29.86717 169.000
29.88712 168.000
29.90707 149.000
29.92701 158.000
29.94696 158.000
29.96691 144.000
29.98686 165.000
30.00680 175.000
30.02675 156.000
30.04670 168.000
30.06664 162.000
30.08659 172.000
30.10654 162.000
30.12648 171.000
30.14643 164.000
30.16638 172.000
30.18633 182.000
30.20627 162.000
30.22622 174.000
30.24617 155.000
30.26611 159.000
30.28606 169.000
30.30601 136.000
30.32595 155.000
30.34590 172.000
30.36585 145.000
30.38579 163.000
30.40574 171.000
30.42569 144.000
30.44564 142.000
30.46558 166.000
30.48553 189.000
30.50548 181.000
30.52542 168.000
30.54537 183.000
30.56532 132.000
30.58526 159.000
30.60521 144.000
30.62516 147.000
30.64511 157.000
30.66505 151.000
30.68500 171.000
30.70495 141.000
30.72489 163.000
30.74484 158.000
30.76479 153.000
30.78473 157.000
30.80468 159.000
30.82463 152.000
30.84458 161.000
30.86452 176.000
30.88447 139.000
30.90442 164.000
30.92436 153.000
30.94431 155.000
30.96426 165.000
30.98420 155.000
31.00415 163.000
31.02410 154.000
31.04404 156.000
31.06399 166.000
31.08394 178.000
31.10389 171.000
31.12383 145.000
31.14378 152.000
31.16373 148.000
31.18367 157.000
31.20362 153.000
31.22357 174.000
31.24351 154.000
31.26346 162.000
31.28341 163.000
31.30336 168.000
31.32330 148.000
31.34325 141.000
31.36320 158.000
31.38314 182.000
31.40309 169.000
31.42304 160.000
31.44298 167.000
31.46293 140.000
31.48288 161.000
31.50282 167.000
31.52277 166.000
31.54272 140.000
31.56267 179.000
31.58261 163.000
31.60256 167.000
31.62251 169.000
31.64245 164.000
31.66240 159.000
31.68235 167.000
31.70229 136.000
31.72224 161.000
31.74219 166.000
31.76214 175.000
31.78208 165.000
31.80203 171.000
31.82198 167.000
31.84192 208.000
31.86187 180.000
31.88182 206.000
31.90176 220.000
31.92171 238.000
31.94166 259.000
31.96160 306.000
31.98155 309.000
32.00150 315.000
32.02145 325.000
32.04139 343.000
32.06134 332.000
32.08129 321.000
32.10123 305.000
32.12118 263.000
32.14113 243.000
32.16107 251.000
32.18102 230.000
32.20097 190.000
32.22092 199.000
32.24086 187.000
32.26081 193.000
32.28076 228.000
32.30070 191.000
32.32065 204.000
32.34060 204.000
32.36054 217.000
32.38049 259.000
32.40044 258.000
32.42039 278.000
32.44033 299.000
32.46028 296.000
32.48023 311.000
32.50017 359.000
32.52012 360.000
32.54007 345.000
32.56001 319.000
32.57996 359.000
32.59991 358.000
32.61985 398.000
32.63980 364.000
32.65975 318.000
32.67970 304.000
32.69964 317.000
32.71959 292.000
32.73954 252.000
32.75948 258.000
32.77943 230.000
32.79938 219.000
32.81932 185.000
32.83927 191.000
32.85922 174.000
32.87917 187.000
32.89911 186.000
32.91906 150.000
32.93901 181.000
32.95895 157.000
32.97890 164.000
32.99885 176.000
33.01879 185.000
33.03874 169.000
33.05869 145.000
33.07863 183.000
33.09858 189.000
33.11853 167.000
33.13848 168.000
33.15842 168.000
33.17837 169.000
33.19832 169.000
33.21826 163.000
33.23821 175.000
33.25816 161.000
33.27810 168.000
33.29805 167.000
33.31800 159.000
33.33795 173.000
33.35789 188.000
33.37784 150.000
33.39779 165.000
33.41773 182.000
33.43768 176.000
33.45763 172.000
33.47757 168.000
33.49752 185.000
33.51747 135.000
33.53741 173.000
33.55736 139.000
33.57731 149.000
33.59726 159.000
33.61720 174.000
33.63715 176.000
33.65710 161.000
33.67704 175.000
33.69699 154.000
33.71694 181.000
33.73688 171.000
33.75683 167.000
33.77678 164.000
33.79673 156.000
33.81667 172.000
33.83662 162.000
33.85657 156.000
33.87651 161.000
33.89646 179.000
33.91641 157.000
33.93635 169.000
33.95630 166.000
33.97625 156.000
33.99620 165.000
34.01614 159.000
34.03609 148.000
34.05604 162.000
34.07598 154.000
34.09593 194.000
34.11588 193.000
34.13582 185.000
34.15577 170.000
34.17572 185.000
34.19566 175.000
34.21561 181.000
34.23556 201.000
34.25551 207.000
34.27545 211.000
34.29540 206.000
34.31535 230.000
34.33529 217.000
34.35524 245.000
34.37519 265.000
34.39513 275.000
34.41508 275.000
34.43503 268.000
34.45498 278.000
34.47492 284.000
34.49487 333.000
34.51482 299.000
34.53476 294.000
34.55471 301.000
34.57466 324.000
34.59460 282.000
34.61455 269.000
34.63450 248.000
34.65444 288.000
34.67439 247.000
34.69434 246.000
34.71429 240.000
34.73423 239.000
34.75418 258.000
34.77413 229.000
34.79407 215.000
34.81402 237.000
34.83397 242.000
34.85391 236.000
34.87386 195.000
34.89381 228.000
34.91376 224.000
34.93370 230.000
34.95365 233.000
34.97360 239.000
34.99354 203.000
35.01349 239.000
35.03344 222.000
35.05338 211.000
35.07333 212.000
35.09328 205.000
35.11322 203.000
35.13317 211.000
35.15312 213.000
35.17307 225.000
35.19301 222.000
35.21296 211.000
35.23291 231.000
35.25285 211.000
35.27280 212.000
35.29275 250.000
35.31269 223.000
35.33264 258.000
35.35259 254.000
35.37254 284.000
35.39248 283.000
35.41243 317.000
35.43238 315.000
35.45232 376.000
35.47227 450.000
35.49222 455.000
35.51216 538.000
35.53211 676.000
35.55206 770.000
35.57201 892.000
35.59195 869.000
35.61190 986.000
35.63185 1167.000
35.65179 1251.000
35.67174 1285.000
35.69169 1216.000
35.71163 1130.000
35.73158 1036.000
35.75153 969.000
35.77147 800.000
35.79142 696.000
35.81137 591.000
35.83132 475.000
35.85126 413.000
35.87121 401.000
35.89116 333.000
35.91110 344.000
35.93105 323.000
35.95100 312.000
35.97094 325.000
35.99089 345.000
36.01084 285.000
36.03079 245.000
36.05073 280.000
36.07068 276.000
36.09063 258.000
36.11057 252.000
36.13052 245.000
36.15047 228.000
36.17041 199.000
36.19036 186.000
36.21031 220.000
36.23025 208.000
36.25020 209.000
36.27015 191.000
36.29010 222.000
36.31004 190.000
36.32999 210.000
36.34994 197.000
36.36988 185.000
36.38983 176.000
36.40978 216.000
36.42972 191.000
36.44967 180.000
36.46962 229.000
36.48957 200.000
36.50951 182.000
36.52946 198.000
36.54941 187.000
36.56935 193.000
36.58930 197.000
36.60925 184.000
36.62919 224.000
36.64914 194.000
36.66909 225.000
36.68903 275.000
36.70898 243.000
36.72893 217.000
36.74888 210.000
36.76882 273.000
36.78877 301.000
36.80872 303.000
36.82866 320.000
36.84861 352.000
36.86856 363.000
36.88850 395.000
36.90845 452.000
36.92840 466.000
36.94835 449.000
36.96829 437.000
36.98824 471.000
37.00819 442.000
37.02813 389.000
37.04808 372.000
37.06803 410.000
37.08797 357.000
37.10792 353.000
37.12787 324.000
37.14781 362.000
37.16776 339.000
37.18771 322.000
37.20766 330.000
37.22760 346.000
37.24755 306.000
37.26750 333.000
37.28744 314.000
37.30739 315.000
37.32734 334.000
37.34728 317.000
37.36723 294.000
37.38718 298.000
37.40713 262.000
37.42707 247.000
37.44702 249.000
37.46697 230.000
37.48691 213.000
37.50686 193.000
37.52681 216.000
37.54675 217.000
37.56670 191.000
37.58665 180.000
37.60660 174.000
37.62654 186.000
37.64649 164.000
37.66644 194.000
37.68638 164.000
37.70633 184.000
37.72628 188.000
37.74622 188.000
37.76617 196.000
37.78612 193.000
37.80606 191.000
37.82601 190.000
37.84596 181.000
37.86591 179.000
37.88585 200.000
37.90580 197.000
37.92575 203.000
37.94569 201.000
37.96564 200.000
37.98559 158.000
38.00553 201.000
38.02548 185.000
38.04543 203.000
38.06538 178.000
38.08532 196.000
38.10527 196.000
38.12522 201.000
38.14516 192.000
38.16511 180.000
38.18506 171.000
38.20500 191.000
38.22495 209.000
38.24490 164.000
38.26484 177.000
38.28479 194.000
38.30474 182.000
38.32469 186.000
38.34463 184.000
38.36458 205.000
38.38453 203.000
38.40447 208.000
38.42442 221.000
38.44437 213.000
38.46431 196.000
38.48426 233.000
38.50421 206.000
38.52416 202.000
38.54410 237.000
38.56405 233.000
38.58400 269.000
38.60394 248.000
38.62389 244.000
38.64384 279.000
38.66378 301.000
38.68373 304.000
38.70368 326.000
38.72362 377.000
38.74357 432.000
38.76352 471.000
38.78347 581.000
38.80341 679.000
38.82336 766.000
38.84331 909.000
38.86325 932.000
38.88320 886.000
38.90315 799.000
38.92309 842.000
38.94304 822.000
38.96299 753.000
38.98294 686.000
39.00288 593.000
39.02283 585.000
39.04278 555.000
39.06272 476.000
39.08267 485.000
39.10262 460.000
39.12256 452.000
39.14251 436.000
39.16246 395.000
39.18241 394.000
39.20235 367.000
39.22230 371.000
39.24225 336.000
39.26219 349.000
39.28214 308.000
39.30209 287.000
39.32203 280.000
39.34198 265.000
39.36193 241.000
39.38187 289.000
39.40182 236.000
39.42177 259.000
39.44172 242.000
39.46166 238.000
39.48161 218.000
39.50156 213.000
39.52150 210.000
39.54145 218.000
39.56140 206.000
39.58134 174.000
39.60129 203.000
39.62124 202.000
39.64119 188.000
39.66113 165.000
39.68108 193.000
39.70103 181.000
39.72097 188.000
39.74092 170.000
39.76087 188.000
39.78081 167.000
39.80076 207.000
39.82071 173.000
39.84065 191.000
39.86060 162.000
39.88055 149.000
39.90050 162.000
39.92044 211.000
39.94039 178.000
39.96034 183.000
39.98028 192.000
40.00023 162.000
40.02018 183.000
40.04012 187.000
40.06007 154.000
40.08002 184.000
40.09997 165.000
40.11991 175.000
40.13986 177.000
40.15981 158.000
40.17975 171.000
40.19970 197.000
40.21965 175.000
40.23959 153.000
40.25954 190.000
40.27949 200.000
40.29943 172.000
40.31938 161.000
40.33933 179.000
40.35928 158.000
40.37922 170.000
40.39917 177.000
40.41912 157.000
40.43906 175.000
40.45901 182.000
40.47896 165.000
40.49890 180.000
40.51885 159.000
40.53880 167.000
40.55875 172.000
40.57869 160.000
40.59864 157.000
40.61859 159.000
40.63853 169.000
40.65848 169.000
40.67843 169.000
40.69837 173.000
40.71832 181.000
40.73827 181.000
40.75822 132.000
40.77816 181.000
40.79811 195.000
40.81806 192.000
40.83800 184.000
40.85795 171.000
40.87790 186.000
40.89784 199.000
40.91779 200.000
40.93774 197.000
40.95768 195.000
40.97763 206.000
40.99758 171.000
41.01753 148.000
41.03747 187.000
41.05742 209.000
41.07737 190.000
41.09731 204.000
41.11726 196.000
41.13721 173.000
41.15715 212.000
41.17710 199.000
41.19705 212.000
41.21700 219.000
41.23694 204.000
41.25689 227.000
41.27684 210.000
41.29678 222.000
41.31673 226.000
41.33668 213.000
41.35662 232.000
41.37657 266.000
41.39652 271.000
41.41646 261.000
41.43641 320.000
41.45636 344.000
41.47631 351.000
41.49625 444.000
41.51620 462.000
41.53615 548.000
41.55609 684.000
41.57604 819.000
41.59599 1031.000
41.61593 1254.000
41.63588 1360.000
41.65583 1487.000
41.67578 1366.000
41.69572 1293.000
41.71567 1193.000
41.73562 1102.000
41.75556 993.000
41.77551 931.000
41.79546 705.000
41.81540 628.000
41.83535 496.000
41.85530 449.000
41.87524 380.000
41.89519 303.000
41.91514 280.000
41.93509 280.000
41.95503 281.000
41.97498 251.000
41.99493 244.000
42.01487 233.000
42.03482 227.000
42.05477 216.000
42.07471 240.000
42.09466 210.000
42.11461 217.000
42.13456 213.000
42.15450 203.000
42.17445 183.000
42.19440 202.000
42.21434 202.000
42.23429 203.000
42.25424 214.000
42.27418 203.000
42.29413 219.000
42.31408 207.000
42.33403 192.000
42.35397 212.000
42.37392 211.000
42.39387 192.000
42.41381 192.000
42.43376 209.000
42.45371 181.000
42.47365 183.000
42.49360 201.000
42.51355 203.000
42.53349 196.000
42.55344 195.000
42.57339 180.000
42.59334 192.000
42.61328 195.000
42.63323 197.000
42.65318 165.000
42.67312 191.000
42.69307 200.000
42.71302 177.000
42.73296 186.000
42.75291 198.000
42.77286 175.000
42.79281 174.000
42.81275 160.000
42.83270 177.000
42.85265 196.000
42.87259 151.000
42.89254 189.000
42.91249 186.000
42.93243 192.000
42.95238 209.000
42.97233 177.000
42.99227 193.000
43.01222 202.000
43.03217 209.000
43.05212 182.000
43.07206 202.000
43.09201 200.000
43.11196 212.000
43.13190 186.000
43.15185 187.000
43.17180 196.000
43.19174 229.000
43.21169 229.000
43.23164 250.000
43.25159 232.000
43.27153 231.000
43.29148 249.000
43.31143 274.000
43.33137 301.000
43.35132 331.000
43.37127 312.000
43.39121 343.000
43.41116 288.000
43.43111 306.000
43.45105 274.000
43.47100 236.000
43.49095 246.000
43.51090 255.000
43.53084 227.000
43.55079 227.000
43.57074 218.000
43.59068 199.000
43.61063 191.000
43.63058 214.000
43.65052 196.000
43.67047 177.000
43.69042 183.000
43.71037 154.000
43.73031 185.000
43.75026 184.000
43.77021 148.000
43.79015 207.000
43.81010 196.000
43.83005 158.000
43.84999 186.000
43.86994 165.000
43.88989 168.000
43.90984 159.000
43.92978 167.000
43.94973 162.000
43.96968 171.000
43.98962 156.000
44.00957 153.000
44.02952 162.000
44.04946 170.000
44.06941 173.000
44.08936 168.000
44.10930 179.000
44.12925 177.000
44.14920 154.000
44.16915 154.000
44.18909 150.000
44.20904 138.000
44.22899 177.000
44.24893 180.000
44.26888 166.000
44.28883 166.000
44.30877 200.000
44.32872 176.000
44.34867 177.000
44.36862 166.000
44.38856 194.000
44.40851 201.000
44.42846 188.000
44.44840 200.000
44.46835 195.000
44.48830 186.000
44.50824 202.000
44.52819 182.000
44.54814 193.000
44.56808 186.000
44.58803 197.000
44.60798 232.000
44.62793 215.000
44.64787 202.000
44.66782 227.000
44.68777 234.000
44.70771 209.000
44.72766 230.000
44.74761 259.000
44.76755 279.000
44.78750 263.000
44.80745 301.000
44.82740 295.000
44.84734 334.000
44.86729 344.000
44.88724 348.000
44.90718 362.000
44.92713 378.000
44.94708 341.000
44.96702 347.000
44.98697 352.000
45.00692 313.000
45.02686 304.000
45.04681 258.000
45.06676 239.000
45.08671 255.000
45.10665 234.000
45.12660 193.000
45.14655 186.000
45.16649 211.000
45.18644 216.000
45.20639 179.000
45.22633 167.000
45.24628 173.000
45.26623 166.000
45.28618 166.000
45.30612 190.000
45.32607 156.000
45.34602 170.000
45.36596 161.000
45.38591 167.000
45.40586 182.000
45.42580 182.000
45.44575 165.000
45.46570 193.000
45.48565 161.000
45.50559 167.000
45.52554 176.000
45.54549 164.000
45.56543 166.000
45.58538 158.000
45.60533 174.000
45.62527 147.000
45.64522 174.000
45.66517 158.000
45.68511 172.000
45.70506 152.000
45.72501 152.000
45.74496 154.000
45.76490 147.000
45.78485 161.000
45.80480 168.000
45.82474 155.000
45.84469 157.000
45.86464 156.000
45.88458 161.000
45.90453 159.000
45.92448 163.000
45.94443 139.000
45.96437 138.000
45.98432 168.000
46.00427 164.000
46.02421 163.000
46.04416 166.000
46.06411 172.000
46.08405 167.000
46.10400 180.000
46.12395 148.000
46.14389 158.000
46.16384 171.000
46.18379 166.000
46.20374 161.000
46.22368 164.000
46.24363 160.000
46.26358 166.000
46.28352 162.000
46.30347 164.000
46.32342 172.000
46.34336 169.000
46.36331 179.000
46.38326 180.000
46.40321 157.000
46.42315 191.000
46.44310 185.000
46.46305 173.000
46.48299 193.000
46.50294 167.000
46.52289 183.000
46.54283 176.000
46.56278 163.000
46.58273 180.000
46.60267 160.000
46.62262 128.000
46.64257 153.000
46.66252 146.000
46.68246 159.000
46.70241 182.000
46.72236 140.000
46.74230 174.000
46.76225 164.000
46.78220 145.000
46.80214 172.000
46.82209 182.000
46.84204 148.000
46.86199 160.000
46.88193 157.000
46.90188 159.000
46.92183 171.000
46.94177 167.000
46.96172 148.000
46.98167 145.000
47.00161 149.000
47.02156 151.000
47.04151 161.000
47.06146 146.000
47.08140 170.000
47.10135 148.000
47.12130 144.000
47.14124 151.000
47.16119 156.000
47.18114 164.000
47.20108 156.000
47.22103 175.000
47.24098 163.000
47.26092 161.000
47.28087 139.000
47.30082 151.000
47.32077 168.000
47.34071 172.000
47.36066 155.000
47.38061 150.000
47.40055 166.000
47.42050 159.000
47.44045 183.000
47.46039 173.000
47.48034 171.000
47.50029 146.000
47.52024 158.000
47.54018 156.000
47.56013 167.000
47.58008 154.000
47.60002 160.000
47.61997 172.000
47.63992 151.000
47.65986 136.000
47.67981 171.000
47.69976 197.000
47.71970 170.000
47.73965 174.000
47.75960 148.000
47.77955 153.000
47.79949 172.000
47.81944 163.000
47.83939 169.000
47.85933 170.000
47.87928 169.000
47.89923 179.000
47.91917 156.000
47.93912 174.000
47.95907 175.000
47.97902 181.000
47.99896 193.000
48.01891 191.000
48.03886 218.000
48.05880 192.000
48.07875 170.000
48.09870 162.000
48.11864 194.000
48.13859 170.000
48.15854 178.000
48.17848 188.000
48.19843 200.000
48.21838 170.000
48.23833 174.000
48.25827 185.000
48.27822 197.000
48.29817 202.000
48.31811 179.000
48.33806 217.000
48.35801 220.000
48.37795 230.000
48.39790 220.000
48.41785 239.000
48.43780 256.000
48.45774 285.000
48.47769 308.000
48.49764 319.000
48.51758 365.000
48.53753 405.000
48.55748 366.000
48.57742 437.000
48.59737 448.000
48.61732 460.000
48.63726 407.000
48.65721 426.000
48.67716 459.000
48.69711 446.000
48.71705 439.000
48.73700 442.000
48.75695 474.000
48.77689 504.000
48.79684 472.000
48.81679 445.000
48.83673 438.000
48.85668 410.000
48.87663 386.000
48.89658 327.000
48.91652 325.000
48.93647 299.000
48.95642 316.000
48.97636 295.000
48.99631 271.000
49.01626 214.000
49.03620 211.000
49.05615 194.000
49.07610 194.000
49.09605 177.000
49.11599 181.000
49.13594 157.000
49.15589 181.000
49.17583 177.000
49.19578 163.000
49.21573 185.000
49.23567 154.000
49.25562 189.000
49.27557 188.000
49.29551 185.000
49.31546 174.000
49.33541 152.000
49.35536 173.000
49.37530 165.000
49.39525 160.000
49.41520 195.000
49.43514 193.000
49.45509 178.000
49.47504 154.000
49.49498 180.000
49.51493 210.000
49.53488 176.000
49.55483 178.000
49.57477 186.000
49.59472 160.000
49.61467 179.000
49.63461 192.000
49.65456 183.000
49.67451 176.000
49.69445 164.000
49.71440 161.000
49.73435 185.000
49.75429 181.000
49.77424 146.000
49.79419 156.000
49.81414 171.000
49.83408 168.000
49.85403 164.000
49.87398 149.000
49.89392 166.000
49.91387 173.000
49.93382 165.000
49.95376 173.000
49.97371 168.000
49.99366 161.000
50.01361 158.000
50.03355 166.000
50.05350 156.000
50.07345 156.000
50.09339 151.000
50.11334 134.000
50.13329 159.000
50.15323 170.000
50.17318 141.000
50.19313 152.000
50.21307 163.000
50.23302 146.000
50.25297 163.000
50.27292 161.000
50.29286 147.000
50.31281 147.000
50.33276 160.000
50.35270 156.000
50.37265 161.000
50.39260 138.000
50.41254 158.000
50.43249 153.000
50.45244 144.000
50.47239 167.000
50.49233 159.000
50.51228 147.000
50.53223 157.000
50.55217 162.000
50.57212 161.000
50.59207 175.000
50.61201 132.000
50.63196 163.000
50.65191 144.000
50.67186 168.000
50.69180 156.000
50.71175 132.000
50.73170 157.000
50.75164 149.000
50.77159 163.000
50.79154 155.000
50.81148 149.000
50.83143 167.000
50.85138 176.000
50.87132 169.000
50.89127 162.000
50.91122 126.000
50.93117 165.000
50.95111 172.000
50.97106 136.000
50.99101 156.000
51.01095 143.000
51.03090 162.000
51.05085 170.000
51.07079 140.000
51.09074 143.000
51.11069 148.000
51.13064 161.000
51.15058 134.000
51.17053 167.000
51.19048 134.000
51.21042 151.000
51.23037 167.000
51.25032 163.000
51.27026 174.000
51.29021 156.000
51.31016 179.000
51.33010 166.000
51.35005 157.000
51.37000 168.000
51.38995 160.000
51.40989 149.000
51.42984 185.000
51.44979 172.000
51.46973 165.000
51.48968 154.000
51.50963 173.000
51.52957 154.000
51.54952 157.000
51.56947 175.000
51.58942 159.000
51.60936 178.000
51.62931 172.000
51.64926 166.000
51.66920 144.000
51.68915 141.000
51.70910 148.000
51.72904 161.000
51.74899 159.000
51.76894 174.000
51.78888 161.000
51.80883 162.000
51.82878 169.000
51.84873 163.000
51.86867 155.000
51.88862 161.000
51.90857 164.000
51.92851 170.000
51.94846 155.000
51.96841 160.000
51.98835 169.000
52.00830 163.000
52.02825 151.000
52.04820 176.000
52.06814 185.000
52.08809 185.000
52.10804 186.000
52.12798 165.000
52.14793 192.000
52.16788 180.000
52.18782 177.000
52.20777 187.000
52.22772 206.000
52.24767 190.000
52.26761 174.000
52.28756 178.000
52.30751 172.000
52.32745 203.000
52.34740 203.000
52.36735 184.000
52.38729 217.000
52.40724 197.000
52.42719 183.000
52.44713 189.000
52.46708 203.000
52.48703 217.000
52.50698 210.000
52.52692 220.000
52.54687 208.000
52.56682 220.000
52.58676 231.000
52.60671 216.000
52.62666 198.000
52.64660 187.000
52.66655 262.000
52.68650 248.000
52.70645 253.000
52.72639 258.000
52.74634 289.000
52.76629 317.000
52.78623 329.000
52.80618 331.000
52.82613 378.000
52.84607 355.000
52.86602 344.000
52.88597 354.000
52.90591 320.000
52.92586 360.000
52.94581 307.000
52.96576 341.000
52.98570 292.000
53.00565 281.000
53.02560 282.000
53.04554 266.000
53.06549 227.000
53.08544 238.000
53.10538 212.000
53.12533 197.000
53.14528 203.000
53.16523 207.000
53.18517 204.000
53.20512 201.000
53.22507 197.000
53.24501 209.000
53.26496 186.000
53.28491 180.000
53.30485 155.000
53.32480 186.000
53.34475 186.000
53.36469 178.000
53.38464 171.000
53.40459 184.000
53.42454 185.000
53.44448 179.000
53.46443 198.000
53.48438 196.000
53.50432 195.000
53.52427 176.000
53.54422 185.000
53.56416 198.000
53.58411 225.000
53.60406 213.000
53.62401 246.000
53.64395 208.000
53.66390 222.000
53.68385 203.000
53.70379 228.000
53.72374 216.000
53.74369 207.000
53.76363 209.000
53.78358 209.000
53.80353 195.000
53.82348 200.000
53.84342 195.000
53.86337 186.000
53.88332 178.000
53.90326 178.000
53.92321 174.000
53.94316 166.000
53.96310 177.000
53.98305 180.000
54.00300 168.000
54.02294 182.000
54.04289 150.000
54.06284 159.000
54.08279 195.000
54.10273 171.000
54.12268 167.000
54.14263 162.000
54.16257 164.000
54.18252 173.000
54.20247 184.000
54.22241 139.000
54.24236 173.000
54.26231 162.000
54.28226 139.000
54.30220 164.000
54.32215 157.000
54.34210 161.000
54.36204 167.000
54.38199 147.000
54.40194 158.000
54.42188 165.000
54.44183 171.000
54.46178 165.000
54.48172 153.000
54.50167 165.000
54.52162 145.000
54.54157 175.000
54.56151 190.000
54.58146 178.000
54.60141 158.000
54.62135 174.000
54.64130 159.000
54.66125 156.000
54.68119 168.000
54.70114 169.000
54.72109 187.000
54.74104 149.000
54.76098 139.000
54.78093 169.000
54.80088 139.000
54.82082 155.000
54.84077 167.000
54.86072 197.000
54.88066 187.000
54.90061 162.000
54.92056 164.000
54.94050 167.000
54.96045 137.000
54.98040 144.000
55.00035 174.000
55.02029 157.000
55.04024 165.000
55.06019 177.000
55.08013 162.000
55.10008 153.000
55.12003 169.000
55.13997 160.000
55.15992 156.000
55.17987 149.000
55.19982 176.000
55.21976 158.000
55.23971 162.000
55.25966 172.000
55.27960 133.000
55.29955 129.000
55.31950 177.000
55.33944 173.000
55.35939 157.000
55.37934 181.000
55.39929 162.000
55.41923 172.000
55.43918 158.000
55.45913 138.000
55.47907 143.000
55.49902 172.000
55.51897 152.000
55.53891 162.000
55.55886 154.000
55.57881 154.000
55.59875 188.000
55.61870 152.000
55.63865 143.000
55.65860 187.000
55.67854 176.000
55.69849 161.000
55.71844 158.000
55.73838 162.000
55.75833 159.000
55.77828 147.000
55.79822 169.000
55.81817 174.000
55.83812 161.000
55.85807 170.000
55.87801 156.000
55.89796 171.000
55.91791 174.000
55.93785 146.000
55.95780 148.000
55.97775 145.000
55.99769 141.000
56.01764 167.000
56.03759 172.000
56.05753 155.000
56.07748 168.000
56.09743 176.000
56.11738 153.000
56.13732 144.000
56.15727 155.000
56.17722 162.000
56.19716 158.000
56.21711 159.000
56.23706 174.000
56.25700 157.000
56.27695 167.000
56.29690 173.000
56.31685 156.000
56.33679 163.000
56.35674 153.000
56.37669 154.000
56.39663 187.000
56.41658 171.000
56.43653 165.000
56.45647 168.000
56.47642 171.000
56.49637 177.000
56.51631 195.000
56.53626 151.000
56.55621 175.000
56.57616 188.000
56.59610 173.000
56.61605 155.000
56.63600 163.000
56.65594 181.000
56.67589 182.000
56.69584 157.000
56.71578 165.000
56.73573 166.000
56.75568 162.000
56.77563 172.000
56.79557 162.000
56.81552 175.000
56.83547 198.000
56.85541 200.000
56.87536 188.000
56.89531 206.000
56.91525 190.000
56.93520 199.000
56.95515 216.000
56.97510 198.000
56.99504 210.000
57.01499 197.000
57.03494 205.000
57.05488 206.000
57.07483 198.000
57.09478 212.000
57.11472 198.000
57.13467 232.000
57.15462 203.000
57.17456 210.000
57.19451 224.000
57.21446 244.000
57.23441 256.000
57.25435 232.000
57.27430 263.000
57.29425 258.000
57.31419 328.000
57.33414 313.000
57.35409 365.000
57.37403 329.000
57.39398 382.000
57.41393 374.000
57.43388 388.000
57.45382 387.000
57.47377 376.000
57.49372 350.000
57.51366 311.000
57.53361 330.000
57.55356 338.000
57.57350 289.000
57.59345 280.000
57.61340 261.000
57.63334 248.000
57.65329 219.000
57.67324 236.000
57.69319 199.000
57.71313 200.000
57.73308 181.000
57.75303 198.000
57.77297 173.000
57.79292 174.000
57.81287 168.000
57.83281 187.000
57.85276 171.000
57.87271 187.000
57.89266 170.000
57.91260 145.000
57.93255 187.000
57.95250 185.000
57.97244 152.000
57.99239 181.000
58.01234 160.000
58.03228 194.000
58.05223 181.000
58.07218 179.000
58.09212 208.000
58.11207 185.000
58.13202 171.000
58.15197 184.000
58.17191 192.000
58.19186 176.000
58.21181 164.000
58.23175 179.000
58.25170 180.000
58.27165 200.000
58.29159 202.000
58.31154 223.000
58.33149 208.000
58.35144 222.000
58.37138 216.000
58.39133 242.000
58.41128 260.000
58.43122 244.000
58.45117 258.000
58.47112 223.000
58.49106 231.000
58.51101 230.000
58.53096 212.000
58.55090 206.000
58.57085 214.000
58.59080 213.000
58.61075 200.000
58.63069 210.000
58.65064 188.000
58.67059 182.000
58.69053 185.000
58.71048 174.000
58.73043 170.000
58.75037 176.000
58.77032 158.000
58.79027 189.000
58.81022 158.000
58.83016 198.000
58.85011 162.000
58.87006 173.000
58.89000 155.000
58.90995 190.000
58.92990 161.000
58.94984 168.000
58.96979 159.000
58.98974 159.000
59.00969 168.000
59.02963 147.000
59.04958 178.000
59.06953 152.000
59.08947 157.000
59.10942 167.000
59.12937 161.000
59.14931 169.000
59.16926 167.000
59.18921 176.000
59.20915 156.000
59.22910 156.000
59.24905 140.000
59.26900 153.000
59.28894 147.000
59.30889 156.000
59.32884 164.000
59.34878 183.000
59.36873 161.000
59.38868 176.000
59.40862 150.000
59.42857 169.000
59.44852 149.000
59.46847 154.000
59.48841 157.000
59.50836 165.000
59.52831 165.000
59.54825 158.000
59.56820 179.000
59.58815 178.000
59.60809 146.000
59.62804 157.000
59.64799 162.000
59.66793 156.000
59.68788 135.000
59.70783 169.000
59.72778 145.000
59.74772 161.000
59.76767 153.000
59.78762 173.000
59.80756 139.000
59.82751 174.000
59.84746 154.000
59.86740 179.000
59.88735 153.000
59.90730 179.000
59.92725 155.000
59.94719 171.000
59.96714 166.000
59.98709 146.000
60.00703 169.000
60.02698 176.000
60.04693 149.000
60.06687 156.000
60.08682 157.000
60.10677 152.000
60.12671 173.000
60.14666 157.000
60.16661 153.000
60.18656 142.000
60.20650 159.000
60.22645 193.000
60.24640 135.000
60.26634 166.000
60.28629 156.000
60.30624 154.000
60.32618 156.000
60.34613 147.000
60.36608 157.000
60.38603 147.000
60.40597 174.000
60.42592 184.000
60.44587 186.000
60.46581 140.000
60.48576 167.000
60.50571 177.000
60.52565 152.000
60.54560 159.000
60.56555 164.000
60.58550 164.000
60.60544 165.000
60.62539 188.000
60.64534 175.000
60.66528 178.000
60.68523 175.000
60.70518 154.000
60.72512 189.000
60.74507 145.000
60.76502 152.000
60.78496 148.000
60.80491 156.000
60.82486 168.000
60.84481 157.000
60.86475 163.000
60.88470 156.000
60.90465 159.000
60.92459 147.000
60.94454 152.000
60.96449 153.000
60.98443 154.000
61.00438 150.000
61.02433 176.000
61.04428 172.000
61.06422 162.000
61.08417 181.000
61.10412 166.000
61.12406 169.000
61.14401 187.000
61.16396 183.000
61.18390 189.000
61.20385 176.000
61.22380 202.000
61.24374 191.000
61.26369 175.000
61.28364 197.000
61.30359 177.000
61.32353 176.000
61.34348 196.000
61.36343 181.000
61.38337 208.000
61.40332 185.000
61.42327 219.000
61.44321 208.000
61.46316 214.000
61.48311 203.000
61.50306 237.000
61.52300 233.000
61.54295 252.000
61.56290 266.000
61.58284 277.000
61.60279 295.000
61.62274 354.000
61.64268 349.000
61.66263 354.000
61.68258 344.000
61.70252 320.000
61.72247 335.000
61.74242 345.000
61.76237 319.000
61.78231 330.000
61.80226 361.000
61.82221 343.000
61.84215 330.000
61.86210 273.000
61.88205 272.000
61.90199 269.000
61.92194 286.000
61.94189 260.000
61.96184 237.000
61.98178 230.000
62.00173 226.000
62.02168 201.000
62.04162 200.000
62.06157 198.000
62.08152 206.000
62.10146 192.000
62.12141 194.000
62.14136 184.000
62.16131 184.000
62.18125 184.000
62.20120 184.000
62.22115 195.000
62.24109 197.000
62.26104 167.000
62.28099 189.000
62.30093 183.000
62.32088 160.000
62.34083 182.000
62.36077 184.000
62.38072 195.000
62.40067 204.000
62.42062 184.000
62.44056 167.000
62.46051 197.000
62.48046 171.000
62.50040 187.000
62.52035 205.000
62.54030 161.000
62.56024 187.000
62.58019 182.000
62.60014 171.000
62.62009 177.000
62.64003 181.000
62.65998 177.000
62.67993 180.000
62.69987 182.000
62.71982 173.000
62.73977 197.000
62.75971 227.000
62.77966 169.000
62.79961 197.000
62.81955 217.000
62.83950 220.000
62.85945 199.000
62.87940 251.000
62.89934 256.000
62.91929 239.000
62.93924 252.000
62.95918 295.000
62.97913 276.000
62.99908 273.000
63.01902 339.000
63.03897 311.000
63.05892 308.000
63.07887 311.000
63.09881 311.000
63.11876 368.000
63.13871 328.000
63.15865 332.000
63.17860 357.000
63.19855 337.000
63.21849 351.000
63.23844 319.000
63.25839 295.000
63.27833 317.000
63.29828 304.000
63.31823 306.000
63.33818 305.000
63.35812 281.000
63.37807 256.000
63.39802 246.000
63.41796 260.000
63.43791 228.000
63.45786 226.000
63.47780 217.000
63.49775 242.000
63.51770 236.000
63.53765 216.000
63.55759 219.000
63.57754 221.000
63.59749 267.000
63.61743 216.000
63.63738 247.000
63.65733 216.000
63.67727 217.000
63.69722 230.000
63.71717 229.000
63.73712 250.000
63.75706 229.000
63.77701 224.000
63.79696 227.000
63.81690 244.000
63.83685 209.000
63.85680 234.000
63.87674 226.000
63.89669 217.000
63.91664 205.000
63.93658 219.000
63.95653 208.000
63.97648 230.000
63.99643 189.000
64.01637 183.000
64.03632 191.000
64.05627 215.000
64.07621 163.000
64.09616 189.000
64.11611 200.000
64.13605 212.000
64.15600 205.000
64.17595 176.000
64.19590 190.000
64.21584 186.000
64.23579 187.000
64.25574 159.000
64.27568 161.000
64.29563 185.000
64.31558 195.000
64.33552 210.000
64.35547 161.000
64.37542 169.000
64.39536 172.000
64.41531 185.000
64.43526 191.000
64.45521 182.000
64.47515 165.000
64.49510 151.000
64.51505 153.000
64.53499 178.000
64.55494 191.000
64.57489 179.000
64.59483 159.000
64.61478 162.000
64.63473 159.000
64.65468 157.000
64.67462 190.000
64.69457 148.000
64.71452 163.000
64.73446 165.000
64.75441 162.000
64.77436 155.000
64.79430 155.000
64.81425 177.000
64.83420 158.000
64.85414 174.000
64.87409 170.000
64.89404 160.000
64.91399 154.000
64.93393 149.000
64.95388 170.000
64.97383 162.000
64.99377 187.000
65.01372 170.000
65.03367 185.000
65.05361 162.000
65.07356 177.000
65.09351 172.000
65.11346 174.000
65.13340 175.000
65.15335 174.000
65.17330 188.000
65.19324 179.000
65.21319 177.000
65.23314 181.000
65.25308 184.000
65.27303 187.000
65.29298 173.000
65.31293 182.000
65.33287 177.000
65.35282 204.000
65.37277 189.000
65.39271 195.000
65.41266 217.000
65.43261 217.000
65.45255 207.000
65.47250 240.000
65.49245 272.000
65.51239 237.000
65.53234 240.000
65.55229 266.000
65.57224 275.000
65.59218 285.000
65.61213 277.000
65.63208 283.000
65.65202 322.000
65.67197 276.000
65.69192 308.000
65.71186 274.000
65.73181 324.000
65.75176 320.000
65.77171 301.000
65.79165 304.000
65.81160 287.000
65.83155 286.000
65.85149 303.000
65.87144 288.000
65.89139 296.000
65.91133 310.000
65.93128 284.000
65.95123 318.000
65.97117 337.000
65.99112 303.000
66.01107 308.000
66.03102 289.000
66.05096 284.000
66.07091 271.000
66.09086 311.000
66.11080 292.000
66.13075 286.000
66.15070 298.000
66.17064 305.000
66.19059 310.000
66.21054 330.000
66.23049 315.000
66.25043 316.000
66.27038 323.000
66.29033 338.000
66.31027 325.000
66.33022 309.000
66.35017 294.000
66.37011 292.000
66.39006 287.000
66.41001 282.000
66.42995 296.000
66.44990 278.000
66.46985 289.000
66.48980 269.000
66.50974 248.000
66.52969 237.000
66.54964 244.000
66.56958 218.000
66.58953 224.000
66.60948 246.000
66.62942 209.000
66.64937 225.000
66.66932 230.000
66.68927 191.000
66.70921 204.000
66.72916 222.000
66.74911 230.000
66.76905 228.000
66.78900 234.000
66.80895 227.000
66.82889 219.000
66.84884 213.000
66.86879 200.000
66.88874 246.000
66.90868 212.000
66.92863 183.000
66.94858 233.000
66.96852 209.000
66.98847 210.000
67.00842 190.000
67.02836 165.000
67.04831 201.000
67.06826 210.000
67.08820 184.000
67.10815 200.000
67.12810 199.000
67.14805 187.000
67.16799 192.000
67.18794 174.000
67.20789 186.000
67.22783 170.000
67.24778 187.000
67.26773 212.000
67.28767 175.000
67.30762 194.000
67.32757 202.000
67.34752 209.000
67.36746 183.000
67.38741 220.000
67.40736 181.000
67.42730 210.000
67.44725 199.000
67.46720 187.000
67.48714 210.000
67.50709 240.000
67.52704 227.000
67.54698 204.000
67.56693 244.000
67.58688 229.000
67.60683 231.000
67.62677 209.000
67.64672 201.000
67.66667 226.000
67.68661 210.000
67.70656 210.000
67.72651 212.000
67.74645 219.000
67.76640 190.000
67.78635 202.000
67.80630 202.000
67.82624 228.000
67.84619 186.000
67.86614 191.000
67.88608 233.000
67.90603 204.000
67.92598 215.000
67.94592 229.000
67.96587 216.000
67.98582 224.000
68.00576 231.000
68.02571 233.000
68.04566 219.000
68.06561 246.000
68.08555 249.000
68.10550 235.000
68.12545 268.000
68.14539 291.000
68.16534 267.000
68.18529 240.000
68.20523 285.000
68.22518 262.000
68.24513 296.000
68.26508 270.000
68.28502 249.000
68.30497 262.000
68.32492 255.000
68.34486 261.000
68.36481 262.000
68.38476 217.000
68.40470 204.000
68.42465 224.000
68.44460 230.000
68.46455 222.000
68.48449 196.000
68.50444 213.000
68.52439 192.000
68.54433 203.000
68.56428 193.000
68.58423 172.000
68.60417 160.000
68.62412 171.000
68.64407 157.000
68.66401 172.000
68.68396 172.000
68.70391 180.000
68.72386 167.000
68.74380 153.000
68.76375 186.000
68.78370 170.000
68.80364 181.000
68.82359 154.000
68.84354 161.000
68.86348 159.000
68.88343 161.000
68.90338 172.000
68.92333 158.000
68.94327 176.000
68.96322 191.000
68.98317 147.000
69.00311 157.000
69.02306 166.000
69.04301 155.000
69.06295 152.000
69.08290 166.000
69.10285 141.000
69.12279 147.000
69.14274 160.000
69.16269 179.000
69.18264 169.000
69.20258 150.000
69.22253 140.000
69.24248 153.000
69.26242 138.000
69.28237 178.000
69.30232 204.000
69.32226 169.000
69.34221 170.000
69.36216 146.000
69.38211 163.000
69.40205 163.000
69.42200 153.000
69.44195 159.000
69.46189 169.000
69.48184 149.000
69.50179 157.000
69.52173 157.000
69.54168 139.000
69.56163 143.000
69.58157 181.000
69.60152 184.000
69.62147 156.000
69.64142 158.000
69.66136 151.000
69.68131 160.000
69.70126 167.000
69.72120 157.000
69.74115 147.000
69.76110 158.000
69.78104 154.000
69.80099 156.000
69.82094 153.000
69.84089 156.000
69.86083 151.000
69.88078 179.000
69.90073 173.000
69.92067 159.000
69.94062 175.000
69.96057 159.000
69.98051 133.000
70.00046 151.000
70.02041 160.000
70.04035 178.000
70.06030 172.000
70.08025 149.000
70.10020 152.000
70.12014 162.000
70.14009 140.000
70.16004 174.000
70.17998 176.000
70.19993 154.000
70.21988 174.000
70.23982 179.000
70.25977 173.000
70.27972 162.000
70.29967 160.000
70.31961 146.000
70.33956 157.000
70.35951 146.000
70.37945 158.000
70.39940 168.000
70.41935 167.000
70.43929 182.000
70.45924 152.000
70.47919 169.000
70.49914 177.000
70.51908 177.000
70.53903 160.000
70.55898 171.000
70.57892 174.000
70.59887 157.000
70.61882 165.000
70.63876 145.000
70.65871 143.000
70.67866 153.000
70.69860 123.000
70.71855 160.000
70.73850 179.000
70.75845 159.000
70.77839 147.000
70.79834 169.000
70.81829 129.000
70.83823 144.000
70.85818 155.000
70.87813 168.000
70.89807 145.000
70.91802 180.000
70.93797 161.000
70.95792 179.000
70.97786 168.000
70.99781 160.000
71.01776 157.000
71.03770 194.000
71.05765 135.000
71.07760 144.000
71.09754 162.000
71.11749 162.000
71.13744 175.000
71.15738 164.000
71.17733 159.000
71.19728 159.000
71.21723 141.000
71.23717 151.000
71.25712 182.000
71.27707 171.000
71.29701 131.000
71.31696 149.000
71.33691 164.000
71.35685 165.000
71.37680 143.000
71.39675 146.000
71.41670 168.000
71.43664 152.000
71.45659 150.000
71.47654 137.000
71.49648 168.000
71.51643 166.000
71.53638 139.000
71.55632 127.000
71.57627 160.000
71.59622 159.000
71.61616 170.000
71.63611 158.000
71.65606 141.000
71.67601 166.000
71.69595 165.000
71.71590 154.000
71.73585 175.000
71.75579 152.000
71.77574 159.000
71.79569 158.000
71.81563 136.000
71.83558 167.000
71.85553 176.000
71.87548 168.000
71.89542 156.000
71.91537 175.000
71.93532 130.000
71.95526 171.000
71.97521 178.000
71.99516 178.000
72.01510 177.000
72.03505 164.000
72.05500 202.000
72.07495 149.000
72.09489 174.000
72.11484 167.000
72.13479 207.000
72.15473 170.000
72.17468 167.000
72.19463 175.000
72.21457 175.000
72.23452 186.000
72.25447 173.000
72.27441 168.000
72.29436 187.000
72.31431 169.000
72.33426 173.000
72.35420 185.000
72.37415 185.000
72.39410 182.000
72.41404 212.000
72.43399 199.000
72.45394 190.000
72.47388 217.000
72.49383 222.000
72.51378 234.000
72.53373 221.000
72.55367 214.000
72.57362 219.000
72.59357 209.000
72.61351 215.000
72.63346 227.000
72.65341 245.000
72.67335 238.000
72.69330 251.000
72.71325 237.000
72.73319 264.000
72.75314 255.000
72.77309 237.000
72.79304 244.000
72.81298 242.000
72.83293 263.000
72.85288 234.000
72.87282 264.000
72.89277 246.000
72.91272 225.000
72.93266 232.000
72.95261 260.000
72.97256 227.000
72.99251 251.000
73.01245 212.000
73.03240 247.000
73.05235 224.000
73.07229 256.000
73.09224 246.000
73.11219 237.000
73.13213 227.000
73.15208 239.000
73.17203 221.000
73.19197 240.000
73.21192 227.000
73.23187 244.000
73.25182 225.000
73.27176 205.000
73.29171 214.000
73.31166 206.000
73.33160 192.000
73.35155 204.000
73.37150 209.000
73.39144 190.000
73.41139 198.000
73.43134 187.000
73.45129 169.000
73.47123 182.000
73.49118 163.000
73.51113 164.000
73.53107 209.000
73.55102 175.000
73.57097 152.000
73.59091 174.000
73.61086 173.000
73.63081 172.000
73.65076 167.000
73.67070 170.000
73.69065 192.000
73.71060 184.000
73.73054 158.000
73.75049 147.000
73.77044 179.000
73.79038 147.000
73.81033 169.000
73.83028 158.000
73.85022 169.000
73.87017 171.000
73.89012 152.000
73.91007 178.000
73.93001 184.000
73.94996 169.000
73.96991 177.000
73.98985 163.000
74.00980 151.000
74.02975 162.000
74.04969 167.000
74.06964 151.000
74.08959 155.000
74.10954 152.000
74.12948 161.000
74.14943 188.000
74.16938 182.000
74.18932 169.000
74.20927 167.000
74.22922 166.000
74.24916 167.000
74.26911 159.000
74.28906 167.000
74.30900 186.000
74.32895 182.000
74.34890 164.000
74.36885 170.000
74.38879 183.000
74.40874 177.000
74.42869 167.000
74.44863 171.000
74.46858 186.000
74.48853 176.000
74.50847 180.000
74.52842 174.000
74.54837 186.000
74.56832 182.000
74.58826 177.000
74.60821 173.000
74.62816 186.000
74.64810 186.000
74.66805 185.000
74.68800 203.000
74.70794 166.000
74.72789 184.000
74.74784 167.000
74.76778 199.000
74.78773 218.000
74.80768 144.000
74.82763 200.000
74.84757 196.000
74.86752 195.000
74.88747 191.000
74.90741 175.000
74.92736 187.000
74.94731 171.000
74.96725 202.000
74.98720 192.000
75.00715 184.000
75.02710 180.000
75.04704 210.000
75.06699 210.000
75.08694 201.000
75.10688 230.000
75.12683 242.000
75.14678 194.000
75.16672 214.000
75.18667 218.000
75.20662 201.000
75.22657 218.000
75.24651 197.000
75.26646 224.000
75.28641 248.000
75.30635 209.000
75.32630 241.000
75.34625 253.000
75.36619 220.000
75.38614 193.000
75.40609 221.000
75.42603 245.000
75.44598 220.000
75.46593 230.000
75.48588 216.000
75.50582 191.000
75.52577 193.000
75.54572 183.000
75.56566 215.000
75.58561 221.000
75.60556 204.000
75.62550 198.000
75.64545 177.000
75.66540 185.000
75.68535 181.000
75.70529 167.000
75.72524 186.000
75.74519 174.000
75.76513 204.000
75.78508 151.000
75.80503 195.000
75.82497 198.000
75.84492 190.000
75.86487 159.000
75.88481 176.000
75.90476 154.000
75.92471 158.000
75.94466 199.000
75.96460 164.000
75.98455 164.000
76.00450 166.000
76.02444 173.000
76.04439 186.000
76.06434 147.000
76.08428 170.000
76.10423 164.000
76.12418 172.000
76.14413 172.000
76.16407 161.000
76.18402 176.000
76.20397 172.000
76.22391 173.000
76.24386 167.000
76.26381 180.000
76.28375 183.000
76.30370 160.000
76.32365 174.000
76.34359 162.000
76.36354 164.000
76.38349 139.000
76.40344 148.000
76.42338 168.000
76.44333 165.000
76.46328 154.000
76.48322 166.000
76.50317 144.000
76.52312 168.000
76.54306 149.000
76.56301 143.000
76.58296 152.000
76.60291 160.000
76.62285 135.000
76.64280 169.000
76.66275 160.000
76.68269 160.000
76.70264 164.000
76.72259 165.000
76.74253 141.000
76.76248 173.000
76.78243 163.000
76.80238 157.000
76.82232 163.000
76.84227 157.000
76.86222 146.000
76.88216 164.000
76.90211 179.000
76.92206 135.000
76.94200 152.000
76.96195 174.000
76.98190 145.000
77.00184 147.000
77.02179 159.000
77.04174 137.000
77.06169 174.000
77.08163 165.000
77.10158 150.000
77.12153 163.000
77.14147 173.000
77.16142 160.000
77.18137 164.000
77.20131 176.000
77.22126 157.000
77.24121 166.000
77.26116 175.000
77.28110 148.000
77.30105 170.000
77.32100 172.000
77.34094 154.000
77.36089 184.000
77.38084 150.000
77.40078 156.000
77.42073 178.000
77.44068 160.000
77.46062 185.000
77.48057 167.000
77.50052 165.000
77.52047 168.000
77.54041 167.000
77.56036 158.000
77.58031 159.000
77.60025 167.000
77.62020 177.000
77.64015 179.000
77.66009 169.000
77.68004 179.000
77.69999 169.000
77.71994 146.000
77.73988 211.000
77.75983 150.000
77.77978 178.000
77.79972 193.000
77.81967 186.000
77.83962 193.000
77.85956 223.000
77.87951 183.000
77.89946 192.000
77.91940 185.000
77.93935 190.000
77.95930 187.000
77.97925 189.000
77.99919 198.000
78.01914 182.000
78.03909 224.000
78.05903 211.000
78.07898 183.000
78.09893 203.000
78.11887 223.000
78.13882 198.000
78.15877 197.000
78.17872 199.000
78.19866 168.000
78.21861 207.000
78.23856 199.000
78.25850 223.000
78.27845 212.000
78.29840 186.000
78.31834 213.000
78.33829 200.000
78.35824 207.000
78.37819 223.000
78.39813 193.000
78.41808 206.000
78.43803 224.000
78.45797 203.000
78.47792 211.000
78.49787 198.000
78.51781 242.000
78.53776 206.000
78.55771 210.000
78.57765 218.000
78.59760 196.000
78.61755 218.000
78.63750 200.000
78.65744 205.000
78.67739 215.000
78.69734 201.000
78.71728 190.000
78.73723 191.000
78.75718 205.000
78.77712 177.000
78.79707 192.000
78.81702 180.000
78.83697 175.000
78.85691 193.000
78.87686 151.000
78.89681 156.000
78.91675 196.000
78.93670 175.000
78.95665 178.000
78.97659 152.000
78.99654 157.000
79.01649 171.000
79.03643 189.000
79.05638 166.000
79.07633 146.000
79.09628 183.000
79.11622 160.000
79.13617 157.000
79.15612 170.000
79.17606 147.000
79.19601 180.000
79.21596 153.000
79.23590 154.000
79.25585 142.000
79.27580 164.000
79.29575 144.000
79.31569 166.000
79.33564 169.000
79.35559 161.000
79.37553 171.000
79.39548 177.000
79.41543 169.000
79.43537 160.000
79.45532 190.000
79.47527 167.000
79.49521 163.000
79.51516 169.000
79.53511 181.000
79.55506 150.000
79.57500 167.000
79.59495 159.000
79.61490 173.000
79.63484 168.000
79.65479 170.000
79.67474 164.000
79.69468 156.000
79.71463 154.000
79.73458 178.000
79.75453 152.000
79.77447 143.000
79.79442 158.000
79.81437 147.000
79.83431 160.000
79.85426 145.000
79.87421 168.000
79.89415 168.000
79.91410 189.000
79.93405 187.000
79.95399 145.000
79.97394 153.000
79.99389 132.000
80.01384 163.000
80.03378 181.000
80.05373 172.000
80.07368 160.000
80.09362 165.000
80.11357 173.000
80.13352 153.000
80.15346 185.000
80.17341 175.000
80.19336 177.000
80.21331 179.000
80.23325 188.000
80.25320 165.000
80.27315 184.000
80.29309 155.000
80.31304 169.000
80.33299 171.000
80.35293 182.000
80.37288 162.000
80.39283 167.000
80.41278 194.000
80.43272 163.000
80.45267 179.000
80.47262 174.000
80.49256 164.000
80.51251 170.000
80.53246 152.000
80.55240 175.000
80.57235 168.000
80.59230 167.000
80.61224 160.000
80.63219 186.000
80.65214 181.000
80.67209 175.000
80.69203 165.000
80.71198 162.000
80.73193 161.000
80.75187 171.000
80.77182 157.000
80.79177 179.000
80.81171 148.000
80.83166 166.000
80.85161 168.000
80.87156 188.000
80.89150 143.000
80.91145 161.000
80.93140 168.000
80.95134 148.000
80.97129 177.000
80.99124 169.000
81.01118 180.000
81.03113 161.000
81.05108 163.000
81.07102 164.000
81.09097 181.000
81.11092 146.000
81.13087 167.000
81.15081 191.000
81.17076 162.000
81.19071 167.000
81.21065 132.000
81.23060 168.000
81.25055 187.000
81.27049 179.000
81.29044 176.000
81.31039 166.000
81.33034 174.000
81.35028 165.000
81.37023 161.000
81.39018 165.000
81.41012 143.000
81.43007 170.000
81.45002 166.000
81.46996 184.000
81.48991 188.000
81.50986 156.000
81.52980 140.000
81.54975 176.000
81.56970 176.000
81.58965 163.000
81.60959 152.000
81.62954 170.000
81.64949 171.000
81.66943 174.000
81.68938 155.000
81.70933 147.000
81.72927 159.000
81.74922 152.000
81.76917 141.000
81.78912 148.000
81.80906 151.000
81.82901 162.000
81.84896 155.000
81.86890 150.000
81.88885 145.000
81.90880 130.000
81.92874 160.000
81.94869 162.000
81.96864 154.000
81.98859 175.000
82.00853 144.000
82.02848 172.000
82.04843 180.000
82.06837 161.000
82.08832 147.000
82.10827 168.000
82.12821 143.000
82.14816 172.000
82.16811 155.000
82.18805 164.000
82.20800 174.000
82.22795 159.000
82.24790 168.000
82.26784 156.000
82.28779 160.000
82.30774 160.000
82.32768 178.000
82.34763 202.000
82.36758 199.000
82.38752 183.000
82.40747 191.000
82.42742 185.000
82.44737 205.000
82.46731 173.000
82.48726 178.000
82.50721 171.000
82.52715 179.000
82.54710 190.000
82.56705 162.000
82.58699 174.000
82.60694 188.000
82.62689 169.000
82.64683 160.000
82.66678 173.000
82.68673 185.000
82.70668 180.000
82.72662 192.000
82.74657 186.000
82.76652 182.000
82.78646 197.000
82.80641 171.000
82.82636 165.000
82.84630 159.000
82.86625 180.000
82.88620 162.000
82.90615 180.000
82.92609 173.000
82.94604 158.000
82.96599 158.000
82.98593 164.000
83.00588 155.000
83.02583 169.000
83.04577 179.000
83.06572 170.000
83.08567 169.000
83.10561 178.000
83.12556 172.000
83.14551 171.000
83.16546 166.000
83.18540 173.000
83.20535 183.000
83.22530 165.000
83.24524 172.000
83.26519 187.000
83.28514 165.000
83.30508 156.000
83.32503 172.000
83.34498 163.000
83.36493 183.000
83.38487 178.000
83.40482 179.000
83.42477 175.000
83.44471 186.000
83.46466 182.000
83.48461 188.000
83.50455 158.000
83.52450 187.000
83.54445 176.000
83.56440 195.000
83.58434 181.000
83.60429 196.000
83.62424 194.000
83.64418 174.000
83.66413 179.000
83.68408 172.000
83.70402 200.000
83.72397 189.000
83.74392 188.000
83.76386 198.000
83.78381 176.000
83.80376 155.000
83.82371 177.000
83.84365 171.000
83.86360 174.000
83.88355 174.000
83.90349 209.000
83.92344 164.000
83.94339 197.000
83.96333 194.000
83.98328 198.000
84.00323 189.000
84.02318 156.000
84.04312 182.000
84.06307 172.000
84.08302 212.000
84.10296 209.000
84.12291 177.000
84.14286 181.000
84.16280 212.000
84.18275 193.000
84.20270 189.000
84.22264 191.000
84.24259 177.000
84.26254 166.000
84.28249 183.000
84.30243 171.000
84.32238 174.000
84.34233 169.000
84.36227 156.000
84.38222 193.000
84.40217 175.000
84.42211 166.000
84.44206 186.000
84.46201 178.000
84.48196 183.000
84.50190 182.000
84.52185 146.000
84.54180 191.000
84.56174 157.000
84.58169 156.000
84.60164 173.000
84.62158 174.000
84.64153 164.000
84.66148 153.000
84.68142 166.000
84.70137 148.000
84.72132 170.000
84.74127 156.000
84.76121 158.000
84.78116 149.000
84.80111 156.000
84.82105 176.000
84.84100 195.000
84.86095 167.000
84.88089 182.000
84.90084 173.000
84.92079 174.000
84.94074 151.000
84.96068 142.000
84.98063 165.000
85.00058 174.000
85.02052 151.000
85.04047 154.000
85.06042 149.000
85.08036 174.000
85.10031 173.000
85.12026 143.000
85.14021 163.000
85.16015 193.000
85.18010 172.000
85.20005 191.000
85.21999 148.000
85.23994 144.000
85.25989 152.000
85.27983 167.000
85.29978 174.000
85.31973 155.000
85.33967 162.000
85.35962 153.000
85.37957 160.000
85.39952 179.000
85.41946 167.000
85.43941 146.000
85.45936 155.000
85.47930 174.000
85.49925 153.000
85.51920 156.000
85.53914 142.000
85.55909 143.000
85.57904 174.000
85.59899 149.000
85.61893 142.000
85.63888 149.000
85.65883 149.000
85.67877 176.000
85.69872 157.000
85.71867 167.000
85.73861 168.000
85.75856 178.000
85.77851 155.000
85.79845 164.000
85.81840 145.000
85.83835 157.000
85.85830 158.000
85.87824 158.000
85.89819 154.000
85.91814 185.000
85.93808 174.000
85.95803 149.000
85.97798 163.000
85.99792 149.000
86.01787 181.000
86.03782 139.000
86.05777 157.000
86.07771 171.000
86.09766 150.000
86.11761 152.000
86.13755 164.000
86.15750 141.000
86.17745 187.000
86.19739 167.000
86.21734 150.000
86.23729 175.000
86.25723 197.000
86.27718 159.000
86.29713 158.000
86.31708 164.000
86.33702 167.000
86.35697 134.000
86.37692 170.000
86.39686 176.000
86.41681 169.000
86.43676 172.000
86.45670 183.000
86.47665 184.000
86.49660 187.000
86.51655 179.000
86.53649 186.000
86.55644 198.000
86.57639 192.000
86.59633 184.000
86.61628 197.000
86.63623 199.000
86.65617 187.000
86.67612 190.000
86.69607 200.000
86.71602 201.000
86.73596 164.000
86.75591 203.000
86.77586 170.000
86.79580 203.000
86.81575 193.000
86.83570 192.000
86.85564 181.000
86.87559 198.000
86.89554 171.000
86.91548 186.000
86.93543 196.000
86.95538 209.000
86.97533 177.000
86.99527 179.000
87.01522 190.000
87.03517 203.000
87.05511 180.000
87.07506 144.000
87.09501 180.000
87.11495 202.000
87.13490 184.000
87.15485 200.000
87.17480 164.000
87.19474 169.000
87.21469 177.000
87.23464 195.000
87.25458 173.000
87.27453 171.000
87.29448 180.000
87.31442 158.000
87.33437 150.000
87.35432 167.000
87.37426 160.000
87.39421 164.000
87.41416 168.000
87.43411 196.000
87.45405 161.000
87.47400 159.000
87.49395 177.000
87.51389 173.000
87.53384 168.000
87.55379 162.000
87.57373 175.000
87.59368 157.000
87.61363 163.000
87.63358 180.000
87.65352 167.000
87.67347 156.000
87.69342 169.000
87.71336 186.000
87.73331 158.000
87.75326 161.000
87.77320 170.000
87.79315 179.000
87.81310 179.000
87.83304 169.000
87.85299 155.000
87.87294 173.000
87.89289 176.000
87.91283 156.000
87.93278 161.000
87.95273 152.000
87.97267 169.000
87.99262 196.000
88.01257 160.000
88.03251 144.000
88.05246 167.000
88.07241 145.000
88.09236 161.000
88.11230 163.000
88.13225 146.000
88.15220 157.000
88.17214 156.000
88.19209 174.000
88.21204 168.000
88.23198 133.000
88.25193 149.000
88.27188 161.000
88.29183 141.000
88.31177 142.000
88.33172 178.000
88.35167 175.000
88.37161 193.000
88.39156 170.000
88.41151 171.000
88.43145 167.000
88.45140 161.000
88.47135 165.000
88.49129 154.000
88.51124 159.000
88.53119 167.000
88.55114 167.000
88.57108 170.000
88.59103 144.000
88.61098 164.000
88.63092 152.000
88.65087 168.000
88.67082 172.000
88.69076 187.000
88.71071 156.000
88.73066 164.000
88.75061 184.000
88.77055 166.000
88.79050 190.000
88.81045 179.000
88.83039 156.000
88.85034 133.000
88.87029 178.000
88.89023 147.000
88.91018 150.000
88.93013 160.000
88.95007 167.000
88.97002 176.000
88.98997 156.000
89.00992 187.000
89.02986 141.000
89.04981 150.000
89.06976 165.000
89.08970 179.000
89.10965 135.000
89.12960 131.000
89.14954 161.000
89.16949 139.000
89.18944 156.000
89.20939 174.000
89.22933 158.000
89.24928 183.000
89.26923 163.000
89.28917 152.000
89.30912 171.000
89.32907 152.000
89.34901 180.000
89.36896 173.000
89.38891 177.000
89.40885 142.000
89.42880 145.000
89.44875 181.000
89.46870 168.000
89.48864 163.000
89.50859 149.000
89.52854 145.000
89.54848 161.000
89.56843 151.000
89.58838 172.000
89.60832 139.000
89.62827 161.000
89.64822 174.000
89.66817 153.000
89.68811 171.000
89.70806 177.000
89.72801 159.000
89.74795 176.000
89.76790 160.000
89.78785 146.000
89.80779 170.000
89.82774 176.000
89.84769 155.000
89.86764 186.000
89.88758 155.000
89.90753 160.000
89.92748 174.000
89.94742 168.000
89.96737 168.000
89.98732 153.000
90.00726 166.000
