10.00000 117.000
10.01995 124.000
10.03989 99.000
10.05984 118.000
10.07979 116.000
10.09973 115.000
10.11968 115.000
10.13963 108.000
10.15958 125.000
10.17952 143.000
10.19947 132.000
10.21942 111.000
10.23936 143.000
10.25931 137.000
10.27926 115.000
10.29920 142.000
10.31915 145.000
10.33910 125.000
10.35905 127.000
10.37899 141.000
10.39894 122.000
10.41889 122.000
10.43883 124.000
10.45878 121.000
10.47873 145.000
10.49867 139.000
10.51862 105.000
10.53857 119.000
10.55851 120.000
10.57846 115.000
10.59841 126.000
10.61836 119.000
10.63830 130.000
10.65825 127.000
10.67820 113.000
10.69814 113.000
10.71809 127.000
10.73804 118.000
10.75798 111.000
10.77793 99.000
10.79788 125.000
10.81783 110.000
10.83777 127.000
10.85772 139.000
10.87767 130.000
10.89761 123.000
10.91756 124.000
10.93751 128.000
10.95745 137.000
10.97740 119.000
10.99735 137.000
11.01730 101.000
11.03724 130.000
11.05719 146.000
11.07714 128.000
11.09708 133.000
11.11703 122.000
11.13698 129.000
11.15692 139.000
11.17687 138.000
11.19682 139.000
11.21676 110.000
11.23671 148.000
11.25666 133.000
11.27661 118.000
11.29655 135.000
11.31650 102.000
11.33645 133.000
11.35639 121.000
11.37634 145.000
11.39629 124.000
11.41623 121.000
11.43618 111.000
11.45613 126.000
11.47608 115.000
11.49602 128.000
11.51597 100.000
11.53592 142.000
11.55586 110.000
11.57581 129.000
11.59576 123.000
11.61570 127.000
11.63565 127.000
11.65560 142.000
11.67554 140.000
11.69549 116.000
11.71544 131.000
11.73539 120.000
11.75533 101.000
11.77528 128.000
11.79523 97.000
11.81517 126.000
11.83512 132.000
11.85507 138.000
11.87501 94.000
11.89496 117.000
11.91491 120.000
11.93486 123.000
11.95480 128.000
11.97475 102.000
11.99470 128.000
12.01464 123.000
12.03459 120.000
12.05454 123.000
12.07448 136.000
12.09443 113.000
12.11438 138.000
12.13432 117.000
12.15427 120.000
12.17422 123.000
12.19417 131.000
12.21411 125.000
12.23406 106.000
12.25401 131.000
12.27395 120.000
12.29390 128.000
12.31385 133.000
12.33379 108.000
12.35374 83.000
12.37369 120.000
12.39364 126.000
12.41358 123.000
12.43353 113.000
12.45348 139.000
12.47342 108.000
12.49337 115.000
12.51332 105.000
12.53326 107.000
12.55321 124.000
12.57316 132.000
12.59311 136.000
12.61305 122.000
12.63300 125.000
12.65295 133.000
12.67289 118.000
12.69284 127.000
12.71279 138.000
12.73273 109.000
12.75268 144.000
12.77263 136.000
12.79257 114.000
12.81252 124.000
12.83247 134.000
12.85242 114.000
12.87236 121.000
12.89231 104.000
12.91226 138.000
12.93220 124.000
12.95215 114.000
12.97210 128.000
12.99204 124.000
13.01199 110.000
13.03194 141.000
13.05189 133.000
13.07183 116.000
13.09178 115.000
13.11173 115.000
13.13167 105.000
13.15162 133.000
13.17157 118.000
13.19151 119.000
13.21146 145.000
13.23141 135.000
13.25135 123.000
13.27130 139.000
13.29125 117.000
13.31120 127.000
13.33114 115.000
13.35109 147.000
13.37104 133.000
13.39098 138.000
13.41093 115.000
13.43088 123.000
13.45082 137.000
13.47077 130.000
13.49072 113.000
13.51067 114.000
13.53061 125.000
13.55056 113.000
13.57051 124.000
13.59045 115.000
13.61040 111.000
13.63035 112.000
13.65029 135.000
13.67024 117.000
13.69019 137.000
13.71013 118.000
13.73008 100.000
13.75003 133.000
13.76998 130.000
13.78992 113.000
13.80987 141.000
13.82982 126.000
13.84976 132.000
13.86971 128.000
13.88966 113.000
13.90960 114.000
13.92955 116.000
13.94950 125.000
13.96945 95.000
13.98939 115.000
14.00934 141.000
14.02929 110.000
14.04923 138.000
14.06918 134.000
14.08913 130.000
14.10907 137.000
14.12902 110.000
14.14897 101.000
14.16892 116.000
14.18886 140.000
14.20881 118.000
14.22876 126.000
14.24870 126.000
14.26865 123.000
14.28860 120.000
14.30854 125.000
14.32849 137.000
14.34844 134.000
14.36838 134.000
14.38833 118.000
14.40828 123.000
14.42823 137.000
14.44817 113.000
14.46812 127.000
14.48807 114.000
14.50801 136.000
14.52796 145.000
14.54791 123.000
14.56785 120.000
14.58780 130.000
14.60775 130.000
14.62770 149.000
14.64764 119.000
14.66759 147.000
14.68754 120.000
14.70748 131.000
14.72743 131.000
14.74738 122.000
14.76732 106.000
14.78727 122.000
14.80722 148.000
14.82716 129.000
14.84711 132.000
14.86706 121.000
14.88701 117.000
14.90695 135.000
14.92690 105.000
14.94685 123.000
14.96679 139.000
14.98674 129.000
15.00669 131.000
15.02663 139.000
15.04658 115.000
15.06653 117.000
15.08648 116.000
15.10642 134.000
15.12637 128.000
15.14632 127.000
15.16626 133.000
15.18621 112.000
15.20616 122.000
15.22610 131.000
15.24605 122.000
15.26600 100.000
15.28594 149.000
15.30589 138.000
15.32584 128.000
15.34579 132.000
15.36573 149.000
15.38568 111.000
15.40563 113.000
15.42557 143.000
15.44552 142.000
15.46547 130.000
15.48541 124.000
15.50536 124.000
15.52531 132.000
15.54526 127.000
15.56520 119.000
15.58515 140.000
15.60510 124.000
15.62504 141.000
15.64499 133.000
15.66494 145.000
15.68488 155.000
15.70483 174.000
15.72478 189.000
15.74472 221.000
15.76467 263.000
15.78462 319.000
15.80457 349.000
15.82451 447.000
15.84446 535.000
15.86441 451.000
15.88435 380.000
15.90430 299.000
15.92425 179.000
15.94419 159.000
15.96414 158.000
15.98409 156.000
16.00404 128.000
16.02398 146.000
16.04393 128.000
16.06388 142.000
16.08382 125.000
16.10377 129.000
16.12372 141.000
16.14366 140.000
16.16361 133.000
16.18356 136.000
16.20351 153.000
16.22345 120.000
16.24340 131.000
16.26335 124.000
16.28329 133.000
16.30324 114.000
16.32319 140.000
16.34313 116.000
16.36308 153.000
16.38303 115.000
16.40297 139.000
16.42292 132.000
16.44287 126.000
16.46282 129.000
16.48276 129.000
16.50271 132.000
16.52266 123.000
16.54260 139.000
16.56255 148.000
16.58250 122.000
16.60244 126.000
16.62239 112.000
16.64234 126.000
16.66229 137.000
16.68223 127.000
16.70218 116.000
16.72213 138.000
16.74207 140.000
16.76202 129.000
16.78197 131.000
16.80191 160.000
16.82186 146.000
16.84181 130.000
16.86175 141.000
16.88170 136.000
16.90165 135.000
16.92160 126.000
16.94154 118.000
16.96149 137.000
16.98144 132.000
17.00138 117.000
17.02133 140.000
17.04128 124.000
17.06122 124.000
17.08117 130.000
17.10112 148.000
17.12107 133.000
17.14101 115.000
17.16096 132.000
17.18091 145.000
17.20085 137.000
17.22080 118.000
17.24075 116.000
17.26069 155.000
17.28064 134.000
17.30059 106.000
17.32053 128.000
17.34048 139.000
17.36043 99.000
17.38038 125.000
17.40032 116.000
17.42027 136.000
17.44022 137.000
17.46016 117.000
17.48011 149.000
17.50006 127.000
17.52000 124.000
17.53995 132.000
17.55990 120.000
17.57985 132.000
17.59979 128.000
17.61974 145.000
17.63969 116.000
17.65963 149.000
17.67958 121.000
17.69953 136.000
17.71947 145.000
17.73942 131.000
17.75937 146.000
17.77932 130.000
17.79926 137.000
17.81921 136.000
17.83916 127.000
17.85910 126.000
17.87905 122.000
17.89900 144.000
17.91894 138.000
17.93889 136.000
17.95884 128.000
17.97878 117.000
17.99873 134.000
18.01868 133.000
18.03863 149.000
18.05857 134.000
18.07852 132.000
18.09847 141.000
18.11841 146.000
18.13836 136.000
18.15831 135.000
18.17825 146.000
18.19820 147.000
18.21815 141.000
18.23810 144.000
18.25804 151.000
18.27799 175.000
18.29794 200.000
18.31788 226.000
18.33783 258.000
18.35778 321.000
18.37772 430.000
18.39767 455.000
18.41762 528.000
18.43756 489.000
18.45751 407.000
18.47746 268.000
18.49741 233.000
18.51735 169.000
18.53730 145.000
18.55725 163.000
18.57719 169.000
18.59714 157.000
18.61709 142.000
18.63703 124.000
18.65698 119.000
18.67693 128.000
18.69688 125.000
18.71682 132.000
18.73677 118.000
18.75672 157.000
18.77666 154.000
18.79661 138.000
18.81656 149.000
18.83650 124.000
18.85645 129.000
18.87640 151.000
18.89634 130.000
18.91629 126.000
18.93624 141.000
18.95619 125.000
18.97613 146.000
18.99608 143.000
19.01603 136.000
19.03597 154.000
19.05592 126.000
19.07587 141.000
19.09581 111.000
19.11576 153.000
19.13571 120.000
19.15566 106.000
19.17560 151.000
19.19555 136.000
19.21550 127.000
19.23544 130.000
19.25539 163.000
19.27534 151.000
19.29528 135.000
19.31523 139.000
19.33518 124.000
19.35513 125.000
19.37507 155.000
19.39502 125.000
19.41497 126.000
19.43491 145.000
19.45486 125.000
19.47481 123.000
19.49475 127.000
19.51470 144.000
19.53465 131.000
19.55459 136.000
19.57454 123.000
19.59449 142.000
19.61444 145.000
19.63438 131.000
19.65433 150.000
19.67428 142.000
19.69422 137.000
19.71417 148.000
19.73412 123.000
19.75406 138.000
19.77401 135.000
19.79396 117.000
19.81391 154.000
19.83385 137.000
19.85380 115.000
19.87375 125.000
19.89369 148.000
19.91364 151.000
19.93359 124.000
19.95353 151.000
19.97348 128.000
19.99343 150.000
20.01337 142.000
20.03332 117.000
20.05327 124.000
20.07322 143.000
20.09316 139.000
20.11311 141.000
20.13306 145.000
20.15300 139.000
20.17295 148.000
20.19290 122.000
20.21284 116.000
20.23279 141.000
20.25274 121.000
20.27269 144.000
20.29263 141.000
20.31258 132.000
20.33253 130.000
20.35247 125.000
20.37242 149.000
20.39237 132.000
20.41231 128.000
20.43226 143.000
20.45221 150.000
20.47215 146.000
20.49210 154.000
20.51205 132.000
20.53200 127.000
20.55194 172.000
20.57189 117.000
20.59184 141.000
20.61178 151.000
20.63173 142.000
20.65168 126.000
20.67162 161.000
20.69157 133.000
20.71152 162.000
20.73147 139.000
20.75141 156.000
20.77136 151.000
20.79131 147.000
20.81125 159.000
20.83120 151.000
20.85115 149.000
20.87109 156.000
20.89104 220.000
20.91099 193.000
20.93094 222.000
20.95088 288.000
20.97083 306.000
20.99078 313.000
21.01072 322.000
21.03067 376.000
21.05062 384.000
21.07056 400.000
21.09051 344.000
21.11046 293.000
21.13040 265.000
21.15035 209.000
21.17030 217.000
21.19025 172.000
21.21019 178.000
21.23014 172.000
21.25009 164.000
21.27003 134.000
21.28998 141.000
21.30993 144.000
21.32987 121.000
21.34982 145.000
21.36977 150.000
21.38972 148.000
21.40966 141.000
21.42961 147.000
21.44956 144.000
21.46950 125.000
21.48945 155.000
21.50940 132.000
21.52934 157.000
21.54929 132.000
21.56924 134.000
21.58918 132.000
21.60913 163.000
21.62908 155.000
21.64903 148.000
21.66897 144.000
21.68892 148.000
21.70887 144.000
21.72881 131.000
21.74876 134.000
21.76871 131.000
21.78865 145.000
21.80860 142.000
21.82855 140.000
21.84850 142.000
21.86844 149.000
21.88839 131.000
21.90834 131.000
21.92828 131.000
21.94823 136.000
21.96818 129.000
21.98812 146.000
22.00807 157.000
22.02802 139.000
22.04796 142.000
22.06791 159.000
22.08786 129.000
22.10781 133.000
22.12775 145.000
22.14770 136.000
22.16765 147.000
22.18759 144.000
22.20754 142.000
22.22749 145.000
22.24743 155.000
22.26738 147.000
22.28733 144.000
22.30728 146.000
22.32722 154.000
22.34717 131.000
22.36712 166.000
22.38706 121.000
22.40701 136.000
22.42696 151.000
22.44690 123.000
22.46685 140.000
22.48680 144.000
22.50675 136.000
22.52669 155.000
22.54664 152.000
22.56659 141.000
22.58653 153.000
22.60648 152.000
22.62643 138.000
22.64637 116.000
22.66632 120.000
22.68627 164.000
22.70621 146.000
22.72616 151.000
22.74611 151.000
22.76606 144.000
22.78600 155.000
22.80595 155.000
22.82590 154.000
22.84584 139.000
22.86579 140.000
22.88574 149.000
22.90568 143.000
22.92563 132.000
22.94558 158.000
22.96553 160.000
22.98547 151.000
23.00542 157.000
23.02537 154.000
23.04531 145.000
23.06526 147.000
23.08521 132.000
23.10515 155.000
23.12510 167.000
23.14505 153.000
23.16499 169.000
23.18494 142.000
23.20489 161.000
23.22484 153.000
23.24478 143.000
23.26473 164.000
23.28468 132.000
23.30462 138.000
23.32457 160.000
23.34452 147.000
23.36446 151.000
23.38441 145.000
23.40436 122.000
23.42431 140.000
23.44425 153.000
23.46420 140.000
23.48415 138.000
23.50409 149.000
23.52404 159.000
23.54399 180.000
23.56393 151.000
23.58388 138.000
23.60383 141.000
23.62377 124.000
23.64372 136.000
23.66367 147.000
23.68362 139.000
23.70356 151.000
23.72351 170.000
23.74346 119.000
23.76340 128.000
23.78335 143.000
23.80330 153.000
23.82324 138.000
23.84319 153.000
23.86314 139.000
23.88309 152.000
23.90303 141.000
23.92298 126.000
23.94293 147.000
23.96287 130.000
23.98282 143.000
24.00277 160.000
24.02271 134.000
24.04266 153.000
24.06261 157.000
24.08256 157.000
24.10250 153.000
24.12245 163.000
24.14240 146.000
24.16234 154.000
24.18229 152.000
24.20224 165.000
24.22218 143.000
24.24213 154.000
24.26208 155.000
24.28202 169.000
24.30197 158.000
24.32192 165.000
24.34187 166.000
24.36181 183.000
24.38176 145.000
24.40171 175.000
24.42165 144.000
24.44160 140.000
24.46155 141.000
24.48149 130.000
24.50144 159.000
24.52139 149.000
24.54134 151.000
24.56128 154.000
24.58123 179.000
24.60118 149.000
24.62112 159.000
24.64107 155.000
24.66102 152.000
24.68096 138.000
24.70091 166.000
24.72086 118.000
24.74080 146.000
24.76075 144.000
24.78070 152.000
24.80065 168.000
24.82059 136.000
24.84054 135.000
24.86049 184.000
24.88043 181.000
24.90038 154.000
24.92033 166.000
24.94027 175.000
24.96022 148.000
24.98017 178.000
25.00012 166.000
25.02006 176.000
25.04001 166.000
25.05996 156.000
25.07990 176.000
25.09985 151.000
25.11980 146.000
25.13974 160.000
25.15969 143.000
25.17964 134.000
25.19958 159.000
25.21953 153.000
25.23948 165.000
25.25943 156.000
25.27937 167.000
25.29932 159.000
25.31927 150.000
25.33921 166.000
25.35916 133.000
25.37911 147.000
25.39905 161.000
25.41900 155.000
25.43895 158.000
25.45890 137.000
25.47884 156.000
25.49879 163.000
25.51874 172.000
25.53868 165.000
25.55863 139.000
25.57858 173.000
25.59852 147.000
25.61847 168.000
25.63842 164.000
25.65837 171.000
25.67831 169.000
25.69826 162.000
25.71821 163.000
25.73815 135.000
25.75810 163.000
25.77805 175.000
25.79799 153.000
25.81794 162.000
25.83789 163.000
25.85783 144.000
25.87778 165.000
25.89773 171.000
25.91768 157.000
25.93762 166.000
25.95757 164.000
25.97752 132.000
25.99746 160.000
26.01741 165.000
26.03736 173.000
26.05730 162.000
26.07725 153.000
26.09720 183.000
26.11715 160.000
26.13709 188.000
26.15704 165.000
26.17699 158.000
26.19693 166.000
26.21688 186.000
26.23683 172.000
26.25677 170.000
26.27672 158.000
26.29667 166.000
26.31661 172.000
26.33656 171.000
26.35651 165.000
26.37646 180.000
26.39640 166.000
26.41635 145.000
26.43630 164.000
26.45624 169.000
26.47619 155.000
26.49614 169.000
26.51608 189.000
26.53603 153.000
26.55598 174.000
26.57593 151.000
26.59587 149.000
26.61582 188.000
26.63577 172.000
26.65571 177.000
26.67566 164.000
26.69561 167.000
26.71555 154.000
26.73550 176.000
26.75545 159.000
26.77539 163.000
26.79534 172.000
26.81529 151.000
26.83524 180.000
26.85518 201.000
26.87513 195.000
26.89508 154.000
26.91502 164.000
26.93497 138.000
26.95492 175.000
26.97486 185.000
26.99481 169.000
27.01476 172.000
27.03471 156.000
27.05465 164.000
27.07460 182.000
27.09455 176.000
27.11449 192.000
27.13444 166.000
27.15439 167.000
27.17433 178.000
27.19428 182.000
27.21423 186.000
27.23417 175.000
27.25412 180.000
27.27407 188.000
27.29402 159.000
27.31396 183.000
27.33391 156.000
27.35386 191.000
27.37380 183.000
27.39375 170.000
27.41370 188.000
27.43364 168.000
27.45359 182.000
27.47354 189.000
27.49349 181.000
27.51343 195.000
27.53338 155.000
27.55333 161.000
27.57327 153.000
27.59322 170.000
27.61317 204.000
27.63311 197.000
27.65306 169.000
27.67301 179.000
27.69296 181.000
27.71290 185.000
27.73285 178.000
27.75280 183.000
27.77274 172.000
27.79269 185.000
27.81264 182.000
27.83258 157.000
27.85253 187.000
27.87248 171.000
27.89242 221.000
27.91237 166.000
27.93232 165.000
27.95227 189.000
27.97221 164.000
27.99216 176.000
28.01211 154.000
28.03205 187.000
28.05200 187.000
28.07195 180.000
28.09189 189.000
28.11184 179.000
28.13179 172.000
28.15174 173.000
28.17168 190.000
28.19163 186.000
28.21158 167.000
28.23152 192.000
28.25147 168.000
28.27142 169.000
28.29136 173.000
28.31131 144.000
28.33126 188.000
28.35120 198.000
28.37115 214.000
28.39110 211.000
28.41105 164.000
28.43099 172.000
28.45094 181.000
28.47089 170.000
28.49083 192.000
28.51078 191.000
28.53073 175.000
28.55067 179.000
28.57062 207.000
28.59057 192.000
28.61052 184.000
28.63046 173.000
28.65041 183.000
28.67036 200.000
28.69030 176.000
28.71025 183.000
28.73020 184.000
28.75014 184.000
28.77009 171.000
28.79004 185.000
28.80998 194.000
28.82993 176.000
28.84988 177.000
28.86983 173.000
28.88977 177.000
28.90972 188.000
28.92967 197.000
28.94961 186.000
28.96956 164.000
28.98951 215.000
29.00945 180.000
29.02940 210.000
29.04935 186.000
29.06930 193.000
29.08924 192.000
29.10919 196.000
29.12914 204.000
29.14908 199.000
29.16903 209.000
29.18898 211.000
29.20892 202.000
29.22887 197.000
29.24882 216.000
29.26877 201.000
29.28871 194.000
29.30866 201.000
29.32861 235.000
29.34855 224.000
29.36850 243.000
29.38845 216.000
29.40839 245.000
29.42834 246.000
29.44829 214.000
29.46823 234.000
29.48818 196.000
29.50813 195.000
29.52808 226.000
29.54802 201.000
29.56797 201.000
29.58792 228.000
29.60786 184.000
29.62781 192.000
29.64776 182.000
29.66770 200.000
29.68765 213.000
29.70760 192.000
29.72755 179.000
29.74749 183.000
29.76744 182.000
29.78739 221.000
29.80733 212.000
29.82728 209.000
29.84723 195.000
29.86717 184.000
29.88712 207.000
29.90707 245.000
29.92701 199.000
29.94696 233.000
29.96691 244.000
29.98686 216.000
30.00680 228.000
30.02675 208.000
30.04670 242.000
30.06664 267.000
30.08659 274.000
30.10654 284.000
30.12648 302.000
30.14643 298.000
30.16638 335.000
30.18633 393.000
30.20627 500.000
30.22622 591.000
30.24617 812.000
30.26611 1036.000
30.28606 1166.000
30.30601 1096.000
30.32595 951.000
30.34590 863.000
30.36585 772.000
30.38579 623.000
30.40574 466.000
30.42569 346.000
30.44564 256.000
30.46558 235.000
30.48553 227.000
30.50548 228.000
30.52542 214.000
30.54537 210.000
30.56532 218.000
30.58526 205.000
30.60521 228.000
30.62516 211.000
30.64511 185.000
30.66505 194.000
30.68500 203.000
30.70495 222.000
30.72489 191.000
30.74484 219.000
30.76479 199.000
30.78473 200.000
30.80468 185.000
30.82463 186.000
30.84458 182.000
30.86452 176.000
30.88447 205.000
30.90442 199.000
30.92436 198.000
30.94431 185.000
30.96426 185.000
30.98420 208.000
31.00415 178.000
31.02410 208.000
31.04404 212.000
31.06399 203.000
31.08394 201.000
31.10389 218.000
31.12383 224.000
31.14378 197.000
31.16373 188.000
31.18367 190.000
31.20362 201.000
31.22357 189.000
31.24351 206.000
31.26346 200.000
31.28341 203.000
31.30336 213.000
31.32330 231.000
31.34325 191.000
31.36320 205.000
31.38314 218.000
31.40309 205.000
31.42304 195.000
31.44298 195.000
31.46293 187.000
31.48288 226.000
31.50282 212.000
31.52277 214.000
31.54272 204.000
31.56267 189.000
31.58261 212.000
31.60256 200.000
31.62251 182.000
31.64245 176.000
31.66240 170.000
31.68235 209.000
31.70229 202.000
31.72224 223.000
31.74219 210.000
31.76214 199.000
31.78208 186.000
31.80203 186.000
31.82198 211.000
31.84192 191.000
31.86187 201.000
31.88182 196.000
31.90176 204.000
31.92171 183.000
31.94166 240.000
31.96160 197.000
31.98155 226.000
32.00150 216.000
32.02145 217.000
32.04139 209.000
32.06134 182.000
32.08129 227.000
32.10123 194.000
32.12118 206.000
32.14113 228.000
32.16107 211.000
32.18102 214.000
32.20097 197.000
32.22092 179.000
32.24086 207.000
32.26081 218.000
32.28076 174.000
32.30070 173.000
32.32065 183.000
32.34060 203.000
32.36054 179.000
32.38049 191.000
32.40044 204.000
32.42039 199.000
32.44033 201.000
32.46028 174.000
32.48023 164.000
32.50017 193.000
32.52012 207.000
32.54007 177.000
32.56001 209.000
32.57996 205.000
32.59991 195.000
32.61985 218.000
32.63980 214.000
32.65975 190.000
32.67970 183.000
32.69964 191.000
32.71959 206.000
32.73954 175.000
32.75948 157.000
32.77943 198.000
32.79938 211.000
32.81932 203.000
32.83927 193.000
32.85922 193.000
32.87917 208.000
32.89911 174.000
32.91906 182.000
32.93901 173.000
32.95895 187.000
32.97890 199.000
32.99885 169.000
33.01879 198.000
33.03874 200.000
33.05869 209.000
33.07863 198.000
33.09858 193.000
33.11853 176.000
33.13848 194.000
33.15842 199.000
33.17837 197.000
33.19832 233.000
33.21826 194.000
33.23821 200.000
33.25816 183.000
33.27810 182.000
33.29805 183.000
33.31800 196.000
33.33795 206.000
33.35789 170.000
33.37784 199.000
33.39779 180.000
33.41773 203.000
33.43768 202.000
33.45763 213.000
33.47757 197.000
33.49752 194.000
33.51747 193.000
33.53741 186.000
33.55736 201.000
33.57731 201.000
33.59726 189.000
33.61720 191.000
33.63715 196.000
33.65710 198.000
33.67704 174.000
33.69699 162.000
33.71694 186.000
33.73688 207.000
33.75683 172.000
33.77678 206.000
33.79673 180.000
33.81667 189.000
33.83662 188.000
33.85657 185.000
33.87651 204.000
33.89646 190.000
33.91641 184.000
33.93635 188.000
33.95630 171.000
33.97625 229.000
33.99620 173.000
34.01614 187.000
34.03609 206.000
34.05604 195.000
34.07598 193.000
34.09593 201.000
34.11588 188.000
34.13582 207.000
34.15577 212.000
34.17572 210.000
34.19566 227.000
34.21561 182.000
34.23556 192.000
34.25551 209.000
34.27545 202.000
34.29540 233.000
34.31535 205.000
34.33529 225.000
34.35524 192.000
34.37519 230.000
34.39513 231.000
34.41508 251.000
34.43503 246.000
34.45498 255.000
34.47492 257.000
34.49487 284.000
34.51482 327.000
34.53476 342.000
34.55471 325.000
34.57466 356.000
34.59460 352.000
34.61455 379.000
34.63450 459.000
34.65444 435.000
34.67439 443.000
34.69434 466.000
34.71429 431.000
34.73423 446.000
34.75418 440.000
34.77413 409.000
34.79407 413.000
34.81402 362.000
34.83397 339.000
34.85391 307.000
34.87386 294.000
34.89381 282.000
34.91376 232.000
34.93370 255.000
34.95365 230.000
34.97360 252.000
34.99354 225.000
35.01349 246.000
35.03344 252.000
35.05338 202.000
35.07333 215.000
35.09328 245.000
35.11322 221.000
35.13317 259.000
35.15312 234.000
35.17307 259.000
35.19301 249.000
35.21296 275.000
35.23291 237.000
35.25285 262.000
35.27280 275.000
35.29275 297.000
35.31269 302.000
35.33264 300.000
35.35259 326.000
35.37254 299.000
35.39248 358.000
35.41243 338.000
35.43238 385.000
35.45232 409.000
35.47227 486.000
35.49222 481.000
35.51216 518.000
35.53211 650.000
35.55206 785.000
35.57201 893.000
35.59195 1206.000
35.61190 1525.000
35.63185 2106.000
35.65179 2758.000
35.67174 3284.000
35.69169 3117.000
35.71163 2729.000
35.73158 2417.000
35.75153 2122.000
35.77147 2074.000
35.79142 1638.000
35.81137 1194.000
35.83132 767.000
35.85126 557.000
35.87121 438.000
35.89116 343.000
35.91110 298.000
35.93105 263.000
35.95100 244.000
35.97094 224.000
35.99089 249.000
36.01084 221.000
36.03079 219.000
36.05073 208.000
36.07068 193.000
36.09063 234.000
36.11057 207.000
36.13052 215.000
36.15047 194.000
36.17041 219.000
36.19036 210.000
36.21031 204.000
36.23025 206.000
36.25020 221.000
36.27015 222.000
36.29010 203.000
36.31004 198.000
36.32999 211.000
36.34994 210.000
36.36988 208.000
36.38983 186.000
36.40978 224.000
36.42972 195.000
36.44967 179.000
36.46962 230.000
36.48957 205.000
36.50951 196.000
36.52946 221.000
36.54941 208.000
36.56935 189.000
36.58930 185.000
36.60925 206.000
36.62919 238.000
36.64914 198.000
36.66909 228.000
36.68903 222.000
36.70898 198.000
36.72893 187.000
36.74888 231.000
36.76882 216.000
36.78877 224.000
36.80872 220.000
36.82866 211.000
36.84861 245.000
36.86856 220.000
36.88850 227.000
36.90845 219.000
36.92840 254.000
36.94835 269.000
36.96829 294.000
36.98824 284.000
37.00819 356.000
37.02813 412.000
37.04808 401.000
37.06803 460.000
37.08797 589.000
37.10792 705.000
37.12787 725.000
37.14781 783.000
37.16776 790.000
37.18771 739.000
37.20766 807.000
37.22760 665.000
37.24755 604.000
37.26750 625.000
37.28744 629.000
37.30739 585.000
37.32734 512.000
37.34728 443.000
37.36723 412.000
37.38718 331.000
37.40713 346.000
37.42707 354.000
37.44702 280.000
37.46697 269.000
37.48691 224.000
37.50686 211.000
37.52681 192.000
37.54675 225.000
37.56670 197.000
37.58665 187.000
37.60660 188.000
37.62654 195.000
37.64649 174.000
37.66644 182.000
37.68638 190.000
37.70633 189.000
37.72628 193.000
37.74622 180.000
37.76617 166.000
37.78612 180.000
37.80606 181.000
37.82601 178.000
37.84596 169.000
37.86591 192.000
37.88585 178.000
37.90580 186.000
37.92575 185.000
37.94569 177.000
37.96564 175.000
37.98559 165.000
38.00553 185.000
38.02548 163.000
38.04543 179.000
38.06538 150.000
38.08532 176.000
38.10527 183.000
38.12522 180.000
38.14516 191.000
38.16511 202.000
38.18506 168.000
38.20500 189.000
38.22495 175.000
38.24490 159.000
38.26484 180.000
38.28479 193.000
38.30474 157.000
38.32469 157.000
38.34463 184.000
38.36458 171.000
38.38453 164.000
38.40447 165.000
38.42442 185.000
38.44437 177.000
38.46431 161.000
38.48426 190.000
38.50421 172.000
38.52416 179.000
38.54410 173.000
38.56405 186.000
38.58400 219.000
38.60394 190.000
38.62389 175.000
38.64384 221.000
38.66378 202.000
38.68373 205.000
38.70368 191.000
38.72362 197.000
38.74357 207.000
38.76352 177.000
38.78347 199.000
38.80341 207.000
38.82336 216.000
38.84331 207.000
38.86325 202.000
38.88320 173.000
38.90315 237.000
38.92309 194.000
38.94304 205.000
38.96299 197.000
38.98294 180.000
39.00288 190.000
39.02283 172.000
39.04278 180.000
39.06272 178.000
39.08267 165.000
39.10262 178.000
39.12256 174.000
39.14251 170.000
39.16246 174.000
39.18241 190.000
39.20235 209.000
39.22230 216.000
39.24225 191.000
39.26219 191.000
39.28214 211.000
39.30209 216.000
39.32203 225.000
39.34198 227.000
39.36193 205.000
39.38187 200.000
39.40182 197.000
39.42177 189.000
39.44172 194.000
39.46166 191.000
39.48161 200.000
39.50156 190.000
39.52150 177.000
39.54145 191.000
39.56140 157.000
39.58134 155.000
39.60129 173.000
39.62124 169.000
39.64119 169.000
39.66113 175.000
39.68108 186.000
39.70103 172.000
39.72097 150.000
39.74092 183.000
39.76087 189.000
39.78081 162.000
39.80076 156.000
39.82071 160.000
39.84065 193.000
39.86060 168.000
39.88055 141.000
39.90050 151.000
39.92044 141.000
39.94039 159.000
39.96034 191.000
39.98028 169.000
40.00023 152.000
40.02018 174.000
40.04012 160.000
40.06007 155.000
40.08002 158.000
40.09997 168.000
40.11991 159.000
40.13986 171.000
40.15981 184.000
40.17975 145.000
40.19970 169.000
40.21965 189.000
40.23959 151.000
40.25954 175.000
40.27949 164.000
40.29943 167.000
40.31938 166.000
40.33933 144.000
40.35928 152.000
40.37922 142.000
40.39917 138.000
40.41912 137.000
40.43906 170.000
40.45901 179.000
40.47896 161.000
40.49890 168.000
40.51885 153.000
40.53880 155.000
40.55875 180.000
40.57869 159.000
40.59864 190.000
40.61859 146.000
40.63853 151.000
40.65848 142.000
40.67843 164.000
40.69837 156.000
40.71832 176.000
40.73827 157.000
40.75822 177.000
40.77816 141.000
40.79811 162.000
40.81806 140.000
40.83800 181.000
40.85795 186.000
40.87790 179.000
40.89784 186.000
40.91779 173.000
40.93774 170.000
40.95768 153.000
40.97763 183.000
40.99758 155.000
41.01753 173.000
41.03747 184.000
41.05742 160.000
41.07737 181.000
41.09731 164.000
41.11726 176.000
41.13721 155.000
41.15715 166.000
41.17710 156.000
41.19705 156.000
41.21700 194.000
41.23694 187.000
41.25689 186.000
41.27684 166.000
41.29678 155.000
41.31673 147.000
41.33668 195.000
41.35662 143.000
41.37657 151.000
41.39652 168.000
41.41646 155.000
41.43641 160.000
41.45636 170.000
41.47631 181.000
41.49625 163.000
41.51620 168.000
41.53615 177.000
41.55609 171.000
41.57604 164.000
41.59599 168.000
41.61593 163.000
41.63588 167.000
41.65583 142.000
41.67578 180.000
41.69572 156.000
41.71567 158.000
41.73562 157.000
41.75556 182.000
41.77551 165.000
41.79546 165.000
41.81540 157.000
41.83535 184.000
41.85530 157.000
41.87524 161.000
41.89519 179.000
41.91514 173.000
41.93509 197.000
41.95503 162.000
41.97498 171.000
41.99493 145.000
42.01487 147.000
42.03482 171.000
42.05477 160.000
42.07471 174.000
42.09466 160.000
42.11461 161.000
42.13456 178.000
42.15450 172.000
42.17445 186.000
42.19440 176.000
42.21434 183.000
42.23429 170.000
42.25424 189.000
42.27418 171.000
42.29413 175.000
42.31408 171.000
42.33403 159.000
42.35397 174.000
42.37392 187.000
42.39387 185.000
42.41381 207.000
42.43376 196.000
42.45371 169.000
42.47365 174.000
42.49360 174.000
42.51355 170.000
42.53349 201.000
42.55344 197.000
42.57339 171.000
42.59334 196.000
42.61328 230.000
42.63323 179.000
42.65318 192.000
42.67312 242.000
42.69307 198.000
42.71302 232.000
42.73296 209.000
42.75291 222.000
42.77286 222.000
42.79281 230.000
42.81275 259.000
42.83270 254.000
42.85265 277.000
42.87259 311.000
42.89254 275.000
42.91249 324.000
42.93243 323.000
42.95238 370.000
42.97233 411.000
42.99227 406.000
43.01222 495.000
43.03217 520.000
43.05212 552.000
43.07206 625.000
43.09201 646.000
43.11196 725.000
43.13190 830.000
43.15185 890.000
43.17180 960.000
43.19174 1070.000
43.21169 1003.000
43.23164 988.000
43.25159 1059.000
43.27153 943.000
43.29148 938.000
43.31143 1006.000
43.33137 1056.000
43.35132 1042.000
43.37127 1083.000
43.39121 958.000
43.41116 812.000
43.43111 734.000
43.45105 675.000
43.47100 625.000
43.49095 547.000
43.51090 474.000
43.53084 415.000
43.55079 359.000
43.57074 310.000
43.59068 276.000
43.61063 220.000
43.63058 217.000
43.65052 175.000
43.67047 227.000
43.69042 196.000
43.71037 182.000
43.73031 193.000
43.75026 190.000
43.77021 196.000
43.79015 164.000
43.81010 157.000
43.83005 174.000
43.84999 185.000
43.86994 165.000
43.88989 168.000
43.90984 181.000
43.92978 190.000
43.94973 159.000
43.96968 167.000
43.98962 163.000
44.00957 162.000
44.02952 157.000
44.04946 174.000
44.06941 168.000
44.08936 176.000
44.10930 132.000
44.12925 172.000
44.14920 176.000
44.16915 155.000
44.18909 160.000
44.20904 142.000
44.22899 177.000
44.24893 147.000
44.26888 144.000
44.28883 163.000
44.30877 135.000
44.32872 161.000
44.34867 169.000
44.36862 152.000
44.38856 171.000
44.40851 163.000
44.42846 159.000
44.44840 158.000
44.46835 132.000
44.48830 177.000
44.50824 152.000
44.52819 153.000
44.54814 162.000
44.56808 152.000
44.58803 177.000
44.60798 179.000
44.62793 161.000
44.64787 182.000
44.66782 162.000
44.68777 153.000
44.70771 146.000
44.72766 163.000
44.74761 160.000
44.76755 150.000
44.78750 181.000
44.80745 170.000
44.82740 156.000
44.84734 157.000
44.86729 152.000
44.88724 186.000
44.90718 184.000
44.92713 144.000
44.94708 163.000
44.96702 168.000
44.98697 189.000
45.00692 145.000
45.02686 146.000
45.04681 152.000
45.06676 169.000
45.08671 174.000
45.10665 168.000
45.12660 170.000
45.14655 173.000
45.16649 175.000
45.18644 172.000
45.20639 168.000
45.22633 178.000
45.24628 177.000
45.26623 173.000
45.28618 152.000
45.30612 164.000
45.32607 158.000
45.34602 163.000
45.36596 158.000
45.38591 166.000
45.40586 180.000
45.42580 146.000
45.44575 168.000
45.46570 150.000
45.48565 150.000
45.50559 171.000
45.52554 148.000
45.54549 163.000
45.56543 151.000
45.58538 163.000
45.60533 175.000
45.62527 156.000
45.64522 156.000
45.66517 136.000
45.68511 141.000
45.70506 154.000
45.72501 150.000
45.74496 168.000
45.76490 127.000
45.78485 156.000
45.80480 172.000
45.82474 169.000
45.84469 122.000
45.86464 142.000
45.88458 155.000
45.90453 177.000
45.92448 142.000
45.94443 156.000
45.96437 146.000
45.98432 144.000
46.00427 113.000
46.02421 164.000
46.04416 154.000
46.06411 146.000
46.08405 164.000
46.10400 163.000
46.12395 148.000
46.14389 137.000
46.16384 156.000
46.18379 140.000
46.20374 132.000
46.22368 157.000
46.24363 162.000
46.26358 170.000
46.28352 137.000
46.30347 133.000
46.32342 137.000
46.34336 159.000
46.36331 157.000
46.38326 147.000
46.40321 155.000
46.42315 166.000
46.44310 158.000
46.46305 157.000
46.48299 141.000
46.50294 138.000
46.52289 151.000
46.54283 161.000
46.56278 148.000
46.58273 147.000
46.60267 166.000
46.62262 162.000
46.64257 145.000
46.66252 133.000
46.68246 144.000
46.70241 139.000
46.72236 142.000
46.74230 166.000
46.76225 152.000
46.78220 160.000
46.80214 143.000
46.82209 161.000
46.84204 158.000
46.86199 140.000
46.88193 114.000
46.90188 167.000
46.92183 135.000
46.94177 165.000
46.96172 177.000
46.98167 146.000
47.00161 149.000
47.02156 146.000
47.04151 136.000
47.06146 144.000
47.08140 168.000
47.10135 134.000
47.12130 157.000
47.14124 156.000
47.16119 143.000
47.18114 155.000
47.20108 148.000
47.22103 143.000
47.24098 156.000
47.26092 144.000
47.28087 160.000
47.30082 150.000
47.32077 139.000
47.34071 133.000
47.36066 156.000
47.38061 151.000
47.40055 137.000
47.42050 161.000
47.44045 172.000
47.46039 183.000
47.48034 171.000
47.50029 147.000
47.52024 148.000
47.54018 141.000
47.56013 146.000
47.58008 168.000
47.60002 171.000
47.61997 135.000
47.63992 178.000
47.65986 153.000
47.67981 156.000
47.69976 173.000
47.71970 155.000
47.73965 162.000
47.75960 161.000
47.77955 146.000
47.79949 153.000
47.81944 145.000
47.83939 123.000
47.85933 165.000
47.87928 144.000
47.89923 165.000
47.91917 143.000
47.93912 147.000
47.95907 183.000
47.97902 157.000
47.99896 161.000
48.01891 138.000
48.03886 161.000
48.05880 142.000
48.07875 145.000
48.09870 145.000
48.11864 167.000
48.13859 151.000
48.15854 157.000
48.17848 148.000
48.19843 161.000
48.21838 157.000
48.23833 168.000
48.25827 146.000
48.27822 147.000
48.29817 164.000
48.31811 159.000
48.33806 145.000
48.35801 144.000
48.37795 135.000
48.39790 171.000
48.41785 157.000
48.43780 142.000
48.45774 147.000
48.47769 131.000
48.49764 144.000
48.51758 150.000
48.53753 157.000
48.55748 136.000
48.57742 153.000
48.59737 141.000
48.61732 169.000
48.63726 173.000
48.65721 206.000
48.67716 183.000
48.69711 210.000
48.71705 215.000
48.73700 170.000
48.75695 180.000
48.77689 211.000
48.79684 208.000
48.81679 181.000
48.83673 207.000
48.85668 182.000
48.87663 193.000
48.89658 210.000
48.91652 164.000
48.93647 202.000
48.95642 172.000
48.97636 160.000
48.99631 147.000
49.01626 151.000
49.03620 181.000
49.05615 166.000
49.07610 157.000
49.09605 135.000
49.11599 147.000
49.13594 135.000
49.15589 132.000
49.17583 148.000
49.19578 154.000
49.21573 149.000
49.23567 174.000
49.25562 156.000
49.27557 173.000
49.29551 125.000
49.31546 142.000
49.33541 157.000
49.35536 188.000
49.37530 144.000
49.39525 132.000
49.41520 147.000
49.43514 159.000
49.45509 159.000
49.47504 156.000
49.49498 164.000
49.51493 182.000
49.53488 164.000
49.55483 171.000
49.57477 150.000
49.59472 142.000
49.61467 153.000
49.63461 176.000
49.65456 137.000
49.67451 156.000
49.69445 157.000
49.71440 159.000
49.73435 162.000
49.75429 169.000
49.77424 167.000
49.79419 162.000
49.81414 132.000
49.83408 161.000
49.85403 168.000
49.87398 169.000
49.89392 176.000
49.91387 162.000
49.93382 160.000
49.95376 167.000
49.97371 164.000
49.99366 140.000
50.01361 163.000
50.03355 167.000
50.05350 172.000
50.07345 154.000
50.09339 147.000
50.11334 141.000
50.13329 138.000
50.15323 167.000
50.17318 173.000
50.19313 149.000
50.21307 167.000
50.23302 134.000
50.25297 153.000
50.27292 146.000
50.29286 146.000
50.31281 158.000
50.33276 153.000
50.35270 134.000
50.37265 170.000
50.39260 127.000
50.41254 156.000
50.43249 153.000
50.45244 161.000
50.47239 125.000
50.49233 141.000
50.51228 157.000
50.53223 159.000
50.55217 160.000
50.57212 163.000
50.59207 163.000
50.61201 168.000
50.63196 150.000
50.65191 135.000
50.67186 128.000
50.69180 157.000
50.71175 150.000
50.73170 165.000
50.75164 145.000
50.77159 123.000
50.79154 158.000
50.81148 159.000
50.83143 130.000
50.85138 138.000
50.87132 151.000
50.89127 144.000
50.91122 162.000
50.93117 136.000
50.95111 141.000
50.97106 159.000
50.99101 144.000
51.01095 138.000
51.03090 145.000
51.05085 132.000
51.07079 134.000
51.09074 125.000
51.11069 158.000
51.13064 142.000
51.15058 151.000
51.17053 131.000
51.19048 149.000
51.21042 123.000
51.23037 143.000
51.25032 133.000
51.27026 145.000
51.29021 153.000
51.31016 145.000
51.33010 180.000
51.35005 149.000
51.37000 133.000
51.38995 149.000
51.40989 140.000
51.42984 138.000
51.44979 137.000
51.46973 166.000
51.48968 166.000
51.50963 127.000
51.52957 136.000
51.54952 168.000
51.56947 135.000
51.58942 154.000
51.60936 146.000
51.62931 148.000
51.64926 135.000
51.66920 150.000
51.68915 158.000
51.70910 139.000
51.72904 162.000
51.74899 135.000
51.76894 136.000
51.78888 147.000
51.80883 133.000
51.82878 126.000
51.84873 143.000
51.86867 166.000
51.88862 147.000
51.90857 164.000
51.92851 152.000
51.94846 140.000
51.96841 156.000
51.98835 126.000
52.00830 119.000
52.02825 148.000
52.04820 173.000
52.06814 155.000
52.08809 146.000
52.10804 156.000
52.12798 153.000
52.14793 135.000
52.16788 167.000
52.18782 137.000
52.20777 142.000
52.22772 134.000
52.24767 131.000
52.26761 148.000
52.28756 145.000
52.30751 143.000
52.32745 144.000
52.34740 137.000
52.36735 165.000
52.38729 143.000
52.40724 135.000
52.42719 152.000
52.44713 181.000
52.46708 155.000
52.48703 171.000
52.50698 134.000
52.52692 146.000
52.54687 142.000
52.56682 153.000
52.58676 151.000
52.60671 148.000
52.62666 148.000
52.64660 146.000
52.66655 149.000
52.68650 151.000
52.70645 168.000
52.72639 161.000
52.74634 132.000
52.76629 171.000
52.78623 148.000
52.80618 134.000
52.82613 145.000
52.84607 155.000
52.86602 152.000
52.88597 153.000
52.90591 137.000
52.92586 154.000
52.94581 144.000
52.96576 146.000
52.98570 163.000
53.00565 158.000
53.02560 148.000
53.04554 135.000
53.06549 141.000
53.08544 164.000
53.10538 123.000
53.12533 159.000
53.14528 138.000
53.16523 166.000
53.18517 159.000
53.20512 157.000
53.22507 154.000
53.24501 144.000
53.26496 142.000
53.28491 128.000
53.30485 153.000
53.32480 149.000
53.34475 161.000
53.36469 163.000
53.38464 138.000
53.40459 126.000
53.42454 169.000
53.44448 162.000
53.46443 143.000
53.48438 171.000
53.50432 127.000
53.52427 164.000
53.54422 177.000
53.56416 160.000
53.58411 159.000
53.60406 186.000
53.62401 192.000
53.64395 179.000
53.66390 184.000
53.68385 227.000
53.70379 218.000
53.72374 232.000
53.74369 234.000
53.76363 316.000
53.78358 365.000
53.80353 397.000
53.82348 396.000
53.84342 349.000
53.86337 328.000
53.88332 313.000
53.90326 272.000
53.92321 324.000
53.94316 280.000
53.96310 284.000
53.98305 263.000
54.00300 238.000
54.02294 203.000
54.04289 192.000
54.06284 155.000
54.08279 149.000
54.10273 142.000
54.12268 175.000
54.14263 168.000
54.16257 143.000
54.18252 145.000
54.20247 153.000
54.22241 163.000
54.24236 149.000
54.26231 154.000
54.28226 156.000
54.30220 137.000
54.32215 134.000
54.34210 152.000
54.36204 155.000
54.38199 170.000
54.40194 152.000
54.42188 162.000
54.44183 161.000
54.46178 159.000
54.48172 153.000
54.50167 140.000
54.52162 127.000
54.54157 160.000
54.56151 161.000
54.58146 165.000
54.60141 132.000
54.62135 155.000
54.64130 147.000
54.66125 141.000
54.68119 177.000
54.70114 156.000
54.72109 172.000
54.74104 151.000
54.76098 170.000
54.78093 164.000
54.80088 166.000
54.82082 176.000
54.84077 165.000
54.86072 134.000
54.88066 150.000
54.90061 161.000
54.92056 146.000
54.94050 140.000
54.96045 154.000
54.98040 140.000
55.00035 178.000
55.02029 149.000
55.04024 137.000
55.06019 144.000
55.08013 148.000
55.10008 159.000
55.12003 141.000
55.13997 148.000
55.15992 142.000
55.17987 150.000
55.19982 125.000
55.21976 174.000
55.23971 142.000
55.25966 146.000
55.27960 158.000
55.29955 159.000
55.31950 135.000
55.33944 143.000
55.35939 132.000
55.37934 141.000
55.39929 156.000
55.41923 152.000
55.43918 142.000
55.45913 156.000
55.47907 145.000
55.49902 134.000
55.51897 153.000
55.53891 153.000
55.55886 143.000
55.57881 137.000
55.59875 132.000
55.61870 164.000
55.63865 133.000
55.65860 150.000
55.67854 167.000
55.69849 137.000
55.71844 155.000
55.73838 159.000
55.75833 152.000
55.77828 150.000
55.79822 142.000
55.81817 161.000
55.83812 161.000
55.85807 167.000
55.87801 149.000
55.89796 149.000
55.91791 138.000
55.93785 120.000
55.95780 177.000
55.97775 151.000
55.99769 136.000
56.01764 148.000
56.03759 144.000
56.05753 139.000
56.07748 157.000
56.09743 154.000
56.11738 158.000
56.13732 167.000
56.15727 160.000
56.17722 133.000
56.19716 148.000
56.21711 158.000
56.23706 171.000
56.25700 147.000
56.27695 136.000
56.29690 137.000
56.31685 145.000
56.33679 157.000
56.35674 157.000
56.37669 133.000
56.39663 175.000
56.41658 168.000
56.43653 140.000
56.45647 160.000
56.47642 150.000
56.49637 161.000
56.51631 155.000
56.53626 152.000
56.55621 147.000
56.57616 150.000
56.59610 140.000
56.61605 150.000
56.63600 159.000
56.65594 155.000
56.67589 167.000
56.69584 155.000
56.71578 156.000
56.73573 166.000
56.75568 158.000
56.77563 149.000
56.79557 166.000
56.81552 178.000
56.83547 173.000
56.85541 170.000
56.87536 164.000
56.89531 172.000
56.91525 175.000
56.93520 178.000
56.95515 176.000
56.97510 181.000
56.99504 196.000
57.01499 183.000
57.03494 188.000
57.05488 205.000
57.07483 190.000
57.09478 204.000
57.11472 218.000
57.13467 219.000
57.15462 227.000
57.17456 261.000
57.19451 276.000
57.21446 274.000
57.23441 336.000
57.25435 351.000
57.27430 451.000
57.29425 549.000
57.31419 677.000
57.33414 791.000
57.35409 870.000
57.37403 857.000
57.39398 821.000
57.41393 751.000
57.43388 657.000
57.45382 642.000
57.47377 626.000
57.49372 584.000
57.51366 596.000
57.53361 503.000
57.55356 507.000
57.57350 417.000
57.59345 318.000
57.61340 308.000
57.63334 237.000
57.65329 234.000
57.67324 201.000
57.69319 204.000
57.71313 193.000
57.73308 162.000
57.75303 167.000
57.77297 163.000
57.79292 159.000
57.81287 159.000
57.83281 151.000
57.85276 132.000
57.87271 171.000
57.89266 166.000
57.91260 162.000
57.93255 141.000
57.95250 169.000
57.97244 145.000
57.99239 157.000
58.01234 147.000
58.03228 171.000
58.05223 159.000
58.07218 193.000
58.09212 162.000
58.11207 132.000
58.13202 139.000
58.15197 160.000
58.17191 164.000
58.19186 157.000
58.21181 150.000
58.23175 147.000
58.25170 151.000
58.27165 128.000
58.29159 158.000
58.31154 157.000
58.33149 154.000
58.35144 145.000
58.37138 160.000
58.39133 155.000
58.41128 154.000
58.43122 155.000
58.45117 131.000
58.47112 164.000
58.49106 136.000
58.51101 154.000
58.53096 165.000
58.55090 149.000
58.57085 159.000
58.59080 155.000
58.61075 142.000
58.63069 141.000
58.65064 150.000
58.67059 148.000
58.69053 154.000
58.71048 149.000
58.73043 125.000
58.75037 143.000
58.77032 152.000
58.79027 148.000
58.81022 164.000
58.83016 157.000
58.85011 149.000
58.87006 156.000
58.89000 142.000
58.90995 145.000
58.92990 158.000
58.94984 150.000
58.96979 147.000
58.98974 141.000
59.00969 148.000
59.02963 150.000
59.04958 135.000
59.06953 148.000
59.08947 156.000
59.10942 151.000
59.12937 154.000
59.14931 179.000
59.16926 144.000
59.18921 164.000
59.20915 146.000
59.22910 136.000
59.24905 140.000
59.26900 135.000
59.28894 124.000
59.30889 153.000
59.32884 167.000
59.34878 141.000
59.36873 145.000
59.38868 156.000
59.40862 151.000
59.42857 148.000
59.44852 156.000
59.46847 140.000
59.48841 146.000
59.50836 146.000
59.52831 147.000
59.54825 153.000
59.56820 137.000
59.58815 165.000
59.60809 153.000
59.62804 145.000
59.64799 145.000
59.66793 131.000
59.68788 121.000
59.70783 157.000
59.72778 149.000
59.74772 143.000
59.76767 154.000
59.78762 128.000
59.80756 155.000
59.82751 167.000
59.84746 140.000
59.86740 168.000
59.88735 159.000
59.90730 138.000
59.92725 152.000
59.94719 170.000
59.96714 155.000
59.98709 130.000
60.00703 139.000
60.02698 174.000
60.04693 151.000
60.06687 142.000
60.08682 143.000
60.10677 165.000
60.12671 164.000
60.14666 178.000
60.16661 144.000
60.18656 157.000
60.20650 159.000
60.22645 146.000
60.24640 156.000
60.26634 154.000
60.28629 149.000
60.30624 129.000
60.32618 158.000
60.34613 165.000
60.36608 148.000
60.38603 139.000
60.40597 149.000
60.42592 150.000
60.44587 159.000
60.46581 155.000
60.48576 139.000
60.50571 141.000
60.52565 125.000
60.54560 143.000
60.56555 156.000
60.58550 144.000
60.60544 143.000
60.62539 172.000
60.64534 153.000
60.66528 145.000
60.68523 153.000
60.70518 142.000
60.72512 156.000
60.74507 138.000
60.76502 143.000
60.78496 161.000
60.80491 175.000
60.82486 149.000
60.84481 120.000
60.86475 145.000
60.88470 157.000
60.90465 171.000
60.92459 156.000
60.94454 140.000
60.96449 118.000
60.98443 158.000
61.00438 165.000
61.02433 166.000
61.04428 143.000
61.06422 136.000
61.08417 165.000
61.10412 164.000
61.12406 134.000
61.14401 183.000
61.16396 140.000
61.18390 149.000
61.20385 144.000
61.22380 146.000
61.24374 149.000
61.26369 150.000
61.28364 140.000
61.30359 164.000
61.32353 170.000
61.34348 162.000
61.36343 151.000
61.38337 170.000
61.40332 167.000
61.42327 174.000
61.44321 149.000
61.46316 165.000
61.48311 146.000
61.50306 177.000
61.52300 158.000
61.54295 174.000
61.56290 182.000
61.58284 162.000
61.60279 156.000
61.62274 147.000
61.64268 153.000
61.66263 154.000
61.68258 162.000
61.70252 150.000
61.72247 172.000
61.74242 173.000
61.76237 153.000
61.78231 163.000
61.80226 173.000
61.82221 169.000
61.84215 195.000
61.86210 187.000
61.88205 179.000
61.90199 163.000
61.92194 164.000
61.94189 186.000
61.96184 205.000
61.98178 215.000
62.00173 205.000
62.02168 220.000
62.04162 208.000
62.06157 244.000
62.08152 198.000
62.10146 216.000
62.12141 212.000
62.14136 227.000
62.16131 219.000
62.18125 220.000
62.20120 216.000
62.22115 227.000
62.24109 223.000
62.26104 233.000
62.28099 261.000
62.30093 244.000
62.32088 243.000
62.34083 242.000
62.36077 260.000
62.38072 246.000
62.40067 289.000
62.42062 259.000
62.44056 299.000
62.46051 287.000
62.48046 297.000
62.50040 308.000
62.52035 358.000
62.54030 351.000
62.56024 388.000
62.58019 387.000
62.60014 411.000
62.62009 425.000
62.64003 465.000
62.65998 468.000
62.67993 536.000
62.69987 553.000
62.71982 579.000
62.73977 593.000
62.75971 559.000
62.77966 570.000
62.79961 562.000
62.81955 577.000
62.83950 623.000
62.85945 587.000
62.87940 654.000
62.89934 700.000
62.91929 801.000
62.93924 879.000
62.95918 1010.000
62.97913 1116.000
62.99908 1188.000
63.01902 1205.000
63.03897 1065.000
63.05892 903.000
63.07887 813.000
63.09881 751.000
63.11876 713.000
63.13871 707.000
63.15865 701.000
63.17860 683.000
63.19855 656.000
63.21849 611.000
63.23844 463.000
63.25839 413.000
63.27833 360.000
63.29828 314.000
63.31823 277.000
63.33818 240.000
63.35812 235.000
63.37807 186.000
63.39802 193.000
63.41796 181.000
63.43791 172.000
63.45786 197.000
63.47780 168.000
63.49775 200.000
63.51770 202.000
63.53765 161.000
63.55759 180.000
63.57754 147.000
63.59749 163.000
63.61743 160.000
63.63738 173.000
63.65733 136.000
63.67727 175.000
63.69722 150.000
63.71717 172.000
63.73712 159.000
63.75706 165.000
63.77701 165.000
63.79696 170.000
63.81690 166.000
63.83685 138.000
63.85680 137.000
63.87674 150.000
63.89669 153.000
63.91664 151.000
63.93658 163.000
63.95653 143.000
63.97648 161.000
63.99643 157.000
64.01637 159.000
64.03632 159.000
64.05627 140.000
64.07621 148.000
64.09616 167.000
64.11611 170.000
64.13605 159.000
64.15600 175.000
64.17595 164.000
64.19590 146.000
64.21584 165.000
64.23579 159.000
64.25574 164.000
64.27568 161.000
64.29563 162.000
64.31558 155.000
64.33552 156.000
64.35547 150.000
64.37542 183.000
64.39536 150.000
64.41531 162.000
64.43526 149.000
64.45521 150.000
64.47515 170.000
64.49510 166.000
64.51505 162.000
64.53499 148.000
64.55494 149.000
64.57489 156.000
64.59483 144.000
64.61478 159.000
64.63473 177.000
64.65468 148.000
64.67462 150.000
64.69457 174.000
64.71452 136.000
64.73446 137.000
64.75441 182.000
64.77436 140.000
64.79430 138.000
64.81425 140.000
64.83420 144.000
64.85414 152.000
64.87409 152.000
64.89404 135.000
64.91399 127.000
64.93393 124.000
64.95388 145.000
64.97383 165.000
64.99377 141.000
65.01372 166.000
65.03367 147.000
65.05361 119.000
65.07356 158.000
65.09351 159.000
65.11346 163.000
65.13340 150.000
65.15335 152.000
65.17330 158.000
65.19324 153.000
65.21319 132.000
65.23314 147.000
65.25308 145.000
65.27303 154.000
65.29298 148.000
65.31293 150.000
65.33287 143.000
65.35282 162.000
65.37277 122.000
65.39271 136.000
65.41266 142.000
65.43261 141.000
65.45255 142.000
65.47250 153.000
65.49245 149.000
65.51239 171.000
65.53234 163.000
65.55229 139.000
65.57224 147.000
65.59218 152.000
65.61213 160.000
65.63208 150.000
65.65202 173.000
65.67197 161.000
65.69192 167.000
65.71186 158.000
65.73181 171.000
65.75176 141.000
65.77171 154.000
65.79165 163.000
65.81160 169.000
65.83155 168.000
65.85149 143.000
65.87144 172.000
65.89139 168.000
65.91133 164.000
65.93128 148.000
65.95123 158.000
65.97117 168.000
65.99112 163.000
66.01107 159.000
66.03102 166.000
66.05096 152.000
66.07091 152.000
66.09086 152.000
66.11080 171.000
66.13075 154.000
66.15070 163.000
66.17064 141.000
66.19059 168.000
66.21054 177.000
66.23049 193.000
66.25043 173.000
66.27038 176.000
66.29033 173.000
66.31027 174.000
66.33022 173.000
66.35017 165.000
66.37011 190.000
66.39006 171.000
66.41001 178.000
66.42995 173.000
66.44990 193.000
66.46985 180.000
66.48980 162.000
66.50974 159.000
66.52969 156.000
66.54964 154.000
66.56958 146.000
66.58953 154.000
66.60948 172.000
66.62942 151.000
66.64937 170.000
66.66932 149.000
66.68927 137.000
66.70921 145.000
66.72916 157.000
66.74911 158.000
66.76905 174.000
66.78900 138.000
66.80895 155.000
66.82889 159.000
66.84884 168.000
66.86879 138.000
66.88874 153.000
66.90868 185.000
66.92863 161.000
66.94858 145.000
66.96852 163.000
66.98847 150.000
67.00842 158.000
67.02836 158.000
67.04831 143.000
67.06826 176.000
67.08820 141.000
67.10815 145.000
67.12810 167.000
67.14805 149.000
67.16799 150.000
67.18794 167.000
67.20789 157.000
67.22783 161.000
67.24778 157.000
67.26773 141.000
67.28767 145.000
67.30762 155.000
67.32757 137.000
67.34752 160.000
67.36746 153.000
67.38741 155.000
67.40736 149.000
67.42730 157.000
67.44725 136.000
67.46720 129.000
67.48714 155.000
67.50709 151.000
67.52704 131.000
67.54698 138.000
67.56693 146.000
67.58688 144.000
67.60683 156.000
67.62677 137.000
67.64672 142.000
67.66667 137.000
67.68661 121.000
67.70656 144.000
67.72651 135.000
67.74645 134.000
67.76640 138.000
67.78635 123.000
67.80630 143.000
67.82624 141.000
67.84619 162.000
67.86614 140.000
67.88608 160.000
67.90603 157.000
67.92598 140.000
67.94592 148.000
67.96587 127.000
67.98582 141.000
68.00576 151.000
68.02571 136.000
68.04566 178.000
68.06561 132.000
68.08555 142.000
68.10550 133.000
68.12545 168.000
68.14539 145.000
68.16534 142.000
68.18529 136.000
68.20523 160.000
68.22518 148.000
68.24513 158.000
68.26508 148.000
68.28502 146.000
68.30497 166.000
68.32492 142.000
68.34486 145.000
68.36481 128.000
68.38476 146.000
68.40470 127.000
68.42465 162.000
68.44460 137.000
68.46455 138.000
68.48449 152.000
68.50444 111.000
68.52439 151.000
68.54433 132.000
68.56428 139.000
68.58423 144.000
68.60417 133.000
68.62412 145.000
68.64407 169.000
68.66401 146.000
68.68396 131.000
68.70391 148.000
68.72386 138.000
68.74380 157.000
68.76375 131.000
68.78370 145.000
68.80364 149.000
68.82359 146.000
68.84354 151.000
68.86348 148.000
68.88343 123.000
68.90338 136.000
68.92333 154.000
68.94327 155.000
68.96322 136.000
68.98317 143.000
69.00311 140.000
69.02306 144.000
69.04301 145.000
69.06295 137.000
69.08290 144.000
69.10285 126.000
69.12279 113.000
69.14274 133.000
69.16269 146.000
69.18264 165.000
69.20258 147.000
69.22253 137.000
69.24248 142.000
69.26242 133.000
69.28237 127.000
69.30232 135.000
69.32226 150.000
69.34221 135.000
69.36216 149.000
69.38211 141.000
69.40205 143.000
69.42200 137.000
69.44195 130.000
69.46189 142.000
69.48184 152.000
69.50179 111.000
69.52173 127.000
69.54168 148.000
69.56163 127.000
69.58157 139.000
69.60152 147.000
69.62147 166.000
69.64142 107.000
69.66136 150.000
69.68131 139.000
69.70126 131.000
69.72120 129.000
69.74115 122.000
69.76110 151.000
69.78104 133.000
69.80099 131.000
69.82094 160.000
69.84089 133.000
69.86083 147.000
69.88078 164.000
69.90073 126.000
69.92067 152.000
69.94062 154.000
69.96057 160.000
69.98051 124.000
70.00046 129.000
70.02041 132.000
70.04035 147.000
70.06030 154.000
70.08025 137.000
70.10020 145.000
70.12014 143.000
70.14009 147.000
70.16004 147.000
70.17998 138.000
70.19993 129.000
70.21988 129.000
70.23982 127.000
70.25977 172.000
70.27972 142.000
70.29967 137.000
70.31961 145.000
70.33956 140.000
70.35951 157.000
70.37945 131.000
70.39940 139.000
70.41935 148.000
70.43929 144.000
70.45924 142.000
70.47919 143.000
70.49914 152.000
70.51908 132.000
70.53903 139.000
70.55898 133.000
70.57892 128.000
70.59887 143.000
70.61882 137.000
70.63876 133.000
70.65871 132.000
70.67866 147.000
70.69860 133.000
70.71855 138.000
70.73850 138.000
70.75845 150.000
70.77839 127.000
70.79834 144.000
70.81829 143.000
70.83823 137.000
70.85818 134.000
70.87813 120.000
70.89807 143.000
70.91802 121.000
70.93797 136.000
70.95792 146.000
70.97786 151.000
70.99781 126.000
71.01776 161.000
71.03770 141.000
71.05765 119.000
71.07760 141.000
71.09754 142.000
71.11749 147.000
71.13744 147.000
71.15738 135.000
71.17733 142.000
71.19728 136.000
71.21723 117.000
71.23717 136.000
71.25712 143.000
71.27707 153.000
71.29701 140.000
71.31696 182.000
71.33691 147.000
71.35685 136.000
71.37680 164.000
71.39675 183.000
71.41670 193.000
71.43664 178.000
71.45659 190.000
71.47654 194.000
71.49648 194.000
71.51643 181.000
71.53638 201.000
71.55632 205.000
71.57627 189.000
71.59622 178.000
71.61616 172.000
71.63611 178.000
71.65606 157.000
71.67601 179.000
71.69595 169.000
71.71590 210.000
71.73585 173.000
71.75579 173.000
71.77574 155.000
71.79569 173.000
71.81563 176.000
71.83558 149.000
71.85553 132.000
71.87548 138.000
71.89542 146.000
71.91537 135.000
71.93532 132.000
71.95526 141.000
71.97521 135.000
71.99516 165.000
72.01510 145.000
72.03505 133.000
72.05500 132.000
72.07495 135.000
72.09489 133.000
72.11484 131.000
72.13479 159.000
72.15473 168.000
72.17468 140.000
72.19463 149.000
72.21457 137.000
72.23452 158.000
72.25447 119.000
72.27441 139.000
72.29436 156.000
72.31431 151.000
72.33426 118.000
72.35420 147.000
72.37415 127.000
72.39410 149.000
72.41404 124.000
72.43399 106.000
72.45394 160.000
72.47388 144.000
72.49383 140.000
72.51378 128.000
72.53373 167.000
72.55367 144.000
72.57362 132.000
72.59357 166.000
72.61351 162.000
72.63346 141.000
72.65341 139.000
72.67335 133.000
72.69330 130.000
72.71325 143.000
72.73319 122.000
72.75314 151.000
72.77309 123.000
72.79304 146.000
72.81298 158.000
72.83293 149.000
72.85288 152.000
72.87282 128.000
72.89277 119.000
72.91272 153.000
72.93266 128.000
72.95261 143.000
72.97256 144.000
72.99251 136.000
73.01245 143.000
73.03240 151.000
73.05235 153.000
73.07229 130.000
73.09224 149.000
73.11219 145.000
73.13213 148.000
73.15208 140.000
73.17203 147.000
73.19197 127.000
73.21192 138.000
73.23187 129.000
73.25182 144.000
73.27176 175.000
73.29171 129.000
73.31166 154.000
73.33160 122.000
73.35155 146.000
73.37150 149.000
73.39144 129.000
73.41139 156.000
73.43134 134.000
73.45129 147.000
73.47123 162.000
73.49118 171.000
73.51113 133.000
73.53107 126.000
73.55102 144.000
73.57097 129.000
73.59091 154.000
73.61086 164.000
73.63081 146.000
73.65076 135.000
73.67070 149.000
73.69065 161.000
73.71060 136.000
73.73054 150.000
73.75049 157.000
73.77044 151.000
73.79038 144.000
73.81033 137.000
73.83028 148.000
73.85022 138.000
73.87017 144.000
73.89012 164.000
73.91007 150.000
73.93001 149.000
73.94996 146.000
73.96991 141.000
73.98985 141.000
74.00980 135.000
74.02975 133.000
74.04969 151.000
74.06964 161.000
74.08959 142.000
74.10954 166.000
74.12948 154.000
74.14943 166.000
74.16938 152.000
74.18932 142.000
74.20927 132.000
74.22922 150.000
74.24916 147.000
74.26911 178.000
74.28906 146.000
74.30900 174.000
74.32895 141.000
74.34890 163.000
74.36885 182.000
74.38879 183.000
74.40874 179.000
74.42869 203.000
74.44863 210.000
74.46858 205.000
74.48853 253.000
74.50847 273.000
74.52842 288.000
74.54837 332.000
74.56832 351.000
74.58826 319.000
74.60821 301.000
74.62816 268.000
74.64810 269.000
74.66805 242.000
74.68800 220.000
74.70794 254.000
74.72789 248.000
74.74784 225.000
74.76778 256.000
74.78773 243.000
74.80768 260.000
74.82763 250.000
74.84757 255.000
74.86752 223.000
74.88747 200.000
74.90741 199.000
74.92736 202.000
74.94731 191.000
74.96725 218.000
74.98720 220.000
75.00715 205.000
75.02710 205.000
75.04704 200.000
75.06699 222.000
75.08694 230.000
75.10688 211.000
75.12683 226.000
75.14678 242.000
75.16672 240.000
75.18667 231.000
75.20662 235.000
75.22657 280.000
75.24651 249.000
75.26646 256.000
75.28641 264.000
75.30635 219.000
75.32630 237.000
75.34625 249.000
75.36619 256.000
75.38614 231.000
75.40609 247.000
75.42603 237.000
75.44598 202.000
75.46593 261.000
75.48588 249.000
75.50582 233.000
75.52577 253.000
75.54572 236.000
75.56566 244.000
75.58561 236.000
75.60556 228.000
75.62550 229.000
75.64545 221.000
75.66540 207.000
75.68535 193.000
75.70529 183.000
75.72524 167.000
75.74519 180.000
75.76513 202.000
75.78508 191.000
75.80503 171.000
75.82497 189.000
75.84492 200.000
75.86487 150.000
75.88481 157.000
75.90476 134.000
75.92471 155.000
75.94466 167.000
75.96460 152.000
75.98455 169.000
76.00450 159.000
76.02444 159.000
76.04439 149.000
76.06434 140.000
76.08428 163.000
76.10423 133.000
76.12418 136.000
76.14413 124.000
76.16407 110.000
76.18402 147.000
76.20397 155.000
76.22391 124.000
76.24386 136.000
76.26381 115.000
76.28375 140.000
76.30370 148.000
76.32365 157.000
76.34359 143.000
76.36354 135.000
76.38349 128.000
76.40344 127.000
76.42338 131.000
76.44333 145.000
76.46328 123.000
76.48322 147.000
76.50317 147.000
76.52312 166.000
76.54306 146.000
76.56301 144.000
76.58296 121.000
76.60291 126.000
76.62285 161.000
76.64280 120.000
76.66275 136.000
76.68269 152.000
76.70264 143.000
76.72259 125.000
76.74253 134.000
76.76248 147.000
76.78243 125.000
76.80238 145.000
76.82232 157.000
76.84227 118.000
76.86222 132.000
76.88216 144.000
76.90211 136.000
76.92206 125.000
76.94200 147.000
76.96195 131.000
76.98190 132.000
77.00184 148.000
77.02179 143.000
77.04174 128.000
77.06169 149.000
77.08163 135.000
77.10158 181.000
77.12153 128.000
77.14147 150.000
77.16142 127.000
77.18137 140.000
77.20131 143.000
77.22126 134.000
77.24121 119.000
77.26116 128.000
77.28110 160.000
77.30105 133.000
77.32100 145.000
77.34094 142.000
77.36089 137.000
77.38084 130.000
77.40078 141.000
77.42073 145.000
77.44068 140.000
77.46062 142.000
77.48057 132.000
77.50052 128.000
77.52047 130.000
77.54041 134.000
77.56036 147.000
77.58031 122.000
77.60025 141.000
77.62020 163.000
77.64015 131.000
77.66009 139.000
77.68004 127.000
77.69999 124.000
77.71994 141.000
77.73988 118.000
77.75983 129.000
77.77978 138.000
77.79972 157.000
77.81967 162.000
77.83962 157.000
77.85956 141.000
77.87951 149.000
77.89946 117.000
77.91940 127.000
77.93935 139.000
77.95930 159.000
77.97925 155.000
77.99919 144.000
78.01914 162.000
78.03909 125.000
78.05903 134.000
78.07898 142.000
78.09893 129.000
78.11887 126.000
78.13882 121.000
78.15877 131.000
78.17872 165.000
78.19866 146.000
78.21861 126.000
78.23856 137.000
78.25850 163.000
78.27845 142.000
78.29840 149.000
78.31834 139.000
78.33829 139.000
78.35824 140.000
78.37819 170.000
78.39813 144.000
78.41808 162.000
78.43803 137.000
78.45797 159.000
78.47792 135.000
78.49787 123.000
78.51781 155.000
78.53776 137.000
78.55771 163.000
78.57765 157.000
78.59760 133.000
78.61755 135.000
78.63750 145.000
78.65744 133.000
78.67739 161.000
78.69734 136.000
78.71728 151.000
78.73723 127.000
78.75718 166.000
78.77712 141.000
78.79707 130.000
78.81702 129.000
78.83697 146.000
78.85691 194.000
78.87686 176.000
78.89681 142.000
78.91675 173.000
78.93670 164.000
78.95665 172.000
78.97659 184.000
78.99654 187.000
79.01649 198.000
79.03643 193.000
79.05638 203.000
79.07633 211.000
79.09628 195.000
79.11622 182.000
79.13617 220.000
79.15612 228.000
79.17606 229.000
79.19601 235.000
79.21596 249.000
79.23590 207.000
79.25585 220.000
79.27580 233.000
79.29575 232.000
79.31569 187.000
79.33564 166.000
79.35559 202.000
79.37553 204.000
79.39548 190.000
79.41543 185.000
79.43537 184.000
79.45532 166.000
79.47527 188.000
79.49521 199.000
79.51516 219.000
79.53511 216.000
79.55506 217.000
79.57500 222.000
79.59495 199.000
79.61490 186.000
79.63484 190.000
79.65479 197.000
79.67474 172.000
79.69468 174.000
79.71463 158.000
79.73458 182.000
79.75453 188.000
79.77447 169.000
79.79442 154.000
79.81437 155.000
79.83431 163.000
79.85426 152.000
79.87421 155.000
79.89415 164.000
79.91410 143.000
79.93405 138.000
79.95399 149.000
79.97394 159.000
79.99389 158.000
80.01384 135.000
80.03378 138.000
80.05373 143.000
80.07368 141.000
80.09362 149.000
80.11357 142.000
80.13352 125.000
80.15346 139.000
80.17341 129.000
80.19336 137.000
80.21331 133.000
80.23325 138.000
80.25320 135.000
80.27315 129.000
80.29309 153.000
80.31304 141.000
80.33299 134.000
80.35293 123.000
80.37288 156.000
80.39283 133.000
80.41278 125.000
80.43272 127.000
80.45267 140.000
80.47262 128.000
80.49256 125.000
80.51251 136.000
80.53246 132.000
80.55240 120.000
80.57235 136.000
80.59230 131.000
80.61224 140.000
80.63219 126.000
80.65214 116.000
80.67209 148.000
80.69203 152.000
80.71198 133.000
80.73193 131.000
80.75187 134.000
80.77182 140.000
80.79177 134.000
80.81171 130.000
80.83166 122.000
80.85161 148.000
80.87156 147.000
80.89150 132.000
80.91145 122.000
80.93140 135.000
80.95134 135.000
80.97129 123.000
80.99124 148.000
81.01118 107.000
81.03113 155.000
81.05108 117.000
81.07102 148.000
81.09097 152.000
81.11092 121.000
81.13087 123.000
81.15081 148.000
81.17076 144.000
81.19071 143.000
81.21065 120.000
81.23060 148.000
81.25055 138.000
81.27049 131.000
81.29044 134.000
81.31039 127.000
81.33034 118.000
81.35028 138.000
81.37023 129.000
81.39018 131.000
81.41012 151.000
81.43007 136.000
81.45002 129.000
81.46996 128.000
81.48991 143.000
81.50986 153.000
81.52980 146.000
81.54975 152.000
81.56970 141.000
81.58965 146.000
81.60959 111.000
81.62954 125.000
81.64949 112.000
81.66943 117.000
81.68938 132.000
81.70933 146.000
81.72927 143.000
81.74922 133.000
81.76917 147.000
81.78912 141.000
81.80906 119.000
81.82901 144.000
81.84896 149.000
81.86890 137.000
81.88885 125.000
81.90880 137.000
81.92874 152.000
81.94869 144.000
81.96864 141.000
81.98859 130.000
82.00853 127.000
82.02848 125.000
82.04843 133.000
82.06837 123.000
82.08832 128.000
82.10827 120.000
82.12821 121.000
82.14816 156.000
82.16811 125.000
82.18805 148.000
82.20800 136.000
82.22795 139.000
82.24790 154.000
82.26784 150.000
82.28779 133.000
82.30774 121.000
82.32768 121.000
82.34763 120.000
82.36758 143.000
82.38752 124.000
82.40747 122.000
82.42742 143.000
82.44737 142.000
82.46731 146.000
82.48726 148.000
82.50721 149.000
82.52715 141.000
82.54710 164.000
82.56705 151.000
82.58699 155.000
82.60694 143.000
82.62689 141.000
82.64683 132.000
82.66678 136.000
82.68673 152.000
82.70668 157.000
82.72662 140.000
82.74657 139.000
82.76652 152.000
82.78646 129.000
82.80641 147.000
82.82636 148.000
82.84630 135.000
82.86625 153.000
82.88620 127.000
82.90615 146.000
82.92609 143.000
82.94604 111.000
82.96599 144.000
82.98593 129.000
83.00588 134.000
83.02583 149.000
83.04577 158.000
83.06572 149.000
83.08567 126.000
83.10561 138.000
83.12556 147.000
83.14551 143.000
83.16546 133.000
83.18540 146.000
83.20535 144.000
83.22530 127.000
83.24524 122.000
83.26519 142.000
83.28514 146.000
83.30508 139.000
83.32503 142.000
83.34498 135.000
83.36493 135.000
83.38487 131.000
83.40482 118.000
83.42477 162.000
83.44471 159.000
83.46466 148.000
83.48461 158.000
83.50455 152.000
83.52450 145.000
83.54445 161.000
83.56440 146.000
83.58434 138.000
83.60429 124.000
83.62424 125.000
83.64418 129.000
83.66413 140.000
83.68408 144.000
83.70402 133.000
83.72397 149.000
83.74392 147.000
83.76386 136.000
83.78381 138.000
83.80376 144.000
83.82371 130.000
83.84365 149.000
83.86360 143.000
83.88355 156.000
83.90349 129.000
83.92344 159.000
83.94339 141.000
83.96333 128.000
83.98328 129.000
84.00323 121.000
84.02318 130.000
84.04312 148.000
84.06307 142.000
84.08302 127.000
84.10296 134.000
84.12291 146.000
84.14286 123.000
84.16280 133.000
84.18275 112.000
84.20270 135.000
84.22264 141.000
84.24259 160.000
84.26254 147.000
84.28249 133.000
84.30243 123.000
84.32238 150.000
84.34233 142.000
84.36227 142.000
84.38222 150.000
84.40217 128.000
84.42211 144.000
84.44206 153.000
84.46201 123.000
84.48196 140.000
84.50190 131.000
84.52185 119.000
84.54180 128.000
84.56174 143.000
84.58169 137.000
84.60164 136.000
84.62158 125.000
84.64153 139.000
84.66148 168.000
84.68142 127.000
84.70137 141.000
84.72132 148.000
84.74127 142.000
84.76121 144.000
84.78116 144.000
84.80111 149.000
84.82105 140.000
84.84100 144.000
84.86095 114.000
84.88089 148.000
84.90084 160.000
84.92079 131.000
84.94074 141.000
84.96068 130.000
84.98063 117.000
85.00058 144.000
85.02052 126.000
85.04047 140.000
85.06042 146.000
85.08036 134.000
85.10031 134.000
85.12026 137.000
85.14021 141.000
85.16015 124.000
85.18010 149.000
85.20005 130.000
85.21999 134.000
85.23994 116.000
85.25989 143.000
85.27983 140.000
85.29978 135.000
85.31973 143.000
85.33967 125.000
85.35962 139.000
85.37957 140.000
85.39952 133.000
85.41946 129.000
85.43941 135.000
85.45936 134.000
85.47930 116.000
85.49925 152.000
85.51920 154.000
85.53914 99.000
85.55909 133.000
85.57904 124.000
85.59899 126.000
85.61893 131.000
85.63888 128.000
85.65883 124.000
85.67877 116.000
85.69872 121.000
85.71867 143.000
85.73861 137.000
85.75856 154.000
85.77851 139.000
85.79845 134.000
85.81840 131.000
85.83835 156.000
85.85830 117.000
85.87824 136.000
85.89819 124.000
85.91814 139.000
85.93808 130.000
85.95803 115.000
85.97798 125.000
85.99792 121.000
86.01787 128.000
86.03782 146.000
86.05777 124.000
86.07771 135.000
86.09766 136.000
86.11761 126.000
86.13755 133.000
86.15750 120.000
86.17745 126.000
86.19739 139.000
86.21734 142.000
86.23729 130.000
86.25723 133.000
86.27718 139.000
86.29713 120.000
86.31708 129.000
86.33702 135.000
86.35697 130.000
86.37692 127.000
86.39686 129.000
86.41681 130.000
86.43676 127.000
86.45670 133.000
86.47665 134.000
86.49660 140.000
86.51655 136.000
86.53649 148.000
86.55644 143.000
86.57639 140.000
86.59633 135.000
86.61628 153.000
86.63623 144.000
86.65617 145.000
86.67612 138.000
86.69607 120.000
86.71602 145.000
86.73596 133.000
86.75591 131.000
86.77586 128.000
86.79580 131.000
86.81575 141.000
86.83570 150.000
86.85564 136.000
86.87559 125.000
86.89554 141.000
86.91548 129.000
86.93543 124.000
86.95538 151.000
86.97533 133.000
86.99527 150.000
87.01522 125.000
87.03517 148.000
87.05511 138.000
87.07506 141.000
87.09501 166.000
87.11495 149.000
87.13490 166.000
87.15485 161.000
87.17480 146.000
87.19474 158.000
87.21469 167.000
87.23464 144.000
87.25458 134.000
87.27453 147.000
87.29448 134.000
87.31442 165.000
87.33437 151.000
87.35432 186.000
87.37426 191.000
87.39421 190.000
87.41416 187.000
87.43411 193.000
87.45405 229.000
87.47400 203.000
87.49395 188.000
87.51389 191.000
87.53384 192.000
87.55379 183.000
87.57373 160.000
87.59368 197.000
87.61363 182.000
87.63358 172.000
87.65352 177.000
87.67347 157.000
87.69342 169.000
87.71336 177.000
87.73331 178.000
87.75326 185.000
87.77320 153.000
87.79315 147.000
87.81310 141.000
87.83304 150.000
87.85299 146.000
87.87294 139.000
87.89289 135.000
87.91283 146.000
87.93278 137.000
87.95273 160.000
87.97267 143.000
87.99262 136.000
88.01257 126.000
88.03251 150.000
88.05246 145.000
88.07241 126.000
88.09236 145.000
88.11230 141.000
88.13225 149.000
88.15220 152.000
88.17214 121.000
88.19209 122.000
88.21204 149.000
88.23198 146.000
88.25193 145.000
88.27188 147.000
88.29183 126.000
88.31177 158.000
88.33172 124.000
88.35167 140.000
88.37161 145.000
88.39156 125.000
88.41151 141.000
88.43145 134.000
88.45140 122.000
88.47135 115.000
88.49129 132.000
88.51124 128.000
88.53119 121.000
88.55114 132.000
88.57108 140.000
88.59103 150.000
88.61098 164.000
88.63092 155.000
88.65087 115.000
88.67082 145.000
88.69076 133.000
88.71071 116.000
88.73066 129.000
88.75061 132.000
88.77055 125.000
88.79050 131.000
88.81045 135.000
88.83039 137.000
88.85034 143.000
88.87029 152.000
88.89023 127.000
88.91018 132.000
88.93013 122.000
88.95007 143.000
88.97002 129.000
88.98997 145.000
89.00992 123.000
89.02986 131.000
89.04981 124.000
89.06976 137.000
89.08970 146.000
89.10965 150.000
89.12960 133.000
89.14954 137.000
89.16949 126.000
89.18944 153.000
89.20939 132.000
89.22933 147.000
89.24928 156.000
89.26923 135.000
89.28917 129.000
89.30912 145.000
89.32907 130.000
89.34901 144.000
89.36896 175.000
89.38891 134.000
89.40885 124.000
89.42880 138.000
89.44875 111.000
89.46870 126.000
89.48864 118.000
89.50859 147.000
89.52854 147.000
89.54848 133.000
89.56843 138.000
89.58838 131.000
89.60832 134.000
89.62827 166.000
89.64822 155.000
89.66817 149.000
89.68811 143.000
89.70806 138.000
89.72801 143.000
89.74795 143.000
89.76790 159.000
89.78785 148.000
89.80779 151.000
89.82774 149.000
89.84769 119.000
89.86764 127.000
89.88758 162.000
89.90753 149.000
89.92748 146.000
89.94742 147.000
89.96737 153.000
89.98732 140.000
90.00726 142.000
