10.00000 133.000
10.01995 136.000
10.03989 107.000
10.05984 111.000
10.07979 126.000
10.09973 119.000
10.11968 161.000
10.13963 126.000
10.15958 131.000
10.17952 110.000
10.19947 117.000
10.21942 120.000
10.23936 132.000
10.25931 131.000
10.27926 119.000
10.29920 148.000
10.31915 124.000
10.33910 132.000
10.35905 145.000
10.37899 114.000
10.39894 139.000
10.41889 132.000
10.43883 117.000
10.45878 127.000
10.47873 153.000
10.49867 120.000
10.51862 134.000
10.53857 129.000
10.55851 137.000
10.57846 116.000
10.59841 151.000
10.61836 136.000
10.63830 145.000
10.65825 154.000
10.67820 128.000
10.69814 117.000
10.71809 138.000
10.73804 148.000
10.75798 140.000
10.77793 149.000
10.79788 152.000
10.81783 142.000
10.83777 146.000
10.85772 150.000
10.87767 150.000
10.89761 145.000
10.91756 134.000
10.93751 124.000
10.95745 122.000
10.97740 145.000
10.99735 140.000
11.01730 144.000
11.03724 168.000
11.05719 134.000
11.07714 160.000
11.09708 148.000
11.11703 142.000
11.13698 161.000
11.15692 142.000
11.17687 126.000
11.19682 140.000
11.21676 145.000
11.23671 135.000
11.25666 157.000
11.27661 128.000
11.29655 133.000
11.31650 150.000
11.33645 165.000
11.35639 136.000
11.37634 161.000
11.39629 168.000
11.41623 151.000
11.43618 168.000
11.45613 145.000
11.47608 149.000
11.49602 157.000
11.51597 140.000
11.53592 159.000
11.55586 146.000
11.57581 150.000
11.59576 173.000
11.61570 164.000
11.63565 144.000
11.65560 178.000
11.67554 166.000
11.69549 153.000
11.71544 182.000
11.73539 179.000
11.75533 154.000
11.77528 159.000
11.79523 155.000
11.81517 159.000
11.83512 165.000
11.85507 166.000
11.87501 159.000
11.89496 153.000
11.91491 159.000
11.93486 155.000
11.95480 182.000
11.97475 165.000
11.99470 169.000
12.01464 165.000
12.03459 155.000
12.05454 166.000
12.07448 166.000
12.09443 160.000
12.11438 171.000
12.13432 159.000
12.15427 160.000
12.17422 150.000
12.19417 178.000
12.21411 175.000
12.23406 177.000
12.25401 164.000
12.27395 170.000
12.29390 195.000
12.31385 163.000
12.33379 171.000
12.35374 189.000
12.37369 198.000
12.39364 174.000
12.41358 184.000
12.43353 168.000
12.45348 187.000
12.47342 184.000
12.49337 173.000
12.51332 174.000
12.53326 188.000
12.55321 173.000
12.57316 204.000
12.59311 168.000
12.61305 177.000
12.63300 192.000
12.65295 196.000
12.67289 179.000
12.69284 176.000
12.71279 185.000
12.73273 173.000
12.75268 189.000
12.77263 207.000
12.79257 187.000
12.81252 175.000
12.83247 182.000
12.85242 180.000
12.87236 195.000
12.89231 198.000
12.91226 191.000
12.93220 192.000
12.95215 170.000
12.97210 202.000
12.99204 194.000
13.01199 211.000
13.03194 207.000
13.05189 198.000
13.07183 169.000
13.09178 202.000
13.11173 187.000
13.13167 184.000
13.15162 192.000
13.17157 178.000
13.19151 187.000
13.21146 216.000
13.23141 199.000
13.25135 194.000
13.27130 221.000
13.29125 206.000
13.31120 184.000
13.33114 206.000
13.35109 215.000
13.37104 201.000
13.39098 194.000
13.41093 190.000
13.43088 207.000
13.45082 206.000
13.47077 213.000
13.49072 198.000
13.51067 206.000
13.53061 195.000
13.55056 195.000
13.57051 204.000
13.59045 212.000
13.61040 205.000
13.63035 199.000
13.65029 207.000
13.67024 206.000
13.69019 184.000
13.71013 206.000
13.73008 204.000
13.75003 212.000
13.76998 201.000
13.78992 191.000
13.80987 231.000
13.82982 215.000
13.84976 216.000
13.86971 216.000
13.88966 216.000
13.90960 198.000
13.92955 207.000
13.94950 212.000
13.96945 210.000
13.98939 208.000
14.00934 234.000
14.02929 216.000
14.04923 217.000
14.06918 211.000
14.08913 208.000
14.10907 207.000
14.12902 227.000
14.14897 243.000
14.16892 230.000
14.18886 240.000
14.20881 243.000
14.22876 214.000
14.24870 204.000
14.26865 219.000
14.28860 238.000
14.30854 214.000
14.32849 239.000
14.34844 221.000
14.36838 239.000
14.38833 238.000
14.40828 220.000
14.42823 253.000
14.44817 231.000
14.46812 216.000
14.48807 222.000
14.50801 230.000
14.52796 250.000
14.54791 252.000
14.56785 238.000
14.58780 235.000
14.60775 217.000
14.62770 262.000
14.64764 227.000
14.66759 236.000
14.68754 205.000
14.70748 225.000
14.72743 213.000
14.74738 242.000
14.76732 213.000
14.78727 237.000
14.80722 262.000
14.82716 249.000
14.84711 245.000
14.86706 227.000
14.88701 244.000
14.90695 235.000
14.92690 235.000
14.94685 263.000
14.96679 254.000
14.98674 236.000
15.00669 240.000
15.02663 253.000
15.04658 261.000
15.06653 242.000
15.08648 267.000
15.10642 271.000
15.12637 259.000
15.14632 270.000
15.16626 245.000
15.18621 245.000
15.20616 257.000
15.22610 279.000
15.24605 228.000
15.26600 273.000
15.28594 247.000
15.30589 257.000
15.32584 251.000
15.34579 267.000
15.36573 328.000
15.38568 243.000
15.40563 270.000
15.42557 301.000
15.44552 249.000
15.46547 235.000
15.48541 277.000
15.50536 284.000
15.52531 252.000
15.54526 270.000
15.56520 278.000
15.58515 290.000
15.60510 279.000
15.62504 279.000
15.64499 259.000
15.66494 286.000
15.68488 268.000
15.70483 267.000
15.72478 270.000
15.74472 267.000
15.76467 305.000
15.78462 260.000
15.80457 278.000
15.82451 273.000
15.84446 291.000
15.86441 262.000
15.88435 290.000
15.90430 299.000
15.92425 290.000
15.94419 283.000
15.96414 259.000
15.98409 306.000
16.00404 281.000
16.02398 290.000
16.04393 261.000
16.06388 244.000
16.08382 289.000
16.10377 290.000
16.12372 314.000
16.14366 299.000
16.16361 277.000
16.18356 296.000
16.20351 296.000
16.22345 303.000
16.24340 325.000
16.26335 298.000
16.28329 323.000
16.30324 310.000
16.32319 291.000
16.34313 313.000
16.36308 355.000
16.38303 317.000
16.40297 320.000
16.42292 333.000
16.44287 322.000
16.46282 313.000
16.48276 329.000
16.50271 348.000
16.52266 301.000
16.54260 349.000
16.56255 356.000
16.58250 327.000
16.60244 335.000
16.62239 361.000
16.64234 335.000
16.66229 321.000
16.68223 344.000
16.70218 293.000
16.72213 297.000
16.74207 295.000
16.76202 333.000
16.78197 318.000
16.80191 326.000
16.82186 331.000
16.84181 299.000
16.86175 304.000
16.88170 315.000
16.90165 334.000
16.92160 362.000
16.94154 329.000
16.96149 314.000
16.98144 354.000
17.00138 328.000
17.02133 315.000
17.04128 349.000
17.06122 327.000
17.08117 351.000
17.10112 317.000
17.12107 315.000
17.14101 321.000
17.16096 316.000
17.18091 330.000
17.20085 321.000
17.22080 343.000
17.24075 360.000
17.26069 335.000
17.28064 336.000
17.30059 362.000
17.32053 347.000
17.34048 349.000
17.36043 362.000
17.38038 346.000
17.40032 354.000
17.42027 328.000
17.44022 345.000
17.46016 378.000
17.48011 364.000
17.50006 359.000
17.52000 337.000
17.53995 351.000
17.55990 365.000
17.57985 361.000
17.59979 339.000
17.61974 408.000
17.63969 361.000
17.65963 344.000
17.67958 377.000
17.69953 368.000
17.71947 346.000
17.73942 355.000
17.75937 365.000
17.77932 371.000
17.79926 365.000
17.81921 357.000
17.83916 320.000
17.85910 403.000
17.87905 359.000
17.89900 371.000
17.91894 361.000
17.93889 349.000
17.95884 361.000
17.97878 371.000
17.99873 364.000
18.01868 375.000
18.03863 344.000
18.05857 342.000
18.07852 376.000
18.09847 415.000
18.11841 391.000
18.13836 444.000
18.15831 395.000
18.17825 376.000
18.19820 392.000
18.21815 408.000
18.23810 398.000
18.25804 384.000
18.27799 389.000
18.29794 388.000
18.31788 398.000
18.33783 398.000
18.35778 407.000
18.37772 411.000
18.39767 428.000
18.41762 391.000
18.43756 401.000
18.45751 414.000
18.47746 371.000
18.49741 398.000
18.51735 372.000
18.53730 407.000
18.55725 401.000
18.57719 455.000
18.59714 423.000
18.61709 400.000
18.63703 400.000
18.65698 373.000
18.67693 420.000
18.69688 399.000
18.71682 411.000
18.73677 416.000
18.75672 389.000
18.77666 383.000
18.79661 424.000
18.81656 411.000
18.83650 399.000
18.85645 433.000
18.87640 401.000
18.89634 405.000
18.91629 428.000
18.93624 446.000
18.95619 415.000
18.97613 467.000
18.99608 386.000
19.01603 422.000
19.03597 421.000
19.05592 430.000
19.07587 394.000
19.09581 424.000
19.11576 435.000
19.13571 413.000
19.15566 429.000
19.17560 416.000
19.19555 429.000
19.21550 403.000
19.23544 424.000
19.25539 468.000
19.27534 443.000
19.29528 459.000
19.31523 460.000
19.33518 454.000
19.35513 457.000
19.37507 411.000
19.39502 437.000
19.41497 402.000
19.43491 434.000
19.45486 435.000
19.47481 464.000
19.49475 407.000
19.51470 445.000
19.53465 464.000
19.55459 396.000
19.57454 451.000
19.59449 457.000
19.61444 463.000
19.63438 484.000
19.65433 464.000
19.67428 462.000
19.69422 488.000
19.71417 450.000
19.73412 472.000
19.75406 426.000
19.77401 449.000
19.79396 450.000
19.81391 469.000
19.83385 437.000
19.85380 489.000
19.87375 489.000
19.89369 444.000
19.91364 467.000
19.93359 491.000
19.95353 441.000
19.97348 438.000
19.99343 443.000
20.01337 435.000
20.03332 436.000
20.05327 503.000
20.07322 445.000
20.09316 509.000
20.11311 439.000
20.13306 431.000
20.15300 489.000
20.17295 486.000
20.19290 473.000
20.21284 460.000
20.23279 497.000
20.25274 491.000
20.27269 487.000
20.29263 492.000
20.31258 497.000
20.33253 474.000
20.35247 471.000
20.37242 505.000
20.39237 480.000
20.41231 486.000
20.43226 503.000
20.45221 447.000
20.47215 488.000
20.49210 507.000
20.51205 477.000
20.53200 535.000
20.55194 494.000
20.57189 505.000
20.59184 483.000
20.61178 557.000
20.63173 495.000
20.65168 554.000
20.67162 574.000
20.69157 527.000
20.71152 520.000
20.73147 526.000
20.75141 562.000
20.77136 565.000
20.79131 569.000
20.81125 555.000
20.83120 554.000
20.85115 524.000
20.87109 593.000
20.89104 525.000
20.91099 605.000
20.93094 559.000
20.95088 518.000
20.97083 519.000
20.99078 501.000
21.01072 576.000
21.03067 532.000
21.05062 523.000
21.07056 479.000
21.09051 515.000
21.11046 515.000
21.13040 537.000
21.15035 496.000
21.17030 479.000
21.19025 473.000
21.21019 475.000
21.23014 532.000
21.25009 530.000
21.27003 520.000
21.28998 536.000
21.30993 525.000
21.32987 478.000
21.34982 522.000
21.36977 476.000
21.38972 499.000
21.40966 508.000
21.42961 566.000
21.44956 548.000
21.46950 529.000
21.48945 505.000
21.50940 548.000
21.52934 555.000
21.54929 515.000
21.56924 547.000
21.58918 534.000
21.60913 518.000
21.62908 510.000
21.64903 520.000
21.66897 512.000
21.68892 552.000
21.70887 500.000
21.72881 505.000
21.74876 525.000
21.76871 521.000
21.78865 512.000
21.80860 524.000
21.82855 513.000
21.84850 462.000
21.86844 495.000
21.88839 516.000
21.90834 496.000
21.92828 561.000
21.94823 520.000
21.96818 529.000
21.98812 519.000
22.00807 522.000
22.02802 533.000
22.04796 577.000
22.06791 531.000
22.08786 554.000
22.10781 514.000
22.12775 510.000
22.14770 528.000
22.16765 552.000
22.18759 531.000
22.20754 505.000
22.22749 572.000
22.24743 525.000
22.26738 541.000
22.28733 543.000
22.30728 572.000
22.32722 560.000
22.34717 565.000
22.36712 540.000
22.38706 539.000
22.40701 588.000
22.42696 588.000
22.44690 569.000
22.46685 554.000
22.48680 538.000
22.50675 519.000
22.52669 535.000
22.54664 543.000
22.56659 547.000
22.58653 528.000
22.60648 565.000
22.62643 539.000
22.64637 568.000
22.66632 526.000
22.68627 595.000
22.70621 598.000
22.72616 598.000
22.74611 565.000
22.76606 580.000
22.78600 611.000
22.80595 621.000
22.82590 572.000
22.84584 560.000
22.86579 591.000
22.88574 589.000
22.90568 606.000
22.92563 563.000
22.94558 573.000
22.96553 594.000
22.98547 594.000
23.00542 514.000
23.02537 580.000
23.04531 580.000
23.06526 579.000
23.08521 573.000
23.10515 544.000
23.12510 584.000
23.14505 579.000
23.16499 504.000
23.18494 587.000
23.20489 541.000
23.22484 626.000
23.24478 574.000
23.26473 580.000
23.28468 620.000
23.30462 598.000
23.32457 565.000
23.34452 617.000
23.36446 560.000
23.38441 529.000
23.40436 607.000
23.42431 577.000
23.44425 589.000
23.46420 552.000
23.48415 541.000
23.50409 584.000
23.52404 554.000
23.54399 591.000
23.56393 540.000
23.58388 587.000
23.60383 590.000
23.62377 574.000
23.64372 586.000
23.66367 589.000
23.68362 611.000
23.70356 605.000
23.72351 582.000
23.74346 556.000
23.76340 571.000
23.78335 585.000
23.80330 580.000
23.82324 629.000
23.84319 619.000
23.86314 577.000
23.88309 613.000
23.90303 575.000
23.92298 654.000
23.94293 626.000
23.96287 586.000
23.98282 580.000
24.00277 584.000
24.02271 598.000
24.04266 594.000
24.06261 611.000
24.08256 625.000
24.10250 611.000
24.12245 617.000
24.14240 571.000
24.16234 634.000
24.18229 624.000
24.20224 609.000
24.22218 624.000
24.24213 619.000
24.26208 642.000
24.28202 565.000
24.30197 634.000
24.32192 596.000
24.34187 627.000
24.36181 613.000
24.38176 621.000
24.40171 645.000
24.42165 644.000
24.44160 628.000
24.46155 653.000
24.48149 640.000
24.50144 643.000
24.52139 666.000
24.54134 656.000
24.56128 626.000
24.58123 628.000
24.60118 679.000
24.62112 663.000
24.64107 694.000
24.66102 627.000
24.68096 689.000
24.70091 654.000
24.72086 685.000
24.74080 704.000
24.76075 694.000
24.78070 669.000
24.80065 689.000
24.82059 655.000
24.84054 640.000
24.86049 647.000
24.88043 685.000
24.90038 664.000
24.92033 639.000
24.94027 599.000
24.96022 655.000
24.98017 663.000
25.00012 631.000
25.02006 636.000
25.04001 595.000
25.05996 643.000
25.07990 644.000
25.09985 636.000
25.11980 673.000
25.13974 614.000
25.15969 641.000
25.17964 601.000
25.19958 635.000
25.21953 641.000
25.23948 681.000
25.25943 689.000
25.27937 671.000
25.29932 657.000
25.31927 668.000
25.33921 658.000
25.35916 629.000
25.37911 654.000
25.39905 615.000
25.41900 661.000
25.43895 669.000
25.45890 728.000
25.47884 697.000
25.49879 674.000
25.51874 666.000
25.53868 681.000
25.55863 641.000
25.57858 638.000
25.59852 644.000
25.61847 640.000
25.63842 677.000
25.65837 636.000
25.67831 727.000
25.69826 646.000
25.71821 627.000
25.73815 696.000
25.75810 678.000
25.77805 706.000
25.79799 649.000
25.81794 661.000
25.83789 717.000
25.85783 668.000
25.87778 730.000
25.89773 687.000
25.91768 709.000
25.93762 669.000
25.95757 685.000
25.97752 741.000
25.99746 724.000
26.01741 696.000
26.03736 705.000
26.05730 689.000
26.07725 687.000
26.09720 683.000
26.11715 703.000
26.13709 693.000
26.15704 698.000
26.17699 666.000
26.19693 754.000
26.21688 701.000
26.23683 720.000
26.25677 668.000
26.27672 737.000
26.29667 711.000
26.31661 685.000
26.33656 713.000
26.35651 691.000
26.37646 703.000
26.39640 704.000
26.41635 687.000
26.43630 729.000
26.45624 721.000
26.47619 688.000
26.49614 737.000
26.51608 736.000
26.53603 702.000
26.55598 708.000
26.57593 684.000
26.59587 787.000
26.61582 703.000
26.63577 767.000
26.65571 780.000
26.67566 718.000
26.69561 708.000
26.71555 749.000
26.73550 737.000
26.75545 758.000
26.77539 727.000
26.79534 781.000
26.81529 750.000
26.83524 767.000
26.85518 743.000
26.87513 776.000
26.89508 762.000
26.91502 753.000
26.93497 729.000
26.95492 710.000
26.97486 726.000
26.99481 726.000
27.01476 737.000
27.03471 751.000
27.05465 747.000
27.07460 689.000
27.09455 738.000
27.11449 806.000
27.13444 781.000
27.15439 715.000
27.17433 755.000
27.19428 752.000
27.21423 778.000
27.23417 727.000
27.25412 749.000
27.27407 760.000
27.29402 758.000
27.31396 754.000
27.33391 789.000
27.35386 751.000
27.37380 730.000
27.39375 743.000
27.41370 725.000
27.43364 754.000
27.45359 750.000
27.47354 758.000
27.49349 785.000
27.51343 773.000
27.53338 808.000
27.55333 786.000
27.57327 753.000
27.59322 774.000
27.61317 764.000
27.63311 789.000
27.65306 760.000
27.67301 781.000
27.69296 802.000
27.71290 792.000
27.73285 737.000
27.75280 748.000
27.77274 790.000
27.79269 810.000
27.81264 770.000
27.83258 753.000
27.85253 780.000
27.87248 827.000
27.89242 752.000
27.91237 810.000
27.93232 784.000
27.95227 771.000
27.97221 832.000
27.99216 794.000
28.01211 788.000
28.03205 794.000
28.05200 762.000
28.07195 738.000
28.09189 760.000
28.11184 729.000
28.13179 805.000
28.15174 774.000
28.17168 797.000
28.19163 753.000
28.21158 765.000
28.23152 774.000
28.25147 790.000
28.27142 784.000
28.29136 778.000
28.31131 855.000
28.33126 816.000
28.35120 821.000
28.37115 797.000
28.39110 807.000
28.41105 815.000
28.43099 763.000
28.45094 855.000
28.47089 797.000
28.49083 779.000
28.51078 818.000
28.53073 796.000
28.55067 802.000
28.57062 799.000
28.59057 773.000
28.61052 837.000
28.63046 781.000
28.65041 794.000
28.67036 818.000
28.69030 817.000
28.71025 792.000
28.73020 824.000
28.75014 808.000
28.77009 868.000
28.79004 831.000
28.80998 860.000
28.82993 887.000
28.84988 853.000
28.86983 873.000
28.88977 890.000
28.90972 908.000
28.92967 907.000
28.94961 885.000
28.96956 959.000
28.98951 962.000
29.00945 929.000
29.02940 1011.000
29.04935 1024.000
29.06930 1015.000
29.08924 1012.000
29.10919 1007.000
29.12914 1000.000
29.14908 1021.000
29.16903 991.000
29.18898 986.000
29.20892 960.000
29.22887 882.000
29.24882 938.000
29.26877 887.000
29.28871 839.000
29.30866 939.000
29.32861 910.000
29.34855 815.000
29.36850 854.000
29.38845 838.000
29.40839 805.000
29.42834 826.000
29.44829 901.000
29.46823 798.000
29.48818 780.000
29.50813 838.000
29.52808 821.000
29.54802 831.000
29.56797 847.000
29.58792 768.000
29.60786 868.000
29.62781 849.000
29.64776 764.000
29.66770 860.000
29.68765 811.000
29.70760 844.000
29.72755 858.000
29.74749 784.000
29.76744 835.000
29.78739 832.000
29.80733 854.000
29.82728 842.000
29.84723 864.000
29.86717 806.000
29.88712 789.000
29.90707 825.000
29.92701 802.000
29.94696 832.000
29.96691 828.000
29.98686 845.000
30.00680 818.000
30.02675 867.000
30.04670 829.000
30.06664 850.000
30.08659 814.000
30.10654 812.000
30.12648 811.000
30.14643 826.000
30.16638 845.000
30.18633 792.000
30.20627 779.000
30.22622 838.000
30.24617 800.000
30.26611 803.000
30.28606 777.000
30.30601 840.000
30.32595 824.000
30.34590 798.000
30.36585 813.000
30.38579 858.000
30.40574 857.000
30.42569 846.000
30.44564 805.000
30.46558 832.000
30.48553 771.000
30.50548 823.000
30.52542 847.000
30.54537 821.000
30.56532 827.000
30.58526 756.000
30.60521 834.000
30.62516 791.000
30.64511 812.000
30.66505 834.000
30.68500 779.000
30.70495 796.000
30.72489 822.000
30.74484 834.000
30.76479 864.000
30.78473 839.000
30.80468 776.000
30.82463 855.000
30.84458 810.000
30.86452 884.000
30.88447 765.000
30.90442 792.000
30.92436 815.000
30.94431 818.000
30.96426 823.000
30.98420 854.000
31.00415 796.000
31.02410 808.000
31.04404 824.000
31.06399 809.000
31.08394 791.000
31.10389 861.000
31.12383 800.000
31.14378 768.000
31.16373 827.000
31.18367 838.000
31.20362 861.000
31.22357 884.000
31.24351 835.000
31.26346 852.000
31.28341 785.000
31.30336 820.000
31.32330 797.000
31.34325 814.000
31.36320 765.000
31.38314 798.000
31.40309 810.000
31.42304 828.000
31.44298 818.000
31.46293 822.000
31.48288 800.000
31.50282 800.000
31.52277 802.000
31.54272 798.000
31.56267 783.000
31.58261 830.000
31.60256 861.000
31.62251 781.000
31.64245 834.000
31.66240 797.000
31.68235 774.000
31.70229 845.000
31.72224 802.000
31.74219 821.000
31.76214 831.000
31.78208 875.000
31.80203 831.000
31.82198 838.000
31.84192 834.000
31.86187 837.000
31.88182 852.000
31.90176 841.000
31.92171 830.000
31.94166 882.000
31.96160 894.000
31.98155 844.000
32.00150 875.000
32.02145 876.000
32.04139 887.000
32.06134 906.000
32.08129 935.000
32.10123 925.000
32.12118 977.000
32.14113 933.000
32.16107 1015.000
32.18102 959.000
32.20097 993.000
32.22092 926.000
32.24086 908.000
32.26081 888.000
32.28076 891.000
32.30070 887.000
32.32065 804.000
32.34060 870.000
32.36054 818.000
32.38049 784.000
32.40044 833.000
32.42039 797.000
32.44033 765.000
32.46028 787.000
32.48023 829.000
32.50017 765.000
32.52012 808.000
32.54007 814.000
32.56001 742.000
32.57996 791.000
32.59991 826.000
32.61985 774.000
32.63980 766.000
32.65975 805.000
32.67970 733.000
32.69964 803.000
32.71959 798.000
32.73954 819.000
32.75948 858.000
32.77943 796.000
32.79938 779.000
32.81932 788.000
32.83927 794.000
32.85922 774.000
32.87917 817.000
32.89911 781.000
32.91906 815.000
32.93901 816.000
32.95895 765.000
32.97890 750.000
32.99885 741.000
33.01879 756.000
33.03874 850.000
33.05869 775.000
33.07863 752.000
33.09858 808.000
33.11853 793.000
33.13848 812.000
33.15842 816.000
33.17837 755.000
33.19832 786.000
33.21826 781.000
33.23821 792.000
33.25816 754.000
33.27810 787.000
33.29805 788.000
33.31800 779.000
33.33795 796.000
33.35789 798.000
33.37784 761.000
33.39779 738.000
33.41773 715.000
33.43768 731.000
33.45763 789.000
33.47757 751.000
33.49752 760.000
33.51747 801.000
33.53741 750.000
33.55736 779.000
33.57731 826.000
33.59726 793.000
33.61720 806.000
33.63715 810.000
33.65710 817.000
33.67704 804.000
33.69699 784.000
33.71694 765.000
33.73688 814.000
33.75683 712.000
33.77678 749.000
33.79673 816.000
33.81667 759.000
33.83662 729.000
33.85657 799.000
33.87651 797.000
33.89646 730.000
33.91641 765.000
33.93635 786.000
33.95630 835.000
33.97625 759.000
33.99620 755.000
34.01614 805.000
34.03609 767.000
34.05604 798.000
34.07598 851.000
34.09593 705.000
34.11588 737.000
34.13582 771.000
34.15577 822.000
34.17572 767.000
34.19566 762.000
34.21561 803.000
34.23556 803.000
34.25551 813.000
34.27545 876.000
34.29540 872.000
34.31535 819.000
34.33529 868.000
34.35524 827.000
34.37519 852.000
34.39513 852.000
34.41508 902.000
34.43503 893.000
34.45498 934.000
34.47492 924.000
34.49487 971.000
34.51482 999.000
34.53476 926.000
34.55471 983.000
34.57466 1037.000
34.59460 980.000
34.61455 1042.000
34.63450 1024.000
34.65444 995.000
34.67439 984.000
34.69434 945.000
34.71429 903.000
34.73423 935.000
34.75418 916.000
34.77413 940.000
34.79407 971.000
34.81402 1039.000
34.83397 1019.000
34.85391 1097.000
34.87386 1100.000
34.89381 1200.000
34.91376 1211.000
34.93370 1345.000
34.95365 1375.000
34.97360 1584.000
34.99354 1633.000
35.01349 1807.000
35.03344 1976.000
35.05338 2156.000
35.07333 2322.000
35.09328 2408.000
35.11322 2538.000
35.13317 2803.000
35.15312 2920.000
35.17307 2921.000
35.19301 2924.000
35.21296 2937.000
35.23291 2911.000
35.25285 2836.000
35.27280 2670.000
35.29275 2330.000
35.31269 2162.000
35.33264 2057.000
35.35259 1771.000
35.37254 1577.000
35.39248 1438.000
35.41243 1267.000
35.43238 1162.000
35.45232 1069.000
35.47227 1018.000
35.49222 965.000
35.51216 925.000
35.53211 917.000
35.55206 815.000
35.57201 829.000
35.59195 791.000
35.61190 811.000
35.63185 836.000
35.65179 834.000
35.67174 817.000
35.69169 823.000
35.71163 818.000
35.73158 793.000
35.75153 788.000
35.77147 724.000
35.79142 838.000
35.81137 771.000
35.83132 808.000
35.85126 793.000
35.87121 767.000
35.89116 745.000
35.91110 766.000
35.93105 775.000
35.95100 753.000
35.97094 786.000
35.99089 806.000
36.01084 799.000
36.03079 787.000
36.05073 783.000
36.07068 813.000
36.09063 812.000
36.11057 779.000
36.13052 817.000
36.15047 769.000
36.17041 876.000
36.19036 849.000
36.21031 818.000
36.23025 863.000
36.25020 807.000
36.27015 871.000
36.29010 821.000
36.31004 836.000
36.32999 872.000
36.34994 873.000
36.36988 926.000
36.38983 1012.000
36.40978 994.000
36.42972 1032.000
36.44967 1110.000
36.46962 1183.000
36.48957 1297.000
36.50951 1376.000
36.52946 1533.000
36.54941 1677.000
36.56935 1803.000
36.58930 2082.000
36.60925 2265.000
36.62919 2579.000
36.64914 2951.000
36.66909 3550.000
36.68903 3967.000
36.70898 4432.000
36.72893 4840.000
36.74888 5189.000
36.76882 5511.000
36.78877 5415.000
36.80872 5424.000
36.82866 5121.000
36.84861 4534.000
36.86856 3961.000
36.88850 3339.000
36.90845 3103.000
36.92840 2485.000
36.94835 2010.000
36.96829 1759.000
36.98824 1426.000
37.00819 1237.000
37.02813 1104.000
37.04808 1038.000
37.06803 969.000
37.08797 920.000
37.10792 901.000
37.12787 865.000
37.14781 834.000
37.16776 843.000
37.18771 866.000
37.20766 824.000
37.22760 880.000
37.24755 834.000
37.26750 840.000
37.28744 838.000
37.30739 758.000
37.32734 821.000
37.34728 775.000
37.36723 759.000
37.38718 784.000
37.40713 848.000
37.42707 769.000
37.44702 810.000
37.46697 785.000
37.48691 830.000
37.50686 789.000
37.52681 793.000
37.54675 804.000
37.56670 796.000
37.58665 776.000
37.60660 773.000
37.62654 855.000
37.64649 848.000
37.66644 812.000
37.68638 811.000
37.70633 824.000
37.72628 855.000
37.74622 909.000
37.76617 861.000
37.78612 890.000
37.80606 913.000
37.82601 868.000
37.84596 977.000
37.86591 901.000
37.88585 995.000
37.90580 904.000
37.92575 1015.000
37.94569 959.000
37.96564 1047.000
37.98559 1102.000
38.00553 1145.000
38.02548 1203.000
38.04543 1227.000
38.06538 1293.000
38.08532 1337.000
38.10527 1511.000
38.12522 1521.000
38.14516 1718.000
38.16511 1785.000
38.18506 1890.000
38.20500 2081.000
38.22495 2163.000
38.24490 2285.000
38.26484 2482.000
38.28479 2536.000
38.30474 2687.000
38.32469 2749.000
38.34463 2757.000
38.36458 2656.000
38.38453 2383.000
38.40447 2280.000
38.42442 2145.000
38.44437 2033.000
38.46431 1875.000
38.48426 1706.000
38.50421 1618.000
38.52416 1435.000
38.54410 1376.000
38.56405 1286.000
38.58400 1277.000
38.60394 1224.000
38.62389 1283.000
38.64384 1271.000
38.66378 1335.000
38.68373 1296.000
38.70368 1353.000
38.72362 1298.000
38.74357 1245.000
38.76352 1259.000
38.78347 1203.000
38.80341 1171.000
38.82336 1142.000
38.84331 1065.000
38.86325 1016.000
38.88320 1020.000
38.90315 980.000
38.92309 912.000
38.94304 887.000
38.96299 923.000
38.98294 869.000
39.00288 796.000
39.02283 831.000
39.04278 815.000
39.06272 817.000
39.08267 772.000
39.10262 800.000
39.12256 793.000
39.14251 771.000
39.16246 821.000
39.18241 734.000
39.20235 754.000
39.22230 755.000
39.24225 730.000
39.26219 773.000
39.28214 731.000
39.30209 695.000
39.32203 713.000
39.34198 720.000
39.36193 781.000
39.38187 772.000
39.40182 722.000
39.42177 768.000
39.44172 766.000
39.46166 723.000
39.48161 723.000
39.50156 745.000
39.52150 694.000
39.54145 728.000
39.56140 717.000
39.58134 693.000
39.60129 746.000
39.62124 713.000
39.64119 743.000
39.66113 750.000
39.68108 714.000
39.70103 747.000
39.72097 735.000
39.74092 722.000
39.76087 745.000
39.78081 636.000
39.80076 723.000
39.82071 690.000
39.84065 725.000
39.86060 685.000
39.88055 726.000
39.90050 740.000
39.92044 741.000
39.94039 787.000
39.96034 714.000
39.98028 700.000
40.00023 736.000
40.02018 736.000
40.04012 739.000
40.06007 740.000
40.08002 749.000
40.09997 695.000
40.11991 687.000
40.13986 736.000
40.15981 717.000
40.17975 712.000
40.19970 747.000
40.21965 679.000
40.23959 704.000
40.25954 716.000
40.27949 734.000
40.29943 748.000
40.31938 724.000
40.33933 691.000
40.35928 759.000
40.37922 698.000
40.39917 710.000
40.41912 735.000
40.43906 712.000
40.45901 731.000
40.47896 733.000
40.49890 737.000
40.51885 695.000
40.53880 740.000
40.55875 725.000
40.57869 731.000
40.59864 738.000
40.61859 739.000
40.63853 717.000
40.65848 761.000
40.67843 710.000
40.69837 705.000
40.71832 749.000
40.73827 761.000
40.75822 747.000
40.77816 657.000
40.79811 774.000
40.81806 694.000
40.83800 708.000
40.85795 728.000
40.87790 726.000
40.89784 724.000
40.91779 806.000
40.93774 687.000
40.95768 753.000
40.97763 734.000
40.99758 756.000
41.01753 749.000
41.03747 730.000
41.05742 739.000
41.07737 737.000
41.09731 747.000
41.11726 728.000
41.13721 775.000
41.15715 763.000
41.17710 721.000
41.19705 764.000
41.21700 777.000
41.23694 715.000
41.25689 766.000
41.27684 767.000
41.29678 753.000
41.31673 767.000
41.33668 781.000
41.35662 755.000
41.37657 823.000
41.39652 799.000
41.41646 821.000
41.43641 796.000
41.45636 770.000
41.47631 799.000
41.49625 752.000
41.51620 776.000
41.53615 753.000
41.55609 798.000
41.57604 766.000
41.59599 805.000
41.61593 797.000
41.63588 794.000
41.65583 788.000
41.67578 804.000
41.69572 816.000
41.71567 761.000
41.73562 828.000
41.75556 790.000
41.77551 845.000
41.79546 852.000
41.81540 831.000
41.83535 851.000
41.85530 837.000
41.87524 869.000
41.89519 844.000
41.91514 889.000
41.93509 882.000
41.95503 907.000
41.97498 970.000
41.99493 938.000
42.01487 934.000
42.03482 910.000
42.05477 905.000
42.07471 961.000
42.09466 936.000
42.11461 991.000
42.13456 956.000
42.15450 1007.000
42.17445 998.000
42.19440 1093.000
42.21434 1064.000
42.23429 1110.000
42.25424 1171.000
42.27418 1166.000
42.29413 1229.000
42.31408 1215.000
42.33403 1276.000
42.35397 1348.000
42.37392 1479.000
42.39387 1461.000
42.41381 1592.000
42.43376 1695.000
42.45371 1755.000
42.47365 1863.000
42.49360 1968.000
42.51355 2106.000
42.53349 2324.000
42.55344 2432.000
42.57339 2596.000
42.59334 2836.000
42.61328 2895.000
42.63323 3090.000
42.65318 3300.000
42.67312 3356.000
42.69307 3570.000
42.71302 3630.000
42.73296 3788.000
42.75291 4027.000
42.77286 4089.000
42.79281 3935.000
42.81275 4162.000
42.83270 4095.000
42.85265 4038.000
42.87259 3841.000
42.89254 3843.000
42.91249 3708.000
42.93243 3623.000
42.95238 3216.000
42.97233 3225.000
42.99227 2992.000
43.01222 2749.000
43.03217 2598.000
43.05212 2372.000
43.07206 2287.000
43.09201 2076.000
43.11196 2000.000
43.13190 1854.000
43.15185 1648.000
43.17180 1542.000
43.19174 1456.000
43.21169 1423.000
43.23164 1322.000
43.25159 1283.000
43.27153 1201.000
43.29148 1167.000
43.31143 1096.000
43.33137 1054.000
43.35132 1063.000
43.37127 1022.000
43.39121 986.000
43.41116 964.000
43.43111 978.000
43.45105 905.000
43.47100 900.000
43.49095 888.000
43.51090 844.000
43.53084 884.000
43.55079 814.000
43.57074 908.000
43.59068 848.000
43.61063 812.000
43.63058 783.000
43.65052 783.000
43.67047 756.000
43.69042 754.000
43.71037 748.000
43.73031 807.000
43.75026 746.000
43.77021 778.000
43.79015 740.000
43.81010 791.000
43.83005 755.000
43.84999 806.000
43.86994 739.000
43.88989 740.000
43.90984 729.000
43.92978 756.000
43.94973 713.000
43.96968 737.000
43.98962 717.000
44.00957 698.000
44.02952 729.000
44.04946 750.000
44.06941 755.000
44.08936 757.000
44.10930 700.000
44.12925 717.000
44.14920 718.000
44.16915 724.000
44.18909 732.000
44.20904 703.000
44.22899 656.000
44.24893 735.000
44.26888 715.000
44.28883 758.000
44.30877 705.000
44.32872 697.000
44.34867 672.000
44.36862 695.000
44.38856 705.000
44.40851 710.000
44.42846 721.000
44.44840 743.000
44.46835 710.000
44.48830 669.000
44.50824 705.000
44.52819 680.000
44.54814 721.000
44.56808 726.000
44.58803 691.000
44.60798 682.000
44.62793 637.000
44.64787 682.000
44.66782 691.000
44.68777 687.000
44.70771 662.000
44.72766 669.000
44.74761 679.000
44.76755 646.000
44.78750 672.000
44.80745 700.000
44.82740 722.000
44.84734 700.000
44.86729 701.000
44.88724 710.000
44.90718 704.000
44.92713 692.000
44.94708 677.000
44.96702 714.000
44.98697 702.000
45.00692 638.000
45.02686 713.000
45.04681 710.000
45.06676 718.000
45.08671 682.000
45.10665 688.000
45.12660 716.000
45.14655 690.000
45.16649 692.000
45.18644 661.000
45.20639 686.000
45.22633 669.000
45.24628 674.000
45.26623 759.000
45.28618 706.000
45.30612 670.000
45.32607 755.000
45.34602 711.000
45.36596 699.000
45.38591 704.000
45.40586 692.000
45.42580 682.000
45.44575 688.000
45.46570 681.000
45.48565 699.000
45.50559 666.000
45.52554 658.000
45.54549 707.000
45.56543 670.000
45.58538 641.000
45.60533 628.000
45.62527 676.000
45.64522 708.000
45.66517 687.000
45.68511 656.000
45.70506 698.000
45.72501 676.000
45.74496 639.000
45.76490 713.000
45.78485 686.000
45.80480 718.000
45.82474 692.000
45.84469 704.000
45.86464 733.000
45.88458 689.000
45.90453 714.000
45.92448 672.000
45.94443 741.000
45.96437 705.000
45.98432 736.000
46.00427 718.000
46.02421 750.000
46.04416 681.000
46.06411 699.000
46.08405 700.000
46.10400 706.000
46.12395 702.000
46.14389 670.000
46.16384 663.000
46.18379 663.000
46.20374 667.000
46.22368 659.000
46.24363 637.000
46.26358 623.000
46.28352 646.000
46.30347 641.000
46.32342 683.000
46.34336 700.000
46.36331 619.000
46.38326 684.000
46.40321 636.000
46.42315 650.000
46.44310 626.000
46.46305 636.000
46.48299 615.000
46.50294 685.000
46.52289 686.000
46.54283 620.000
46.56278 646.000
46.58273 620.000
46.60267 681.000
46.62262 689.000
46.64257 690.000
46.66252 644.000
46.68246 657.000
46.70241 685.000
46.72236 692.000
46.74230 646.000
46.76225 648.000
46.78220 655.000
46.80214 622.000
46.82209 608.000
46.84204 621.000
46.86199 620.000
46.88193 646.000
46.90188 646.000
46.92183 662.000
46.94177 602.000
46.96172 649.000
46.98167 653.000
47.00161 585.000
47.02156 583.000
47.04151 621.000
47.06146 623.000
47.08140 652.000
47.10135 682.000
47.12130 672.000
47.14124 628.000
47.16119 690.000
47.18114 665.000
47.20108 664.000
47.22103 652.000
47.24098 608.000
47.26092 645.000
47.28087 663.000
47.30082 632.000
47.32077 608.000
47.34071 671.000
47.36066 586.000
47.38061 634.000
47.40055 644.000
47.42050 623.000
47.44045 658.000
47.46039 660.000
47.48034 632.000
47.50029 671.000
47.52024 659.000
47.54018 659.000
47.56013 662.000
47.58008 656.000
47.60002 608.000
47.61997 614.000
47.63992 636.000
47.65986 661.000
47.67981 687.000
47.69976 695.000
47.71970 649.000
47.73965 684.000
47.75960 691.000
47.77955 675.000
47.79949 680.000
47.81944 690.000
47.83939 724.000
47.85933 664.000
47.87928 718.000
47.89923 702.000
47.91917 690.000
47.93912 678.000
47.95907 667.000
47.97902 639.000
47.99896 673.000
48.01891 644.000
48.03886 703.000
48.05880 629.000
48.07875 665.000
48.09870 705.000
48.11864 675.000
48.13859 703.000
48.15854 676.000
48.17848 689.000
48.19843 650.000
48.21838 654.000
48.23833 659.000
48.25827 724.000
48.27822 710.000
48.29817 698.000
48.31811 712.000
48.33806 725.000
48.35801 744.000
48.37795 751.000
48.39790 825.000
48.41785 769.000
48.43780 816.000
48.45774 841.000
48.47769 901.000
48.49764 896.000
48.51758 975.000
48.53753 976.000
48.55748 1078.000
48.57742 1063.000
48.59737 1084.000
48.61732 1063.000
48.63726 1156.000
48.65721 1147.000
48.67716 1114.000
48.69711 1117.000
48.71705 1099.000
48.73700 1134.000
48.75695 1080.000
48.77689 1084.000
48.79684 907.000
48.81679 994.000
48.83673 948.000
48.85668 891.000
48.87663 830.000
48.89658 750.000
48.91652 743.000
48.93647 784.000
48.95642 769.000
48.97636 739.000
48.99631 700.000
49.01626 711.000
49.03620 695.000
49.05615 729.000
49.07610 716.000
49.09605 681.000
49.11599 665.000
49.13594 660.000
49.15589 672.000
49.17583 721.000
49.19578 720.000
49.21573 649.000
49.23567 654.000
49.25562 695.000
49.27557 619.000
49.29551 649.000
49.31546 674.000
49.33541 654.000
49.35536 658.000
49.37530 659.000
49.39525 659.000
49.41520 602.000
49.43514 628.000
49.45509 657.000
49.47504 636.000
49.49498 688.000
49.51493 654.000
49.53488 603.000
49.55483 624.000
49.57477 660.000
49.59472 666.000
49.61467 603.000
49.63461 692.000
49.65456 614.000
49.67451 611.000
49.69445 633.000
49.71440 644.000
49.73435 625.000
49.75429 646.000
49.77424 630.000
49.79419 629.000
49.81414 623.000
49.83408 649.000
49.85403 602.000
49.87398 654.000
49.89392 674.000
49.91387 658.000
49.93382 631.000
49.95376 616.000
49.97371 651.000
49.99366 604.000
50.01361 609.000
50.03355 630.000
50.05350 638.000
50.07345 632.000
50.09339 632.000
50.11334 598.000
50.13329 629.000
50.15323 597.000
50.17318 619.000
50.19313 618.000
50.21307 654.000
50.23302 632.000
50.25297 627.000
50.27292 628.000
50.29286 641.000
50.31281 645.000
50.33276 619.000
50.35270 621.000
50.37265 648.000
50.39260 614.000
50.41254 603.000
50.43249 650.000
50.45244 602.000
50.47239 635.000
50.49233 625.000
50.51228 605.000
50.53223 600.000
50.55217 594.000
50.57212 622.000
50.59207 594.000
50.61201 623.000
50.63196 587.000
50.65191 587.000
50.67186 650.000
50.69180 634.000
50.71175 681.000
50.73170 641.000
50.75164 708.000
50.77159 656.000
50.79154 609.000
50.81148 659.000
50.83143 683.000
50.85138 612.000
50.87132 663.000
50.89127 646.000
50.91122 635.000
50.93117 591.000
50.95111 669.000
50.97106 705.000
50.99101 644.000
51.01095 688.000
51.03090 661.000
51.05085 640.000
51.07079 632.000
51.09074 635.000
51.11069 565.000
51.13064 633.000
51.15058 632.000
51.17053 640.000
51.19048 645.000
51.21042 605.000
51.23037 570.000
51.25032 640.000
51.27026 671.000
51.29021 620.000
51.31016 603.000
51.33010 674.000
51.35005 566.000
51.37000 619.000
51.38995 634.000
51.40989 608.000
51.42984 604.000
51.44979 632.000
51.46973 636.000
51.48968 598.000
51.50963 666.000
51.52957 634.000
51.54952 619.000
51.56947 663.000
51.58942 628.000
51.60936 655.000
51.62931 595.000
51.64926 615.000
51.66920 661.000
51.68915 642.000
51.70910 647.000
51.72904 685.000
51.74899 675.000
51.76894 650.000
51.78888 702.000
51.80883 671.000
51.82878 749.000
51.84873 726.000
51.86867 678.000
51.88862 744.000
51.90857 673.000
51.92851 729.000
51.94846 632.000
51.96841 655.000
51.98835 697.000
52.00830 603.000
52.02825 661.000
52.04820 688.000
52.06814 645.000
52.08809 643.000
52.10804 620.000
52.12798 609.000
52.14793 603.000
52.16788 609.000
52.18782 630.000
52.20777 592.000
52.22772 631.000
52.24767 615.000
52.26761 614.000
52.28756 657.000
52.30751 639.000
52.32745 635.000
52.34740 644.000
52.36735 626.000
52.38729 619.000
52.40724 640.000
52.42719 665.000
52.44713 611.000
52.46708 623.000
52.48703 639.000
52.50698 628.000
52.52692 634.000
52.54687 651.000
52.56682 641.000
52.58676 647.000
52.60671 615.000
52.62666 662.000
52.64660 682.000
52.66655 709.000
52.68650 618.000
52.70645 673.000
52.72639 709.000
52.74634 731.000
52.76629 722.000
52.78623 738.000
52.80618 689.000
52.82613 704.000
52.84607 690.000
52.86602 705.000
52.88597 713.000
52.90591 773.000
52.92586 722.000
52.94581 709.000
52.96576 755.000
52.98570 734.000
53.00565 741.000
53.02560 722.000
53.04554 716.000
53.06549 707.000
53.08544 714.000
53.10538 707.000
53.12533 735.000
53.14528 681.000
53.16523 713.000
53.18517 735.000
53.20512 697.000
53.22507 699.000
53.24501 685.000
53.26496 662.000
53.28491 702.000
53.30485 642.000
53.32480 646.000
53.34475 647.000
53.36469 711.000
53.38464 637.000
53.40459 625.000
53.42454 627.000
53.44448 580.000
53.46443 594.000
53.48438 639.000
53.50432 650.000
53.52427 627.000
53.54422 654.000
53.56416 635.000
53.58411 576.000
53.60406 580.000
53.62401 628.000
53.64395 639.000
53.66390 609.000
53.68385 585.000
53.70379 631.000
53.72374 624.000
53.74369 668.000
53.76363 600.000
53.78358 602.000
53.80353 643.000
53.82348 646.000
53.84342 603.000
53.86337 599.000
53.88332 640.000
53.90326 579.000
53.92321 618.000
53.94316 635.000
53.96310 575.000
53.98305 632.000
54.00300 632.000
54.02294 633.000
54.04289 598.000
54.06284 580.000
54.08279 608.000
54.10273 614.000
54.12268 637.000
54.14263 619.000
54.16257 580.000
54.18252 598.000
54.20247 627.000
54.22241 607.000
54.24236 628.000
54.26231 640.000
54.28226 653.000
54.30220 590.000
54.32215 599.000
54.34210 625.000
54.36204 610.000
54.38199 611.000
54.40194 690.000
54.42188 574.000
54.44183 630.000
54.46178 602.000
54.48172 625.000
54.50167 595.000
54.52162 576.000
54.54157 607.000
54.56151 606.000
54.58146 617.000
54.60141 655.000
54.62135 603.000
54.64130 624.000
54.66125 615.000
54.68119 652.000
54.70114 590.000
54.72109 632.000
54.74104 582.000
54.76098 599.000
54.78093 627.000
54.80088 587.000
54.82082 577.000
54.84077 597.000
54.86072 652.000
54.88066 617.000
54.90061 620.000
54.92056 605.000
54.94050 570.000
54.96045 597.000
54.98040 612.000
55.00035 574.000
55.02029 618.000
55.04024 625.000
55.06019 616.000
55.08013 596.000
55.10008 594.000
55.12003 612.000
55.13997 633.000
55.15992 618.000
55.17987 593.000
55.19982 609.000
55.21976 563.000
55.23971 624.000
55.25966 627.000
55.27960 601.000
55.29955 647.000
55.31950 566.000
55.33944 624.000
55.35939 595.000
55.37934 623.000
55.39929 663.000
55.41923 622.000
55.43918 610.000
55.45913 644.000
55.47907 587.000
55.49902 647.000
55.51897 592.000
55.53891 570.000
55.55886 633.000
55.57881 587.000
55.59875 591.000
55.61870 606.000
55.63865 581.000
55.65860 594.000
55.67854 600.000
55.69849 584.000
55.71844 613.000
55.73838 590.000
55.75833 611.000
55.77828 596.000
55.79822 603.000
55.81817 623.000
55.83812 620.000
55.85807 629.000
55.87801 632.000
55.89796 590.000
55.91791 589.000
55.93785 590.000
55.95780 596.000
55.97775 577.000
55.99769 628.000
56.01764 619.000
56.03759 596.000
56.05753 643.000
56.07748 634.000
56.09743 649.000
56.11738 608.000
56.13732 580.000
56.15727 644.000
56.17722 571.000
56.19716 660.000
56.21711 672.000
56.23706 582.000
56.25700 621.000
56.27695 618.000
56.29690 594.000
56.31685 608.000
56.33679 542.000
56.35674 573.000
56.37669 584.000
56.39663 622.000
56.41658 641.000
56.43653 635.000
56.45647 607.000
56.47642 622.000
56.49637 574.000
56.51631 619.000
56.53626 586.000
56.55621 611.000
56.57616 610.000
56.59610 632.000
56.61605 590.000
56.63600 608.000
56.65594 579.000
56.67589 591.000
56.69584 665.000
56.71578 597.000
56.73573 649.000
56.75568 580.000
56.77563 608.000
56.79557 659.000
56.81552 625.000
56.83547 629.000
56.85541 601.000
56.87536 604.000
56.89531 631.000
56.91525 590.000
56.93520 669.000
56.95515 650.000
56.97510 639.000
56.99504 608.000
57.01499 592.000
57.03494 631.000
57.05488 584.000
57.07483 603.000
57.09478 616.000
57.11472 593.000
57.13467 549.000
57.15462 627.000
57.17456 621.000
57.19451 585.000
57.21446 641.000
57.23441 611.000
57.25435 641.000
57.27430 618.000
57.29425 651.000
57.31419 627.000
57.33414 627.000
57.35409 597.000
57.37403 624.000
57.39398 640.000
57.41393 620.000
57.43388 635.000
57.45382 620.000
57.47377 627.000
57.49372 625.000
57.51366 702.000
57.53361 721.000
57.55356 639.000
57.57350 659.000
57.59345 684.000
57.61340 645.000
57.63334 624.000
57.65329 675.000
57.67324 654.000
57.69319 723.000
57.71313 688.000
57.73308 719.000
57.75303 757.000
57.77297 780.000
57.79292 692.000
57.81287 797.000
57.83281 824.000
57.85276 807.000
57.87271 889.000
57.89266 926.000
57.91260 899.000
57.93255 861.000
57.95250 839.000
57.97244 901.000
57.99239 775.000
58.01234 818.000
58.03228 810.000
58.05223 804.000
58.07218 814.000
58.09212 746.000
58.11207 719.000
58.13202 734.000
58.15197 701.000
58.17191 719.000
58.19186 706.000
58.21181 677.000
58.23175 664.000
58.25170 660.000
58.27165 662.000
58.29159 630.000
58.31154 604.000
58.33149 598.000
58.35144 649.000
58.37138 640.000
58.39133 614.000
58.41128 644.000
58.43122 613.000
58.45117 602.000
58.47112 560.000
58.49106 598.000
58.51101 623.000
58.53096 618.000
58.55090 582.000
58.57085 597.000
58.59080 597.000
58.61075 614.000
58.63069 662.000
58.65064 608.000
58.67059 619.000
58.69053 665.000
58.71048 603.000
58.73043 584.000
58.75037 620.000
58.77032 625.000
58.79027 624.000
58.81022 612.000
58.83016 646.000
58.85011 602.000
58.87006 666.000
58.89000 577.000
58.90995 622.000
58.92990 628.000
58.94984 623.000
58.96979 623.000
58.98974 639.000
59.00969 621.000
59.02963 607.000
59.04958 582.000
59.06953 647.000
59.08947 587.000
59.10942 629.000
59.12937 625.000
59.14931 593.000
59.16926 608.000
59.18921 638.000
59.20915 599.000
59.22910 595.000
59.24905 641.000
59.26900 569.000
59.28894 614.000
59.30889 673.000
59.32884 651.000
59.34878 616.000
59.36873 595.000
59.38868 582.000
59.40862 609.000
59.42857 556.000
59.44852 601.000
59.46847 629.000
59.48841 603.000
59.50836 603.000
59.52831 602.000
59.54825 610.000
59.56820 622.000
59.58815 602.000
59.60809 618.000
59.62804 619.000
59.64799 581.000
59.66793 586.000
59.68788 633.000
59.70783 584.000
59.72778 637.000
59.74772 634.000
59.76767 621.000
59.78762 571.000
59.80756 670.000
59.82751 640.000
59.84746 675.000
59.86740 597.000
59.88735 648.000
59.90730 637.000
59.92725 628.000
59.94719 589.000
59.96714 646.000
59.98709 591.000
60.00703 616.000
60.02698 627.000
60.04693 634.000
60.06687 613.000
60.08682 676.000
60.10677 620.000
60.12671 643.000
60.14666 651.000
60.16661 645.000
60.18656 654.000
60.20650 616.000
60.22645 666.000
60.24640 602.000
60.26634 613.000
60.28629 648.000
60.30624 660.000
60.32618 595.000
60.34613 625.000
60.36608 655.000
60.38603 687.000
60.40597 687.000
60.42592 666.000
60.44587 639.000
60.46581 626.000
60.48576 633.000
60.50571 652.000
60.52565 672.000
60.54560 632.000
60.56555 630.000
60.58550 656.000
60.60544 681.000
60.62539 654.000
60.64534 612.000
60.66528 655.000
60.68523 656.000
60.70518 665.000
60.72512 648.000
60.74507 653.000
60.76502 650.000
60.78496 693.000
60.80491 643.000
60.82486 662.000
60.84481 643.000
60.86475 653.000
60.88470 700.000
60.90465 681.000
60.92459 656.000
60.94454 685.000
60.96449 711.000
60.98443 769.000
61.00438 762.000
61.02433 767.000
61.04428 782.000
61.06422 797.000
61.08417 782.000
61.10412 771.000
61.12406 814.000
61.14401 894.000
61.16396 930.000
61.18390 922.000
61.20385 1052.000
61.22380 1003.000
61.24374 1015.000
61.26369 1036.000
61.28364 1094.000
61.30359 1132.000
61.32353 1084.000
61.34348 1041.000
61.36343 1053.000
61.38337 1018.000
61.40332 1001.000
61.42327 982.000
61.44321 975.000
61.46316 997.000
61.48311 911.000
61.50306 815.000
61.52300 901.000
61.54295 899.000
61.56290 819.000
61.58284 807.000
61.60279 891.000
61.62274 844.000
61.64268 876.000
61.66263 772.000
61.68258 896.000
61.70252 852.000
61.72247 849.000
61.74242 852.000
61.76237 889.000
61.78231 842.000
61.80226 915.000
61.82221 904.000
61.84215 948.000
61.86210 1046.000
61.88205 1099.000
61.90199 994.000
61.92194 1061.000
61.94189 1189.000
61.96184 1206.000
61.98178 1353.000
62.00173 1342.000
62.02168 1415.000
62.04162 1502.000
62.06157 1553.000
62.08152 1674.000
62.10146 1714.000
62.12141 1867.000
62.14136 1983.000
62.16131 2050.000
62.18125 2089.000
62.20120 2273.000
62.22115 2242.000
62.24109 2421.000
62.26104 2389.000
62.28099 2535.000
62.30093 2518.000
62.32088 2536.000
62.34083 2475.000
62.36077 2483.000
62.38072 2334.000
62.40067 2289.000
62.42062 2180.000
62.44056 2101.000
62.46051 2032.000
62.48046 2002.000
62.50040 1827.000
62.52035 1653.000
62.54030 1635.000
62.56024 1522.000
62.58019 1522.000
62.60014 1344.000
62.62009 1295.000
62.64003 1252.000
62.65998 1110.000
62.67993 1087.000
62.69987 1080.000
62.71982 950.000
62.73977 960.000
62.75971 927.000
62.77966 888.000
62.79961 885.000
62.81955 817.000
62.83950 762.000
62.85945 802.000
62.87940 769.000
62.89934 745.000
62.91929 749.000
62.93924 763.000
62.95918 705.000
62.97913 783.000
62.99908 693.000
63.01902 729.000
63.03897 720.000
63.05892 679.000
63.07887 707.000
63.09881 689.000
63.11876 666.000
63.13871 702.000
63.15865 679.000
63.17860 712.000
63.19855 704.000
63.21849 670.000
63.23844 633.000
63.25839 670.000
63.27833 638.000
63.29828 702.000
63.31823 663.000
63.33818 686.000
63.35812 624.000
63.37807 688.000
63.39802 654.000
63.41796 711.000
63.43791 628.000
63.45786 621.000
63.47780 668.000
63.49775 608.000
63.51770 660.000
63.53765 653.000
63.55759 628.000
63.57754 641.000
63.59749 638.000
63.61743 660.000
63.63738 616.000
63.65733 663.000
63.67727 673.000
63.69722 665.000
63.71717 629.000
63.73712 667.000
63.75706 646.000
63.77701 561.000
63.79696 584.000
63.81690 615.000
63.83685 636.000
63.85680 649.000
63.87674 649.000
63.89669 651.000
63.91664 659.000
63.93658 667.000
63.95653 677.000
63.97648 650.000
63.99643 681.000
64.01637 665.000
64.03632 677.000
64.05627 636.000
64.07621 617.000
64.09616 649.000
64.11611 626.000
64.13605 661.000
64.15600 639.000
64.17595 640.000
64.19590 625.000
64.21584 672.000
64.23579 642.000
64.25574 641.000
64.27568 630.000
64.29563 605.000
64.31558 624.000
64.33552 604.000
64.35547 646.000
64.37542 633.000
64.39536 630.000
64.41531 630.000
64.43526 653.000
64.45521 612.000
64.47515 623.000
64.49510 659.000
64.51505 618.000
64.53499 602.000
64.55494 682.000
64.57489 649.000
64.59483 620.000
64.61478 675.000
64.63473 639.000
64.65468 626.000
64.67462 639.000
64.69457 639.000
64.71452 631.000
64.73446 664.000
64.75441 678.000
64.77436 632.000
64.79430 692.000
64.81425 618.000
64.83420 642.000
64.85414 667.000
64.87409 618.000
64.89404 679.000
64.91399 668.000
64.93393 683.000
64.95388 667.000
64.97383 682.000
64.99377 696.000
65.01372 764.000
65.03367 715.000
65.05361 764.000
65.07356 737.000
65.09351 726.000
65.11346 783.000
65.13340 752.000
65.15335 796.000
65.17330 818.000
65.19324 804.000
65.21319 773.000
65.23314 830.000
65.25308 837.000
65.27303 841.000
65.29298 847.000
65.31293 813.000
65.33287 900.000
65.35282 811.000
65.37277 853.000
65.39271 846.000
65.41266 810.000
65.43261 741.000
65.45255 810.000
65.47250 801.000
65.49245 795.000
65.51239 857.000
65.53234 823.000
65.55229 780.000
65.57224 793.000
65.59218 755.000
65.61213 748.000
65.63208 721.000
65.65202 733.000
65.67197 744.000
65.69192 728.000
65.71186 695.000
65.73181 757.000
65.75176 719.000
65.77171 687.000
65.79165 681.000
65.81160 696.000
65.83155 705.000
65.85149 666.000
65.87144 724.000
65.89139 678.000
65.91133 678.000
65.93128 723.000
65.95123 712.000
65.97117 746.000
65.99112 737.000
66.01107 827.000
66.03102 864.000
66.05096 844.000
66.07091 868.000
66.09086 862.000
66.11080 929.000
66.13075 904.000
66.15070 828.000
66.17064 890.000
66.19059 878.000
66.21054 918.000
66.23049 812.000
66.25043 858.000
66.27038 838.000
66.29033 820.000
66.31027 794.000
66.33022 791.000
66.35017 769.000
66.37011 772.000
66.39006 778.000
66.41001 745.000
66.42995 711.000
66.44990 751.000
66.46985 669.000
66.48980 697.000
66.50974 678.000
66.52969 661.000
66.54964 680.000
66.56958 641.000
66.58953 717.000
66.60948 626.000
66.62942 669.000
66.64937 685.000
66.66932 680.000
66.68927 638.000
66.70921 661.000
66.72916 661.000
66.74911 614.000
66.76905 642.000
66.78900 637.000
66.80895 594.000
66.82889 635.000
66.84884 618.000
66.86879 618.000
66.88874 653.000
66.90868 654.000
66.92863 658.000
66.94858 638.000
66.96852 622.000
66.98847 700.000
67.00842 623.000
67.02836 635.000
67.04831 662.000
67.06826 644.000
67.08820 655.000
67.10815 691.000
67.12810 675.000
67.14805 652.000
67.16799 733.000
67.18794 653.000
67.20789 697.000
67.22783 703.000
67.24778 652.000
67.26773 746.000
67.28767 707.000
67.30762 715.000
67.32757 772.000
67.34752 750.000
67.36746 806.000
67.38741 784.000
67.40736 836.000
67.42730 805.000
67.44725 821.000
67.46720 812.000
67.48714 849.000
67.50709 864.000
67.52704 884.000
67.54698 919.000
67.56693 901.000
67.58688 944.000
67.60683 915.000
67.62677 898.000
67.64672 908.000
67.66667 921.000
67.68661 896.000
67.70656 895.000
67.72651 840.000
67.74645 889.000
67.76640 884.000
67.78635 827.000
67.80630 815.000
67.82624 820.000
67.84619 793.000
67.86614 814.000
67.88608 770.000
67.90603 700.000
67.92598 734.000
67.94592 760.000
67.96587 711.000
67.98582 714.000
68.00576 685.000
68.02571 662.000
68.04566 656.000
68.06561 677.000
68.08555 581.000
68.10550 660.000
68.12545 644.000
68.14539 637.000
68.16534 637.000
68.18529 705.000
68.20523 621.000
68.22518 605.000
68.24513 571.000
68.26508 618.000
68.28502 614.000
68.30497 577.000
68.32492 631.000
68.34486 580.000
68.36481 641.000
68.38476 587.000
68.40470 613.000
68.42465 566.000
68.44460 576.000
68.46455 603.000
68.48449 654.000
68.50444 611.000
68.52439 584.000
68.54433 578.000
68.56428 631.000
68.58423 642.000
68.60417 638.000
68.62412 609.000
68.64407 583.000
68.66401 594.000
68.68396 575.000
68.70391 611.000
68.72386 622.000
68.74380 570.000
68.76375 601.000
68.78370 578.000
68.80364 627.000
68.82359 588.000
68.84354 640.000
68.86348 615.000
68.88343 617.000
68.90338 604.000
68.92333 620.000
68.94327 564.000
68.96322 588.000
68.98317 613.000
69.00311 602.000
69.02306 569.000
69.04301 608.000
69.06295 613.000
69.08290 574.000
69.10285 613.000
69.12279 576.000
69.14274 585.000
69.16269 621.000
69.18264 572.000
69.20258 570.000
69.22253 628.000
69.24248 593.000
69.26242 606.000
69.28237 555.000
69.30232 560.000
69.32226 633.000
69.34221 571.000
69.36216 583.000
69.38211 595.000
69.40205 572.000
69.42200 605.000
69.44195 587.000
69.46189 609.000
69.48184 559.000
69.50179 585.000
69.52173 584.000
69.54168 587.000
69.56163 638.000
69.58157 564.000
69.60152 624.000
69.62147 581.000
69.64142 565.000
69.66136 615.000
69.68131 567.000
69.70126 550.000
69.72120 559.000
69.74115 572.000
69.76110 601.000
69.78104 575.000
69.80099 620.000
69.82094 608.000
69.84089 575.000
69.86083 591.000
69.88078 603.000
69.90073 600.000
69.92067 612.000
69.94062 578.000
69.96057 567.000
69.98051 535.000
70.00046 601.000
70.02041 567.000
70.04035 576.000
70.06030 594.000
70.08025 567.000
70.10020 574.000
70.12014 580.000
70.14009 569.000
70.16004 557.000
70.17998 626.000
70.19993 622.000
70.21988 580.000
70.23982 607.000
70.25977 572.000
70.27972 574.000
70.29967 584.000
70.31961 584.000
70.33956 579.000
70.35951 561.000
70.37945 621.000
70.39940 583.000
70.41935 572.000
70.43929 572.000
70.45924 601.000
70.47919 600.000
70.49914 572.000
70.51908 579.000
70.53903 631.000
70.55898 602.000
70.57892 565.000
70.59887 637.000
70.61882 576.000
70.63876 632.000
70.65871 613.000
70.67866 559.000
70.69860 583.000
70.71855 593.000
70.73850 624.000
70.75845 586.000
70.77839 559.000
70.79834 597.000
70.81829 594.000
70.83823 610.000
70.85818 578.000
70.87813 570.000
70.89807 594.000
70.91802 625.000
70.93797 571.000
70.95792 574.000
70.97786 611.000
70.99781 640.000
71.01776 639.000
71.03770 553.000
71.05765 584.000
71.07760 590.000
71.09754 615.000
71.11749 581.000
71.13744 522.000
71.15738 547.000
71.17733 575.000
71.19728 602.000
71.21723 596.000
71.23717 606.000
71.25712 557.000
71.27707 608.000
71.29701 582.000
71.31696 590.000
71.33691 604.000
71.35685 612.000
71.37680 624.000
71.39675 556.000
71.41670 608.000
71.43664 597.000
71.45659 634.000
71.47654 618.000
71.49648 607.000
71.51643 575.000
71.53638 589.000
71.55632 563.000
71.57627 616.000
71.59622 643.000
71.61616 618.000
71.63611 593.000
71.65606 589.000
71.67601 584.000
71.69595 610.000
71.71590 633.000
71.73585 599.000
71.75579 611.000
71.77574 618.000
71.79569 594.000
71.81563 610.000
71.83558 636.000
71.85553 632.000
71.87548 605.000
71.89542 614.000
71.91537 630.000
71.93532 588.000
71.95526 611.000
71.97521 679.000
71.99516 697.000
72.01510 689.000
72.03505 696.000
72.05500 678.000
72.07495 760.000
72.09489 752.000
72.11484 699.000
72.13479 738.000
72.15473 729.000
72.17468 730.000
72.19463 728.000
72.21457 726.000
72.23452 689.000
72.25447 708.000
72.27441 728.000
72.29436 674.000
72.31431 670.000
72.33426 650.000
72.35420 696.000
72.37415 606.000
72.39410 647.000
72.41404 694.000
72.43399 659.000
72.45394 656.000
72.47388 638.000
72.49383 662.000
72.51378 622.000
72.53373 628.000
72.55367 600.000
72.57362 608.000
72.59357 571.000
72.61351 580.000
72.63346 598.000
72.65341 636.000
72.67335 579.000
72.69330 603.000
72.71325 621.000
72.73319 618.000
72.75314 615.000
72.77309 620.000
72.79304 628.000
72.81298 624.000
72.83293 632.000
72.85288 577.000
72.87282 655.000
72.89277 638.000
72.91272 583.000
72.93266 628.000
72.95261 608.000
72.97256 602.000
72.99251 598.000
73.01245 655.000
73.03240 610.000
73.05235 612.000
73.07229 610.000
73.09224 605.000
73.11219 581.000
73.13213 613.000
73.15208 637.000
73.17203 586.000
73.19197 589.000
73.21192 638.000
73.23187 577.000
73.25182 599.000
73.27176 620.000
73.29171 611.000
73.31166 604.000
73.33160 631.000
73.35155 640.000
73.37150 635.000
73.39144 593.000
73.41139 613.000
73.43134 573.000
73.45129 627.000
73.47123 591.000
73.49118 619.000
73.51113 646.000
73.53107 626.000
73.55102 636.000
73.57097 633.000
73.59091 591.000
73.61086 600.000
73.63081 607.000
73.65076 609.000
73.67070 636.000
73.69065 642.000
73.71060 690.000
73.73054 671.000
73.75049 618.000
73.77044 646.000
73.79038 673.000
73.81033 640.000
73.83028 634.000
73.85022 637.000
73.87017 622.000
73.89012 656.000
73.91007 670.000
73.93001 633.000
73.94996 648.000
73.96991 659.000
73.98985 649.000
74.00980 646.000
74.02975 687.000
74.04969 710.000
74.06964 679.000
74.08959 679.000
74.10954 671.000
74.12948 689.000
74.14943 736.000
74.16938 674.000
74.18932 686.000
74.20927 720.000
74.22922 742.000
74.24916 743.000
74.26911 751.000
74.28906 768.000
74.30900 740.000
74.32895 746.000
74.34890 785.000
74.36885 758.000
74.38879 808.000
74.40874 861.000
74.42869 870.000
74.44863 852.000
74.46858 948.000
74.48853 873.000
74.50847 998.000
74.52842 940.000
74.54837 1088.000
74.56832 1025.000
74.58826 1042.000
74.60821 1116.000
74.62816 1061.000
74.64810 1129.000
74.66805 1125.000
74.68800 1161.000
74.70794 1201.000
74.72789 1209.000
74.74784 1261.000
74.76778 1200.000
74.78773 1253.000
74.80768 1231.000
74.82763 1217.000
74.84757 1226.000
74.86752 1236.000
74.88747 1290.000
74.90741 1224.000
74.92736 1207.000
74.94731 1239.000
74.96725 1155.000
74.98720 1102.000
75.00715 1143.000
75.02710 1084.000
75.04704 1104.000
75.06699 1076.000
75.08694 1016.000
75.10688 1001.000
75.12683 1005.000
75.14678 956.000
75.16672 931.000
75.18667 902.000
75.20662 952.000
75.22657 904.000
75.24651 835.000
75.26646 768.000
75.28641 799.000
75.30635 809.000
75.32630 771.000
75.34625 771.000
75.36619 767.000
75.38614 748.000
75.40609 720.000
75.42603 736.000
75.44598 714.000
75.46593 683.000
75.48588 683.000
75.50582 688.000
75.52577 680.000
75.54572 658.000
75.56566 689.000
75.58561 650.000
75.60556 683.000
75.62550 674.000
75.64545 679.000
75.66540 632.000
75.68535 629.000
75.70529 620.000
75.72524 644.000
75.74519 628.000
75.76513 597.000
75.78508 628.000
75.80503 584.000
75.82497 645.000
75.84492 619.000
75.86487 634.000
75.88481 621.000
75.90476 610.000
75.92471 648.000
75.94466 568.000
75.96460 605.000
75.98455 591.000
76.00450 613.000
76.02444 572.000
76.04439 619.000
76.06434 638.000
76.08428 643.000
76.10423 639.000
76.12418 622.000
76.14413 608.000
76.16407 616.000
76.18402 603.000
76.20397 577.000
76.22391 580.000
76.24386 604.000
76.26381 597.000
76.28375 621.000
76.30370 601.000
76.32365 639.000
76.34359 577.000
76.36354 584.000
76.38349 583.000
76.40344 605.000
76.42338 577.000
76.44333 575.000
76.46328 644.000
76.48322 569.000
76.50317 599.000
76.52312 613.000
76.54306 581.000
76.56301 627.000
76.58296 616.000
76.60291 619.000
76.62285 643.000
76.64280 598.000
76.66275 582.000
76.68269 616.000
76.70264 563.000
76.72259 567.000
76.74253 592.000
76.76248 592.000
76.78243 618.000
76.80238 588.000
76.82232 629.000
76.84227 556.000
76.86222 610.000
76.88216 592.000
76.90211 615.000
76.92206 601.000
76.94200 582.000
76.96195 569.000
76.98190 565.000
77.00184 572.000
77.02179 611.000
77.04174 579.000
77.06169 591.000
77.08163 617.000
77.10158 612.000
77.12153 541.000
77.14147 571.000
77.16142 578.000
77.18137 623.000
77.20131 593.000
77.22126 577.000
77.24121 621.000
77.26116 591.000
77.28110 588.000
77.30105 598.000
77.32100 596.000
77.34094 605.000
77.36089 616.000
77.38084 579.000
77.40078 592.000
77.42073 565.000
77.44068 572.000
77.46062 619.000
77.48057 581.000
77.50052 611.000
77.52047 587.000
77.54041 575.000
77.56036 593.000
77.58031 591.000
77.60025 605.000
77.62020 608.000
77.64015 596.000
77.66009 558.000
77.68004 579.000
77.69999 567.000
77.71994 579.000
77.73988 620.000
77.75983 556.000
77.77978 608.000
77.79972 553.000
77.81967 605.000
77.83962 611.000
77.85956 602.000
77.87951 591.000
77.89946 605.000
77.91940 610.000
77.93935 632.000
77.95930 584.000
77.97925 619.000
77.99919 621.000
78.01914 609.000
78.03909 642.000
78.05903 590.000
78.07898 583.000
78.09893 583.000
78.11887 636.000
78.13882 647.000
78.15877 608.000
78.17872 596.000
78.19866 649.000
78.21861 634.000
78.23856 636.000
78.25850 616.000
78.27845 653.000
78.29840 674.000
78.31834 642.000
78.33829 704.000
78.35824 627.000
78.37819 707.000
78.39813 731.000
78.41808 750.000
78.43803 690.000
78.45797 802.000
78.47792 780.000
78.49787 828.000
78.51781 824.000
78.53776 866.000
78.55771 940.000
78.57765 1020.000
78.59760 1049.000
78.61755 1092.000
78.63750 1126.000
78.65744 1195.000
78.67739 1229.000
78.69734 1252.000
78.71728 1237.000
78.73723 1233.000
78.75718 1177.000
78.77712 1147.000
78.79707 1144.000
78.81702 1054.000
78.83697 1050.000
78.85691 1131.000
78.87686 1085.000
78.89681 1054.000
78.91675 1074.000
78.93670 1057.000
78.95665 998.000
78.97659 972.000
78.99654 923.000
79.01649 916.000
79.03643 862.000
79.05638 841.000
79.07633 759.000
79.09628 738.000
79.11622 702.000
79.13617 728.000
79.15612 696.000
79.17606 645.000
79.19601 717.000
79.21596 685.000
79.23590 651.000
79.25585 640.000
79.27580 657.000
79.29575 610.000
79.31569 620.000
79.33564 579.000
79.35559 625.000
79.37553 595.000
79.39548 599.000
79.41543 580.000
79.43537 624.000
79.45532 647.000
79.47527 600.000
79.49521 636.000
79.51516 652.000
79.53511 585.000
79.55506 608.000
79.57500 589.000
79.59495 605.000
79.61490 614.000
79.63484 633.000
79.65479 613.000
79.67474 605.000
79.69468 597.000
79.71463 604.000
79.73458 579.000
79.75453 629.000
79.77447 633.000
79.79442 593.000
79.81437 604.000
79.83431 605.000
79.85426 641.000
79.87421 575.000
79.89415 575.000
79.91410 630.000
79.93405 586.000
79.95399 603.000
79.97394 628.000
79.99389 575.000
80.01384 604.000
80.03378 624.000
80.05373 624.000
80.07368 636.000
80.09362 571.000
80.11357 646.000
80.13352 641.000
80.15346 632.000
80.17341 594.000
80.19336 601.000
80.21331 603.000
80.23325 600.000
80.25320 612.000
80.27315 602.000
80.29309 683.000
80.31304 646.000
80.33299 616.000
80.35293 622.000
80.37288 638.000
80.39283 610.000
80.41278 581.000
80.43272 621.000
80.45267 575.000
80.47262 618.000
80.49256 616.000
80.51251 583.000
80.53246 615.000
80.55240 586.000
80.57235 613.000
80.59230 543.000
80.61224 586.000
80.63219 588.000
80.65214 627.000
80.67209 625.000
80.69203 536.000
80.71198 588.000
80.73193 562.000
80.75187 579.000
80.77182 650.000
80.79177 595.000
80.81171 623.000
80.83166 573.000
80.85161 542.000
80.87156 598.000
80.89150 520.000
80.91145 598.000
80.93140 566.000
80.95134 577.000
80.97129 624.000
80.99124 578.000
81.01118 552.000
81.03113 571.000
81.05108 588.000
81.07102 552.000
81.09097 609.000
81.11092 558.000
81.13087 610.000
81.15081 559.000
81.17076 555.000
81.19071 570.000
81.21065 577.000
81.23060 556.000
81.25055 591.000
81.27049 576.000
81.29044 555.000
81.31039 608.000
81.33034 617.000
81.35028 584.000
81.37023 595.000
81.39018 573.000
81.41012 600.000
81.43007 578.000
81.45002 590.000
81.46996 585.000
81.48991 553.000
81.50986 558.000
81.52980 611.000
81.54975 570.000
81.56970 574.000
81.58965 565.000
81.60959 584.000
81.62954 576.000
81.64949 539.000
81.66943 564.000
81.68938 601.000
81.70933 566.000
81.72927 626.000
81.74922 609.000
81.76917 562.000
81.78912 589.000
81.80906 572.000
81.82901 628.000
81.84896 606.000
81.86890 580.000
81.88885 597.000
81.90880 621.000
81.92874 619.000
81.94869 592.000
81.96864 601.000
81.98859 583.000
82.00853 582.000
82.02848 616.000
82.04843 622.000
82.06837 571.000
82.08832 586.000
82.10827 602.000
82.12821 608.000
82.14816 666.000
82.16811 581.000
82.18805 614.000
82.20800 616.000
82.22795 637.000
82.24790 623.000
82.26784 650.000
82.28779 669.000
82.30774 655.000
82.32768 634.000
82.34763 657.000
82.36758 653.000
82.38752 676.000
82.40747 687.000
82.42742 716.000
82.44737 724.000
82.46731 679.000
82.48726 728.000
82.50721 721.000
82.52715 717.000
82.54710 738.000
82.56705 697.000
82.58699 684.000
82.60694 732.000
82.62689 697.000
82.64683 618.000
82.66678 687.000
82.68673 703.000
82.70668 716.000
82.72662 624.000
82.74657 649.000
82.76652 591.000
82.78646 677.000
82.80641 620.000
82.82636 625.000
82.84630 622.000
82.86625 602.000
82.88620 624.000
82.90615 611.000
82.92609 627.000
82.94604 596.000
82.96599 596.000
82.98593 649.000
83.00588 633.000
83.02583 556.000
83.04577 598.000
83.06572 557.000
83.08567 600.000
83.10561 576.000
83.12556 621.000
83.14551 590.000
83.16546 593.000
83.18540 632.000
83.20535 616.000
83.22530 607.000
83.24524 614.000
83.26519 643.000
83.28514 602.000
83.30508 626.000
83.32503 630.000
83.34498 597.000
83.36493 611.000
83.38487 602.000
83.40482 615.000
83.42477 635.000
83.44471 648.000
83.46466 607.000
83.48461 688.000
83.50455 648.000
83.52450 687.000
83.54445 625.000
83.56440 654.000
83.58434 663.000
83.60429 668.000
83.62424 603.000
83.64418 647.000
83.66413 710.000
83.68408 627.000
83.70402 634.000
83.72397 612.000
83.74392 625.000
83.76386 596.000
83.78381 652.000
83.80376 665.000
83.82371 646.000
83.84365 610.000
83.86360 589.000
83.88355 612.000
83.90349 629.000
83.92344 654.000
83.94339 635.000
83.96333 583.000
83.98328 623.000
84.00323 573.000
84.02318 543.000
84.04312 593.000
84.06307 560.000
84.08302 599.000
84.10296 570.000
84.12291 609.000
84.14286 565.000
84.16280 593.000
84.18275 616.000
84.20270 569.000
84.22264 588.000
84.24259 568.000
84.26254 581.000
84.28249 612.000
84.30243 605.000
84.32238 568.000
84.34233 583.000
84.36227 611.000
84.38222 568.000
84.40217 590.000
84.42211 557.000
84.44206 596.000
84.46201 610.000
84.48196 586.000
84.50190 583.000
84.52185 579.000
84.54180 578.000
84.56174 615.000
84.58169 550.000
84.60164 607.000
84.62158 585.000
84.64153 571.000
84.66148 583.000
84.68142 566.000
84.70137 577.000
84.72132 570.000
84.74127 582.000
84.76121 555.000
84.78116 597.000
84.80111 567.000
84.82105 584.000
84.84100 573.000
84.86095 566.000
84.88089 563.000
84.90084 553.000
84.92079 554.000
84.94074 565.000
84.96068 578.000
84.98063 595.000
85.00058 595.000
85.02052 589.000
85.04047 576.000
85.06042 565.000
85.08036 594.000
85.10031 559.000
85.12026 541.000
85.14021 587.000
85.16015 584.000
85.18010 583.000
85.20005 625.000
85.21999 624.000
85.23994 589.000
85.25989 586.000
85.27983 609.000
85.29978 575.000
85.31973 534.000
85.33967 601.000
85.35962 613.000
85.37957 635.000
85.39952 594.000
85.41946 593.000
85.43941 557.000
85.45936 579.000
85.47930 560.000
85.49925 595.000
85.51920 601.000
85.53914 560.000
85.55909 566.000
85.57904 542.000
85.59899 581.000
85.61893 573.000
85.63888 597.000
85.65883 674.000
85.67877 580.000
85.69872 556.000
85.71867 630.000
85.73861 605.000
85.75856 561.000
85.77851 597.000
85.79845 599.000
85.81840 589.000
85.83835 615.000
85.85830 618.000
85.87824 588.000
85.89819 573.000
85.91814 602.000
85.93808 568.000
85.95803 546.000
85.97798 596.000
85.99792 584.000
86.01787 584.000
86.03782 535.000
86.05777 568.000
86.07771 591.000
86.09766 530.000
86.11761 611.000
86.13755 614.000
86.15750 539.000
86.17745 575.000
86.19739 540.000
86.21734 547.000
86.23729 571.000
86.25723 587.000
86.27718 551.000
86.29713 610.000
86.31708 588.000
86.33702 609.000
86.35697 574.000
86.37692 564.000
86.39686 589.000
86.41681 598.000
86.43676 573.000
86.45670 625.000
86.47665 499.000
86.49660 579.000
86.51655 573.000
86.53649 618.000
86.55644 610.000
86.57639 626.000
86.59633 631.000
86.61628 557.000
86.63623 582.000
86.65617 657.000
86.67612 604.000
86.69607 635.000
86.71602 678.000
86.73596 608.000
86.75591 569.000
86.77586 622.000
86.79580 601.000
86.81575 589.000
86.83570 613.000
86.85564 625.000
86.87559 623.000
86.89554 656.000
86.91548 659.000
86.93543 615.000
86.95538 628.000
86.97533 596.000
86.99527 603.000
87.01522 640.000
87.03517 599.000
87.05511 638.000
87.07506 615.000
87.09501 583.000
87.11495 611.000
87.13490 615.000
87.15485 614.000
87.17480 592.000
87.19474 583.000
87.21469 614.000
87.23464 592.000
87.25458 577.000
87.27453 596.000
87.29448 611.000
87.31442 586.000
87.33437 578.000
87.35432 576.000
87.37426 559.000
87.39421 626.000
87.41416 576.000
87.43411 645.000
87.45405 590.000
87.47400 579.000
87.49395 586.000
87.51389 587.000
87.53384 634.000
87.55379 594.000
87.57373 582.000
87.59368 579.000
87.61363 608.000
87.63358 567.000
87.65352 601.000
87.67347 607.000
87.69342 575.000
87.71336 591.000
87.73331 584.000
87.75326 573.000
87.77320 560.000
87.79315 542.000
87.81310 572.000
87.83304 612.000
87.85299 611.000
87.87294 598.000
87.89289 559.000
87.91283 569.000
87.93278 647.000
87.95273 558.000
87.97267 557.000
87.99262 572.000
88.01257 624.000
88.03251 552.000
88.05246 624.000
88.07241 603.000
88.09236 580.000
88.11230 598.000
88.13225 579.000
88.15220 563.000
88.17214 560.000
88.19209 599.000
88.21204 597.000
88.23198 603.000
88.25193 566.000
88.27188 574.000
88.29183 595.000
88.31177 557.000
88.33172 583.000
88.35167 582.000
88.37161 539.000
88.39156 617.000
88.41151 594.000
88.43145 614.000
88.45140 580.000
88.47135 603.000
88.49129 604.000
88.51124 574.000
88.53119 562.000
88.55114 590.000
88.57108 570.000
88.59103 585.000
88.61098 597.000
88.63092 628.000
88.65087 593.000
88.67082 569.000
88.69076 620.000
88.71071 584.000
88.73066 623.000
88.75061 589.000
88.77055 612.000
88.79050 611.000
88.81045 597.000
88.83039 625.000
88.85034 617.000
88.87029 626.000
88.89023 575.000
88.91018 635.000
88.93013 613.000
88.95007 667.000
88.97002 642.000
88.98997 558.000
89.00992 646.000
89.02986 600.000
89.04981 603.000
89.06976 678.000
89.08970 610.000
89.10965 599.000
89.12960 597.000
89.14954 618.000
89.16949 635.000
89.18944 652.000
89.20939 598.000
89.22933 655.000
89.24928 665.000
89.26923 672.000
89.28917 640.000
89.30912 608.000
89.32907 624.000
89.34901 637.000
89.36896 618.000
89.38891 634.000
89.40885 600.000
89.42880 645.000
89.44875 589.000
89.46870 632.000
89.48864 600.000
89.50859 654.000
89.52854 652.000
89.54848 593.000
89.56843 624.000
89.58838 588.000
89.60832 575.000
89.62827 616.000
89.64822 579.000
89.66817 638.000
89.68811 610.000
89.70806 603.000
89.72801 594.000
89.74795 612.000
89.76790 579.000
89.78785 602.000
89.80779 557.000
89.82774 578.000
89.84769 572.000
89.86764 578.000
89.88758 577.000
89.90753 649.000
89.92748 597.000
89.94742 610.000
89.96737 605.000
89.98732 562.000
90.00726 575.000
