10.00000 83.000
10.01995 71.000
10.03989 80.000
10.05984 86.000
10.07979 90.000
10.09973 75.000
10.11968 98.000
10.13963 76.000
10.15958 96.000
10.17952 86.000
10.19947 78.000
10.21942 69.000
10.23936 86.000
10.25931 68.000
10.27926 71.000
10.29920 96.000
10.31915 72.000
10.33910 65.000
10.35905 74.000
10.37899 77.000
10.39894 93.000
10.41889 80.000
10.43883 65.000
10.45878 85.000
10.47873 82.000
10.49867 77.000
10.51862 69.000
10.53857 77.000
10.55851 90.000
10.57846 87.000
10.59841 98.000
10.61836 81.000
10.63830 73.000
10.65825 92.000
10.67820 79.000
10.69814 84.000
10.71809 94.000
10.73804 79.000
10.75798 93.000
10.77793 80.000
10.79788 64.000
10.81783 74.000
10.83777 73.000
10.85772 82.000
10.87767 78.000
10.89761 76.000
10.91756 83.000
10.93751 84.000
10.95745 84.000
10.97740 76.000
10.99735 95.000
11.01730 87.000
11.03724 88.000
11.05719 78.000
11.07714 73.000
11.09708 75.000
11.11703 83.000
11.13698 76.000
11.15692 83.000
11.17687 79.000
11.19682 82.000
11.21676 78.000
11.23671 83.000
11.25666 85.000
11.27661 84.000
11.29655 88.000
11.31650 72.000
11.33645 77.000
11.35639 74.000
11.37634 78.000
11.39629 88.000
11.41623 86.000
11.43618 83.000
11.45613 80.000
11.47608 80.000
11.49602 94.000
11.51597 74.000
11.53592 77.000
11.55586 75.000
11.57581 73.000
11.59576 78.000
11.61570 83.000
11.63565 72.000
11.65560 72.000
11.67554 91.000
11.69549 79.000
11.71544 74.000
11.73539 85.000
11.75533 65.000
11.77528 71.000
11.79523 75.000
11.81517 85.000
11.83512 83.000
11.85507 86.000
11.87501 79.000
11.89496 87.000
11.91491 76.000
11.93486 75.000
11.95480 82.000
11.97475 80.000
11.99470 82.000
12.01464 74.000
12.03459 56.000
12.05454 80.000
12.07448 70.000
12.09443 80.000
12.11438 77.000
12.13432 80.000
12.15427 82.000
12.17422 103.000
12.19417 60.000
12.21411 73.000
12.23406 84.000
12.25401 62.000
12.27395 75.000
12.29390 84.000
12.31385 74.000
12.33379 79.000
12.35374 89.000
12.37369 72.000
12.39364 78.000
12.41358 77.000
12.43353 74.000
12.45348 71.000
12.47342 74.000
12.49337 77.000
12.51332 73.000
12.53326 78.000
12.55321 84.000
12.57316 92.000
12.59311 70.000
12.61305 73.000
12.63300 75.000
12.65295 63.000
12.67289 90.000
12.69284 82.000
12.71279 86.000
12.73273 86.000
12.75268 75.000
12.77263 85.000
12.79257 91.000
12.81252 97.000
12.83247 63.000
12.85242 87.000
12.87236 84.000
12.89231 94.000
12.91226 83.000
12.93220 98.000
12.95215 77.000
12.97210 73.000
12.99204 79.000
13.01199 75.000
13.03194 84.000
13.05189 81.000
13.07183 82.000
13.09178 78.000
13.11173 70.000
13.13167 82.000
13.15162 79.000
13.17157 78.000
13.19151 69.000
13.21146 85.000
13.23141 83.000
13.25135 74.000
13.27130 82.000
13.29125 97.000
13.31120 68.000
13.33114 78.000
13.35109 65.000
13.37104 71.000
13.39098 84.000
13.41093 81.000
13.43088 72.000
13.45082 75.000
13.47077 69.000
13.49072 77.000
13.51067 85.000
13.53061 65.000
13.55056 95.000
13.57051 87.000
13.59045 62.000
13.61040 87.000
13.63035 76.000
13.65029 70.000
13.67024 73.000
13.69019 62.000
13.71013 93.000
13.73008 80.000
13.75003 82.000
13.76998 70.000
13.78992 103.000
13.80987 77.000
13.82982 90.000
13.84976 86.000
13.86971 72.000
13.88966 83.000
13.90960 75.000
13.92955 81.000
13.94950 72.000
13.96945 72.000
13.98939 81.000
14.00934 82.000
14.02929 77.000
14.04923 71.000
14.06918 90.000
14.08913 74.000
14.10907 73.000
14.12902 73.000
14.14897 81.000
14.16892 83.000
14.18886 83.000
14.20881 94.000
14.22876 83.000
14.24870 70.000
14.26865 83.000
14.28860 59.000
14.30854 77.000
14.32849 75.000
14.34844 97.000
14.36838 76.000
14.38833 73.000
14.40828 74.000
14.42823 76.000
14.44817 69.000
14.46812 87.000
14.48807 71.000
14.50801 55.000
14.52796 75.000
14.54791 80.000
14.56785 72.000
14.58780 82.000
14.60775 80.000
14.62770 82.000
14.64764 83.000
14.66759 83.000
14.68754 57.000
14.70748 84.000
14.72743 88.000
14.74738 75.000
14.76732 78.000
14.78727 82.000
14.80722 91.000
14.82716 98.000
14.84711 90.000
14.86706 88.000
14.88701 71.000
14.90695 90.000
14.92690 86.000
14.94685 86.000
14.96679 102.000
14.98674 111.000
15.00669 97.000
15.02663 80.000
15.04658 93.000
15.06653 93.000
15.08648 101.000
15.10642 80.000
15.12637 88.000
15.14632 116.000
15.16626 94.000
15.18621 102.000
15.20616 105.000
15.22610 107.000
15.24605 124.000
15.26600 106.000
15.28594 108.000
15.30589 118.000
15.32584 123.000
15.34579 143.000
15.36573 148.000
15.38568 136.000
15.40563 138.000
15.42557 156.000
15.44552 162.000
15.46547 180.000
15.48541 155.000
15.50536 223.000
15.52531 192.000
15.54526 230.000
15.56520 272.000
15.58515 298.000
15.60510 349.000
15.62504 456.000
15.64499 496.000
15.66494 690.000
15.68488 860.000
15.70483 1127.000
15.72478 1451.000
15.74472 2034.000
15.76467 2553.000
15.78462 3109.000
15.80457 2972.000
15.82451 2807.000
15.84446 2410.000
15.86441 1838.000
15.88435 1268.000
15.90430 964.000
15.92425 747.000
15.94419 660.000
15.96414 652.000
15.98409 643.000
16.00404 770.000
16.02398 766.000
16.04393 896.000
16.06388 965.000
16.08382 1121.000
16.10377 1127.000
16.12372 1122.000
16.14366 1147.000
16.16361 1081.000
16.18356 878.000
16.20351 738.000
16.22345 595.000
16.24340 477.000
16.26335 335.000
16.28329 266.000
16.30324 254.000
16.32319 221.000
16.34313 172.000
16.36308 136.000
16.38303 145.000
16.40297 163.000
16.42292 144.000
16.44287 125.000
16.46282 124.000
16.48276 134.000
16.50271 117.000
16.52266 96.000
16.54260 122.000
16.56255 114.000
16.58250 102.000
16.60244 111.000
16.62239 125.000
16.64234 110.000
16.66229 108.000
16.68223 96.000
16.70218 109.000
16.72213 124.000
16.74207 123.000
16.76202 112.000
16.78197 113.000
16.80191 123.000
16.82186 109.000
16.84181 82.000
16.86175 80.000
16.88170 100.000
16.90165 101.000
16.92160 102.000
16.94154 81.000
16.96149 106.000
16.98144 93.000
17.00138 86.000
17.02133 84.000
17.04128 98.000
17.06122 80.000
17.08117 82.000
17.10112 86.000
17.12107 91.000
17.14101 78.000
17.16096 70.000
17.18091 96.000
17.20085 97.000
17.22080 76.000
17.24075 93.000
17.26069 79.000
17.28064 86.000
17.30059 71.000
17.32053 79.000
17.34048 95.000
17.36043 83.000
17.38038 86.000
17.40032 79.000
17.42027 91.000
17.44022 74.000
17.46016 82.000
17.48011 76.000
17.50006 90.000
17.52000 93.000
17.53995 91.000
17.55990 86.000
17.57985 87.000
17.59979 85.000
17.61974 69.000
17.63969 90.000
17.65963 76.000
17.67958 69.000
17.69953 79.000
17.71947 83.000
17.73942 76.000
17.75937 74.000
17.77932 96.000
17.79926 89.000
17.81921 74.000
17.83916 89.000
17.85910 80.000
17.87905 79.000
17.89900 92.000
17.91894 85.000
17.93889 65.000
17.95884 74.000
17.97878 78.000
17.99873 87.000
18.01868 93.000
18.03863 74.000
18.05857 93.000
18.07852 80.000
18.09847 76.000
18.11841 74.000
18.13836 67.000
18.15831 103.000
18.17825 86.000
18.19820 77.000
18.21815 96.000
18.23810 103.000
18.25804 125.000
18.27799 166.000
18.29794 171.000
18.31788 207.000
18.33783 230.000
18.35778 198.000
18.37772 168.000
18.39767 167.000
18.41762 158.000
18.43756 120.000
18.45751 104.000
18.47746 80.000
18.49741 94.000
18.51735 73.000
18.53730 100.000
18.55725 79.000
18.57719 76.000
18.59714 82.000
18.61709 92.000
18.63703 67.000
18.65698 77.000
18.67693 68.000
18.69688 65.000
18.71682 81.000
18.73677 88.000
18.75672 82.000
18.77666 81.000
18.79661 63.000
18.81656 76.000
18.83650 89.000
18.85645 69.000
18.87640 80.000
18.89634 76.000
18.91629 61.000
18.93624 73.000
18.95619 60.000
18.97613 72.000
18.99608 77.000
19.01603 89.000
19.03597 60.000
19.05592 75.000
19.07587 88.000
19.09581 79.000
19.11576 79.000
19.13571 65.000
19.15566 72.000
19.17560 72.000
19.19555 85.000
19.21550 75.000
19.23544 79.000
19.25539 68.000
19.27534 73.000
19.29528 78.000
19.31523 81.000
19.33518 79.000
19.35513 68.000
19.37507 66.000
19.39502 62.000
19.41497 66.000
19.43491 68.000
19.45486 74.000
19.47481 80.000
19.49475 77.000
19.51470 73.000
19.53465 64.000
19.55459 80.000
19.57454 71.000
19.59449 56.000
19.61444 57.000
19.63438 80.000
19.65433 51.000
19.67428 92.000
19.69422 64.000
19.71417 72.000
19.73412 69.000
19.75406 68.000
19.77401 74.000
19.79396 73.000
19.81391 70.000
19.83385 84.000
19.85380 77.000
19.87375 78.000
19.89369 80.000
19.91364 70.000
19.93359 96.000
19.95353 76.000
19.97348 60.000
19.99343 71.000
20.01337 70.000
20.03332 87.000
20.05327 70.000
20.07322 65.000
20.09316 78.000
20.11311 71.000
20.13306 84.000
20.15300 61.000
20.17295 79.000
20.19290 69.000
20.21284 76.000
20.23279 77.000
20.25274 64.000
20.27269 78.000
20.29263 72.000
20.31258 63.000
20.33253 80.000
20.35247 72.000
20.37242 66.000
20.39237 65.000
20.41231 78.000
20.43226 79.000
20.45221 76.000
20.47215 85.000
20.49210 70.000
20.51205 78.000
20.53200 81.000
20.55194 78.000
20.57189 86.000
20.59184 73.000
20.61178 83.000
20.63173 85.000
20.65168 85.000
20.67162 91.000
20.69157 96.000
20.71152 106.000
20.73147 92.000
20.75141 117.000
20.77136 105.000
20.79131 125.000
20.81125 131.000
20.83120 123.000
20.85115 112.000
20.87109 122.000
20.89104 122.000
20.91099 122.000
20.93094 115.000
20.95088 123.000
20.97083 101.000
20.99078 95.000
21.01072 90.000
21.03067 88.000
21.05062 87.000
21.07056 83.000
21.09051 87.000
21.11046 79.000
21.13040 77.000
21.15035 71.000
21.17030 67.000
21.19025 68.000
21.21019 71.000
21.23014 68.000
21.25009 76.000
21.27003 64.000
21.28998 84.000
21.30993 67.000
21.32987 80.000
21.34982 89.000
21.36977 81.000
21.38972 69.000
21.40966 77.000
21.42961 87.000
21.44956 71.000
21.46950 65.000
21.48945 70.000
21.50940 78.000
21.52934 60.000
21.54929 86.000
21.56924 82.000
21.58918 78.000
21.60913 58.000
21.62908 77.000
21.64903 97.000
21.66897 60.000
21.68892 67.000
21.70887 71.000
21.72881 74.000
21.74876 85.000
21.76871 74.000
21.78865 74.000
21.80860 86.000
21.82855 73.000
21.84850 87.000
21.86844 73.000
21.88839 77.000
21.90834 61.000
21.92828 91.000
21.94823 84.000
21.96818 84.000
21.98812 69.000
22.00807 83.000
22.02802 74.000
22.04796 65.000
22.06791 71.000
22.08786 66.000
22.10781 92.000
22.12775 77.000
22.14770 69.000
22.16765 65.000
22.18759 73.000
22.20754 60.000
22.22749 77.000
22.24743 79.000
22.26738 59.000
22.28733 80.000
22.30728 70.000
22.32722 79.000
22.34717 81.000
22.36712 69.000
22.38706 65.000
22.40701 73.000
22.42696 70.000
22.44690 66.000
22.46685 78.000
22.48680 86.000
22.50675 82.000
22.52669 83.000
22.54664 87.000
22.56659 64.000
22.58653 62.000
22.60648 68.000
22.62643 69.000
22.64637 82.000
22.66632 77.000
22.68627 94.000
22.70621 78.000
22.72616 83.000
22.74611 76.000
22.76606 74.000
22.78600 92.000
22.80595 81.000
22.82590 74.000
22.84584 72.000
22.86579 75.000
22.88574 72.000
22.90568 84.000
22.92563 54.000
22.94558 97.000
22.96553 85.000
22.98547 74.000
23.00542 86.000
23.02537 61.000
23.04531 67.000
23.06526 68.000
23.08521 59.000
23.10515 67.000
23.12510 82.000
23.14505 71.000
23.16499 85.000
23.18494 68.000
23.20489 76.000
23.22484 84.000
23.24478 72.000
23.26473 80.000
23.28468 80.000
23.30462 79.000
23.32457 75.000
23.34452 56.000
23.36446 67.000
23.38441 81.000
23.40436 71.000
23.42431 87.000
23.44425 84.000
23.46420 58.000
23.48415 77.000
23.50409 84.000
23.52404 72.000
23.54399 72.000
23.56393 75.000
23.58388 55.000
23.60383 68.000
23.62377 71.000
23.64372 87.000
23.66367 81.000
23.68362 66.000
23.70356 79.000
23.72351 72.000
23.74346 83.000
23.76340 60.000
23.78335 66.000
23.80330 78.000
23.82324 77.000
23.84319 71.000
23.86314 76.000
23.88309 87.000
23.90303 79.000
23.92298 84.000
23.94293 76.000
23.96287 79.000
23.98282 67.000
24.00277 83.000
24.02271 66.000
24.04266 75.000
24.06261 99.000
24.08256 71.000
24.10250 82.000
24.12245 87.000
24.14240 82.000
24.16234 82.000
24.18229 70.000
24.20224 74.000
24.22218 77.000
24.24213 65.000
24.26208 84.000
24.28202 65.000
24.30197 89.000
24.32192 57.000
24.34187 83.000
24.36181 78.000
24.38176 76.000
24.40171 81.000
24.42165 78.000
24.44160 92.000
24.46155 74.000
24.48149 72.000
24.50144 67.000
24.52139 76.000
24.54134 77.000
24.56128 75.000
24.58123 65.000
24.60118 85.000
24.62112 86.000
24.64107 94.000
24.66102 75.000
24.68096 66.000
24.70091 76.000
24.72086 79.000
24.74080 77.000
24.76075 77.000
24.78070 68.000
24.80065 83.000
24.82059 100.000
24.84054 93.000
24.86049 86.000
24.88043 95.000
24.90038 88.000
24.92033 98.000
24.94027 77.000
24.96022 82.000
24.98017 86.000
25.00012 96.000
25.02006 93.000
25.04001 94.000
25.05996 66.000
25.07990 77.000
25.09985 87.000
25.11980 76.000
25.13974 100.000
25.15969 62.000
25.17964 87.000
25.19958 90.000
25.21953 97.000
25.23948 81.000
25.25943 68.000
25.27937 69.000
25.29932 74.000
25.31927 79.000
25.33921 70.000
25.35916 78.000
25.37911 85.000
25.39905 81.000
25.41900 87.000
25.43895 68.000
25.45890 80.000
25.47884 83.000
25.49879 80.000
25.51874 69.000
25.53868 89.000
25.55863 74.000
25.57858 81.000
25.59852 73.000
25.61847 86.000
25.63842 77.000
25.65837 77.000
25.67831 65.000
25.69826 72.000
25.71821 76.000
25.73815 85.000
25.75810 81.000
25.77805 79.000
25.79799 67.000
25.81794 80.000
25.83789 75.000
25.85783 77.000
25.87778 65.000
25.89773 77.000
25.91768 69.000
25.93762 88.000
25.95757 67.000
25.97752 75.000
25.99746 63.000
26.01741 64.000
26.03736 76.000
26.05730 81.000
26.07725 97.000
26.09720 88.000
26.11715 70.000
26.13709 98.000
26.15704 102.000
26.17699 73.000
26.19693 77.000
26.21688 90.000
26.23683 71.000
26.25677 81.000
26.27672 81.000
26.29667 89.000
26.31661 75.000
26.33656 81.000
26.35651 96.000
26.37646 63.000
26.39640 89.000
26.41635 66.000
26.43630 90.000
26.45624 86.000
26.47619 74.000
26.49614 80.000
26.51608 74.000
26.53603 77.000
26.55598 69.000
26.57593 81.000
26.59587 86.000
26.61582 103.000
26.63577 68.000
26.65571 75.000
26.67566 79.000
26.69561 81.000
26.71555 86.000
26.73550 81.000
26.75545 79.000
26.77539 78.000
26.79534 84.000
26.81529 83.000
26.83524 82.000
26.85518 84.000
26.87513 87.000
26.89508 80.000
26.91502 90.000
26.93497 82.000
26.95492 84.000
26.97486 86.000
26.99481 79.000
27.01476 73.000
27.03471 64.000
27.05465 70.000
27.07460 95.000
27.09455 87.000
27.11449 68.000
27.13444 74.000
27.15439 76.000
27.17433 87.000
27.19428 78.000
27.21423 66.000
27.23417 92.000
27.25412 88.000
27.27407 83.000
27.29402 82.000
27.31396 82.000
27.33391 81.000
27.35386 74.000
27.37380 72.000
27.39375 82.000
27.41370 75.000
27.43364 79.000
27.45359 91.000
27.47354 84.000
27.49349 71.000
27.51343 76.000
27.53338 86.000
27.55333 87.000
27.57327 81.000
27.59322 84.000
27.61317 78.000
27.63311 77.000
27.65306 76.000
27.67301 104.000
27.69296 70.000
27.71290 79.000
27.73285 84.000
27.75280 73.000
27.77274 93.000
27.79269 74.000
27.81264 73.000
27.83258 80.000
27.85253 74.000
27.87248 82.000
27.89242 86.000
27.91237 84.000
27.93232 83.000
27.95227 80.000
27.97221 78.000
27.99216 76.000
28.01211 69.000
28.03205 74.000
28.05200 66.000
28.07195 83.000
28.09189 87.000
28.11184 73.000
28.13179 93.000
28.15174 87.000
28.17168 71.000
28.19163 77.000
28.21158 89.000
28.23152 81.000
28.25147 81.000
28.27142 65.000
28.29136 82.000
28.31131 91.000
28.33126 87.000
28.35120 89.000
28.37115 91.000
28.39110 90.000
28.41105 79.000
28.43099 90.000
28.45094 88.000
28.47089 100.000
28.49083 101.000
28.51078 82.000
28.53073 71.000
28.55067 71.000
28.57062 81.000
28.59057 88.000
28.61052 85.000
28.63046 82.000
28.65041 85.000
28.67036 77.000
28.69030 88.000
28.71025 85.000
28.73020 87.000
28.75014 73.000
28.77009 81.000
28.79004 89.000
28.80998 73.000
28.82993 76.000
28.84988 100.000
28.86983 80.000
28.88977 80.000
28.90972 79.000
28.92967 82.000
28.94961 76.000
28.96956 71.000
28.98951 78.000
29.00945 75.000
29.02940 74.000
29.04935 94.000
29.06930 82.000
29.08924 86.000
29.10919 73.000
29.12914 100.000
29.14908 79.000
29.16903 87.000
29.18898 105.000
29.20892 113.000
29.22887 109.000
29.24882 141.000
29.26877 137.000
29.28871 137.000
29.30866 130.000
29.32861 129.000
29.34855 135.000
29.36850 141.000
29.38845 119.000
29.40839 116.000
29.42834 97.000
29.44829 115.000
29.46823 107.000
29.48818 89.000
29.50813 91.000
29.52808 88.000
29.54802 77.000
29.56797 95.000
29.58792 109.000
29.60786 102.000
29.62781 86.000
29.64776 90.000
29.66770 97.000
29.68765 97.000
29.70760 83.000
29.72755 79.000
29.74749 85.000
29.76744 94.000
29.78739 80.000
29.80733 87.000
29.82728 93.000
29.84723 108.000
29.86717 76.000
29.88712 104.000
29.90707 96.000
29.92701 87.000
29.94696 94.000
29.96691 85.000
29.98686 102.000
30.00680 116.000
30.02675 128.000
30.04670 125.000
30.06664 135.000
30.08659 160.000
30.10654 182.000
30.12648 205.000
30.14643 285.000
30.16638 291.000
30.18633 356.000
30.20627 375.000
30.22622 431.000
30.24617 402.000
30.26611 385.000
30.28606 318.000
30.30601 284.000
30.32595 272.000
30.34590 219.000
30.36585 194.000
30.38579 152.000
30.40574 128.000
30.42569 131.000
30.44564 103.000
30.46558 102.000
30.48553 91.000
30.50548 110.000
30.52542 85.000
30.54537 105.000
30.56532 93.000
30.58526 89.000
30.60521 77.000
30.62516 83.000
30.64511 79.000
30.66505 90.000
30.68500 77.000
30.70495 94.000
30.72489 96.000
30.74484 102.000
30.76479 93.000
30.78473 91.000
30.80468 84.000
30.82463 81.000
30.84458 90.000
30.86452 99.000
30.88447 84.000
30.90442 82.000
30.92436 79.000
30.94431 93.000
30.96426 80.000
30.98420 79.000
31.00415 88.000
31.02410 72.000
31.04404 76.000
31.06399 86.000
31.08394 78.000
31.10389 96.000
31.12383 73.000
31.14378 70.000
31.16373 92.000
31.18367 90.000
31.20362 94.000
31.22357 103.000
31.24351 100.000
31.26346 88.000
31.28341 109.000
31.30336 94.000
31.32330 98.000
31.34325 105.000
31.36320 87.000
31.38314 82.000
31.40309 95.000
31.42304 86.000
31.44298 97.000
31.46293 88.000
31.48288 97.000
31.50282 73.000
31.52277 86.000
31.54272 95.000
31.56267 94.000
31.58261 88.000
31.60256 94.000
31.62251 95.000
31.64245 94.000
31.66240 101.000
31.68235 83.000
31.70229 112.000
31.72224 98.000
31.74219 103.000
31.76214 104.000
31.78208 103.000
31.80203 116.000
31.82198 132.000
31.84192 128.000
31.86187 129.000
31.88182 165.000
31.90176 193.000
31.92171 240.000
31.94166 239.000
31.96160 306.000
31.98155 317.000
32.00150 375.000
32.02145 344.000
32.04139 334.000
32.06134 305.000
32.08129 303.000
32.10123 254.000
32.12118 237.000
32.14113 192.000
32.16107 178.000
32.18102 142.000
32.20097 126.000
32.22092 109.000
32.24086 114.000
32.26081 103.000
32.28076 126.000
32.30070 123.000
32.32065 102.000
32.34060 105.000
32.36054 108.000
32.38049 105.000
32.40044 127.000
32.42039 105.000
32.44033 119.000
32.46028 126.000
32.48023 102.000
32.50017 120.000
32.52012 138.000
32.54007 123.000
32.56001 144.000
32.57996 146.000
32.59991 160.000
32.61985 151.000
32.63980 198.000
32.65975 145.000
32.67970 193.000
32.69964 188.000
32.71959 181.000
32.73954 176.000
32.75948 188.000
32.77943 198.000
32.79938 163.000
32.81932 147.000
32.83927 155.000
32.85922 148.000
32.87917 136.000
32.89911 112.000
32.91906 85.000
32.93901 103.000
32.95895 90.000
32.97890 118.000
32.99885 97.000
33.01879 102.000
33.03874 78.000
33.05869 103.000
33.07863 99.000
33.09858 81.000
33.11853 97.000
33.13848 102.000
33.15842 94.000
33.17837 85.000
33.19832 103.000
33.21826 79.000
33.23821 81.000
33.25816 76.000
33.27810 72.000
33.29805 86.000
33.31800 87.000
33.33795 88.000
33.35789 99.000
33.37784 67.000
33.39779 88.000
33.41773 80.000
33.43768 62.000
33.45763 93.000
33.47757 101.000
33.49752 78.000
33.51747 86.000
33.53741 86.000
33.55736 77.000
33.57731 93.000
33.59726 86.000
33.61720 95.000
33.63715 91.000
33.65710 84.000
33.67704 82.000
33.69699 78.000
33.71694 100.000
33.73688 80.000
33.75683 76.000
33.77678 100.000
33.79673 91.000
33.81667 78.000
33.83662 95.000
33.85657 82.000
33.87651 97.000
33.89646 100.000
33.91641 90.000
33.93635 85.000
33.95630 108.000
33.97625 100.000
33.99620 110.000
34.01614 118.000
34.03609 96.000
34.05604 92.000
34.07598 113.000
34.09593 92.000
34.11588 106.000
34.13582 123.000
34.15577 96.000
34.17572 105.000
34.19566 106.000
34.21561 136.000
34.23556 121.000
34.25551 96.000
34.27545 109.000
34.29540 107.000
34.31535 105.000
34.33529 124.000
34.35524 133.000
34.37519 132.000
34.39513 122.000
34.41508 134.000
34.43503 129.000
34.45498 140.000
34.47492 130.000
34.49487 113.000
34.51482 143.000
34.53476 124.000
34.55471 135.000
34.57466 121.000
34.59460 125.000
34.61455 138.000
34.63450 97.000
34.65444 118.000
34.67439 119.000
34.69434 120.000
34.71429 133.000
34.73423 133.000
34.75418 114.000
34.77413 128.000
34.79407 119.000
34.81402 117.000
34.83397 108.000
34.85391 118.000
34.87386 114.000
34.89381 116.000
34.91376 116.000
34.93370 109.000
34.95365 111.000
34.97360 92.000
34.99354 83.000
35.01349 110.000
35.03344 103.000
35.05338 113.000
35.07333 114.000
35.09328 114.000
35.11322 103.000
35.13317 98.000
35.15312 120.000
35.17307 130.000
35.19301 132.000
35.21296 129.000
35.23291 138.000
35.25285 158.000
35.27280 152.000
35.29275 142.000
35.31269 151.000
35.33264 192.000
35.35259 229.000
35.37254 268.000
35.39248 320.000
35.41243 394.000
35.43238 455.000
35.45232 554.000
35.47227 694.000
35.49222 753.000
35.51216 843.000
35.53211 978.000
35.55206 1185.000
35.57201 1293.000
35.59195 1497.000
35.61190 1531.000
35.63185 1516.000
35.65179 1494.000
35.67174 1263.000
35.69169 1179.000
35.71163 995.000
35.73158 858.000
35.75153 699.000
35.77147 558.000
35.79142 483.000
35.81137 345.000
35.83132 307.000
35.85126 254.000
35.87121 226.000
35.89116 216.000
35.91110 156.000
35.93105 156.000
35.95100 140.000
35.97094 115.000
35.99089 143.000
36.01084 127.000
36.03079 121.000
36.05073 132.000
36.07068 127.000
36.09063 130.000
36.11057 115.000
36.13052 124.000
36.15047 116.000
36.17041 98.000
36.19036 106.000
36.21031 105.000
36.23025 114.000
36.25020 127.000
36.27015 109.000
36.29010 128.000
36.31004 105.000
36.32999 117.000
36.34994 105.000
36.36988 115.000
36.38983 107.000
36.40978 136.000
36.42972 109.000
36.44967 118.000
36.46962 117.000
36.48957 121.000
36.50951 119.000
36.52946 140.000
36.54941 125.000
36.56935 124.000
36.58930 132.000
36.60925 144.000
36.62919 168.000
36.64914 163.000
36.66909 174.000
36.68903 203.000
36.70898 263.000
36.72893 251.000
36.74888 275.000
36.76882 283.000
36.78877 301.000
36.80872 311.000
36.82866 286.000
36.84861 284.000
36.86856 267.000
36.88850 293.000
36.90845 255.000
36.92840 235.000
36.94835 217.000
36.96829 222.000
36.98824 270.000
37.00819 242.000
37.02813 249.000
37.04808 267.000
37.06803 379.000
37.08797 458.000
37.10792 565.000
37.12787 590.000
37.14781 566.000
37.16776 585.000
37.18771 524.000
37.20766 548.000
37.22760 473.000
37.24755 424.000
37.26750 366.000
37.28744 337.000
37.30739 240.000
37.32734 225.000
37.34728 214.000
37.36723 179.000
37.38718 178.000
37.40713 114.000
37.42707 138.000
37.44702 146.000
37.46697 118.000
37.48691 100.000
37.50686 103.000
37.52681 108.000
37.54675 90.000
37.56670 102.000
37.58665 99.000
37.60660 88.000
37.62654 83.000
37.64649 105.000
37.66644 101.000
37.68638 105.000
37.70633 97.000
37.72628 96.000
37.74622 92.000
37.76617 89.000
37.78612 99.000
37.80606 111.000
37.82601 90.000
37.84596 101.000
37.86591 95.000
37.88585 99.000
37.90580 98.000
37.92575 110.000
37.94569 118.000
37.96564 85.000
37.98559 105.000
38.00553 81.000
38.02548 94.000
38.04543 77.000
38.06538 98.000
38.08532 97.000
38.10527 91.000
38.12522 92.000
38.14516 99.000
38.16511 101.000
38.18506 81.000
38.20500 97.000
38.22495 76.000
38.24490 82.000
38.26484 90.000
38.28479 86.000
38.30474 92.000
38.32469 93.000
38.34463 70.000
38.36458 106.000
38.38453 101.000
38.40447 84.000
38.42442 82.000
38.44437 96.000
38.46431 95.000
38.48426 101.000
38.50421 82.000
38.52416 73.000
38.54410 107.000
38.56405 90.000
38.58400 90.000
38.60394 87.000
38.62389 102.000
38.64384 104.000
38.66378 116.000
38.68373 109.000
38.70368 112.000
38.72362 101.000
38.74357 118.000
38.76352 99.000
38.78347 125.000
38.80341 114.000
38.82336 119.000
38.84331 159.000
38.86325 157.000
38.88320 168.000
38.90315 150.000
38.92309 181.000
38.94304 214.000
38.96299 219.000
38.98294 259.000
39.00288 319.000
39.02283 441.000
39.04278 502.000
39.06272 599.000
39.08267 666.000
39.10262 641.000
39.12256 702.000
39.14251 726.000
39.16246 694.000
39.18241 691.000
39.20235 706.000
39.22230 637.000
39.24225 564.000
39.26219 553.000
39.28214 440.000
39.30209 461.000
39.32203 346.000
39.34198 330.000
39.36193 299.000
39.38187 283.000
39.40182 240.000
39.42177 232.000
39.44172 160.000
39.46166 149.000
39.48161 146.000
39.50156 142.000
39.52150 151.000
39.54145 141.000
39.56140 116.000
39.58134 137.000
39.60129 94.000
39.62124 100.000
39.64119 104.000
39.66113 102.000
39.68108 112.000
39.70103 96.000
39.72097 98.000
39.74092 97.000
39.76087 99.000
39.78081 109.000
39.80076 102.000
39.82071 100.000
39.84065 98.000
39.86060 83.000
39.88055 88.000
39.90050 86.000
39.92044 96.000
39.94039 92.000
39.96034 92.000
39.98028 101.000
40.00023 82.000
40.02018 106.000
40.04012 86.000
40.06007 91.000
40.08002 89.000
40.09997 99.000
40.11991 87.000
40.13986 92.000
40.15981 87.000
40.17975 75.000
40.19970 85.000
40.21965 84.000
40.23959 92.000
40.25954 97.000
40.27949 80.000
40.29943 67.000
40.31938 80.000
40.33933 102.000
40.35928 78.000
40.37922 96.000
40.39917 100.000
40.41912 80.000
40.43906 94.000
40.45901 90.000
40.47896 71.000
40.49890 84.000
40.51885 103.000
40.53880 90.000
40.55875 107.000
40.57869 85.000
40.59864 92.000
40.61859 80.000
40.63853 81.000
40.65848 96.000
40.67843 96.000
40.69837 77.000
40.71832 76.000
40.73827 96.000
40.75822 98.000
40.77816 84.000
40.79811 90.000
40.81806 93.000
40.83800 91.000
40.85795 103.000
40.87790 96.000
40.89784 97.000
40.91779 95.000
40.93774 95.000
40.95768 102.000
40.97763 100.000
40.99758 104.000
41.01753 102.000
41.03747 92.000
41.05742 99.000
41.07737 92.000
41.09731 99.000
41.11726 107.000
41.13721 101.000
41.15715 112.000
41.17710 100.000
41.19705 113.000
41.21700 119.000
41.23694 119.000
41.25689 122.000
41.27684 145.000
41.29678 149.000
41.31673 138.000
41.33668 161.000
41.35662 154.000
41.37657 157.000
41.39652 204.000
41.41646 191.000
41.43641 214.000
41.45636 301.000
41.47631 316.000
41.49625 407.000
41.51620 488.000
41.53615 672.000
41.55609 795.000
41.57604 957.000
41.59599 1082.000
41.61593 1129.000
41.63588 1077.000
41.65583 1077.000
41.67578 988.000
41.69572 892.000
41.71567 882.000
41.73562 696.000
41.75556 663.000
41.77551 537.000
41.79546 424.000
41.81540 344.000
41.83535 286.000
41.85530 250.000
41.87524 219.000
41.89519 208.000
41.91514 165.000
41.93509 177.000
41.95503 155.000
41.97498 130.000
41.99493 125.000
42.01487 115.000
42.03482 111.000
42.05477 136.000
42.07471 123.000
42.09466 121.000
42.11461 133.000
42.13456 94.000
42.15450 89.000
42.17445 102.000
42.19440 107.000
42.21434 102.000
42.23429 79.000
42.25424 104.000
42.27418 95.000
42.29413 80.000
42.31408 117.000
42.33403 90.000
42.35397 110.000
42.37392 95.000
42.39387 104.000
42.41381 106.000
42.43376 92.000
42.45371 93.000
42.47365 108.000
42.49360 78.000
42.51355 97.000
42.53349 109.000
42.55344 91.000
42.57339 115.000
42.59334 83.000
42.61328 106.000
42.63323 99.000
42.65318 112.000
42.67312 111.000
42.69307 114.000
42.71302 85.000
42.73296 98.000
42.75291 80.000
42.77286 100.000
42.79281 98.000
42.81275 112.000
42.83270 126.000
42.85265 130.000
42.87259 121.000
42.89254 139.000
42.91249 133.000
42.93243 154.000
42.95238 160.000
42.97233 149.000
42.99227 155.000
43.01222 201.000
43.03217 225.000
43.05212 255.000
43.07206 329.000
43.09201 492.000
43.11196 598.000
43.13190 795.000
43.15185 923.000
43.17180 1020.000
43.19174 978.000
43.21169 972.000
43.23164 933.000
43.25159 984.000
43.27153 991.000
43.29148 945.000
43.31143 866.000
43.33137 750.000
43.35132 664.000
43.37127 630.000
43.39121 543.000
43.41116 474.000
43.43111 386.000
43.45105 353.000
43.47100 345.000
43.49095 274.000
43.51090 240.000
43.53084 214.000
43.55079 174.000
43.57074 174.000
43.59068 142.000
43.61063 135.000
43.63058 119.000
43.65052 123.000
43.67047 109.000
43.69042 108.000
43.71037 102.000
43.73031 98.000
43.75026 101.000
43.77021 100.000
43.79015 88.000
43.81010 93.000
43.83005 115.000
43.84999 73.000
43.86994 112.000
43.88989 88.000
43.90984 83.000
43.92978 80.000
43.94973 87.000
43.96968 84.000
43.98962 91.000
44.00957 73.000
44.02952 105.000
44.04946 89.000
44.06941 80.000
44.08936 88.000
44.10930 84.000
44.12925 71.000
44.14920 99.000
44.16915 84.000
44.18909 97.000
44.20904 89.000
44.22899 85.000
44.24893 85.000
44.26888 89.000
44.28883 83.000
44.30877 83.000
44.32872 92.000
44.34867 77.000
44.36862 100.000
44.38856 95.000
44.40851 101.000
44.42846 85.000
44.44840 97.000
44.46835 77.000
44.48830 99.000
44.50824 74.000
44.52819 87.000
44.54814 89.000
44.56808 83.000
44.58803 87.000
44.60798 84.000
44.62793 88.000
44.64787 88.000
44.66782 89.000
44.68777 93.000
44.70771 83.000
44.72766 86.000
44.74761 91.000
44.76755 87.000
44.78750 83.000
44.80745 80.000
44.82740 107.000
44.84734 89.000
44.86729 114.000
44.88724 91.000
44.90718 116.000
44.92713 104.000
44.94708 124.000
44.96702 103.000
44.98697 105.000
45.00692 100.000
45.02686 114.000
45.04681 97.000
45.06676 111.000
45.08671 116.000
45.10665 79.000
45.12660 62.000
45.14655 104.000
45.16649 94.000
45.18644 78.000
45.20639 81.000
45.22633 91.000
45.24628 89.000
45.26623 93.000
45.28618 80.000
45.30612 76.000
45.32607 84.000
45.34602 90.000
45.36596 89.000
45.38591 89.000
45.40586 85.000
45.42580 66.000
45.44575 86.000
45.46570 85.000
45.48565 69.000
45.50559 78.000
45.52554 85.000
45.54549 82.000
45.56543 90.000
45.58538 64.000
45.60533 79.000
45.62527 79.000
45.64522 93.000
45.66517 81.000
45.68511 88.000
45.70506 99.000
45.72501 82.000
45.74496 73.000
45.76490 75.000
45.78485 77.000
45.80480 88.000
45.82474 73.000
45.84469 77.000
45.86464 98.000
45.88458 71.000
45.90453 72.000
45.92448 70.000
45.94443 59.000
45.96437 66.000
45.98432 76.000
46.00427 68.000
46.02421 76.000
46.04416 65.000
46.06411 78.000
46.08405 71.000
46.10400 77.000
46.12395 82.000
46.14389 88.000
46.16384 74.000
46.18379 62.000
46.20374 71.000
46.22368 67.000
46.24363 80.000
46.26358 88.000
46.28352 72.000
46.30347 98.000
46.32342 67.000
46.34336 74.000
46.36331 83.000
46.38326 79.000
46.40321 72.000
46.42315 82.000
46.44310 73.000
46.46305 78.000
46.48299 79.000
46.50294 64.000
46.52289 77.000
46.54283 77.000
46.56278 89.000
46.58273 69.000
46.60267 77.000
46.62262 73.000
46.64257 69.000
46.66252 78.000
46.68246 81.000
46.70241 81.000
46.72236 67.000
46.74230 76.000
46.76225 72.000
46.78220 89.000
46.80214 83.000
46.82209 76.000
46.84204 68.000
46.86199 75.000
46.88193 67.000
46.90188 77.000
46.92183 74.000
46.94177 79.000
46.96172 68.000
46.98167 103.000
47.00161 69.000
47.02156 75.000
47.04151 84.000
47.06146 66.000
47.08140 79.000
47.10135 73.000
47.12130 84.000
47.14124 69.000
47.16119 76.000
47.18114 78.000
47.20108 71.000
47.22103 70.000
47.24098 77.000
47.26092 68.000
47.28087 90.000
47.30082 73.000
47.32077 63.000
47.34071 79.000
47.36066 92.000
47.38061 76.000
47.40055 99.000
47.42050 99.000
47.44045 73.000
47.46039 78.000
47.48034 95.000
47.50029 96.000
47.52024 89.000
47.54018 91.000
47.56013 78.000
47.58008 104.000
47.60002 73.000
47.61997 80.000
47.63992 93.000
47.65986 85.000
47.67981 74.000
47.69976 83.000
47.71970 81.000
47.73965 107.000
47.75960 87.000
47.77955 89.000
47.79949 90.000
47.81944 89.000
47.83939 84.000
47.85933 101.000
47.87928 99.000
47.89923 82.000
47.91917 98.000
47.93912 95.000
47.95907 101.000
47.97902 93.000
47.99896 94.000
48.01891 110.000
48.03886 108.000
48.05880 92.000
48.07875 102.000
48.09870 98.000
48.11864 106.000
48.13859 84.000
48.15854 97.000
48.17848 99.000
48.19843 113.000
48.21838 126.000
48.23833 102.000
48.25827 115.000
48.27822 123.000
48.29817 143.000
48.31811 131.000
48.33806 132.000
48.35801 146.000
48.37795 171.000
48.39790 170.000
48.41785 175.000
48.43780 217.000
48.45774 204.000
48.47769 287.000
48.49764 311.000
48.51758 389.000
48.53753 428.000
48.55748 521.000
48.57742 580.000
48.59737 608.000
48.61732 621.000
48.63726 587.000
48.65721 570.000
48.67716 597.000
48.69711 568.000
48.71705 603.000
48.73700 504.000
48.75695 474.000
48.77689 423.000
48.79684 333.000
48.81679 343.000
48.83673 295.000
48.85668 238.000
48.87663 194.000
48.89658 196.000
48.91652 202.000
48.93647 158.000
48.95642 153.000
48.97636 145.000
48.99631 145.000
49.01626 126.000
49.03620 106.000
49.05615 113.000
49.07610 113.000
49.09605 100.000
49.11599 86.000
49.13594 114.000
49.15589 95.000
49.17583 104.000
49.19578 99.000
49.21573 104.000
49.23567 95.000
49.25562 80.000
49.27557 91.000
49.29551 89.000
49.31546 95.000
49.33541 76.000
49.35536 108.000
49.37530 65.000
49.39525 102.000
49.41520 89.000
49.43514 90.000
49.45509 100.000
49.47504 105.000
49.49498 81.000
49.51493 87.000
49.53488 78.000
49.55483 104.000
49.57477 79.000
49.59472 96.000
49.61467 85.000
49.63461 76.000
49.65456 82.000
49.67451 85.000
49.69445 96.000
49.71440 89.000
49.73435 82.000
49.75429 79.000
49.77424 84.000
49.79419 73.000
49.81414 60.000
49.83408 71.000
49.85403 80.000
49.87398 79.000
49.89392 67.000
49.91387 71.000
49.93382 78.000
49.95376 82.000
49.97371 68.000
49.99366 93.000
50.01361 65.000
50.03355 77.000
50.05350 76.000
50.07345 94.000
50.09339 77.000
50.11334 96.000
50.13329 81.000
50.15323 99.000
50.17318 71.000
50.19313 77.000
50.21307 70.000
50.23302 87.000
50.25297 77.000
50.27292 76.000
50.29286 67.000
50.31281 77.000
50.33276 77.000
50.35270 79.000
50.37265 98.000
50.39260 77.000
50.41254 67.000
50.43249 80.000
50.45244 74.000
50.47239 77.000
50.49233 91.000
50.51228 51.000
50.53223 70.000
50.55217 70.000
50.57212 74.000
50.59207 75.000
50.61201 74.000
50.63196 79.000
50.65191 76.000
50.67186 71.000
50.69180 75.000
50.71175 65.000
50.73170 70.000
50.75164 81.000
50.77159 85.000
50.79154 74.000
50.81148 72.000
50.83143 67.000
50.85138 72.000
50.87132 68.000
50.89127 85.000
50.91122 67.000
50.93117 79.000
50.95111 86.000
50.97106 69.000
50.99101 72.000
51.01095 72.000
51.03090 84.000
51.05085 71.000
51.07079 77.000
51.09074 72.000
51.11069 75.000
51.13064 70.000
51.15058 61.000
51.17053 88.000
51.19048 83.000
51.21042 75.000
51.23037 61.000
51.25032 67.000
51.27026 73.000
51.29021 79.000
51.31016 92.000
51.33010 70.000
51.35005 87.000
51.37000 89.000
51.38995 71.000
51.40989 75.000
51.42984 78.000
51.44979 60.000
51.46973 81.000
51.48968 65.000
51.50963 64.000
51.52957 77.000
51.54952 67.000
51.56947 86.000
51.58942 69.000
51.60936 82.000
51.62931 87.000
51.64926 68.000
51.66920 69.000
51.68915 77.000
51.70910 72.000
51.72904 80.000
51.74899 74.000
51.76894 72.000
51.78888 80.000
51.80883 73.000
51.82878 56.000
51.84873 103.000
51.86867 84.000
51.88862 93.000
51.90857 109.000
51.92851 101.000
51.94846 86.000
51.96841 88.000
51.98835 75.000
52.00830 78.000
52.02825 98.000
52.04820 103.000
52.06814 85.000
52.08809 84.000
52.10804 78.000
52.12798 104.000
52.14793 84.000
52.16788 91.000
52.18782 94.000
52.20777 96.000
52.22772 67.000
52.24767 64.000
52.26761 87.000
52.28756 99.000
52.30751 87.000
52.32745 78.000
52.34740 79.000
52.36735 82.000
52.38729 66.000
52.40724 87.000
52.42719 71.000
52.44713 75.000
52.46708 76.000
52.48703 79.000
52.50698 95.000
52.52692 81.000
52.54687 83.000
52.56682 69.000
52.58676 82.000
52.60671 76.000
52.62666 82.000
52.64660 73.000
52.66655 80.000
52.68650 95.000
52.70645 71.000
52.72639 83.000
52.74634 103.000
52.76629 95.000
52.78623 111.000
52.80618 116.000
52.82613 122.000
52.84607 101.000
52.86602 144.000
52.88597 164.000
52.90591 161.000
52.92586 167.000
52.94581 199.000
52.96576 212.000
52.98570 205.000
53.00565 197.000
53.02560 228.000
53.04554 163.000
53.06549 174.000
53.08544 166.000
53.10538 173.000
53.12533 177.000
53.14528 143.000
53.16523 156.000
53.18517 122.000
53.20512 119.000
53.22507 112.000
53.24501 102.000
53.26496 91.000
53.28491 119.000
53.30485 105.000
53.32480 89.000
53.34475 99.000
53.36469 78.000
53.38464 74.000
53.40459 84.000
53.42454 87.000
53.44448 86.000
53.46443 90.000
53.48438 102.000
53.50432 105.000
53.52427 100.000
53.54422 74.000
53.56416 86.000
53.58411 96.000
53.60406 101.000
53.62401 104.000
53.64395 90.000
53.66390 122.000
53.68385 122.000
53.70379 138.000
53.72374 151.000
53.74369 149.000
53.76363 180.000
53.78358 147.000
53.80353 141.000
53.82348 146.000
53.84342 107.000
53.86337 144.000
53.88332 136.000
53.90326 121.000
53.92321 118.000
53.94316 129.000
53.96310 112.000
53.98305 98.000
54.00300 84.000
54.02294 84.000
54.04289 104.000
54.06284 99.000
54.08279 86.000
54.10273 92.000
54.12268 99.000
54.14263 83.000
54.16257 74.000
54.18252 83.000
54.20247 87.000
54.22241 72.000
54.24236 72.000
54.26231 84.000
54.28226 85.000
54.30220 83.000
54.32215 84.000
54.34210 76.000
54.36204 87.000
54.38199 66.000
54.40194 52.000
54.42188 64.000
54.44183 75.000
54.46178 74.000
54.48172 77.000
54.50167 73.000
54.52162 88.000
54.54157 71.000
54.56151 64.000
54.58146 79.000
54.60141 79.000
54.62135 71.000
54.64130 65.000
54.66125 81.000
54.68119 76.000
54.70114 91.000
54.72109 88.000
54.74104 79.000
54.76098 93.000
54.78093 77.000
54.80088 69.000
54.82082 72.000
54.84077 75.000
54.86072 81.000
54.88066 98.000
54.90061 68.000
54.92056 78.000
54.94050 76.000
54.96045 87.000
54.98040 81.000
55.00035 68.000
55.02029 83.000
55.04024 78.000
55.06019 78.000
55.08013 74.000
55.10008 67.000
55.12003 84.000
55.13997 76.000
55.15992 69.000
55.17987 71.000
55.19982 78.000
55.21976 81.000
55.23971 79.000
55.25966 73.000
55.27960 67.000
55.29955 52.000
55.31950 75.000
55.33944 66.000
55.35939 91.000
55.37934 68.000
55.39929 71.000
55.41923 99.000
55.43918 62.000
55.45913 86.000
55.47907 64.000
55.49902 67.000
55.51897 77.000
55.53891 66.000
55.55886 63.000
55.57881 71.000
55.59875 78.000
55.61870 77.000
55.63865 80.000
55.65860 75.000
55.67854 92.000
55.69849 79.000
55.71844 73.000
55.73838 72.000
55.75833 73.000
55.77828 74.000
55.79822 80.000
55.81817 83.000
55.83812 72.000
55.85807 75.000
55.87801 82.000
55.89796 76.000
55.91791 51.000
55.93785 73.000
55.95780 87.000
55.97775 62.000
55.99769 45.000
56.01764 64.000
56.03759 85.000
56.05753 62.000
56.07748 73.000
56.09743 85.000
56.11738 80.000
56.13732 78.000
56.15727 82.000
56.17722 64.000
56.19716 94.000
56.21711 86.000
56.23706 90.000
56.25700 78.000
56.27695 72.000
56.29690 67.000
56.31685 83.000
56.33679 89.000
56.35674 81.000
56.37669 82.000
56.39663 83.000
56.41658 79.000
56.43653 85.000
56.45647 76.000
56.47642 79.000
56.49637 75.000
56.51631 76.000
56.53626 73.000
56.55621 89.000
56.57616 73.000
56.59610 65.000
56.61605 79.000
56.63600 77.000
56.65594 77.000
56.67589 101.000
56.69584 95.000
56.71578 75.000
56.73573 74.000
56.75568 86.000
56.77563 91.000
56.79557 85.000
56.81552 66.000
56.83547 85.000
56.85541 81.000
56.87536 82.000
56.89531 93.000
56.91525 106.000
56.93520 80.000
56.95515 85.000
56.97510 86.000
56.99504 98.000
57.01499 86.000
57.03494 81.000
57.05488 110.000
57.07483 116.000
57.09478 129.000
57.11472 138.000
57.13467 125.000
57.15462 145.000
57.17456 175.000
57.19451 196.000
57.21446 210.000
57.23441 204.000
57.25435 253.000
57.27430 270.000
57.29425 265.000
57.31419 320.000
57.33414 345.000
57.35409 307.000
57.37403 316.000
57.39398 307.000
57.41393 304.000
57.43388 278.000
57.45382 274.000
57.47377 298.000
57.49372 297.000
57.51366 314.000
57.53361 262.000
57.55356 310.000
57.57350 279.000
57.59345 274.000
57.61340 286.000
57.63334 288.000
57.65329 275.000
57.67324 287.000
57.69319 270.000
57.71313 252.000
57.73308 238.000
57.75303 218.000
57.77297 231.000
57.79292 214.000
57.81287 179.000
57.83281 186.000
57.85276 150.000
57.87271 161.000
57.89266 124.000
57.91260 125.000
57.93255 124.000
57.95250 97.000
57.97244 107.000
57.99239 98.000
58.01234 85.000
58.03228 104.000
58.05223 80.000
58.07218 89.000
58.09212 90.000
58.11207 74.000
58.13202 83.000
58.15197 78.000
58.17191 96.000
58.19186 107.000
58.21181 85.000
58.23175 91.000
58.25170 73.000
58.27165 72.000
58.29159 83.000
58.31154 85.000
58.33149 80.000
58.35144 88.000
58.37138 88.000
58.39133 72.000
58.41128 79.000
58.43122 80.000
58.45117 79.000
58.47112 97.000
58.49106 78.000
58.51101 79.000
58.53096 77.000
58.55090 87.000
58.57085 78.000
58.59080 83.000
58.61075 89.000
58.63069 71.000
58.65064 79.000
58.67059 64.000
58.69053 84.000
58.71048 83.000
58.73043 77.000
58.75037 77.000
58.77032 73.000
58.79027 80.000
58.81022 78.000
58.83016 80.000
58.85011 74.000
58.87006 72.000
58.89000 85.000
58.90995 77.000
58.92990 73.000
58.94984 80.000
58.96979 76.000
58.98974 67.000
59.00969 72.000
59.02963 81.000
59.04958 83.000
59.06953 78.000
59.08947 77.000
59.10942 67.000
59.12937 88.000
59.14931 75.000
59.16926 80.000
59.18921 75.000
59.20915 77.000
59.22910 75.000
59.24905 66.000
59.26900 71.000
59.28894 69.000
59.30889 67.000
59.32884 75.000
59.34878 65.000
59.36873 72.000
59.38868 78.000
59.40862 73.000
59.42857 71.000
59.44852 64.000
59.46847 72.000
59.48841 63.000
59.50836 59.000
59.52831 74.000
59.54825 82.000
59.56820 86.000
59.58815 75.000
59.60809 86.000
59.62804 74.000
59.64799 73.000
59.66793 79.000
59.68788 80.000
59.70783 84.000
59.72778 78.000
59.74772 79.000
59.76767 80.000
59.78762 71.000
59.80756 83.000
59.82751 87.000
59.84746 76.000
59.86740 83.000
59.88735 77.000
59.90730 72.000
59.92725 84.000
59.94719 82.000
59.96714 77.000
59.98709 99.000
60.00703 74.000
60.02698 88.000
60.04693 49.000
60.06687 64.000
60.08682 86.000
60.10677 83.000
60.12671 79.000
60.14666 83.000
60.16661 86.000
60.18656 96.000
60.20650 69.000
60.22645 78.000
60.24640 71.000
60.26634 84.000
60.28629 85.000
60.30624 79.000
60.32618 67.000
60.34613 72.000
60.36608 68.000
60.38603 78.000
60.40597 73.000
60.42592 77.000
60.44587 76.000
60.46581 78.000
60.48576 79.000
60.50571 59.000
60.52565 66.000
60.54560 83.000
60.56555 78.000
60.58550 74.000
60.60544 67.000
60.62539 76.000
60.64534 70.000
60.66528 73.000
60.68523 75.000
60.70518 76.000
60.72512 70.000
60.74507 79.000
60.76502 66.000
60.78496 60.000
60.80491 68.000
60.82486 79.000
60.84481 92.000
60.86475 77.000
60.88470 77.000
60.90465 71.000
60.92459 80.000
60.94454 70.000
60.96449 89.000
60.98443 76.000
61.00438 82.000
61.02433 88.000
61.04428 88.000
61.06422 79.000
61.08417 84.000
61.10412 83.000
61.12406 90.000
61.14401 79.000
61.16396 90.000
61.18390 86.000
61.20385 82.000
61.22380 105.000
61.24374 89.000
61.26369 94.000
61.28364 82.000
61.30359 89.000
61.32353 89.000
61.34348 82.000
61.36343 76.000
61.38337 64.000
61.40332 98.000
61.42327 74.000
61.44321 99.000
61.46316 103.000
61.48311 100.000
61.50306 109.000
61.52300 87.000
61.54295 93.000
61.56290 106.000
61.58284 102.000
61.60279 108.000
61.62274 112.000
61.64268 97.000
61.66263 105.000
61.68258 127.000
61.70252 120.000
61.72247 118.000
61.74242 148.000
61.76237 167.000
61.78231 162.000
61.80226 178.000
61.82221 179.000
61.84215 196.000
61.86210 244.000
61.88205 250.000
61.90199 318.000
61.92194 302.000
61.94189 334.000
61.96184 331.000
61.98178 335.000
62.00173 292.000
62.02168 260.000
62.04162 267.000
62.06157 270.000
62.08152 256.000
62.10146 244.000
62.12141 243.000
62.14136 247.000
62.16131 205.000
62.18125 162.000
62.20120 185.000
62.22115 181.000
62.24109 149.000
62.26104 166.000
62.28099 115.000
62.30093 133.000
62.32088 143.000
62.34083 117.000
62.36077 130.000
62.38072 117.000
62.40067 118.000
62.42062 119.000
62.44056 120.000
62.46051 111.000
62.48046 113.000
62.50040 121.000
62.52035 121.000
62.54030 145.000
62.56024 174.000
62.58019 171.000
62.60014 172.000
62.62009 205.000
62.64003 237.000
62.65998 298.000
62.67993 334.000
62.69987 371.000
62.71982 376.000
62.73977 426.000
62.75971 383.000
62.77966 483.000
62.79961 427.000
62.81955 448.000
62.83950 495.000
62.85945 520.000
62.87940 552.000
62.89934 642.000
62.91929 648.000
62.93924 659.000
62.95918 703.000
62.97913 633.000
62.99908 581.000
63.01902 594.000
63.03897 494.000
63.05892 497.000
63.07887 520.000
63.09881 468.000
63.11876 433.000
63.13871 425.000
63.15865 404.000
63.17860 344.000
63.19855 346.000
63.21849 281.000
63.23844 273.000
63.25839 236.000
63.27833 202.000
63.29828 185.000
63.31823 190.000
63.33818 161.000
63.35812 164.000
63.37807 133.000
63.39802 129.000
63.41796 134.000
63.43791 107.000
63.45786 111.000
63.47780 117.000
63.49775 105.000
63.51770 116.000
63.53765 111.000
63.55759 95.000
63.57754 100.000
63.59749 130.000
63.61743 134.000
63.63738 145.000
63.65733 142.000
63.67727 156.000
63.69722 171.000
63.71717 189.000
63.73712 201.000
63.75706 187.000
63.77701 203.000
63.79696 211.000
63.81690 199.000
63.83685 214.000
63.85680 210.000
63.87674 220.000
63.89669 202.000
63.91664 210.000
63.93658 213.000
63.95653 224.000
63.97648 199.000
63.99643 206.000
64.01637 216.000
64.03632 220.000
64.05627 188.000
64.07621 184.000
64.09616 161.000
64.11611 160.000
64.13605 162.000
64.15600 161.000
64.17595 181.000
64.19590 172.000
64.21584 144.000
64.23579 157.000
64.25574 124.000
64.27568 141.000
64.29563 145.000
64.31558 152.000
64.33552 111.000
64.35547 124.000
64.37542 107.000
64.39536 118.000
64.41531 116.000
64.43526 100.000
64.45521 98.000
64.47515 103.000
64.49510 111.000
64.51505 76.000
64.53499 96.000
64.55494 109.000
64.57489 114.000
64.59483 94.000
64.61478 89.000
64.63473 96.000
64.65468 85.000
64.67462 79.000
64.69457 111.000
64.71452 85.000
64.73446 84.000
64.75441 85.000
64.77436 91.000
64.79430 90.000
64.81425 86.000
64.83420 85.000
64.85414 96.000
64.87409 89.000
64.89404 75.000
64.91399 74.000
64.93393 83.000
64.95388 99.000
64.97383 90.000
64.99377 79.000
65.01372 82.000
65.03367 85.000
65.05361 88.000
65.07356 86.000
65.09351 91.000
65.11346 95.000
65.13340 96.000
65.15335 98.000
65.17330 68.000
65.19324 83.000
65.21319 91.000
65.23314 78.000
65.25308 108.000
65.27303 93.000
65.29298 82.000
65.31293 103.000
65.33287 103.000
65.35282 119.000
65.37277 133.000
65.39271 131.000
65.41266 112.000
65.43261 135.000
65.45255 155.000
65.47250 129.000
65.49245 149.000
65.51239 177.000
65.53234 134.000
65.55229 144.000
65.57224 165.000
65.59218 166.000
65.61213 145.000
65.63208 157.000
65.65202 141.000
65.67197 138.000
65.69192 155.000
65.71186 160.000
65.73181 117.000
65.75176 148.000
65.77171 132.000
65.79165 109.000
65.81160 119.000
65.83155 110.000
65.85149 127.000
65.87144 130.000
65.89139 101.000
65.91133 101.000
65.93128 104.000
65.95123 107.000
65.97117 104.000
65.99112 96.000
66.01107 105.000
66.03102 103.000
66.05096 107.000
66.07091 131.000
66.09086 126.000
66.11080 121.000
66.13075 145.000
66.15070 154.000
66.17064 167.000
66.19059 141.000
66.21054 185.000
66.23049 141.000
66.25043 152.000
66.27038 148.000
66.29033 169.000
66.31027 158.000
66.33022 159.000
66.35017 173.000
66.37011 157.000
66.39006 172.000
66.41001 166.000
66.42995 157.000
66.44990 142.000
66.46985 146.000
66.48980 142.000
66.50974 131.000
66.52969 125.000
66.54964 127.000
66.56958 142.000
66.58953 114.000
66.60948 122.000
66.62942 135.000
66.64937 119.000
66.66932 139.000
66.68927 112.000
66.70921 110.000
66.72916 109.000
66.74911 114.000
66.76905 116.000
66.78900 96.000
66.80895 92.000
66.82889 122.000
66.84884 92.000
66.86879 93.000
66.88874 115.000
66.90868 124.000
66.92863 109.000
66.94858 104.000
66.96852 98.000
66.98847 124.000
67.00842 102.000
67.02836 117.000
67.04831 121.000
67.06826 143.000
67.08820 115.000
67.10815 81.000
67.12810 115.000
67.14805 90.000
67.16799 90.000
67.18794 114.000
67.20789 97.000
67.22783 95.000
67.24778 85.000
67.26773 108.000
67.28767 114.000
67.30762 87.000
67.32757 106.000
67.34752 94.000
67.36746 94.000
67.38741 95.000
67.40736 85.000
67.42730 100.000
67.44725 92.000
67.46720 76.000
67.48714 95.000
67.50709 71.000
67.52704 70.000
67.54698 99.000
67.56693 79.000
67.58688 85.000
67.60683 81.000
67.62677 101.000
67.64672 80.000
67.66667 77.000
67.68661 96.000
67.70656 84.000
67.72651 101.000
67.74645 88.000
67.76640 109.000
67.78635 103.000
67.80630 109.000
67.82624 109.000
67.84619 105.000
67.86614 104.000
67.88608 103.000
67.90603 125.000
67.92598 107.000
67.94592 117.000
67.96587 122.000
67.98582 94.000
68.00576 96.000
68.02571 121.000
68.04566 124.000
68.06561 101.000
68.08555 99.000
68.10550 117.000
68.12545 109.000
68.14539 79.000
68.16534 90.000
68.18529 87.000
68.20523 89.000
68.22518 89.000
68.24513 78.000
68.26508 87.000
68.28502 86.000
68.30497 77.000
68.32492 82.000
68.34486 93.000
68.36481 75.000
68.38476 83.000
68.40470 78.000
68.42465 92.000
68.44460 77.000
68.46455 92.000
68.48449 87.000
68.50444 83.000
68.52439 96.000
68.54433 93.000
68.56428 95.000
68.58423 84.000
68.60417 91.000
68.62412 87.000
68.64407 86.000
68.66401 80.000
68.68396 93.000
68.70391 89.000
68.72386 93.000
68.74380 84.000
68.76375 87.000
68.78370 92.000
68.80364 84.000
68.82359 57.000
68.84354 73.000
68.86348 105.000
68.88343 77.000
68.90338 101.000
68.92333 92.000
68.94327 86.000
68.96322 72.000
68.98317 77.000
69.00311 79.000
69.02306 74.000
69.04301 74.000
69.06295 85.000
69.08290 82.000
69.10285 77.000
69.12279 84.000
69.14274 70.000
69.16269 92.000
69.18264 70.000
69.20258 72.000
69.22253 63.000
69.24248 66.000
69.26242 75.000
69.28237 70.000
69.30232 83.000
69.32226 70.000
69.34221 68.000
69.36216 53.000
69.38211 81.000
69.40205 58.000
69.42200 74.000
69.44195 76.000
69.46189 71.000
69.48184 79.000
69.50179 88.000
69.52173 66.000
69.54168 68.000
69.56163 63.000
69.58157 82.000
69.60152 68.000
69.62147 72.000
69.64142 70.000
69.66136 63.000
69.68131 72.000
69.70126 76.000
69.72120 80.000
69.74115 66.000
69.76110 78.000
69.78104 89.000
69.80099 75.000
69.82094 64.000
69.84089 73.000
69.86083 72.000
69.88078 71.000
69.90073 74.000
69.92067 81.000
69.94062 80.000
69.96057 80.000
69.98051 70.000
70.00046 83.000
70.02041 66.000
70.04035 70.000
70.06030 71.000
70.08025 54.000
70.10020 83.000
70.12014 79.000
70.14009 63.000
70.16004 69.000
70.17998 75.000
70.19993 83.000
70.21988 70.000
70.23982 60.000
70.25977 63.000
70.27972 65.000
70.29967 69.000
70.31961 86.000
70.33956 78.000
70.35951 72.000
70.37945 75.000
70.39940 67.000
70.41935 67.000
70.43929 75.000
70.45924 58.000
70.47919 84.000
70.49914 87.000
70.51908 62.000
70.53903 71.000
70.55898 80.000
70.57892 86.000
70.59887 70.000
70.61882 80.000
70.63876 69.000
70.65871 84.000
70.67866 63.000
70.69860 86.000
70.71855 75.000
70.73850 73.000
70.75845 77.000
70.77839 63.000
70.79834 70.000
70.81829 66.000
70.83823 82.000
70.85818 81.000
70.87813 84.000
70.89807 80.000
70.91802 78.000
70.93797 65.000
70.95792 74.000
70.97786 77.000
70.99781 80.000
71.01776 81.000
71.03770 76.000
71.05765 74.000
71.07760 80.000
71.09754 78.000
71.11749 70.000
71.13744 92.000
71.15738 69.000
71.17733 70.000
71.19728 64.000
71.21723 71.000
71.23717 75.000
71.25712 73.000
71.27707 70.000
71.29701 69.000
71.31696 77.000
71.33691 84.000
71.35685 102.000
71.37680 103.000
71.39675 79.000
71.41670 90.000
71.43664 110.000
71.45659 103.000
71.47654 101.000
71.49648 96.000
71.51643 89.000
71.53638 78.000
71.55632 105.000
71.57627 91.000
71.59622 88.000
71.61616 101.000
71.63611 84.000
71.65606 101.000
71.67601 97.000
71.69595 91.000
71.71590 103.000
71.73585 63.000
71.75579 95.000
71.77574 81.000
71.79569 78.000
71.81563 68.000
71.83558 76.000
71.85553 75.000
71.87548 62.000
71.89542 64.000
71.91537 80.000
71.93532 68.000
71.95526 79.000
71.97521 64.000
71.99516 62.000
72.01510 64.000
72.03505 70.000
72.05500 93.000
72.07495 70.000
72.09489 85.000
72.11484 78.000
72.13479 63.000
72.15473 74.000
72.17468 78.000
72.19463 72.000
72.21457 77.000
72.23452 70.000
72.25447 80.000
72.27441 69.000
72.29436 83.000
72.31431 76.000
72.33426 82.000
72.35420 81.000
72.37415 76.000
72.39410 83.000
72.41404 72.000
72.43399 79.000
72.45394 70.000
72.47388 81.000
72.49383 81.000
72.51378 87.000
72.53373 70.000
72.55367 88.000
72.57362 90.000
72.59357 82.000
72.61351 94.000
72.63346 87.000
72.65341 86.000
72.67335 91.000
72.69330 83.000
72.71325 109.000
72.73319 109.000
72.75314 107.000
72.77309 118.000
72.79304 109.000
72.81298 115.000
72.83293 135.000
72.85288 127.000
72.87282 130.000
72.89277 115.000
72.91272 120.000
72.93266 132.000
72.95261 113.000
72.97256 112.000
72.99251 106.000
73.01245 127.000
73.03240 115.000
73.05235 123.000
73.07229 121.000
73.09224 133.000
73.11219 112.000
73.13213 145.000
73.15208 120.000
73.17203 124.000
73.19197 116.000
73.21192 134.000
73.23187 143.000
73.25182 118.000
73.27176 126.000
73.29171 139.000
73.31166 124.000
73.33160 132.000
73.35155 131.000
73.37150 125.000
73.39144 152.000
73.41139 143.000
73.43134 115.000
73.45129 133.000
73.47123 137.000
73.49118 132.000
73.51113 137.000
73.53107 122.000
73.55102 151.000
73.57097 118.000
73.59091 138.000
73.61086 123.000
73.63081 125.000
73.65076 138.000
73.67070 122.000
73.69065 120.000
73.71060 125.000
73.73054 103.000
73.75049 118.000
73.77044 95.000
73.79038 80.000
73.81033 95.000
73.83028 110.000
73.85022 96.000
73.87017 97.000
73.89012 95.000
73.91007 80.000
73.93001 96.000
73.94996 79.000
73.96991 79.000
73.98985 91.000
74.00980 94.000
74.02975 112.000
74.04969 82.000
74.06964 90.000
74.08959 84.000
74.10954 67.000
74.12948 95.000
74.14943 72.000
74.16938 75.000
74.18932 66.000
74.20927 82.000
74.22922 89.000
74.24916 74.000
74.26911 83.000
74.28906 93.000
74.30900 92.000
74.32895 97.000
74.34890 100.000
74.36885 102.000
74.38879 108.000
74.40874 117.000
74.42869 105.000
74.44863 149.000
74.46858 136.000
74.48853 116.000
74.50847 150.000
74.52842 118.000
74.54837 128.000
74.56832 134.000
74.58826 148.000
74.60821 114.000
74.62816 138.000
74.64810 119.000
74.66805 111.000
74.68800 127.000
74.70794 107.000
74.72789 109.000
74.74784 111.000
74.76778 112.000
74.78773 119.000
74.80768 91.000
74.82763 107.000
74.84757 87.000
74.86752 96.000
74.88747 111.000
74.90741 93.000
74.92736 93.000
74.94731 108.000
74.96725 93.000
74.98720 88.000
75.00715 88.000
75.02710 105.000
75.04704 104.000
75.06699 108.000
75.08694 117.000
75.10688 94.000
75.12683 119.000
75.14678 131.000
75.16672 152.000
75.18667 174.000
75.20662 170.000
75.22657 194.000
75.24651 165.000
75.26646 186.000
75.28641 173.000
75.30635 203.000
75.32630 176.000
75.34625 162.000
75.36619 160.000
75.38614 152.000
75.40609 186.000
75.42603 164.000
75.44598 172.000
75.46593 161.000
75.48588 167.000
75.50582 142.000
75.52577 145.000
75.54572 147.000
75.56566 139.000
75.58561 136.000
75.60556 142.000
75.62550 122.000
75.64545 108.000
75.66540 108.000
75.68535 135.000
75.70529 122.000
75.72524 115.000
75.74519 97.000
75.76513 102.000
75.78508 98.000
75.80503 96.000
75.82497 91.000
75.84492 84.000
75.86487 81.000
75.88481 92.000
75.90476 83.000
75.92471 69.000
75.94466 82.000
75.96460 93.000
75.98455 92.000
76.00450 94.000
76.02444 76.000
76.04439 75.000
76.06434 78.000
76.08428 64.000
76.10423 65.000
76.12418 70.000
76.14413 97.000
76.16407 60.000
76.18402 63.000
76.20397 65.000
76.22391 76.000
76.24386 73.000
76.26381 100.000
76.28375 84.000
76.30370 76.000
76.32365 70.000
76.34359 74.000
76.36354 73.000
76.38349 94.000
76.40344 73.000
76.42338 66.000
76.44333 74.000
76.46328 58.000
76.48322 66.000
76.50317 83.000
76.52312 64.000
76.54306 75.000
76.56301 79.000
76.58296 72.000
76.60291 62.000
76.62285 78.000
76.64280 62.000
76.66275 67.000
76.68269 71.000
76.70264 67.000
76.72259 61.000
76.74253 76.000
76.76248 77.000
76.78243 83.000
76.80238 82.000
76.82232 77.000
76.84227 78.000
76.86222 89.000
76.88216 62.000
76.90211 75.000
76.92206 67.000
76.94200 59.000
76.96195 76.000
76.98190 71.000
77.00184 73.000
77.02179 69.000
77.04174 73.000
77.06169 77.000
77.08163 61.000
77.10158 72.000
77.12153 70.000
77.14147 81.000
77.16142 67.000
77.18137 72.000
77.20131 75.000
77.22126 89.000
77.24121 77.000
77.26116 73.000
77.28110 75.000
77.30105 85.000
77.32100 80.000
77.34094 84.000
77.36089 101.000
77.38084 88.000
77.40078 98.000
77.42073 110.000
77.44068 92.000
77.46062 104.000
77.48057 102.000
77.50052 95.000
77.52047 102.000
77.54041 103.000
77.56036 103.000
77.58031 103.000
77.60025 102.000
77.62020 121.000
77.64015 100.000
77.66009 99.000
77.68004 105.000
77.69999 100.000
77.71994 102.000
77.73988 109.000
77.75983 99.000
77.77978 96.000
77.79972 95.000
77.81967 118.000
77.83962 112.000
77.85956 109.000
77.87951 106.000
77.89946 81.000
77.91940 103.000
77.93935 101.000
77.95930 113.000
77.97925 109.000
77.99919 102.000
78.01914 99.000
78.03909 102.000
78.05903 116.000
78.07898 102.000
78.09893 115.000
78.11887 129.000
78.13882 127.000
78.15877 145.000
78.17872 122.000
78.19866 132.000
78.21861 153.000
78.23856 157.000
78.25850 162.000
78.27845 192.000
78.29840 163.000
78.31834 176.000
78.33829 160.000
78.35824 175.000
78.37819 174.000
78.39813 167.000
78.41808 151.000
78.43803 156.000
78.45797 146.000
78.47792 152.000
78.49787 150.000
78.51781 149.000
78.53776 167.000
78.55771 126.000
78.57765 128.000
78.59760 137.000
78.61755 131.000
78.63750 128.000
78.65744 122.000
78.67739 112.000
78.69734 107.000
78.71728 116.000
78.73723 121.000
78.75718 103.000
78.77712 90.000
78.79707 97.000
78.81702 83.000
78.83697 83.000
78.85691 92.000
78.87686 94.000
78.89681 96.000
78.91675 83.000
78.93670 101.000
78.95665 106.000
78.97659 77.000
78.99654 73.000
79.01649 86.000
79.03643 98.000
79.05638 91.000
79.07633 102.000
79.09628 94.000
79.11622 106.000
79.13617 94.000
79.15612 122.000
79.17606 120.000
79.19601 103.000
79.21596 133.000
79.23590 128.000
79.25585 140.000
79.27580 115.000
79.29575 119.000
79.31569 127.000
79.33564 127.000
79.35559 123.000
79.37553 116.000
79.39548 112.000
79.41543 101.000
79.43537 119.000
79.45532 110.000
79.47527 118.000
79.49521 105.000
79.51516 141.000
79.53511 108.000
79.55506 123.000
79.57500 118.000
79.59495 111.000
79.61490 89.000
79.63484 90.000
79.65479 93.000
79.67474 94.000
79.69468 74.000
79.71463 74.000
79.73458 97.000
79.75453 89.000
79.77447 87.000
79.79442 78.000
79.81437 83.000
79.83431 82.000
79.85426 75.000
79.87421 89.000
79.89415 84.000
79.91410 70.000
79.93405 68.000
79.95399 85.000
79.97394 74.000
79.99389 55.000
80.01384 80.000
80.03378 79.000
80.05373 73.000
80.07368 77.000
80.09362 75.000
80.11357 68.000
80.13352 71.000
80.15346 83.000
80.17341 73.000
80.19336 57.000
80.21331 79.000
80.23325 79.000
80.25320 86.000
80.27315 68.000
80.29309 78.000
80.31304 76.000
80.33299 82.000
80.35293 63.000
80.37288 67.000
80.39283 86.000
80.41278 71.000
80.43272 87.000
80.45267 77.000
80.47262 90.000
80.49256 88.000
80.51251 81.000
80.53246 79.000
80.55240 88.000
80.57235 81.000
80.59230 65.000
80.61224 65.000
80.63219 68.000
80.65214 67.000
80.67209 73.000
80.69203 81.000
80.71198 78.000
80.73193 66.000
80.75187 72.000
80.77182 65.000
80.79177 94.000
80.81171 78.000
80.83166 72.000
80.85161 70.000
80.87156 66.000
80.89150 77.000
80.91145 78.000
80.93140 69.000
80.95134 70.000
80.97129 64.000
80.99124 77.000
81.01118 75.000
81.03113 65.000
81.05108 62.000
81.07102 55.000
81.09097 84.000
81.11092 76.000
81.13087 90.000
81.15081 75.000
81.17076 78.000
81.19071 64.000
81.21065 69.000
81.23060 79.000
81.25055 62.000
81.27049 68.000
81.29044 82.000
81.31039 54.000
81.33034 89.000
81.35028 74.000
81.37023 66.000
81.39018 65.000
81.41012 65.000
81.43007 80.000
81.45002 63.000
81.46996 75.000
81.48991 69.000
81.50986 85.000
81.52980 69.000
81.54975 66.000
81.56970 68.000
81.58965 75.000
81.60959 65.000
81.62954 77.000
81.64949 57.000
81.66943 65.000
81.68938 51.000
81.70933 60.000
81.72927 62.000
81.74922 63.000
81.76917 66.000
81.78912 64.000
81.80906 73.000
81.82901 74.000
81.84896 71.000
81.86890 79.000
81.88885 62.000
81.90880 57.000
81.92874 58.000
81.94869 77.000
81.96864 67.000
81.98859 69.000
82.00853 45.000
82.02848 59.000
82.04843 67.000
82.06837 70.000
82.08832 52.000
82.10827 79.000
82.12821 59.000
82.14816 62.000
82.16811 72.000
82.18805 74.000
82.20800 52.000
82.22795 64.000
82.24790 62.000
82.26784 71.000
82.28779 70.000
82.30774 59.000
82.32768 63.000
82.34763 83.000
82.36758 72.000
82.38752 76.000
82.40747 52.000
82.42742 62.000
82.44737 56.000
82.46731 80.000
82.48726 70.000
82.50721 73.000
82.52715 73.000
82.54710 65.000
82.56705 66.000
82.58699 79.000
82.60694 80.000
82.62689 74.000
82.64683 76.000
82.66678 78.000
82.68673 57.000
82.70668 69.000
82.72662 62.000
82.74657 64.000
82.76652 59.000
82.78646 67.000
82.80641 65.000
82.82636 59.000
82.84630 73.000
82.86625 50.000
82.88620 77.000
82.90615 67.000
82.92609 76.000
82.94604 59.000
82.96599 68.000
82.98593 74.000
83.00588 68.000
83.02583 74.000
83.04577 65.000
83.06572 80.000
83.08567 85.000
83.10561 70.000
83.12556 68.000
83.14551 68.000
83.16546 79.000
83.18540 77.000
83.20535 76.000
83.22530 75.000
83.24524 69.000
83.26519 75.000
83.28514 72.000
83.30508 67.000
83.32503 74.000
83.34498 84.000
83.36493 56.000
83.38487 73.000
83.40482 84.000
83.42477 73.000
83.44471 87.000
83.46466 70.000
83.48461 70.000
83.50455 68.000
83.52450 63.000
83.54445 78.000
83.56440 64.000
83.58434 75.000
83.60429 74.000
83.62424 61.000
83.64418 61.000
83.66413 75.000
83.68408 70.000
83.70402 69.000
83.72397 87.000
83.74392 66.000
83.76386 77.000
83.78381 77.000
83.80376 62.000
83.82371 85.000
83.84365 68.000
83.86360 81.000
83.88355 80.000
83.90349 80.000
83.92344 89.000
83.94339 83.000
83.96333 78.000
83.98328 91.000
84.00323 82.000
84.02318 94.000
84.04312 94.000
84.06307 104.000
84.08302 103.000
84.10296 89.000
84.12291 101.000
84.14286 114.000
84.16280 111.000
84.18275 106.000
84.20270 91.000
84.22264 121.000
84.24259 120.000
84.26254 109.000
84.28249 106.000
84.30243 108.000
84.32238 111.000
84.34233 105.000
84.36227 112.000
84.38222 116.000
84.40217 90.000
84.42211 98.000
84.44206 98.000
84.46201 136.000
84.48196 101.000
84.50190 113.000
84.52185 99.000
84.54180 113.000
84.56174 107.000
84.58169 129.000
84.60164 95.000
84.62158 84.000
84.64153 108.000
84.66148 119.000
84.68142 88.000
84.70137 91.000
84.72132 110.000
84.74127 98.000
84.76121 92.000
84.78116 98.000
84.80111 89.000
84.82105 79.000
84.84100 91.000
84.86095 98.000
84.88089 95.000
84.90084 76.000
84.92079 92.000
84.94074 77.000
84.96068 78.000
84.98063 74.000
85.00058 85.000
85.02052 68.000
85.04047 69.000
85.06042 56.000
85.08036 63.000
85.10031 78.000
85.12026 62.000
85.14021 68.000
85.16015 80.000
85.18010 78.000
85.20005 91.000
85.21999 78.000
85.23994 65.000
85.25989 68.000
85.27983 74.000
85.29978 64.000
85.31973 69.000
85.33967 67.000
85.35962 69.000
85.37957 64.000
85.39952 68.000
85.41946 83.000
85.43941 67.000
85.45936 67.000
85.47930 73.000
85.49925 61.000
85.51920 58.000
85.53914 75.000
85.55909 71.000
85.57904 75.000
85.59899 68.000
85.61893 71.000
85.63888 97.000
85.65883 60.000
85.67877 72.000
85.69872 51.000
85.71867 55.000
85.73861 70.000
85.75856 72.000
85.77851 76.000
85.79845 63.000
85.81840 71.000
85.83835 77.000
85.85830 62.000
85.87824 71.000
85.89819 64.000
85.91814 77.000
85.93808 64.000
85.95803 65.000
85.97798 77.000
85.99792 67.000
86.01787 72.000
86.03782 71.000
86.05777 84.000
86.07771 64.000
86.09766 70.000
86.11761 69.000
86.13755 64.000
86.15750 67.000
86.17745 69.000
86.19739 77.000
86.21734 72.000
86.23729 59.000
86.25723 69.000
86.27718 59.000
86.29713 88.000
86.31708 74.000
86.33702 72.000
86.35697 75.000
86.37692 76.000
86.39686 66.000
86.41681 77.000
86.43676 56.000
86.45670 95.000
86.47665 74.000
86.49660 75.000
86.51655 59.000
86.53649 70.000
86.55644 69.000
86.57639 78.000
86.59633 80.000
86.61628 72.000
86.63623 61.000
86.65617 73.000
86.67612 85.000
86.69607 72.000
86.71602 71.000
86.73596 76.000
86.75591 89.000
86.77586 73.000
86.79580 99.000
86.81575 94.000
86.83570 96.000
86.85564 108.000
86.87559 73.000
86.89554 80.000
86.91548 87.000
86.93543 80.000
86.95538 68.000
86.97533 93.000
86.99527 110.000
87.01522 80.000
87.03517 81.000
87.05511 88.000
87.07506 85.000
87.09501 86.000
87.11495 101.000
87.13490 89.000
87.15485 90.000
87.17480 78.000
87.19474 103.000
87.21469 88.000
87.23464 109.000
87.25458 66.000
87.27453 84.000
87.29448 93.000
87.31442 98.000
87.33437 99.000
87.35432 99.000
87.37426 106.000
87.39421 84.000
87.41416 101.000
87.43411 124.000
87.45405 93.000
87.47400 88.000
87.49395 101.000
87.51389 94.000
87.53384 99.000
87.55379 92.000
87.57373 105.000
87.59368 72.000
87.61363 93.000
87.63358 104.000
87.65352 90.000
87.67347 97.000
87.69342 90.000
87.71336 88.000
87.73331 85.000
87.75326 93.000
87.77320 100.000
87.79315 92.000
87.81310 83.000
87.83304 87.000
87.85299 92.000
87.87294 67.000
87.89289 73.000
87.91283 74.000
87.93278 80.000
87.95273 81.000
87.97267 76.000
87.99262 103.000
88.01257 79.000
88.03251 71.000
88.05246 78.000
88.07241 79.000
88.09236 48.000
88.11230 68.000
88.13225 69.000
88.15220 66.000
88.17214 65.000
88.19209 89.000
88.21204 70.000
88.23198 81.000
88.25193 71.000
88.27188 77.000
88.29183 69.000
88.31177 88.000
88.33172 73.000
88.35167 55.000
88.37161 65.000
88.39156 73.000
88.41151 59.000
88.43145 69.000
88.45140 86.000
88.47135 62.000
88.49129 65.000
88.51124 60.000
88.53119 76.000
88.55114 59.000
88.57108 55.000
88.59103 79.000
88.61098 80.000
88.63092 74.000
88.65087 70.000
88.67082 72.000
88.69076 79.000
88.71071 64.000
88.73066 57.000
88.75061 81.000
88.77055 67.000
88.79050 68.000
88.81045 78.000
88.83039 72.000
88.85034 75.000
88.87029 72.000
88.89023 75.000
88.91018 70.000
88.93013 75.000
88.95007 67.000
88.97002 77.000
88.98997 71.000
89.00992 70.000
89.02986 66.000
89.04981 64.000
89.06976 68.000
89.08970 76.000
89.10965 74.000
89.12960 76.000
89.14954 76.000
89.16949 75.000
89.18944 74.000
89.20939 66.000
89.22933 62.000
89.24928 67.000
89.26923 75.000
89.28917 55.000
89.30912 68.000
89.32907 62.000
89.34901 53.000
89.36896 54.000
89.38891 74.000
89.40885 79.000
89.42880 69.000
89.44875 89.000
89.46870 88.000
89.48864 84.000
89.50859 65.000
89.52854 65.000
89.54848 78.000
89.56843 91.000
89.58838 76.000
89.60832 53.000
89.62827 55.000
89.64822 71.000
89.66817 92.000
89.68811 69.000
89.70806 56.000
89.72801 67.000
89.74795 77.000
89.76790 70.000
89.78785 86.000
89.80779 82.000
89.82774 71.000
89.84769 70.000
89.86764 67.000
89.88758 68.000
89.90753 75.000
89.92748 80.000
89.94742 76.000
89.96737 66.000
89.98732 94.000
90.00726 92.000
