10.00000 275.000
10.01995 294.000
10.03989 294.000
10.05984 270.000
10.07979 266.000
10.09973 288.000
10.11968 254.000
10.13963 288.000
10.15958 263.000
10.17952 303.000
10.19947 313.000
10.21942 307.000
10.23936 308.000
10.25931 257.000
10.27926 294.000
10.29920 258.000
10.31915 303.000
10.33910 311.000
10.35905 304.000
10.37899 257.000
10.39894 316.000
10.41889 275.000
10.43883 294.000
10.45878 270.000
10.47873 289.000
10.49867 281.000
10.51862 288.000
10.53857 287.000
10.55851 300.000
10.57846 278.000
10.59841 289.000
10.61836 281.000
10.63830 299.000
10.65825 288.000
10.67820 294.000
10.69814 272.000
10.71809 262.000
10.73804 276.000
10.75798 287.000
10.77793 283.000
10.79788 278.000
10.81783 314.000
10.83777 288.000
10.85772 295.000
10.87767 284.000
10.89761 278.000
10.91756 274.000
10.93751 283.000
10.95745 281.000
10.97740 275.000
10.99735 309.000
11.01730 292.000
11.03724 276.000
11.05719 303.000
11.07714 328.000
11.09708 245.000
11.11703 310.000
11.13698 274.000
11.15692 293.000
11.17687 286.000
11.19682 282.000
11.21676 294.000
11.23671 308.000
11.25666 322.000
11.27661 298.000
11.29655 271.000
11.31650 294.000
11.33645 297.000
11.35639 266.000
11.37634 285.000
11.39629 297.000
11.41623 268.000
11.43618 311.000
11.45613 280.000
11.47608 277.000
11.49602 294.000
11.51597 314.000
11.53592 290.000
11.55586 299.000
11.57581 288.000
11.59576 279.000
11.61570 304.000
11.63565 294.000
11.65560 287.000
11.67554 277.000
11.69549 282.000
11.71544 299.000
11.73539 290.000
11.75533 282.000
11.77528 276.000
11.79523 263.000
11.81517 292.000
11.83512 263.000
11.85507 327.000
11.87501 259.000
11.89496 312.000
11.91491 290.000
11.93486 294.000
11.95480 305.000
11.97475 304.000
11.99470 316.000
12.01464 269.000
12.03459 278.000
12.05454 311.000
12.07448 287.000
12.09443 317.000
12.11438 280.000
12.13432 275.000
12.15427 313.000
12.17422 282.000
12.19417 298.000
12.21411 310.000
12.23406 275.000
12.25401 292.000
12.27395 274.000
12.29390 267.000
12.31385 283.000
12.33379 303.000
12.35374 302.000
12.37369 288.000
12.39364 309.000
12.41358 308.000
12.43353 288.000
12.45348 287.000
12.47342 295.000
12.49337 288.000
12.51332 299.000
12.53326 295.000
12.55321 280.000
12.57316 303.000
12.59311 275.000
12.61305 297.000
12.63300 302.000
12.65295 349.000
12.67289 328.000
12.69284 299.000
12.71279 293.000
12.73273 290.000
12.75268 293.000
12.77263 281.000
12.79257 271.000
12.81252 307.000
12.83247 298.000
12.85242 261.000
12.87236 304.000
12.89231 312.000
12.91226 300.000
12.93220 267.000
12.95215 295.000
12.97210 297.000
12.99204 307.000
13.01199 286.000
13.03194 292.000
13.05189 306.000
13.07183 303.000
13.09178 287.000
13.11173 300.000
13.13167 290.000
13.15162 303.000
13.17157 286.000
13.19151 298.000
13.21146 255.000
13.23141 328.000
13.25135 289.000
13.27130 282.000
13.29125 271.000
13.31120 311.000
13.33114 263.000
13.35109 313.000
13.37104 292.000
13.39098 277.000
13.41093 292.000
13.43088 286.000
13.45082 268.000
13.47077 300.000
13.49072 306.000
13.51067 306.000
13.53061 295.000
13.55056 322.000
13.57051 290.000
13.59045 319.000
13.61040 321.000
13.63035 323.000
13.65029 282.000
13.67024 337.000
13.69019 326.000
13.71013 271.000
13.73008 293.000
13.75003 315.000
13.76998 290.000
13.78992 326.000
13.80987 280.000
13.82982 325.000
13.84976 302.000
13.86971 302.000
13.88966 296.000
13.90960 287.000
13.92955 301.000
13.94950 284.000
13.96945 285.000
13.98939 291.000
14.00934 324.000
14.02929 270.000
14.04923 320.000
14.06918 312.000
14.08913 281.000
14.10907 302.000
14.12902 335.000
14.14897 338.000
14.16892 344.000
14.18886 334.000
14.20881 308.000
14.22876 296.000
14.24870 310.000
14.26865 344.000
14.28860 327.000
14.30854 329.000
14.32849 298.000
14.34844 283.000
14.36838 300.000
14.38833 339.000
14.40828 314.000
14.42823 328.000
14.44817 311.000
14.46812 316.000
14.48807 326.000
14.50801 325.000
14.52796 332.000
14.54791 309.000
14.56785 334.000
14.58780 293.000
14.60775 319.000
14.62770 342.000
14.64764 340.000
14.66759 333.000
14.68754 344.000
14.70748 331.000
14.72743 325.000
14.74738 321.000
14.76732 308.000
14.78727 326.000
14.80722 359.000
14.82716 351.000
14.84711 347.000
14.86706 346.000
14.88701 330.000
14.90695 309.000
14.92690 325.000
14.94685 345.000
14.96679 374.000
14.98674 356.000
15.00669 416.000
15.02663 397.000
15.04658 402.000
15.06653 379.000
15.08648 395.000
15.10642 392.000
15.12637 392.000
15.14632 354.000
15.16626 397.000
15.18621 359.000
15.20616 392.000
15.22610 359.000
15.24605 393.000
15.26600 451.000
15.28594 405.000
15.30589 389.000
15.32584 419.000
15.34579 473.000
15.36573 451.000
15.38568 422.000
15.40563 485.000
15.42557 465.000
15.44552 529.000
15.46547 508.000
15.48541 622.000
15.50536 735.000
15.52531 856.000
15.54526 1061.000
15.56520 1292.000
15.58515 1828.000
15.60510 2591.000
15.62504 3741.000
15.64499 5966.000
15.66494 8660.000
15.68488 11025.000
15.70483 12263.000
15.72478 11414.000
15.74472 9441.000
15.76467 6782.000
15.78462 4634.000
15.80457 3171.000
15.82451 2191.000
15.84446 1573.000
15.86441 1154.000
15.88435 842.000
15.90430 654.000
15.92425 549.000
15.94419 495.000
15.96414 495.000
15.98409 423.000
16.00404 383.000
16.02398 392.000
16.04393 384.000
16.06388 369.000
16.08382 339.000
16.10377 350.000
16.12372 407.000
16.14366 363.000
16.16361 349.000
16.18356 321.000
16.20351 362.000
16.22345 364.000
16.24340 333.000
16.26335 321.000
16.28329 324.000
16.30324 337.000
16.32319 330.000
16.34313 334.000
16.36308 318.000
16.38303 322.000
16.40297 318.000
16.42292 312.000
16.44287 313.000
16.46282 301.000
16.48276 293.000
16.50271 303.000
16.52266 266.000
16.54260 299.000
16.56255 316.000
16.58250 317.000
16.60244 275.000
16.62239 294.000
16.64234 304.000
16.66229 301.000
16.68223 320.000
16.70218 304.000
16.72213 271.000
16.74207 316.000
16.76202 313.000
16.78197 315.000
16.80191 309.000
16.82186 304.000
16.84181 318.000
16.86175 306.000
16.88170 304.000
16.90165 318.000
16.92160 275.000
16.94154 306.000
16.96149 248.000
16.98144 283.000
17.00138 313.000
17.02133 285.000
17.04128 289.000
17.06122 278.000
17.08117 291.000
17.10112 258.000
17.12107 280.000
17.14101 303.000
17.16096 294.000
17.18091 285.000
17.20085 291.000
17.22080 285.000
17.24075 263.000
17.26069 272.000
17.28064 286.000
17.30059 279.000
17.32053 306.000
17.34048 270.000
17.36043 296.000
17.38038 261.000
17.40032 301.000
17.42027 279.000
17.44022 298.000
17.46016 292.000
17.48011 298.000
17.50006 283.000
17.52000 294.000
17.53995 285.000
17.55990 288.000
17.57985 272.000
17.59979 272.000
17.61974 262.000
17.63969 292.000
17.65963 285.000
17.67958 271.000
17.69953 271.000
17.71947 286.000
17.73942 270.000
17.75937 307.000
17.77932 274.000
17.79926 293.000
17.81921 260.000
17.83916 314.000
17.85910 283.000
17.87905 296.000
17.89900 282.000
17.91894 290.000
17.93889 284.000
17.95884 299.000
17.97878 291.000
17.99873 290.000
18.01868 296.000
18.03863 292.000
18.05857 279.000
18.07852 256.000
18.09847 278.000
18.11841 284.000
18.13836 267.000
18.15831 271.000
18.17825 282.000
18.19820 259.000
18.21815 272.000
18.23810 259.000
18.25804 293.000
18.27799 260.000
18.29794 275.000
18.31788 311.000
18.33783 276.000
18.35778 265.000
18.37772 292.000
18.39767 256.000
18.41762 279.000
18.43756 286.000
18.45751 300.000
18.47746 306.000
18.49741 271.000
18.51735 254.000
18.53730 269.000
18.55725 268.000
18.57719 282.000
18.59714 290.000
18.61709 259.000
18.63703 298.000
18.65698 295.000
18.67693 275.000
18.69688 259.000
18.71682 288.000
18.73677 273.000
18.75672 287.000
18.77666 292.000
18.79661 279.000
18.81656 311.000
18.83650 310.000
18.85645 279.000
18.87640 263.000
18.89634 282.000
18.91629 318.000
18.93624 275.000
18.95619 307.000
18.97613 285.000
18.99608 274.000
19.01603 319.000
19.03597 277.000
19.05592 307.000
19.07587 291.000
19.09581 277.000
19.11576 273.000
19.13571 269.000
19.15566 281.000
19.17560 313.000
19.19555 277.000
19.21550 306.000
19.23544 265.000
19.25539 292.000
19.27534 317.000
19.29528 293.000
19.31523 289.000
19.33518 270.000
19.35513 276.000
19.37507 278.000
19.39502 297.000
19.41497 289.000
19.43491 249.000
19.45486 324.000
19.47481 265.000
19.49475 295.000
19.51470 291.000
19.53465 283.000
19.55459 281.000
19.57454 253.000
19.59449 296.000
19.61444 246.000
19.63438 307.000
19.65433 281.000
19.67428 284.000
19.69422 319.000
19.71417 263.000
19.73412 289.000
19.75406 283.000
19.77401 275.000
19.79396 261.000
19.81391 284.000
19.83385 260.000
19.85380 297.000
19.87375 265.000
19.89369 278.000
19.91364 264.000
19.93359 288.000
19.95353 266.000
19.97348 282.000
19.99343 276.000
20.01337 271.000
20.03332 286.000
20.05327 289.000
20.07322 281.000
20.09316 259.000
20.11311 262.000
20.13306 237.000
20.15300 284.000
20.17295 263.000
20.19290 265.000
20.21284 308.000
20.23279 290.000
20.25274 309.000
20.27269 264.000
20.29263 286.000
20.31258 281.000
20.33253 231.000
20.35247 294.000
20.37242 269.000
20.39237 286.000
20.41231 263.000
20.43226 300.000
20.45221 280.000
20.47215 284.000
20.49210 306.000
20.51205 279.000
20.53200 308.000
20.55194 268.000
20.57189 250.000
20.59184 275.000
20.61178 284.000
20.63173 284.000
20.65168 281.000
20.67162 271.000
20.69157 297.000
20.71152 284.000
20.73147 264.000
20.75141 284.000
20.77136 270.000
20.79131 298.000
20.81125 293.000
20.83120 272.000
20.85115 243.000
20.87109 304.000
20.89104 285.000
20.91099 303.000
20.93094 326.000
20.95088 288.000
20.97083 286.000
20.99078 295.000
21.01072 297.000
21.03067 289.000
21.05062 317.000
21.07056 303.000
21.09051 315.000
21.11046 308.000
21.13040 271.000
21.15035 295.000
21.17030 306.000
21.19025 297.000
21.21019 295.000
21.23014 259.000
21.25009 286.000
21.27003 287.000
21.28998 274.000
21.30993 271.000
21.32987 300.000
21.34982 291.000
21.36977 247.000
21.38972 263.000
21.40966 288.000
21.42961 286.000
21.44956 280.000
21.46950 280.000
21.48945 316.000
21.50940 286.000
21.52934 291.000
21.54929 314.000
21.56924 286.000
21.58918 297.000
21.60913 295.000
21.62908 276.000
21.64903 292.000
21.66897 297.000
21.68892 274.000
21.70887 287.000
21.72881 286.000
21.74876 298.000
21.76871 299.000
21.78865 265.000
21.80860 297.000
21.82855 275.000
21.84850 313.000
21.86844 277.000
21.88839 293.000
21.90834 262.000
21.92828 276.000
21.94823 281.000
21.96818 290.000
21.98812 258.000
22.00807 306.000
22.02802 281.000
22.04796 277.000
22.06791 287.000
22.08786 278.000
22.10781 309.000
22.12775 289.000
22.14770 314.000
22.16765 269.000
22.18759 277.000
22.20754 276.000
22.22749 281.000
22.24743 286.000
22.26738 273.000
22.28733 259.000
22.30728 301.000
22.32722 310.000
22.34717 277.000
22.36712 273.000
22.38706 270.000
22.40701 265.000
22.42696 258.000
22.44690 297.000
22.46685 258.000
22.48680 270.000
22.50675 291.000
22.52669 292.000
22.54664 287.000
22.56659 275.000
22.58653 290.000
22.60648 262.000
22.62643 262.000
22.64637 258.000
22.66632 259.000
22.68627 263.000
22.70621 261.000
22.72616 267.000
22.74611 285.000
22.76606 265.000
22.78600 268.000
22.80595 266.000
22.82590 306.000
22.84584 272.000
22.86579 298.000
22.88574 263.000
22.90568 309.000
22.92563 267.000
22.94558 317.000
22.96553 263.000
22.98547 283.000
23.00542 322.000
23.02537 273.000
23.04531 276.000
23.06526 271.000
23.08521 261.000
23.10515 302.000
23.12510 269.000
23.14505 294.000
23.16499 274.000
23.18494 287.000
23.20489 280.000
23.22484 272.000
23.24478 310.000
23.26473 280.000
23.28468 275.000
23.30462 293.000
23.32457 276.000
23.34452 286.000
23.36446 271.000
23.38441 284.000
23.40436 269.000
23.42431 290.000
23.44425 292.000
23.46420 277.000
23.48415 271.000
23.50409 297.000
23.52404 302.000
23.54399 271.000
23.56393 299.000
23.58388 280.000
23.60383 229.000
23.62377 308.000
23.64372 266.000
23.66367 290.000
23.68362 271.000
23.70356 302.000
23.72351 292.000
23.74346 282.000
23.76340 253.000
23.78335 280.000
23.80330 276.000
23.82324 277.000
23.84319 302.000
23.86314 261.000
23.88309 274.000
23.90303 290.000
23.92298 265.000
23.94293 270.000
23.96287 266.000
23.98282 265.000
24.00277 259.000
24.02271 280.000
24.04266 278.000
24.06261 292.000
24.08256 279.000
24.10250 265.000
24.12245 283.000
24.14240 249.000
24.16234 302.000
24.18229 284.000
24.20224 303.000
24.22218 307.000
24.24213 273.000
24.26208 306.000
24.28202 280.000
24.30197 264.000
24.32192 294.000
24.34187 310.000
24.36181 259.000
24.38176 287.000
24.40171 295.000
24.42165 297.000
24.44160 293.000
24.46155 274.000
24.48149 290.000
24.50144 282.000
24.52139 276.000
24.54134 277.000
24.56128 261.000
24.58123 278.000
24.60118 288.000
24.62112 304.000
24.64107 271.000
24.66102 291.000
24.68096 267.000
24.70091 305.000
24.72086 260.000
24.74080 299.000
24.76075 272.000
24.78070 288.000
24.80065 284.000
24.82059 278.000
24.84054 280.000
24.86049 307.000
24.88043 268.000
24.90038 310.000
24.92033 288.000
24.94027 291.000
24.96022 319.000
24.98017 309.000
25.00012 296.000
25.02006 325.000
25.04001 331.000
25.05996 273.000
25.07990 289.000
25.09985 299.000
25.11980 253.000
25.13974 256.000
25.15969 272.000
25.17964 264.000
25.19958 294.000
25.21953 287.000
25.23948 287.000
25.25943 310.000
25.27937 326.000
25.29932 290.000
25.31927 283.000
25.33921 253.000
25.35916 295.000
25.37911 278.000
25.39905 307.000
25.41900 254.000
25.43895 280.000
25.45890 285.000
25.47884 301.000
25.49879 295.000
25.51874 289.000
25.53868 301.000
25.55863 262.000
25.57858 287.000
25.59852 302.000
25.61847 292.000
25.63842 312.000
25.65837 279.000
25.67831 278.000
25.69826 281.000
25.71821 298.000
25.73815 297.000
25.75810 305.000
25.77805 301.000
25.79799 269.000
25.81794 292.000
25.83789 295.000
25.85783 297.000
25.87778 300.000
25.89773 294.000
25.91768 309.000
25.93762 327.000
25.95757 304.000
25.97752 312.000
25.99746 298.000
26.01741 287.000
26.03736 290.000
26.05730 309.000
26.07725 277.000
26.09720 273.000
26.11715 293.000
26.13709 289.000
26.15704 302.000
26.17699 268.000
26.19693 306.000
26.21688 275.000
26.23683 286.000
26.25677 283.000
26.27672 284.000
26.29667 256.000
26.31661 274.000
26.33656 309.000
26.35651 305.000
26.37646 282.000
26.39640 306.000
26.41635 288.000
26.43630 309.000
26.45624 280.000
26.47619 306.000
26.49614 291.000
26.51608 314.000
26.53603 271.000
26.55598 266.000
26.57593 270.000
26.59587 318.000
26.61582 294.000
26.63577 270.000
26.65571 311.000
26.67566 290.000
26.69561 270.000
26.71555 302.000
26.73550 246.000
26.75545 278.000
26.77539 300.000
26.79534 314.000
26.81529 283.000
26.83524 305.000
26.85518 293.000
26.87513 298.000
26.89508 262.000
26.91502 311.000
26.93497 292.000
26.95492 303.000
26.97486 300.000
26.99481 262.000
27.01476 303.000
27.03471 293.000
27.05465 350.000
27.07460 331.000
27.09455 294.000
27.11449 311.000
27.13444 310.000
27.15439 316.000
27.17433 308.000
27.19428 288.000
27.21423 318.000
27.23417 330.000
27.25412 282.000
27.27407 302.000
27.29402 320.000
27.31396 300.000
27.33391 294.000
27.35386 297.000
27.37380 278.000
27.39375 301.000
27.41370 283.000
27.43364 279.000
27.45359 286.000
27.47354 316.000
27.49349 272.000
27.51343 299.000
27.53338 305.000
27.55333 313.000
27.57327 277.000
27.59322 287.000
27.61317 250.000
27.63311 315.000
27.65306 273.000
27.67301 289.000
27.69296 297.000
27.71290 276.000
27.73285 283.000
27.75280 289.000
27.77274 270.000
27.79269 275.000
27.81264 335.000
27.83258 288.000
27.85253 296.000
27.87248 300.000
27.89242 289.000
27.91237 294.000
27.93232 308.000
27.95227 293.000
27.97221 269.000
27.99216 284.000
28.01211 303.000
28.03205 314.000
28.05200 318.000
28.07195 268.000
28.09189 293.000
28.11184 299.000
28.13179 286.000
28.15174 290.000
28.17168 337.000
28.19163 302.000
28.21158 295.000
28.23152 307.000
28.25147 314.000
28.27142 290.000
28.29136 291.000
28.31131 267.000
28.33126 297.000
28.35120 325.000
28.37115 281.000
28.39110 289.000
28.41105 250.000
28.43099 262.000
28.45094 295.000
28.47089 310.000
28.49083 298.000
28.51078 280.000
28.53073 280.000
28.55067 291.000
28.57062 344.000
28.59057 296.000
28.61052 277.000
28.63046 306.000
28.65041 277.000
28.67036 290.000
28.69030 320.000
28.71025 286.000
28.73020 308.000
28.75014 320.000
28.77009 261.000
28.79004 293.000
28.80998 301.000
28.82993 291.000
28.84988 271.000
28.86983 317.000
28.88977 303.000
28.90972 297.000
28.92967 303.000
28.94961 291.000
28.96956 263.000
28.98951 302.000
29.00945 283.000
29.02940 279.000
29.04935 272.000
29.06930 291.000
29.08924 281.000
29.10919 294.000
29.12914 273.000
29.14908 302.000
29.16903 282.000
29.18898 295.000
29.20892 343.000
29.22887 307.000
29.24882 320.000
29.26877 346.000
29.28871 352.000
29.30866 338.000
29.32861 360.000
29.34855 383.000
29.36850 356.000
29.38845 358.000
29.40839 337.000
29.42834 355.000
29.44829 340.000
29.46823 340.000
29.48818 310.000
29.50813 307.000
29.52808 318.000
29.54802 281.000
29.56797 265.000
29.58792 291.000
29.60786 308.000
29.62781 290.000
29.64776 302.000
29.66770 309.000
29.68765 320.000
29.70760 292.000
29.72755 308.000
29.74749 304.000
29.76744 287.000
29.78739 295.000
29.80733 285.000
29.82728 260.000
29.84723 274.000
29.86717 366.000
29.88712 302.000
29.90707 310.000
29.92701 271.000
29.94696 285.000
29.96691 279.000
29.98686 314.000
30.00680 294.000
30.02675 292.000
30.04670 301.000
30.06664 313.000
30.08659 318.000
30.10654 329.000
30.12648 298.000
30.14643 305.000
30.16638 302.000
30.18633 300.000
30.20627 290.000
30.22622 252.000
30.24617 310.000
30.26611 294.000
30.28606 266.000
30.30601 299.000
30.32595 322.000
30.34590 296.000
30.36585 284.000
30.38579 312.000
30.40574 289.000
30.42569 317.000
30.44564 282.000
30.46558 304.000
30.48553 284.000
30.50548 305.000
30.52542 301.000
30.54537 303.000
30.56532 294.000
30.58526 271.000
30.60521 306.000
30.62516 304.000
30.64511 340.000
30.66505 286.000
30.68500 291.000
30.70495 298.000
30.72489 305.000
30.74484 275.000
30.76479 310.000
30.78473 326.000
30.80468 281.000
30.82463 283.000
30.84458 348.000
30.86452 293.000
30.88447 264.000
30.90442 333.000
30.92436 294.000
30.94431 313.000
30.96426 270.000
30.98420 295.000
31.00415 279.000
31.02410 301.000
31.04404 284.000
31.06399 304.000
31.08394 329.000
31.10389 284.000
31.12383 313.000
31.14378 288.000
31.16373 285.000
31.18367 312.000
31.20362 282.000
31.22357 313.000
31.24351 298.000
31.26346 307.000
31.28341 330.000
31.30336 304.000
31.32330 318.000
31.34325 306.000
31.36320 302.000
31.38314 305.000
31.40309 311.000
31.42304 283.000
31.44298 300.000
31.46293 325.000
31.48288 316.000
31.50282 307.000
31.52277 335.000
31.54272 379.000
31.56267 378.000
31.58261 376.000
31.60256 422.000
31.62251 461.000
31.64245 517.000
31.66240 621.000
31.68235 710.000
31.70229 847.000
31.72224 972.000
31.74219 1066.000
31.76214 1056.000
31.78208 989.000
31.80203 913.000
31.82198 899.000
31.84192 757.000
31.86187 689.000
31.88182 671.000
31.90176 560.000
31.92171 484.000
31.94166 484.000
31.96160 443.000
31.98155 436.000
32.00150 410.000
32.02145 397.000
32.04139 377.000
32.06134 366.000
32.08129 339.000
32.10123 330.000
32.12118 318.000
32.14113 301.000
32.16107 340.000
32.18102 266.000
32.20097 317.000
32.22092 297.000
32.24086 339.000
32.26081 300.000
32.28076 347.000
32.30070 331.000
32.32065 298.000
32.34060 293.000
32.36054 334.000
32.38049 328.000
32.40044 329.000
32.42039 337.000
32.44033 391.000
32.46028 422.000
32.48023 527.000
32.50017 498.000
32.52012 505.000
32.54007 450.000
32.56001 447.000
32.57996 404.000
32.59991 384.000
32.61985 340.000
32.63980 327.000
32.65975 318.000
32.67970 302.000
32.69964 311.000
32.71959 305.000
32.73954 309.000
32.75948 310.000
32.77943 323.000
32.79938 317.000
32.81932 287.000
32.83927 300.000
32.85922 330.000
32.87917 295.000
32.89911 264.000
32.91906 303.000
32.93901 287.000
32.95895 294.000
32.97890 284.000
32.99885 296.000
33.01879 301.000
33.03874 286.000
33.05869 300.000
33.07863 302.000
33.09858 305.000
33.11853 302.000
33.13848 302.000
33.15842 316.000
33.17837 291.000
33.19832 309.000
33.21826 326.000
33.23821 302.000
33.25816 292.000
33.27810 286.000
33.29805 330.000
33.31800 273.000
33.33795 305.000
33.35789 279.000
33.37784 289.000
33.39779 293.000
33.41773 283.000
33.43768 305.000
33.45763 299.000
33.47757 332.000
33.49752 308.000
33.51747 280.000
33.53741 298.000
33.55736 292.000
33.57731 304.000
33.59726 323.000
33.61720 295.000
33.63715 321.000
33.65710 273.000
33.67704 292.000
33.69699 322.000
33.71694 295.000
33.73688 302.000
33.75683 288.000
33.77678 327.000
33.79673 286.000
33.81667 300.000
33.83662 327.000
33.85657 321.000
33.87651 309.000
33.89646 319.000
33.91641 297.000
33.93635 338.000
33.95630 317.000
33.97625 296.000
33.99620 315.000
34.01614 273.000
34.03609 305.000
34.05604 304.000
34.07598 325.000
34.09593 351.000
34.11588 336.000
34.13582 296.000
34.15577 311.000
34.17572 330.000
34.19566 324.000
34.21561 333.000
34.23556 328.000
34.25551 290.000
34.27545 286.000
34.29540 309.000
34.31535 315.000
34.33529 316.000
34.35524 338.000
34.37519 299.000
34.39513 289.000
34.41508 321.000
34.43503 332.000
34.45498 304.000
34.47492 320.000
34.49487 319.000
34.51482 314.000
34.53476 338.000
34.55471 317.000
34.57466 313.000
34.59460 306.000
34.61455 357.000
34.63450 338.000
34.65444 374.000
34.67439 320.000
34.69434 376.000
34.71429 318.000
34.73423 342.000
34.75418 370.000
34.77413 403.000
34.79407 349.000
34.81402 346.000
34.83397 344.000
34.85391 343.000
34.87386 342.000
34.89381 339.000
34.91376 360.000
34.93370 337.000
34.95365 312.000
34.97360 323.000
34.99354 341.000
35.01349 346.000
35.03344 357.000
35.05338 330.000
35.07333 345.000
35.09328 322.000
35.11322 339.000
35.13317 349.000
35.15312 356.000
35.17307 381.000
35.19301 408.000
35.21296 404.000
35.23291 389.000
35.25285 446.000
35.27280 412.000
35.29275 464.000
35.31269 585.000
35.33264 601.000
35.35259 680.000
35.37254 893.000
35.39248 1157.000
35.41243 1398.000
35.43238 1423.000
35.45232 1523.000
35.47227 1911.000
35.49222 2340.000
35.51216 2527.000
35.53211 2316.000
35.55206 1888.000
35.57201 1620.000
35.59195 1564.000
35.61190 1454.000
35.63185 1284.000
35.65179 1005.000
35.67174 828.000
35.69169 791.000
35.71163 793.000
35.73158 792.000
35.75153 868.000
35.77147 948.000
35.79142 1059.000
35.81137 1175.000
35.83132 1288.000
35.85126 1318.000
35.87121 1225.000
35.89116 1100.000
35.91110 1019.000
35.93105 929.000
35.95100 818.000
35.97094 735.000
35.99089 625.000
36.01084 530.000
36.03079 456.000
36.05073 389.000
36.07068 435.000
36.09063 413.000
36.11057 399.000
36.13052 369.000
36.15047 369.000
36.17041 353.000
36.19036 369.000
36.21031 334.000
36.23025 358.000
36.25020 368.000
36.27015 369.000
36.29010 305.000
36.31004 348.000
36.32999 362.000
36.34994 345.000
36.36988 337.000
36.38983 369.000
36.40978 371.000
36.42972 364.000
36.44967 351.000
36.46962 363.000
36.48957 350.000
36.50951 336.000
36.52946 362.000
36.54941 352.000
36.56935 326.000
36.58930 364.000
36.60925 353.000
36.62919 380.000
36.64914 391.000
36.66909 415.000
36.68903 401.000
36.70898 433.000
36.72893 468.000
36.74888 448.000
36.76882 432.000
36.78877 407.000
36.80872 412.000
36.82866 394.000
36.84861 366.000
36.86856 364.000
36.88850 343.000
36.90845 345.000
36.92840 344.000
36.94835 355.000
36.96829 346.000
36.98824 337.000
37.00819 326.000
37.02813 344.000
37.04808 361.000
37.06803 341.000
37.08797 370.000
37.10792 351.000
37.12787 361.000
37.14781 313.000
37.16776 357.000
37.18771 356.000
37.20766 340.000
37.22760 333.000
37.24755 357.000
37.26750 323.000
37.28744 342.000
37.30739 359.000
37.32734 325.000
37.34728 338.000
37.36723 345.000
37.38718 348.000
37.40713 361.000
37.42707 355.000
37.44702 356.000
37.46697 313.000
37.48691 335.000
37.50686 347.000
37.52681 340.000
37.54675 350.000
37.56670 300.000
37.58665 333.000
37.60660 342.000
37.62654 324.000
37.64649 320.000
37.66644 367.000
37.68638 317.000
37.70633 348.000
37.72628 314.000
37.74622 335.000
37.76617 319.000
37.78612 345.000
37.80606 333.000
37.82601 355.000
37.84596 341.000
37.86591 324.000
37.88585 327.000
37.90580 360.000
37.92575 349.000
37.94569 370.000
37.96564 331.000
37.98559 323.000
38.00553 361.000
38.02548 359.000
38.04543 325.000
38.06538 328.000
38.08532 330.000
38.10527 355.000
38.12522 344.000
38.14516 334.000
38.16511 352.000
38.18506 357.000
38.20500 353.000
38.22495 352.000
38.24490 358.000
38.26484 372.000
38.28479 389.000
38.30474 372.000
38.32469 390.000
38.34463 367.000
38.36458 388.000
38.38453 390.000
38.40447 385.000
38.42442 408.000
38.44437 468.000
38.46431 457.000
38.48426 501.000
38.50421 481.000
38.52416 573.000
38.54410 587.000
38.56405 664.000
38.58400 754.000
38.60394 860.000
38.62389 1041.000
38.64384 1303.000
38.66378 1765.000
38.68373 2070.000
38.70368 2486.000
38.72362 2268.000
38.74357 1960.000
38.76352 1745.000
38.78347 1770.000
38.80341 1691.000
38.82336 1581.000
38.84331 1417.000
38.86325 1236.000
38.88320 1231.000
38.90315 1153.000
38.92309 943.000
38.94304 876.000
38.96299 787.000
38.98294 763.000
39.00288 748.000
39.02283 698.000
39.04278 599.000
39.06272 575.000
39.08267 561.000
39.10262 574.000
39.12256 613.000
39.14251 599.000
39.16246 619.000
39.18241 724.000
39.20235 810.000
39.22230 827.000
39.24225 952.000
39.26219 1155.000
39.28214 1334.000
39.30209 1581.000
39.32203 1837.000
39.34198 2002.000
39.36193 2056.000
39.38187 2027.000
39.40182 1947.000
39.42177 1720.000
39.44172 1482.000
39.46166 1404.000
39.48161 1259.000
39.50156 1037.000
39.52150 840.000
39.54145 718.000
39.56140 586.000
39.58134 563.000
39.60129 499.000
39.62124 480.000
39.64119 478.000
39.66113 394.000
39.68108 414.000
39.70103 415.000
39.72097 372.000
39.74092 381.000
39.76087 379.000
39.78081 403.000
39.80076 392.000
39.82071 360.000
39.84065 339.000
39.86060 353.000
39.88055 350.000
39.90050 336.000
39.92044 335.000
39.94039 336.000
39.96034 319.000
39.98028 311.000
40.00023 354.000
40.02018 328.000
40.04012 317.000
40.06007 323.000
40.08002 335.000
40.09997 301.000
40.11991 313.000
40.13986 305.000
40.15981 291.000
40.17975 318.000
40.19970 316.000
40.21965 297.000
40.23959 294.000
40.25954 311.000
40.27949 300.000
40.29943 305.000
40.31938 310.000
40.33933 303.000
40.35928 298.000
40.37922 332.000
40.39917 294.000
40.41912 285.000
40.43906 324.000
40.45901 303.000
40.47896 315.000
40.49890 301.000
40.51885 301.000
40.53880 305.000
40.55875 315.000
40.57869 296.000
40.59864 307.000
40.61859 328.000
40.63853 308.000
40.65848 322.000
40.67843 308.000
40.69837 315.000
40.71832 294.000
40.73827 301.000
40.75822 313.000
40.77816 303.000
40.79811 335.000
40.81806 293.000
40.83800 302.000
40.85795 331.000
40.87790 304.000
40.89784 321.000
40.91779 283.000
40.93774 312.000
40.95768 295.000
40.97763 297.000
40.99758 340.000
41.01753 316.000
41.03747 297.000
41.05742 325.000
41.07737 293.000
41.09731 327.000
41.11726 285.000
41.13721 315.000
41.15715 307.000
41.17710 297.000
41.19705 297.000
41.21700 286.000
41.23694 295.000
41.25689 300.000
41.27684 298.000
41.29678 287.000
41.31673 297.000
41.33668 299.000
41.35662 341.000
41.37657 274.000
41.39652 331.000
41.41646 299.000
41.43641 320.000
41.45636 308.000
41.47631 316.000
41.49625 333.000
41.51620 343.000
41.53615 316.000
41.55609 314.000
41.57604 303.000
41.59599 281.000
41.61593 309.000
41.63588 342.000
41.65583 335.000
41.67578 301.000
41.69572 330.000
41.71567 314.000
41.73562 306.000
41.75556 303.000
41.77551 307.000
41.79546 271.000
41.81540 317.000
41.83535 271.000
41.85530 298.000
41.87524 306.000
41.89519 308.000
41.91514 297.000
41.93509 326.000
41.95503 326.000
41.97498 314.000
41.99493 258.000
42.01487 284.000
42.03482 314.000
42.05477 276.000
42.07471 308.000
42.09466 285.000
42.11461 290.000
42.13456 287.000
42.15450 293.000
42.17445 311.000
42.19440 271.000
42.21434 310.000
42.23429 315.000
42.25424 318.000
42.27418 307.000
42.29413 320.000
42.31408 338.000
42.33403 340.000
42.35397 324.000
42.37392 323.000
42.39387 268.000
42.41381 347.000
42.43376 321.000
42.45371 338.000
42.47365 324.000
42.49360 296.000
42.51355 304.000
42.53349 320.000
42.55344 330.000
42.57339 309.000
42.59334 303.000
42.61328 372.000
42.63323 347.000
42.65318 317.000
42.67312 326.000
42.69307 338.000
42.71302 295.000
42.73296 280.000
42.75291 283.000
42.77286 338.000
42.79281 325.000
42.81275 314.000
42.83270 353.000
42.85265 291.000
42.87259 334.000
42.89254 316.000
42.91249 303.000
42.93243 334.000
42.95238 326.000
42.97233 329.000
42.99227 321.000
43.01222 315.000
43.03217 313.000
43.05212 309.000
43.07206 325.000
43.09201 331.000
43.11196 331.000
43.13190 362.000
43.15185 362.000
43.17180 336.000
43.19174 384.000
43.21169 407.000
43.23164 380.000
43.25159 446.000
43.27153 485.000
43.29148 526.000
43.31143 588.000
43.33137 619.000
43.35132 687.000
43.37127 772.000
43.39121 854.000
43.41116 891.000
43.43111 845.000
43.45105 799.000
43.47100 771.000
43.49095 716.000
43.51090 727.000
43.53084 716.000
43.55079 607.000
43.57074 533.000
43.59068 496.000
43.61063 495.000
43.63058 470.000
43.65052 412.000
43.67047 412.000
43.69042 333.000
43.71037 369.000
43.73031 387.000
43.75026 362.000
43.77021 335.000
43.79015 301.000
43.81010 304.000
43.83005 327.000
43.84999 324.000
43.86994 319.000
43.88989 332.000
43.90984 308.000
43.92978 326.000
43.94973 315.000
43.96968 329.000
43.98962 293.000
44.00957 303.000
44.02952 282.000
44.04946 322.000
44.06941 312.000
44.08936 319.000
44.10930 299.000
44.12925 322.000
44.14920 272.000
44.16915 312.000
44.18909 340.000
44.20904 319.000
44.22899 299.000
44.24893 304.000
44.26888 314.000
44.28883 312.000
44.30877 327.000
44.32872 306.000
44.34867 336.000
44.36862 331.000
44.38856 324.000
44.40851 316.000
44.42846 294.000
44.44840 312.000
44.46835 341.000
44.48830 317.000
44.50824 279.000
44.52819 329.000
44.54814 307.000
44.56808 311.000
44.58803 312.000
44.60798 339.000
44.62793 308.000
44.64787 277.000
44.66782 324.000
44.68777 318.000
44.70771 294.000
44.72766 333.000
44.74761 283.000
44.76755 305.000
44.78750 317.000
44.80745 320.000
44.82740 308.000
44.84734 330.000
44.86729 317.000
44.88724 340.000
44.90718 290.000
44.92713 280.000
44.94708 352.000
44.96702 316.000
44.98697 309.000
45.00692 312.000
45.02686 296.000
45.04681 304.000
45.06676 284.000
45.08671 304.000
45.10665 286.000
45.12660 311.000
45.14655 330.000
45.16649 296.000
45.18644 290.000
45.20639 292.000
45.22633 287.000
45.24628 297.000
45.26623 275.000
45.28618 277.000
45.30612 279.000
45.32607 320.000
45.34602 298.000
45.36596 327.000
45.38591 294.000
45.40586 339.000
45.42580 345.000
45.44575 342.000
45.46570 285.000
45.48565 323.000
45.50559 290.000
45.52554 305.000
45.54549 329.000
45.56543 302.000
45.58538 280.000
45.60533 309.000
45.62527 303.000
45.64522 284.000
45.66517 312.000
45.68511 318.000
45.70506 286.000
45.72501 289.000
45.74496 303.000
45.76490 286.000
45.78485 310.000
45.80480 294.000
45.82474 272.000
45.84469 282.000
45.86464 293.000
45.88458 292.000
45.90453 305.000
45.92448 284.000
45.94443 308.000
45.96437 290.000
45.98432 297.000
46.00427 305.000
46.02421 317.000
46.04416 315.000
46.06411 306.000
46.08405 305.000
46.10400 296.000
46.12395 313.000
46.14389 318.000
46.16384 328.000
46.18379 350.000
46.20374 334.000
46.22368 321.000
46.24363 331.000
46.26358 320.000
46.28352 320.000
46.30347 370.000
46.32342 342.000
46.34336 335.000
46.36331 302.000
46.38326 333.000
46.40321 305.000
46.42315 341.000
46.44310 301.000
46.46305 344.000
46.48299 319.000
46.50294 327.000
46.52289 320.000
46.54283 313.000
46.56278 267.000
46.58273 288.000
46.60267 310.000
46.62262 290.000
46.64257 294.000
46.66252 300.000
46.68246 299.000
46.70241 273.000
46.72236 297.000
46.74230 303.000
46.76225 301.000
46.78220 306.000
46.80214 305.000
46.82209 315.000
46.84204 295.000
46.86199 309.000
46.88193 285.000
46.90188 301.000
46.92183 286.000
46.94177 273.000
46.96172 288.000
46.98167 314.000
47.00161 315.000
47.02156 293.000
47.04151 264.000
47.06146 308.000
47.08140 293.000
47.10135 293.000
47.12130 307.000
47.14124 302.000
47.16119 298.000
47.18114 301.000
47.20108 309.000
47.22103 347.000
47.24098 283.000
47.26092 310.000
47.28087 309.000
47.30082 306.000
47.32077 313.000
47.34071 321.000
47.36066 330.000
47.38061 301.000
47.40055 305.000
47.42050 307.000
47.44045 308.000
47.46039 314.000
47.48034 292.000
47.50029 273.000
47.52024 334.000
47.54018 302.000
47.56013 340.000
47.58008 321.000
47.60002 302.000
47.61997 309.000
47.63992 334.000
47.65986 316.000
47.67981 301.000
47.69976 315.000
47.71970 330.000
47.73965 314.000
47.75960 341.000
47.77955 342.000
47.79949 324.000
47.81944 320.000
47.83939 329.000
47.85933 359.000
47.87928 315.000
47.89923 353.000
47.91917 343.000
47.93912 327.000
47.95907 365.000
47.97902 338.000
47.99896 343.000
48.01891 322.000
48.03886 343.000
48.05880 340.000
48.07875 388.000
48.09870 401.000
48.11864 362.000
48.13859 371.000
48.15854 362.000
48.17848 388.000
48.19843 378.000
48.21838 405.000
48.23833 378.000
48.25827 386.000
48.27822 405.000
48.29817 447.000
48.31811 413.000
48.33806 441.000
48.35801 462.000
48.37795 487.000
48.39790 524.000
48.41785 554.000
48.43780 631.000
48.45774 650.000
48.47769 757.000
48.49764 837.000
48.51758 1005.000
48.53753 1100.000
48.55748 1226.000
48.57742 1545.000
48.59737 1758.000
48.61732 1851.000
48.63726 2030.000
48.65721 1981.000
48.67716 2067.000
48.69711 1923.000
48.71705 1784.000
48.73700 1686.000
48.75695 1672.000
48.77689 1486.000
48.79684 1354.000
48.81679 1257.000
48.83673 1073.000
48.85668 917.000
48.87663 770.000
48.89658 681.000
48.91652 591.000
48.93647 568.000
48.95642 536.000
48.97636 454.000
48.99631 431.000
49.01626 423.000
49.03620 426.000
49.05615 405.000
49.07610 408.000
49.09605 399.000
49.11599 340.000
49.13594 369.000
49.15589 372.000
49.17583 401.000
49.19578 342.000
49.21573 361.000
49.23567 349.000
49.25562 349.000
49.27557 340.000
49.29551 339.000
49.31546 363.000
49.33541 331.000
49.35536 331.000
49.37530 304.000
49.39525 322.000
49.41520 334.000
49.43514 323.000
49.45509 326.000
49.47504 315.000
49.49498 291.000
49.51493 306.000
49.53488 275.000
49.55483 333.000
49.57477 322.000
49.59472 312.000
49.61467 334.000
49.63461 313.000
49.65456 342.000
49.67451 295.000
49.69445 290.000
49.71440 320.000
49.73435 287.000
49.75429 333.000
49.77424 302.000
49.79419 319.000
49.81414 314.000
49.83408 303.000
49.85403 284.000
49.87398 289.000
49.89392 277.000
49.91387 328.000
49.93382 291.000
49.95376 332.000
49.97371 317.000
49.99366 311.000
50.01361 314.000
50.03355 342.000
50.05350 313.000
50.07345 320.000
50.09339 308.000
50.11334 304.000
50.13329 312.000
50.15323 254.000
50.17318 320.000
50.19313 309.000
50.21307 312.000
50.23302 296.000
50.25297 314.000
50.27292 304.000
50.29286 320.000
50.31281 323.000
50.33276 312.000
50.35270 280.000
50.37265 315.000
50.39260 283.000
50.41254 314.000
50.43249 302.000
50.45244 272.000
50.47239 288.000
50.49233 305.000
50.51228 257.000
50.53223 279.000
50.55217 299.000
50.57212 285.000
50.59207 297.000
50.61201 319.000
50.63196 303.000
50.65191 287.000
50.67186 278.000
50.69180 305.000
50.71175 254.000
50.73170 262.000
50.75164 309.000
50.77159 315.000
50.79154 283.000
50.81148 298.000
50.83143 297.000
50.85138 289.000
50.87132 292.000
50.89127 350.000
50.91122 302.000
50.93117 310.000
50.95111 285.000
50.97106 287.000
50.99101 310.000
51.01095 293.000
51.03090 297.000
51.05085 291.000
51.07079 268.000
51.09074 264.000
51.11069 311.000
51.13064 306.000
51.15058 319.000
51.17053 280.000
51.19048 284.000
51.21042 302.000
51.23037 326.000
51.25032 296.000
51.27026 314.000
51.29021 303.000
51.31016 322.000
51.33010 305.000
51.35005 298.000
51.37000 317.000
51.38995 337.000
51.40989 313.000
51.42984 324.000
51.44979 301.000
51.46973 300.000
51.48968 290.000
51.50963 299.000
51.52957 337.000
51.54952 291.000
51.56947 308.000
51.58942 293.000
51.60936 297.000
51.62931 296.000
51.64926 287.000
51.66920 285.000
51.68915 296.000
51.70910 281.000
51.72904 310.000
51.74899 305.000
51.76894 268.000
51.78888 324.000
51.80883 300.000
51.82878 310.000
51.84873 304.000
51.86867 305.000
51.88862 307.000
51.90857 334.000
51.92851 268.000
51.94846 281.000
51.96841 278.000
51.98835 303.000
52.00830 301.000
52.02825 304.000
52.04820 285.000
52.06814 335.000
52.08809 302.000
52.10804 322.000
52.12798 328.000
52.14793 300.000
52.16788 312.000
52.18782 336.000
52.20777 316.000
52.22772 325.000
52.24767 301.000
52.26761 305.000
52.28756 290.000
52.30751 326.000
52.32745 312.000
52.34740 293.000
52.36735 298.000
52.38729 310.000
52.40724 297.000
52.42719 280.000
52.44713 314.000
52.46708 233.000
52.48703 303.000
52.50698 281.000
52.52692 285.000
52.54687 321.000
52.56682 307.000
52.58676 296.000
52.60671 284.000
52.62666 276.000
52.64660 297.000
52.66655 279.000
52.68650 301.000
52.70645 312.000
52.72639 313.000
52.74634 309.000
52.76629 291.000
52.78623 290.000
52.80618 286.000
52.82613 276.000
52.84607 300.000
52.86602 283.000
52.88597 274.000
52.90591 296.000
52.92586 278.000
52.94581 322.000
52.96576 314.000
52.98570 300.000
53.00565 302.000
53.02560 308.000
53.04554 320.000
53.06549 295.000
53.08544 295.000
53.10538 310.000
53.12533 310.000
53.14528 301.000
53.16523 291.000
53.18517 297.000
53.20512 335.000
53.22507 318.000
53.24501 313.000
53.26496 331.000
53.28491 335.000
53.30485 331.000
53.32480 313.000
53.34475 332.000
53.36469 329.000
53.38464 364.000
53.40459 387.000
53.42454 407.000
53.44448 404.000
53.46443 452.000
53.48438 435.000
53.50432 430.000
53.52427 423.000
53.54422 386.000
53.56416 410.000
53.58411 400.000
53.60406 407.000
53.62401 417.000
53.64395 422.000
53.66390 395.000
53.68385 328.000
53.70379 318.000
53.72374 325.000
53.74369 326.000
53.76363 316.000
53.78358 308.000
53.80353 328.000
53.82348 319.000
53.84342 300.000
53.86337 302.000
53.88332 291.000
53.90326 297.000
53.92321 316.000
53.94316 316.000
53.96310 289.000
53.98305 315.000
54.00300 320.000
54.02294 304.000
54.04289 311.000
54.06284 286.000
54.08279 296.000
54.10273 320.000
54.12268 297.000
54.14263 340.000
54.16257 329.000
54.18252 263.000
54.20247 280.000
54.22241 283.000
54.24236 307.000
54.26231 296.000
54.28226 293.000
54.30220 317.000
54.32215 292.000
54.34210 258.000
54.36204 288.000
54.38199 330.000
54.40194 300.000
54.42188 282.000
54.44183 305.000
54.46178 295.000
54.48172 302.000
54.50167 281.000
54.52162 316.000
54.54157 307.000
54.56151 291.000
54.58146 256.000
54.60141 308.000
54.62135 317.000
54.64130 288.000
54.66125 283.000
54.68119 270.000
54.70114 323.000
54.72109 316.000
54.74104 274.000
54.76098 312.000
54.78093 285.000
54.80088 306.000
54.82082 285.000
54.84077 348.000
54.86072 304.000
54.88066 288.000
54.90061 312.000
54.92056 308.000
54.94050 271.000
54.96045 298.000
54.98040 269.000
55.00035 282.000
55.02029 289.000
55.04024 284.000
55.06019 317.000
55.08013 299.000
55.10008 319.000
55.12003 293.000
55.13997 293.000
55.15992 275.000
55.17987 332.000
55.19982 270.000
55.21976 300.000
55.23971 284.000
55.25966 323.000
55.27960 296.000
55.29955 282.000
55.31950 282.000
55.33944 281.000
55.35939 319.000
55.37934 267.000
55.39929 277.000
55.41923 304.000
55.43918 307.000
55.45913 300.000
55.47907 306.000
55.49902 289.000
55.51897 273.000
55.53891 297.000
55.55886 293.000
55.57881 291.000
55.59875 295.000
55.61870 308.000
55.63865 283.000
55.65860 310.000
55.67854 272.000
55.69849 301.000
55.71844 300.000
55.73838 313.000
55.75833 269.000
55.77828 324.000
55.79822 305.000
55.81817 327.000
55.83812 318.000
55.85807 298.000
55.87801 277.000
55.89796 302.000
55.91791 292.000
55.93785 311.000
55.95780 276.000
55.97775 310.000
55.99769 284.000
56.01764 286.000
56.03759 313.000
56.05753 308.000
56.07748 301.000
56.09743 315.000
56.11738 281.000
56.13732 275.000
56.15727 304.000
56.17722 305.000
56.19716 312.000
56.21711 307.000
56.23706 275.000
56.25700 310.000
56.27695 296.000
56.29690 344.000
56.31685 301.000
56.33679 285.000
56.35674 273.000
56.37669 307.000
56.39663 288.000
56.41658 315.000
56.43653 324.000
56.45647 300.000
56.47642 319.000
56.49637 315.000
56.51631 270.000
56.53626 306.000
56.55621 299.000
56.57616 277.000
56.59610 276.000
56.61605 281.000
56.63600 321.000
56.65594 306.000
56.67589 317.000
56.69584 291.000
56.71578 299.000
56.73573 287.000
56.75568 283.000
56.77563 290.000
56.79557 304.000
56.81552 290.000
56.83547 293.000
56.85541 317.000
56.87536 301.000
56.89531 297.000
56.91525 319.000
56.93520 292.000
56.95515 290.000
56.97510 313.000
56.99504 325.000
57.01499 263.000
57.03494 308.000
57.05488 282.000
57.07483 309.000
57.09478 300.000
57.11472 302.000
57.13467 309.000
57.15462 277.000
57.17456 321.000
57.19451 298.000
57.21446 284.000
57.23441 283.000
57.25435 307.000
57.27430 304.000
57.29425 304.000
57.31419 312.000
57.33414 285.000
57.35409 300.000
57.37403 300.000
57.39398 318.000
57.41393 288.000
57.43388 303.000
57.45382 296.000
57.47377 302.000
57.49372 259.000
57.51366 326.000
57.53361 322.000
57.55356 273.000
57.57350 296.000
57.59345 288.000
57.61340 321.000
57.63334 302.000
57.65329 300.000
57.67324 313.000
57.69319 316.000
57.71313 283.000
57.73308 310.000
57.75303 308.000
57.77297 305.000
57.79292 314.000
57.81287 316.000
57.83281 303.000
57.85276 317.000
57.87271 279.000
57.89266 282.000
57.91260 284.000
57.93255 311.000
57.95250 318.000
57.97244 291.000
57.99239 325.000
58.01234 295.000
58.03228 298.000
58.05223 335.000
58.07218 319.000
58.09212 335.000
58.11207 307.000
58.13202 338.000
58.15197 358.000
58.17191 379.000
58.19186 373.000
58.21181 433.000
58.23175 473.000
58.25170 524.000
58.27165 533.000
58.29159 538.000
58.31154 531.000
58.33149 408.000
58.35144 463.000
58.37138 432.000
58.39133 419.000
58.41128 400.000
58.43122 433.000
58.45117 458.000
58.47112 405.000
58.49106 400.000
58.51101 372.000
58.53096 340.000
58.55090 340.000
58.57085 314.000
58.59080 307.000
58.61075 302.000
58.63069 325.000
58.65064 295.000
58.67059 308.000
58.69053 325.000
58.71048 336.000
58.73043 301.000
58.75037 288.000
58.77032 302.000
58.79027 310.000
58.81022 322.000
58.83016 293.000
58.85011 320.000
58.87006 314.000
58.89000 291.000
58.90995 314.000
58.92990 302.000
58.94984 284.000
58.96979 308.000
58.98974 342.000
59.00969 280.000
59.02963 297.000
59.04958 309.000
59.06953 316.000
59.08947 319.000
59.10942 305.000
59.12937 290.000
59.14931 317.000
59.16926 320.000
59.18921 312.000
59.20915 306.000
59.22910 296.000
59.24905 319.000
59.26900 298.000
59.28894 292.000
59.30889 298.000
59.32884 295.000
59.34878 285.000
59.36873 266.000
59.38868 281.000
59.40862 294.000
59.42857 315.000
59.44852 313.000
59.46847 307.000
59.48841 294.000
59.50836 278.000
59.52831 302.000
59.54825 310.000
59.56820 301.000
59.58815 274.000
59.60809 324.000
59.62804 301.000
59.64799 289.000
59.66793 283.000
59.68788 272.000
59.70783 301.000
59.72778 269.000
59.74772 260.000
59.76767 269.000
59.78762 314.000
59.80756 286.000
59.82751 330.000
59.84746 267.000
59.86740 288.000
59.88735 316.000
59.90730 276.000
59.92725 274.000
59.94719 303.000
59.96714 323.000
59.98709 299.000
60.00703 296.000
60.02698 290.000
60.04693 295.000
60.06687 302.000
60.08682 304.000
60.10677 304.000
60.12671 314.000
60.14666 295.000
60.16661 294.000
60.18656 303.000
60.20650 324.000
60.22645 287.000
60.24640 315.000
60.26634 333.000
60.28629 334.000
60.30624 301.000
60.32618 325.000
60.34613 335.000
60.36608 285.000
60.38603 246.000
60.40597 311.000
60.42592 286.000
60.44587 288.000
60.46581 317.000
60.48576 275.000
60.50571 300.000
60.52565 290.000
60.54560 278.000
60.56555 323.000
60.58550 276.000
60.60544 304.000
60.62539 296.000
60.64534 322.000
60.66528 327.000
60.68523 300.000
60.70518 300.000
60.72512 337.000
60.74507 298.000
60.76502 288.000
60.78496 310.000
60.80491 302.000
60.82486 294.000
60.84481 314.000
60.86475 313.000
60.88470 288.000
60.90465 304.000
60.92459 298.000
60.94454 298.000
60.96449 301.000
60.98443 298.000
61.00438 315.000
61.02433 291.000
61.04428 303.000
61.06422 328.000
61.08417 313.000
61.10412 349.000
61.12406 337.000
61.14401 325.000
61.16396 330.000
61.18390 316.000
61.20385 302.000
61.22380 336.000
61.24374 383.000
61.26369 357.000
61.28364 324.000
61.30359 360.000
61.32353 381.000
61.34348 376.000
61.36343 395.000
61.38337 444.000
61.40332 438.000
61.42327 471.000
61.44321 542.000
61.46316 626.000
61.48311 689.000
61.50306 718.000
61.52300 799.000
61.54295 740.000
61.56290 677.000
61.58284 691.000
61.60279 701.000
61.62274 776.000
61.64268 855.000
61.66263 825.000
61.68258 937.000
61.70252 956.000
61.72247 885.000
61.74242 801.000
61.76237 849.000
61.78231 758.000
61.80226 792.000
61.82221 760.000
61.84215 713.000
61.86210 671.000
61.88205 662.000
61.90199 665.000
61.92194 661.000
61.94189 598.000
61.96184 536.000
61.98178 494.000
62.00173 487.000
62.02168 442.000
62.04162 409.000
62.06157 452.000
62.08152 418.000
62.10146 382.000
62.12141 353.000
62.14136 364.000
62.16131 370.000
62.18125 354.000
62.20120 358.000
62.22115 315.000
62.24109 334.000
62.26104 338.000
62.28099 351.000
62.30093 337.000
62.32088 322.000
62.34083 322.000
62.36077 337.000
62.38072 321.000
62.40067 295.000
62.42062 319.000
62.44056 310.000
62.46051 305.000
62.48046 296.000
62.50040 339.000
62.52035 307.000
62.54030 337.000
62.56024 298.000
62.58019 305.000
62.60014 290.000
62.62009 297.000
62.64003 293.000
62.65998 323.000
62.67993 324.000
62.69987 297.000
62.71982 268.000
62.73977 320.000
62.75971 328.000
62.77966 322.000
62.79961 311.000
62.81955 327.000
62.83950 352.000
62.85945 305.000
62.87940 305.000
62.89934 319.000
62.91929 298.000
62.93924 337.000
62.95918 327.000
62.97913 319.000
62.99908 306.000
63.01902 301.000
63.03897 316.000
63.05892 302.000
63.07887 301.000
63.09881 258.000
63.11876 299.000
63.13871 310.000
63.15865 315.000
63.17860 299.000
63.19855 299.000
63.21849 320.000
63.23844 294.000
63.25839 297.000
63.27833 290.000
63.29828 310.000
63.31823 321.000
63.33818 327.000
63.35812 322.000
63.37807 317.000
63.39802 300.000
63.41796 322.000
63.43791 306.000
63.45786 272.000
63.47780 306.000
63.49775 301.000
63.51770 312.000
63.53765 300.000
63.55759 289.000
63.57754 281.000
63.59749 305.000
63.61743 296.000
63.63738 318.000
63.65733 299.000
63.67727 292.000
63.69722 313.000
63.71717 315.000
63.73712 301.000
63.75706 314.000
63.77701 294.000
63.79696 313.000
63.81690 303.000
63.83685 322.000
63.85680 339.000
63.87674 313.000
63.89669 329.000
63.91664 292.000
63.93658 321.000
63.95653 318.000
63.97648 310.000
63.99643 285.000
64.01637 373.000
64.03632 317.000
64.05627 351.000
64.07621 376.000
64.09616 376.000
64.11611 383.000
64.13605 354.000
64.15600 381.000
64.17595 394.000
64.19590 392.000
64.21584 401.000
64.23579 415.000
64.25574 451.000
64.27568 448.000
64.29563 440.000
64.31558 500.000
64.33552 576.000
64.35547 600.000
64.37542 610.000
64.39536 648.000
64.41531 671.000
64.43526 695.000
64.45521 701.000
64.47515 700.000
64.49510 666.000
64.51505 620.000
64.53499 576.000
64.55494 614.000
64.57489 571.000
64.59483 566.000
64.61478 598.000
64.63473 550.000
64.65468 526.000
64.67462 494.000
64.69457 488.000
64.71452 479.000
64.73446 409.000
64.75441 414.000
64.77436 406.000
64.79430 405.000
64.81425 381.000
64.83420 383.000
64.85414 396.000
64.87409 353.000
64.89404 338.000
64.91399 374.000
64.93393 341.000
64.95388 340.000
64.97383 320.000
64.99377 327.000
65.01372 309.000
65.03367 364.000
65.05361 321.000
65.07356 332.000
65.09351 311.000
65.11346 317.000
65.13340 321.000
65.15335 314.000
65.17330 340.000
65.19324 329.000
65.21319 327.000
65.23314 321.000
65.25308 354.000
65.27303 296.000
65.29298 339.000
65.31293 301.000
65.33287 316.000
65.35282 304.000
65.37277 353.000
65.39271 334.000
65.41266 366.000
65.43261 333.000
65.45255 334.000
65.47250 333.000
65.49245 336.000
65.51239 355.000
65.53234 299.000
65.55229 330.000
65.57224 353.000
65.59218 358.000
65.61213 347.000
65.63208 332.000
65.65202 372.000
65.67197 420.000
65.69192 446.000
65.71186 396.000
65.73181 470.000
65.75176 466.000
65.77171 519.000
65.79165 494.000
65.81160 479.000
65.83155 472.000
65.85149 510.000
65.87144 486.000
65.89139 437.000
65.91133 466.000
65.93128 464.000
65.95123 497.000
65.97117 467.000
65.99112 486.000
66.01107 456.000
66.03102 483.000
66.05096 460.000
66.07091 459.000
66.09086 480.000
66.11080 505.000
66.13075 516.000
66.15070 570.000
66.17064 588.000
66.19059 623.000
66.21054 628.000
66.23049 607.000
66.25043 573.000
66.27038 532.000
66.29033 522.000
66.31027 511.000
66.33022 508.000
66.35017 540.000
66.37011 555.000
66.39006 516.000
66.41001 503.000
66.42995 472.000
66.44990 442.000
66.46985 461.000
66.48980 414.000
66.50974 439.000
66.52969 453.000
66.54964 458.000
66.56958 486.000
66.58953 439.000
66.60948 449.000
66.62942 453.000
66.64937 444.000
66.66932 498.000
66.68927 497.000
66.70921 540.000
66.72916 565.000
66.74911 543.000
66.76905 579.000
66.78900 654.000
66.80895 598.000
66.82889 606.000
66.84884 533.000
66.86879 523.000
66.88874 516.000
66.90868 522.000
66.92863 514.000
66.94858 484.000
66.96852 486.000
66.98847 476.000
67.00842 475.000
67.02836 433.000
67.04831 442.000
67.06826 455.000
67.08820 393.000
67.10815 357.000
67.12810 369.000
67.14805 366.000
67.16799 353.000
67.18794 368.000
67.20789 303.000
67.22783 336.000
67.24778 329.000
67.26773 329.000
67.28767 333.000
67.30762 335.000
67.32757 306.000
67.34752 328.000
67.36746 309.000
67.38741 304.000
67.40736 316.000
67.42730 300.000
67.44725 326.000
67.46720 294.000
67.48714 333.000
67.50709 308.000
67.52704 319.000
67.54698 309.000
67.56693 314.000
67.58688 297.000
67.60683 346.000
67.62677 347.000
67.64672 346.000
67.66667 327.000
67.68661 336.000
67.70656 341.000
67.72651 345.000
67.74645 346.000
67.76640 377.000
67.78635 360.000
67.80630 375.000
67.82624 401.000
67.84619 425.000
67.86614 407.000
67.88608 458.000
67.90603 450.000
67.92598 408.000
67.94592 437.000
67.96587 429.000
67.98582 455.000
68.00576 477.000
68.02571 494.000
68.04566 537.000
68.06561 528.000
68.08555 564.000
68.10550 582.000
68.12545 574.000
68.14539 515.000
68.16534 458.000
68.18529 474.000
68.20523 441.000
68.22518 379.000
68.24513 441.000
68.26508 440.000
68.28502 445.000
68.30497 443.000
68.32492 367.000
68.34486 398.000
68.36481 335.000
68.38476 339.000
68.40470 332.000
68.42465 341.000
68.44460 311.000
68.46455 325.000
68.48449 313.000
68.50444 301.000
68.52439 285.000
68.54433 293.000
68.56428 279.000
68.58423 320.000
68.60417 296.000
68.62412 315.000
68.64407 312.000
68.66401 313.000
68.68396 283.000
68.70391 323.000
68.72386 301.000
68.74380 288.000
68.76375 312.000
68.78370 300.000
68.80364 311.000
68.82359 320.000
68.84354 288.000
68.86348 339.000
68.88343 271.000
68.90338 320.000
68.92333 298.000
68.94327 302.000
68.96322 303.000
68.98317 304.000
69.00311 326.000
69.02306 353.000
69.04301 335.000
69.06295 319.000
69.08290 260.000
69.10285 277.000
69.12279 295.000
69.14274 276.000
69.16269 297.000
69.18264 308.000
69.20258 287.000
69.22253 283.000
69.24248 317.000
69.26242 291.000
69.28237 296.000
69.30232 309.000
69.32226 306.000
69.34221 302.000
69.36216 345.000
69.38211 316.000
69.40205 350.000
69.42200 297.000
69.44195 339.000
69.46189 327.000
69.48184 279.000
69.50179 294.000
69.52173 296.000
69.54168 331.000
69.56163 323.000
69.58157 257.000
69.60152 305.000
69.62147 295.000
69.64142 314.000
69.66136 280.000
69.68131 297.000
69.70126 316.000
69.72120 295.000
69.74115 306.000
69.76110 301.000
69.78104 306.000
69.80099 293.000
69.82094 284.000
69.84089 302.000
69.86083 320.000
69.88078 292.000
69.90073 287.000
69.92067 288.000
69.94062 270.000
69.96057 332.000
69.98051 297.000
70.00046 298.000
70.02041 275.000
70.04035 297.000
70.06030 289.000
70.08025 278.000
70.10020 298.000
70.12014 292.000
70.14009 301.000
70.16004 315.000
70.17998 306.000
70.19993 296.000
70.21988 292.000
70.23982 310.000
70.25977 302.000
70.27972 307.000
70.29967 252.000
70.31961 315.000
70.33956 298.000
70.35951 298.000
70.37945 296.000
70.39940 273.000
70.41935 293.000
70.43929 302.000
70.45924 308.000
70.47919 286.000
70.49914 287.000
70.51908 311.000
70.53903 266.000
70.55898 275.000
70.57892 277.000
70.59887 279.000
70.61882 312.000
70.63876 292.000
70.65871 314.000
70.67866 280.000
70.69860 318.000
70.71855 295.000
70.73850 272.000
70.75845 302.000
70.77839 303.000
70.79834 318.000
70.81829 308.000
70.83823 274.000
70.85818 306.000
70.87813 293.000
70.89807 282.000
70.91802 292.000
70.93797 302.000
70.95792 297.000
70.97786 302.000
70.99781 286.000
71.01776 279.000
71.03770 319.000
71.05765 272.000
71.07760 301.000
71.09754 291.000
71.11749 307.000
71.13744 287.000
71.15738 287.000
71.17733 295.000
71.19728 280.000
71.21723 300.000
71.23717 313.000
71.25712 280.000
71.27707 271.000
71.29701 309.000
71.31696 266.000
71.33691 304.000
71.35685 293.000
71.37680 299.000
71.39675 270.000
71.41670 322.000
71.43664 298.000
71.45659 302.000
71.47654 286.000
71.49648 295.000
71.51643 287.000
71.53638 313.000
71.55632 302.000
71.57627 310.000
71.59622 338.000
71.61616 319.000
71.63611 294.000
71.65606 307.000
71.67601 270.000
71.69595 308.000
71.71590 303.000
71.73585 272.000
71.75579 277.000
71.77574 290.000
71.79569 308.000
71.81563 302.000
71.83558 338.000
71.85553 280.000
71.87548 281.000
71.89542 343.000
71.91537 308.000
71.93532 282.000
71.95526 274.000
71.97521 279.000
71.99516 288.000
72.01510 327.000
72.03505 305.000
72.05500 304.000
72.07495 296.000
72.09489 322.000
72.11484 327.000
72.13479 301.000
72.15473 324.000
72.17468 324.000
72.19463 346.000
72.21457 300.000
72.23452 293.000
72.25447 355.000
72.27441 345.000
72.29436 341.000
72.31431 391.000
72.33426 381.000
72.35420 368.000
72.37415 396.000
72.39410 397.000
72.41404 390.000
72.43399 356.000
72.45394 385.000
72.47388 370.000
72.49383 357.000
72.51378 336.000
72.53373 348.000
72.55367 346.000
72.57362 353.000
72.59357 356.000
72.61351 326.000
72.63346 376.000
72.65341 346.000
72.67335 307.000
72.69330 295.000
72.71325 294.000
72.73319 325.000
72.75314 301.000
72.77309 331.000
72.79304 284.000
72.81298 311.000
72.83293 291.000
72.85288 308.000
72.87282 284.000
72.89277 325.000
72.91272 312.000
72.93266 265.000
72.95261 306.000
72.97256 325.000
72.99251 317.000
73.01245 306.000
73.03240 281.000
73.05235 280.000
73.07229 287.000
73.09224 272.000
73.11219 286.000
73.13213 302.000
73.15208 317.000
73.17203 335.000
73.19197 303.000
73.21192 315.000
73.23187 307.000
73.25182 330.000
73.27176 297.000
73.29171 305.000
73.31166 296.000
73.33160 331.000
73.35155 319.000
73.37150 306.000
73.39144 306.000
73.41139 332.000
73.43134 356.000
73.45129 338.000
73.47123 318.000
73.49118 346.000
73.51113 345.000
73.53107 353.000
73.55102 358.000
73.57097 395.000
73.59091 407.000
73.61086 419.000
73.63081 390.000
73.65076 361.000
73.67070 390.000
73.69065 397.000
73.71060 380.000
73.73054 355.000
73.75049 369.000
73.77044 360.000
73.79038 397.000
73.81033 416.000
73.83028 363.000
73.85022 370.000
73.87017 346.000
73.89012 369.000
73.91007 354.000
73.93001 331.000
73.94996 317.000
73.96991 321.000
73.98985 307.000
74.00980 352.000
74.02975 312.000
74.04969 327.000
74.06964 330.000
74.08959 313.000
74.10954 304.000
74.12948 325.000
74.14943 328.000
74.16938 283.000
74.18932 307.000
74.20927 313.000
74.22922 318.000
74.24916 291.000
74.26911 303.000
74.28906 292.000
74.30900 276.000
74.32895 274.000
74.34890 313.000
74.36885 292.000
74.38879 308.000
74.40874 303.000
74.42869 283.000
74.44863 273.000
74.46858 320.000
74.48853 304.000
74.50847 308.000
74.52842 267.000
74.54837 272.000
74.56832 298.000
74.58826 291.000
74.60821 290.000
74.62816 286.000
74.64810 278.000
74.66805 294.000
74.68800 281.000
74.70794 307.000
74.72789 305.000
74.74784 321.000
74.76778 285.000
74.78773 290.000
74.80768 320.000
74.82763 300.000
74.84757 334.000
74.86752 313.000
74.88747 363.000
74.90741 366.000
74.92736 388.000
74.94731 416.000
74.96725 406.000
74.98720 397.000
75.00715 383.000
75.02710 364.000
75.04704 374.000
75.06699 377.000
75.08694 368.000
75.10688 383.000
75.12683 384.000
75.14678 348.000
75.16672 374.000
75.18667 423.000
75.20662 439.000
75.22657 424.000
75.24651 413.000
75.26646 377.000
75.28641 378.000
75.30635 374.000
75.32630 363.000
75.34625 358.000
75.36619 366.000
75.38614 350.000
75.40609 355.000
75.42603 346.000
75.44598 345.000
75.46593 317.000
75.48588 349.000
75.50582 327.000
75.52577 313.000
75.54572 301.000
75.56566 317.000
75.58561 323.000
75.60556 316.000
75.62550 337.000
75.64545 331.000
75.66540 335.000
75.68535 315.000
75.70529 266.000
75.72524 309.000
75.74519 307.000
75.76513 329.000
75.78508 317.000
75.80503 318.000
75.82497 298.000
75.84492 318.000
75.86487 323.000
75.88481 353.000
75.90476 345.000
75.92471 337.000
75.94466 332.000
75.96460 306.000
75.98455 332.000
76.00450 350.000
76.02444 330.000
76.04439 341.000
76.06434 365.000
76.08428 323.000
76.10423 273.000
76.12418 324.000
76.14413 338.000
76.16407 340.000
76.18402 303.000
76.20397 345.000
76.22391 337.000
76.24386 341.000
76.26381 316.000
76.28375 353.000
76.30370 313.000
76.32365 306.000
76.34359 342.000
76.36354 313.000
76.38349 306.000
76.40344 286.000
76.42338 284.000
76.44333 308.000
76.46328 334.000
76.48322 301.000
76.50317 331.000
76.52312 328.000
76.54306 333.000
76.56301 297.000
76.58296 304.000
76.60291 297.000
76.62285 262.000
76.64280 327.000
76.66275 285.000
76.68269 340.000
76.70264 281.000
76.72259 321.000
76.74253 306.000
76.76248 291.000
76.78243 326.000
76.80238 314.000
76.82232 333.000
76.84227 298.000
76.86222 310.000
76.88216 252.000
76.90211 306.000
76.92206 293.000
76.94200 303.000
76.96195 272.000
76.98190 283.000
77.00184 294.000
77.02179 279.000
77.04174 291.000
77.06169 328.000
77.08163 301.000
77.10158 312.000
77.12153 303.000
77.14147 286.000
77.16142 302.000
77.18137 281.000
77.20131 310.000
77.22126 317.000
77.24121 316.000
77.26116 303.000
77.28110 320.000
77.30105 292.000
77.32100 331.000
77.34094 284.000
77.36089 310.000
77.38084 315.000
77.40078 307.000
77.42073 318.000
77.44068 324.000
77.46062 289.000
77.48057 288.000
77.50052 313.000
77.52047 357.000
77.54041 365.000
77.56036 349.000
77.58031 370.000
77.60025 345.000
77.62020 344.000
77.64015 352.000
77.66009 344.000
77.68004 386.000
77.69999 387.000
77.71994 389.000
77.73988 403.000
77.75983 371.000
77.77978 422.000
77.79972 429.000
77.81967 441.000
77.83962 368.000
77.85956 395.000
77.87951 452.000
77.89946 419.000
77.91940 442.000
77.93935 409.000
77.95930 400.000
77.97925 410.000
77.99919 414.000
78.01914 401.000
78.03909 424.000
78.05903 438.000
78.07898 391.000
78.09893 428.000
78.11887 454.000
78.13882 413.000
78.15877 420.000
78.17872 461.000
78.19866 424.000
78.21861 483.000
78.23856 391.000
78.25850 428.000
78.27845 413.000
78.29840 419.000
78.31834 393.000
78.33829 382.000
78.35824 396.000
78.37819 354.000
78.39813 406.000
78.41808 385.000
78.43803 364.000
78.45797 361.000
78.47792 376.000
78.49787 374.000
78.51781 368.000
78.53776 351.000
78.55771 322.000
78.57765 330.000
78.59760 328.000
78.61755 299.000
78.63750 341.000
78.65744 311.000
78.67739 345.000
78.69734 304.000
78.71728 324.000
78.73723 321.000
78.75718 297.000
78.77712 293.000
78.79707 297.000
78.81702 304.000
78.83697 273.000
78.85691 292.000
78.87686 312.000
78.89681 300.000
78.91675 345.000
78.93670 308.000
78.95665 305.000
78.97659 317.000
78.99654 297.000
79.01649 303.000
79.03643 284.000
79.05638 318.000
79.07633 315.000
79.09628 271.000
79.11622 281.000
79.13617 290.000
79.15612 295.000
79.17606 313.000
79.19601 282.000
79.21596 290.000
79.23590 265.000
79.25585 282.000
79.27580 301.000
79.29575 329.000
79.31569 307.000
79.33564 316.000
79.35559 287.000
79.37553 306.000
79.39548 303.000
79.41543 338.000
79.43537 300.000
79.45532 284.000
79.47527 305.000
79.49521 303.000
79.51516 311.000
79.53511 302.000
79.55506 296.000
79.57500 308.000
79.59495 335.000
79.61490 290.000
79.63484 289.000
79.65479 277.000
79.67474 300.000
79.69468 281.000
79.71463 274.000
79.73458 315.000
79.75453 295.000
79.77447 314.000
79.79442 294.000
79.81437 307.000
79.83431 294.000
79.85426 276.000
79.87421 302.000
79.89415 292.000
79.91410 308.000
79.93405 320.000
79.95399 313.000
79.97394 310.000
79.99389 286.000
80.01384 291.000
80.03378 334.000
80.05373 319.000
80.07368 329.000
80.09362 314.000
80.11357 328.000
80.13352 341.000
80.15346 321.000
80.17341 306.000
80.19336 318.000
80.21331 325.000
80.23325 311.000
80.25320 344.000
80.27315 321.000
80.29309 322.000
80.31304 291.000
80.33299 348.000
80.35293 272.000
80.37288 335.000
80.39283 322.000
80.41278 301.000
80.43272 273.000
80.45267 296.000
80.47262 289.000
80.49256 311.000
80.51251 316.000
80.53246 320.000
80.55240 280.000
80.57235 307.000
80.59230 305.000
80.61224 317.000
80.63219 293.000
80.65214 309.000
80.67209 282.000
80.69203 294.000
80.71198 312.000
80.73193 312.000
80.75187 312.000
80.77182 312.000
80.79177 310.000
80.81171 296.000
80.83166 286.000
80.85161 309.000
80.87156 315.000
80.89150 329.000
80.91145 309.000
80.93140 326.000
80.95134 321.000
80.97129 318.000
80.99124 340.000
81.01118 289.000
81.03113 293.000
81.05108 318.000
81.07102 321.000
81.09097 314.000
81.11092 288.000
81.13087 280.000
81.15081 310.000
81.17076 293.000
81.19071 336.000
81.21065 272.000
81.23060 283.000
81.25055 308.000
81.27049 321.000
81.29044 293.000
81.31039 278.000
81.33034 255.000
81.35028 311.000
81.37023 300.000
81.39018 295.000
81.41012 295.000
81.43007 322.000
81.45002 304.000
81.46996 301.000
81.48991 295.000
81.50986 288.000
81.52980 258.000
81.54975 292.000
81.56970 274.000
81.58965 286.000
81.60959 277.000
81.62954 299.000
81.64949 302.000
81.66943 310.000
81.68938 313.000
81.70933 303.000
81.72927 293.000
81.74922 326.000
81.76917 312.000
81.78912 277.000
81.80906 323.000
81.82901 300.000
81.84896 275.000
81.86890 293.000
81.88885 310.000
81.90880 292.000
81.92874 316.000
81.94869 279.000
81.96864 306.000
81.98859 294.000
82.00853 285.000
82.02848 317.000
82.04843 304.000
82.06837 321.000
82.08832 319.000
82.10827 291.000
82.12821 323.000
82.14816 293.000
82.16811 329.000
82.18805 305.000
82.20800 334.000
82.22795 335.000
82.24790 319.000
82.26784 329.000
82.28779 330.000
82.30774 340.000
82.32768 367.000
82.34763 337.000
82.36758 355.000
82.38752 344.000
82.40747 348.000
82.42742 336.000
82.44737 325.000
82.46731 325.000
82.48726 319.000
82.50721 301.000
82.52715 329.000
82.54710 325.000
82.56705 349.000
82.58699 316.000
82.60694 326.000
82.62689 316.000
82.64683 334.000
82.66678 319.000
82.68673 278.000
82.70668 305.000
82.72662 327.000
82.74657 318.000
82.76652 332.000
82.78646 297.000
82.80641 310.000
82.82636 286.000
82.84630 296.000
82.86625 291.000
82.88620 322.000
82.90615 308.000
82.92609 300.000
82.94604 347.000
82.96599 324.000
82.98593 337.000
83.00588 304.000
83.02583 307.000
83.04577 331.000
83.06572 312.000
83.08567 352.000
83.10561 350.000
83.12556 303.000
83.14551 309.000
83.16546 295.000
83.18540 328.000
83.20535 328.000
83.22530 326.000
83.24524 329.000
83.26519 323.000
83.28514 346.000
83.30508 332.000
83.32503 355.000
83.34498 338.000
83.36493 325.000
83.38487 344.000
83.40482 322.000
83.42477 311.000
83.44471 309.000
83.46466 320.000
83.48461 333.000
83.50455 382.000
83.52450 340.000
83.54445 331.000
83.56440 346.000
83.58434 363.000
83.60429 339.000
83.62424 345.000
83.64418 362.000
83.66413 308.000
83.68408 299.000
83.70402 317.000
83.72397 315.000
83.74392 310.000
83.76386 308.000
83.78381 337.000
83.80376 306.000
83.82371 304.000
83.84365 320.000
83.86360 311.000
83.88355 309.000
83.90349 311.000
83.92344 311.000
83.94339 313.000
83.96333 322.000
83.98328 310.000
84.00323 301.000
84.02318 299.000
84.04312 308.000
84.06307 273.000
84.08302 303.000
84.10296 297.000
84.12291 319.000
84.14286 300.000
84.16280 301.000
84.18275 290.000
84.20270 329.000
84.22264 295.000
84.24259 313.000
84.26254 311.000
84.28249 289.000
84.30243 341.000
84.32238 302.000
84.34233 272.000
84.36227 353.000
84.38222 334.000
84.40217 317.000
84.42211 348.000
84.44206 320.000
84.46201 312.000
84.48196 328.000
84.50190 358.000
84.52185 356.000
84.54180 355.000
84.56174 374.000
84.58169 372.000
84.60164 380.000
84.62158 370.000
84.64153 387.000
84.66148 437.000
84.68142 396.000
84.70137 417.000
84.72132 449.000
84.74127 409.000
84.76121 396.000
84.78116 387.000
84.80111 387.000
84.82105 383.000
84.84100 359.000
84.86095 360.000
84.88089 393.000
84.90084 370.000
84.92079 348.000
84.94074 355.000
84.96068 338.000
84.98063 372.000
85.00058 340.000
85.02052 326.000
85.04047 369.000
85.06042 375.000
85.08036 352.000
85.10031 303.000
85.12026 342.000
85.14021 299.000
85.16015 300.000
85.18010 308.000
85.20005 347.000
85.21999 303.000
85.23994 320.000
85.25989 322.000
85.27983 301.000
85.29978 298.000
85.31973 311.000
85.33967 301.000
85.35962 300.000
85.37957 312.000
85.39952 320.000
85.41946 318.000
85.43941 285.000
85.45936 294.000
85.47930 287.000
85.49925 273.000
85.51920 290.000
85.53914 297.000
85.55909 295.000
85.57904 279.000
85.59899 290.000
85.61893 296.000
85.63888 303.000
85.65883 271.000
85.67877 280.000
85.69872 276.000
85.71867 286.000
85.73861 287.000
85.75856 295.000
85.77851 313.000
85.79845 268.000
85.81840 309.000
85.83835 278.000
85.85830 302.000
85.87824 276.000
85.89819 294.000
85.91814 317.000
85.93808 314.000
85.95803 264.000
85.97798 295.000
85.99792 316.000
86.01787 275.000
86.03782 311.000
86.05777 292.000
86.07771 293.000
86.09766 295.000
86.11761 310.000
86.13755 312.000
86.15750 304.000
86.17745 340.000
86.19739 291.000
86.21734 301.000
86.23729 294.000
86.25723 316.000
86.27718 304.000
86.29713 331.000
86.31708 266.000
86.33702 311.000
86.35697 316.000
86.37692 310.000
86.39686 299.000
86.41681 292.000
86.43676 327.000
86.45670 312.000
86.47665 273.000
86.49660 324.000
86.51655 294.000
86.53649 351.000
86.55644 298.000
86.57639 317.000
86.59633 328.000
86.61628 338.000
86.63623 318.000
86.65617 298.000
86.67612 345.000
86.69607 318.000
86.71602 309.000
86.73596 302.000
86.75591 334.000
86.77586 326.000
86.79580 308.000
86.81575 276.000
86.83570 324.000
86.85564 337.000
86.87559 306.000
86.89554 312.000
86.91548 283.000
86.93543 309.000
86.95538 305.000
86.97533 276.000
86.99527 286.000
87.01522 318.000
87.03517 321.000
87.05511 281.000
87.07506 285.000
87.09501 302.000
87.11495 336.000
87.13490 316.000
87.15485 283.000
87.17480 340.000
87.19474 331.000
87.21469 279.000
87.23464 310.000
87.25458 299.000
87.27453 266.000
87.29448 304.000
87.31442 326.000
87.33437 296.000
87.35432 329.000
87.37426 285.000
87.39421 274.000
87.41416 297.000
87.43411 312.000
87.45405 319.000
87.47400 327.000
87.49395 291.000
87.51389 305.000
87.53384 304.000
87.55379 329.000
87.57373 307.000
87.59368 280.000
87.61363 266.000
87.63358 258.000
87.65352 292.000
87.67347 290.000
87.69342 255.000
87.71336 294.000
87.73331 298.000
87.75326 293.000
87.77320 292.000
87.79315 257.000
87.81310 262.000
87.83304 281.000
87.85299 267.000
87.87294 283.000
87.89289 286.000
87.91283 315.000
87.93278 284.000
87.95273 311.000
87.97267 302.000
87.99262 306.000
88.01257 300.000
88.03251 275.000
88.05246 287.000
88.07241 296.000
88.09236 295.000
88.11230 323.000
88.13225 318.000
88.15220 278.000
88.17214 301.000
88.19209 288.000
88.21204 296.000
88.23198 314.000
88.25193 277.000
88.27188 249.000
88.29183 313.000
88.31177 356.000
88.33172 292.000
88.35167 291.000
88.37161 296.000
88.39156 267.000
88.41151 289.000
88.43145 282.000
88.45140 282.000
88.47135 288.000
88.49129 288.000
88.51124 280.000
88.53119 329.000
88.55114 273.000
88.57108 253.000
88.59103 344.000
88.61098 307.000
88.63092 261.000
88.65087 281.000
88.67082 262.000
88.69076 285.000
88.71071 302.000
88.73066 293.000
88.75061 270.000
88.77055 284.000
88.79050 310.000
88.81045 318.000
88.83039 293.000
88.85034 318.000
88.87029 291.000
88.89023 300.000
88.91018 285.000
88.93013 302.000
88.95007 281.000
88.97002 292.000
88.98997 277.000
89.00992 314.000
89.02986 283.000
89.04981 318.000
89.06976 308.000
89.08970 305.000
89.10965 256.000
89.12960 292.000
89.14954 290.000
89.16949 316.000
89.18944 306.000
89.20939 292.000
89.22933 311.000
89.24928 305.000
89.26923 287.000
89.28917 294.000
89.30912 277.000
89.32907 301.000
89.34901 330.000
89.36896 323.000
89.38891 294.000
89.40885 302.000
89.42880 276.000
89.44875 295.000
89.46870 283.000
89.48864 302.000
89.50859 323.000
89.52854 323.000
89.54848 279.000
89.56843 321.000
89.58838 297.000
89.60832 315.000
89.62827 330.000
89.64822 320.000
89.66817 316.000
89.68811 324.000
89.70806 297.000
89.72801 304.000
89.74795 347.000
89.76790 348.000
89.78785 334.000
89.80779 347.000
89.82774 362.000
89.84769 315.000
89.86764 333.000
89.88758 348.000
89.90753 330.000
89.92748 324.000
89.94742 316.000
89.96737 338.000
89.98732 319.000
90.00726 329.000
