10.00000 114.000
10.01995 130.000
10.03989 87.000
10.05984 122.000
10.07979 120.000
10.09973 122.000
10.11968 107.000
10.13963 98.000
10.15958 98.000
10.17952 120.000
10.19947 134.000
10.21942 93.000
10.23936 121.000
10.25931 104.000
10.27926 140.000
10.29920 125.000
10.31915 126.000
10.33910 116.000
10.35905 115.000
10.37899 116.000
10.39894 119.000
10.41889 120.000
10.43883 130.000
10.45878 129.000
10.47873 112.000
10.49867 106.000
10.51862 111.000
10.53857 145.000
10.55851 106.000
10.57846 107.000
10.59841 113.000
10.61836 116.000
10.63830 98.000
10.65825 115.000
10.67820 119.000
10.69814 125.000
10.71809 121.000
10.73804 104.000
10.75798 118.000
10.77793 103.000
10.79788 118.000
10.81783 123.000
10.83777 116.000
10.85772 125.000
10.87767 107.000
10.89761 123.000
10.91756 109.000
10.93751 99.000
10.95745 121.000
10.97740 113.000
10.99735 109.000
11.01730 111.000
11.03724 126.000
11.05719 124.000
11.07714 106.000
11.09708 102.000
11.11703 115.000
11.13698 125.000
11.15692 134.000
11.17687 125.000
11.19682 128.000
11.21676 129.000
11.23671 112.000
11.25666 92.000
11.27661 120.000
11.29655 126.000
11.31650 116.000
11.33645 137.000
11.35639 97.000
11.37634 118.000
11.39629 111.000
11.41623 131.000
11.43618 112.000
11.45613 113.000
11.47608 115.000
11.49602 115.000
11.51597 142.000
11.53592 133.000
11.55586 141.000
11.57581 96.000
11.59576 133.000
11.61570 130.000
11.63565 103.000
11.65560 100.000
11.67554 101.000
11.69549 126.000
11.71544 120.000
11.73539 136.000
11.75533 126.000
11.77528 122.000
11.79523 116.000
11.81517 122.000
11.83512 135.000
11.85507 141.000
11.87501 138.000
11.89496 137.000
11.91491 139.000
11.93486 134.000
11.95480 125.000
11.97475 131.000
11.99470 127.000
12.01464 130.000
12.03459 126.000
12.05454 132.000
12.07448 128.000
12.09443 134.000
12.11438 134.000
12.13432 141.000
12.15427 117.000
12.17422 101.000
12.19417 121.000
12.21411 138.000
12.23406 132.000
12.25401 136.000
12.27395 120.000
12.29390 129.000
12.31385 120.000
12.33379 127.000
12.35374 115.000
12.37369 124.000
12.39364 142.000
12.41358 128.000
12.43353 126.000
12.45348 120.000
12.47342 129.000
12.49337 137.000
12.51332 130.000
12.53326 158.000
12.55321 103.000
12.57316 139.000
12.59311 134.000
12.61305 140.000
12.63300 129.000
12.65295 139.000
12.67289 143.000
12.69284 131.000
12.71279 171.000
12.73273 119.000
12.75268 137.000
12.77263 152.000
12.79257 114.000
12.81252 107.000
12.83247 136.000
12.85242 131.000
12.87236 129.000
12.89231 155.000
12.91226 139.000
12.93220 139.000
12.95215 145.000
12.97210 149.000
12.99204 137.000
13.01199 148.000
13.03194 135.000
13.05189 134.000
13.07183 137.000
13.09178 136.000
13.11173 114.000
13.13167 136.000
13.15162 153.000
13.17157 149.000
13.19151 159.000
13.21146 132.000
13.23141 135.000
13.25135 139.000
13.27130 123.000
13.29125 120.000
13.31120 149.000
13.33114 136.000
13.35109 130.000
13.37104 136.000
13.39098 130.000
13.41093 166.000
13.43088 126.000
13.45082 112.000
13.47077 144.000
13.49072 144.000
13.51067 129.000
13.53061 134.000
13.55056 146.000
13.57051 134.000
13.59045 144.000
13.61040 139.000
13.63035 127.000
13.65029 150.000
13.67024 135.000
13.69019 137.000
13.71013 157.000
13.73008 148.000
13.75003 155.000
13.76998 162.000
13.78992 146.000
13.80987 139.000
13.82982 139.000
13.84976 135.000
13.86971 167.000
13.88966 162.000
13.90960 146.000
13.92955 142.000
13.94950 146.000
13.96945 135.000
13.98939 149.000
14.00934 151.000
14.02929 153.000
14.04923 140.000
14.06918 154.000
14.08913 143.000
14.10907 136.000
14.12902 149.000
14.14897 146.000
14.16892 151.000
14.18886 181.000
14.20881 136.000
14.22876 142.000
14.24870 132.000
14.26865 137.000
14.28860 175.000
14.30854 140.000
14.32849 150.000
14.34844 144.000
14.36838 150.000
14.38833 161.000
14.40828 162.000
14.42823 145.000
14.44817 126.000
14.46812 131.000
14.48807 140.000
14.50801 158.000
14.52796 162.000
14.54791 166.000
14.56785 135.000
14.58780 149.000
14.60775 137.000
14.62770 140.000
14.64764 157.000
14.66759 160.000
14.68754 163.000
14.70748 178.000
14.72743 171.000
14.74738 161.000
14.76732 166.000
14.78727 149.000
14.80722 171.000
14.82716 135.000
14.84711 140.000
14.86706 161.000
14.88701 148.000
14.90695 148.000
14.92690 159.000
14.94685 145.000
14.96679 174.000
14.98674 168.000
15.00669 180.000
15.02663 170.000
15.04658 141.000
15.06653 158.000
15.08648 141.000
15.10642 147.000
15.12637 157.000
15.14632 156.000
15.16626 149.000
15.18621 168.000
15.20616 154.000
15.22610 166.000
15.24605 159.000
15.26600 158.000
15.28594 167.000
15.30589 167.000
15.32584 147.000
15.34579 165.000
15.36573 168.000
15.38568 157.000
15.40563 171.000
15.42557 188.000
15.44552 145.000
15.46547 180.000
15.48541 179.000
15.50536 177.000
15.52531 159.000
15.54526 170.000
15.56520 174.000
15.58515 172.000
15.60510 155.000
15.62504 149.000
15.64499 166.000
15.66494 154.000
15.68488 170.000
15.70483 171.000
15.72478 171.000
15.74472 197.000
15.76467 160.000
15.78462 174.000
15.80457 179.000
15.82451 184.000
15.84446 172.000
15.86441 147.000
15.88435 194.000
15.90430 151.000
15.92425 196.000
15.94419 191.000
15.96414 209.000
15.98409 177.000
16.00404 176.000
16.02398 172.000
16.04393 165.000
16.06388 158.000
16.08382 175.000
16.10377 190.000
16.12372 175.000
16.14366 224.000
16.16361 187.000
16.18356 180.000
16.20351 165.000
16.22345 178.000
16.24340 183.000
16.26335 172.000
16.28329 183.000
16.30324 179.000
16.32319 154.000
16.34313 166.000
16.36308 170.000
16.38303 197.000
16.40297 160.000
16.42292 201.000
16.44287 185.000
16.46282 172.000
16.48276 175.000
16.50271 170.000
16.52266 187.000
16.54260 185.000
16.56255 161.000
16.58250 180.000
16.60244 187.000
16.62239 187.000
16.64234 186.000
16.66229 196.000
16.68223 199.000
16.70218 187.000
16.72213 205.000
16.74207 192.000
16.76202 189.000
16.78197 189.000
16.80191 199.000
16.82186 194.000
16.84181 190.000
16.86175 176.000
16.88170 185.000
16.90165 169.000
16.92160 201.000
16.94154 210.000
16.96149 189.000
16.98144 197.000
17.00138 191.000
17.02133 170.000
17.04128 184.000
17.06122 190.000
17.08117 195.000
17.10112 165.000
17.12107 183.000
17.14101 221.000
17.16096 190.000
17.18091 194.000
17.20085 196.000
17.22080 194.000
17.24075 217.000
17.26069 193.000
17.28064 183.000
17.30059 208.000
17.32053 219.000
17.34048 188.000
17.36043 200.000
17.38038 195.000
17.40032 214.000
17.42027 221.000
17.44022 216.000
17.46016 208.000
17.48011 218.000
17.50006 199.000
17.52000 207.000
17.53995 200.000
17.55990 200.000
17.57985 214.000
17.59979 198.000
17.61974 206.000
17.63969 192.000
17.65963 239.000
17.67958 227.000
17.69953 209.000
17.71947 198.000
17.73942 216.000
17.75937 204.000
17.77932 196.000
17.79926 201.000
17.81921 235.000
17.83916 209.000
17.85910 208.000
17.87905 230.000
17.89900 207.000
17.91894 221.000
17.93889 215.000
17.95884 214.000
17.97878 225.000
17.99873 223.000
18.01868 206.000
18.03863 226.000
18.05857 253.000
18.07852 251.000
18.09847 246.000
18.11841 246.000
18.13836 251.000
18.15831 295.000
18.17825 312.000
18.19820 334.000
18.21815 299.000
18.23810 303.000
18.25804 281.000
18.27799 281.000
18.29794 247.000
18.31788 240.000
18.33783 218.000
18.35778 232.000
18.37772 224.000
18.39767 233.000
18.41762 204.000
18.43756 226.000
18.45751 239.000
18.47746 233.000
18.49741 223.000
18.51735 211.000
18.53730 214.000
18.55725 271.000
18.57719 260.000
18.59714 258.000
18.61709 261.000
18.63703 248.000
18.65698 249.000
18.67693 240.000
18.69688 234.000
18.71682 225.000
18.73677 242.000
18.75672 226.000
18.77666 243.000
18.79661 226.000
18.81656 260.000
18.83650 240.000
18.85645 266.000
18.87640 248.000
18.89634 218.000
18.91629 245.000
18.93624 237.000
18.95619 231.000
18.97613 258.000
18.99608 262.000
19.01603 225.000
19.03597 241.000
19.05592 247.000
19.07587 255.000
19.09581 219.000
19.11576 246.000
19.13571 267.000
19.15566 259.000
19.17560 252.000
19.19555 268.000
19.21550 233.000
19.23544 244.000
19.25539 236.000
19.27534 239.000
19.29528 257.000
19.31523 257.000
19.33518 226.000
19.35513 273.000
19.37507 236.000
19.39502 243.000
19.41497 267.000
19.43491 258.000
19.45486 223.000
19.47481 271.000
19.49475 236.000
19.51470 258.000
19.53465 270.000
19.55459 255.000
19.57454 275.000
19.59449 222.000
19.61444 269.000
19.63438 285.000
19.65433 270.000
19.67428 272.000
19.69422 250.000
19.71417 267.000
19.73412 245.000
19.75406 271.000
19.77401 260.000
19.79396 286.000
19.81391 313.000
19.83385 261.000
19.85380 276.000
19.87375 252.000
19.89369 264.000
19.91364 269.000
19.93359 286.000
19.95353 276.000
19.97348 287.000
19.99343 248.000
20.01337 273.000
20.03332 284.000
20.05327 276.000
20.07322 277.000
20.09316 294.000
20.11311 271.000
20.13306 274.000
20.15300 289.000
20.17295 267.000
20.19290 268.000
20.21284 285.000
20.23279 306.000
20.25274 265.000
20.27269 282.000
20.29263 296.000
20.31258 290.000
20.33253 270.000
20.35247 288.000
20.37242 312.000
20.39237 281.000
20.41231 316.000
20.43226 279.000
20.45221 299.000
20.47215 322.000
20.49210 315.000
20.51205 301.000
20.53200 332.000
20.55194 341.000
20.57189 351.000
20.59184 344.000
20.61178 361.000
20.63173 373.000
20.65168 401.000
20.67162 393.000
20.69157 437.000
20.71152 464.000
20.73147 459.000
20.75141 508.000
20.77136 520.000
20.79131 525.000
20.81125 502.000
20.83120 517.000
20.85115 477.000
20.87109 427.000
20.89104 442.000
20.91099 412.000
20.93094 445.000
20.95088 377.000
20.97083 356.000
20.99078 339.000
21.01072 313.000
21.03067 321.000
21.05062 278.000
21.07056 326.000
21.09051 323.000
21.11046 297.000
21.13040 308.000
21.15035 315.000
21.17030 280.000
21.19025 310.000
21.21019 337.000
21.23014 313.000
21.25009 281.000
21.27003 303.000
21.28998 300.000
21.30993 266.000
21.32987 319.000
21.34982 313.000
21.36977 312.000
21.38972 299.000
21.40966 295.000
21.42961 312.000
21.44956 302.000
21.46950 306.000
21.48945 302.000
21.50940 277.000
21.52934 308.000
21.54929 279.000
21.56924 316.000
21.58918 310.000
21.60913 317.000
21.62908 319.000
21.64903 329.000
21.66897 307.000
21.68892 332.000
21.70887 319.000
21.72881 348.000
21.74876 301.000
21.76871 304.000
21.78865 305.000
21.80860 337.000
21.82855 326.000
21.84850 349.000
21.86844 324.000
21.88839 321.000
21.90834 287.000
21.92828 358.000
21.94823 312.000
21.96818 304.000
21.98812 305.000
22.00807 305.000
22.02802 344.000
22.04796 315.000
22.06791 344.000
22.08786 349.000
22.10781 338.000
22.12775 320.000
22.14770 322.000
22.16765 324.000
22.18759 308.000
22.20754 312.000
22.22749 329.000
22.24743 307.000
22.26738 303.000
22.28733 317.000
22.30728 319.000
22.32722 328.000
22.34717 303.000
22.36712 349.000
22.38706 305.000
22.40701 343.000
22.42696 338.000
22.44690 339.000
22.46685 317.000
22.48680 313.000
22.50675 350.000
22.52669 333.000
22.54664 316.000
22.56659 360.000
22.58653 337.000
22.60648 342.000
22.62643 323.000
22.64637 330.000
22.66632 317.000
22.68627 373.000
22.70621 339.000
22.72616 350.000
22.74611 309.000
22.76606 342.000
22.78600 347.000
22.80595 324.000
22.82590 346.000
22.84584 363.000
22.86579 345.000
22.88574 347.000
22.90568 325.000
22.92563 324.000
22.94558 305.000
22.96553 341.000
22.98547 351.000
23.00542 320.000
23.02537 301.000
23.04531 345.000
23.06526 337.000
23.08521 349.000
23.10515 362.000
23.12510 365.000
23.14505 355.000
23.16499 334.000
23.18494 344.000
23.20489 358.000
23.22484 335.000
23.24478 343.000
23.26473 354.000
23.28468 362.000
23.30462 345.000
23.32457 346.000
23.34452 346.000
23.36446 375.000
23.38441 369.000
23.40436 354.000
23.42431 380.000
23.44425 321.000
23.46420 300.000
23.48415 337.000
23.50409 362.000
23.52404 382.000
23.54399 360.000
23.56393 372.000
23.58388 387.000
23.60383 359.000
23.62377 383.000
23.64372 335.000
23.66367 351.000
23.68362 298.000
23.70356 379.000
23.72351 401.000
23.74346 364.000
23.76340 348.000
23.78335 351.000
23.80330 356.000
23.82324 371.000
23.84319 371.000
23.86314 346.000
23.88309 352.000
23.90303 374.000
23.92298 379.000
23.94293 376.000
23.96287 357.000
23.98282 402.000
24.00277 373.000
24.02271 374.000
24.04266 325.000
24.06261 399.000
24.08256 366.000
24.10250 345.000
24.12245 353.000
24.14240 383.000
24.16234 390.000
24.18229 393.000
24.20224 367.000
24.22218 385.000
24.24213 393.000
24.26208 375.000
24.28202 369.000
24.30197 373.000
24.32192 380.000
24.34187 383.000
24.36181 352.000
24.38176 402.000
24.40171 349.000
24.42165 404.000
24.44160 399.000
24.46155 419.000
24.48149 382.000
24.50144 353.000
24.52139 385.000
24.54134 379.000
24.56128 376.000
24.58123 424.000
24.60118 424.000
24.62112 410.000
24.64107 423.000
24.66102 407.000
24.68096 379.000
24.70091 382.000
24.72086 406.000
24.74080 411.000
24.76075 439.000
24.78070 399.000
24.80065 396.000
24.82059 396.000
24.84054 441.000
24.86049 440.000
24.88043 405.000
24.90038 416.000
24.92033 372.000
24.94027 401.000
24.96022 411.000
24.98017 392.000
25.00012 418.000
25.02006 415.000
25.04001 443.000
25.05996 437.000
25.07990 420.000
25.09985 419.000
25.11980 411.000
25.13974 459.000
25.15969 397.000
25.17964 421.000
25.19958 422.000
25.21953 413.000
25.23948 435.000
25.25943 390.000
25.27937 425.000
25.29932 403.000
25.31927 411.000
25.33921 438.000
25.35916 458.000
25.37911 425.000
25.39905 428.000
25.41900 415.000
25.43895 421.000
25.45890 432.000
25.47884 410.000
25.49879 418.000
25.51874 436.000
25.53868 431.000
25.55863 405.000
25.57858 421.000
25.59852 459.000
25.61847 466.000
25.63842 451.000
25.65837 397.000
25.67831 449.000
25.69826 438.000
25.71821 412.000
25.73815 428.000
25.75810 446.000
25.77805 469.000
25.79799 478.000
25.81794 446.000
25.83789 454.000
25.85783 485.000
25.87778 459.000
25.89773 458.000
25.91768 478.000
25.93762 472.000
25.95757 463.000
25.97752 405.000
25.99746 453.000
26.01741 450.000
26.03736 453.000
26.05730 492.000
26.07725 462.000
26.09720 466.000
26.11715 466.000
26.13709 485.000
26.15704 472.000
26.17699 434.000
26.19693 492.000
26.21688 497.000
26.23683 457.000
26.25677 498.000
26.27672 475.000
26.29667 457.000
26.31661 491.000
26.33656 492.000
26.35651 464.000
26.37646 479.000
26.39640 482.000
26.41635 469.000
26.43630 509.000
26.45624 472.000
26.47619 468.000
26.49614 511.000
26.51608 488.000
26.53603 488.000
26.55598 497.000
26.57593 451.000
26.59587 449.000
26.61582 502.000
26.63577 482.000
26.65571 457.000
26.67566 502.000
26.69561 482.000
26.71555 512.000
26.73550 488.000
26.75545 506.000
26.77539 482.000
26.79534 530.000
26.81529 490.000
26.83524 513.000
26.85518 519.000
26.87513 511.000
26.89508 488.000
26.91502 510.000
26.93497 496.000
26.95492 486.000
26.97486 499.000
26.99481 528.000
27.01476 511.000
27.03471 516.000
27.05465 520.000
27.07460 509.000
27.09455 505.000
27.11449 537.000
27.13444 512.000
27.15439 493.000
27.17433 546.000
27.19428 547.000
27.21423 501.000
27.23417 534.000
27.25412 544.000
27.27407 548.000
27.29402 558.000
27.31396 529.000
27.33391 515.000
27.35386 448.000
27.37380 530.000
27.39375 551.000
27.41370 496.000
27.43364 509.000
27.45359 577.000
27.47354 540.000
27.49349 547.000
27.51343 540.000
27.53338 556.000
27.55333 541.000
27.57327 532.000
27.59322 520.000
27.61317 536.000
27.63311 520.000
27.65306 513.000
27.67301 524.000
27.69296 530.000
27.71290 553.000
27.73285 518.000
27.75280 515.000
27.77274 516.000
27.79269 564.000
27.81264 527.000
27.83258 492.000
27.85253 557.000
27.87248 524.000
27.89242 559.000
27.91237 492.000
27.93232 529.000
27.95227 533.000
27.97221 572.000
27.99216 535.000
28.01211 573.000
28.03205 541.000
28.05200 565.000
28.07195 587.000
28.09189 558.000
28.11184 549.000
28.13179 610.000
28.15174 543.000
28.17168 557.000
28.19163 569.000
28.21158 537.000
28.23152 555.000
28.25147 579.000
28.27142 551.000
28.29136 582.000
28.31131 566.000
28.33126 519.000
28.35120 569.000
28.37115 548.000
28.39110 533.000
28.41105 551.000
28.43099 550.000
28.45094 531.000
28.47089 603.000
28.49083 557.000
28.51078 517.000
28.53073 540.000
28.55067 573.000
28.57062 543.000
28.59057 560.000
28.61052 586.000
28.63046 543.000
28.65041 578.000
28.67036 565.000
28.69030 593.000
28.71025 527.000
28.73020 561.000
28.75014 564.000
28.77009 552.000
28.79004 577.000
28.80998 542.000
28.82993 558.000
28.84988 547.000
28.86983 579.000
28.88977 534.000
28.90972 561.000
28.92967 533.000
28.94961 584.000
28.96956 567.000
28.98951 590.000
29.00945 598.000
29.02940 571.000
29.04935 593.000
29.06930 565.000
29.08924 593.000
29.10919 547.000
29.12914 565.000
29.14908 603.000
29.16903 569.000
29.18898 608.000
29.20892 625.000
29.22887 588.000
29.24882 585.000
29.26877 580.000
29.28871 638.000
29.30866 612.000
29.32861 593.000
29.34855 584.000
29.36850 594.000
29.38845 638.000
29.40839 592.000
29.42834 582.000
29.44829 572.000
29.46823 625.000
29.48818 579.000
29.50813 600.000
29.52808 555.000
29.54802 601.000
29.56797 555.000
29.58792 585.000
29.60786 571.000
29.62781 576.000
29.64776 577.000
29.66770 620.000
29.68765 577.000
29.70760 621.000
29.72755 656.000
29.74749 607.000
29.76744 690.000
29.78739 640.000
29.80733 608.000
29.82728 619.000
29.84723 643.000
29.86717 635.000
29.88712 617.000
29.90707 679.000
29.92701 696.000
29.94696 601.000
29.96691 637.000
29.98686 715.000
30.00680 744.000
30.02675 723.000
30.04670 814.000
30.06664 867.000
30.08659 891.000
30.10654 934.000
30.12648 999.000
30.14643 882.000
30.16638 869.000
30.18633 792.000
30.20627 731.000
30.22622 727.000
30.24617 648.000
30.26611 606.000
30.28606 588.000
30.30601 652.000
30.32595 594.000
30.34590 590.000
30.36585 557.000
30.38579 626.000
30.40574 636.000
30.42569 587.000
30.44564 534.000
30.46558 633.000
30.48553 563.000
30.50548 562.000
30.52542 582.000
30.54537 607.000
30.56532 621.000
30.58526 565.000
30.60521 575.000
30.62516 589.000
30.64511 578.000
30.66505 555.000
30.68500 602.000
30.70495 543.000
30.72489 556.000
30.74484 580.000
30.76479 607.000
30.78473 554.000
30.80468 579.000
30.82463 590.000
30.84458 559.000
30.86452 544.000
30.88447 586.000
30.90442 572.000
30.92436 545.000
30.94431 569.000
30.96426 624.000
30.98420 574.000
31.00415 573.000
31.02410 578.000
31.04404 576.000
31.06399 552.000
31.08394 565.000
31.10389 574.000
31.12383 557.000
31.14378 591.000
31.16373 540.000
31.18367 575.000
31.20362 568.000
31.22357 561.000
31.24351 558.000
31.26346 554.000
31.28341 579.000
31.30336 551.000
31.32330 601.000
31.34325 540.000
31.36320 545.000
31.38314 519.000
31.40309 509.000
31.42304 559.000
31.44298 580.000
31.46293 527.000
31.48288 555.000
31.50282 568.000
31.52277 583.000
31.54272 566.000
31.56267 584.000
31.58261 564.000
31.60256 515.000
31.62251 553.000
31.64245 557.000
31.66240 568.000
31.68235 528.000
31.70229 564.000
31.72224 573.000
31.74219 557.000
31.76214 567.000
31.78208 558.000
31.80203 545.000
31.82198 534.000
31.84192 582.000
31.86187 543.000
31.88182 550.000
31.90176 599.000
31.92171 546.000
31.94166 584.000
31.96160 547.000
31.98155 563.000
32.00150 543.000
32.02145 546.000
32.04139 546.000
32.06134 490.000
32.08129 522.000
32.10123 536.000
32.12118 572.000
32.14113 540.000
32.16107 526.000
32.18102 523.000
32.20097 557.000
32.22092 556.000
32.24086 568.000
32.26081 546.000
32.28076 530.000
32.30070 542.000
32.32065 535.000
32.34060 518.000
32.36054 542.000
32.38049 520.000
32.40044 549.000
32.42039 504.000
32.44033 507.000
32.46028 504.000
32.48023 531.000
32.50017 539.000
32.52012 537.000
32.54007 546.000
32.56001 542.000
32.57996 559.000
32.59991 560.000
32.61985 511.000
32.63980 568.000
32.65975 502.000
32.67970 552.000
32.69964 526.000
32.71959 509.000
32.73954 515.000
32.75948 549.000
32.77943 554.000
32.79938 527.000
32.81932 547.000
32.83927 555.000
32.85922 533.000
32.87917 543.000
32.89911 530.000
32.91906 518.000
32.93901 534.000
32.95895 518.000
32.97890 523.000
32.99885 512.000
33.01879 523.000
33.03874 530.000
33.05869 495.000
33.07863 487.000
33.09858 501.000
33.11853 518.000
33.13848 528.000
33.15842 517.000
33.17837 528.000
33.19832 493.000
33.21826 529.000
33.23821 523.000
33.25816 475.000
33.27810 526.000
33.29805 489.000
33.31800 511.000
33.33795 530.000
33.35789 476.000
33.37784 501.000
33.39779 517.000
33.41773 526.000
33.43768 543.000
33.45763 502.000
33.47757 507.000
33.49752 527.000
33.51747 518.000
33.53741 528.000
33.55736 505.000
33.57731 510.000
33.59726 494.000
33.61720 539.000
33.63715 489.000
33.65710 537.000
33.67704 529.000
33.69699 528.000
33.71694 562.000
33.73688 509.000
33.75683 508.000
33.77678 495.000
33.79673 504.000
33.81667 537.000
33.83662 501.000
33.85657 479.000
33.87651 540.000
33.89646 526.000
33.91641 521.000
33.93635 562.000
33.95630 514.000
33.97625 532.000
33.99620 520.000
34.01614 533.000
34.03609 514.000
34.05604 534.000
34.07598 571.000
34.09593 552.000
34.11588 552.000
34.13582 582.000
34.15577 586.000
34.17572 552.000
34.19566 640.000
34.21561 576.000
34.23556 649.000
34.25551 635.000
34.27545 700.000
34.29540 647.000
34.31535 743.000
34.33529 703.000
34.35524 728.000
34.37519 734.000
34.39513 720.000
34.41508 715.000
34.43503 695.000
34.45498 689.000
34.47492 684.000
34.49487 653.000
34.51482 644.000
34.53476 633.000
34.55471 639.000
34.57466 564.000
34.59460 602.000
34.61455 574.000
34.63450 573.000
34.65444 544.000
34.67439 523.000
34.69434 506.000
34.71429 504.000
34.73423 523.000
34.75418 506.000
34.77413 494.000
34.79407 539.000
34.81402 506.000
34.83397 522.000
34.85391 516.000
34.87386 516.000
34.89381 498.000
34.91376 517.000
34.93370 496.000
34.95365 510.000
34.97360 522.000
34.99354 526.000
35.01349 538.000
35.03344 561.000
35.05338 530.000
35.07333 556.000
35.09328 582.000
35.11322 575.000
35.13317 566.000
35.15312 585.000
35.17307 616.000
35.19301 640.000
35.21296 655.000
35.23291 655.000
35.25285 657.000
35.27280 657.000
35.29275 682.000
35.31269 700.000
35.33264 717.000
35.35259 759.000
35.37254 827.000
35.39248 880.000
35.41243 1081.000
35.43238 1111.000
35.45232 1280.000
35.47227 1500.000
35.49222 1626.000
35.51216 1616.000
35.53211 1509.000
35.55206 1367.000
35.57201 1277.000
35.59195 1216.000
35.61190 1056.000
35.63185 889.000
35.65179 775.000
35.67174 627.000
35.69169 556.000
35.71163 532.000
35.73158 493.000
35.75153 490.000
35.77147 479.000
35.79142 484.000
35.81137 525.000
35.83132 484.000
35.85126 519.000
35.87121 497.000
35.89116 441.000
35.91110 456.000
35.93105 487.000
35.95100 510.000
35.97094 470.000
35.99089 470.000
36.01084 449.000
36.03079 507.000
36.05073 513.000
36.07068 514.000
36.09063 504.000
36.11057 441.000
36.13052 494.000
36.15047 464.000
36.17041 464.000
36.19036 522.000
36.21031 517.000
36.23025 519.000
36.25020 549.000
36.27015 484.000
36.29010 502.000
36.31004 487.000
36.32999 532.000
36.34994 522.000
36.36988 492.000
36.38983 510.000
36.40978 496.000
36.42972 513.000
36.44967 525.000
36.46962 497.000
36.48957 536.000
36.50951 551.000
36.52946 579.000
36.54941 576.000
36.56935 623.000
36.58930 693.000
36.60925 761.000
36.62919 813.000
36.64914 875.000
36.66909 872.000
36.68903 881.000
36.70898 902.000
36.72893 931.000
36.74888 1030.000
36.76882 1028.000
36.78877 1022.000
36.80872 1111.000
36.82866 1181.000
36.84861 1340.000
36.86856 1547.000
36.88850 1941.000
36.90845 2297.000
36.92840 2891.000
36.94835 3402.000
36.96829 3792.000
36.98824 3911.000
37.00819 3784.000
37.02813 3307.000
37.04808 2825.000
37.06803 2461.000
37.08797 2208.000
37.10792 1892.000
37.12787 1478.000
37.14781 1034.000
37.16776 866.000
37.18771 741.000
37.20766 579.000
37.22760 584.000
37.24755 589.000
37.26750 543.000
37.28744 506.000
37.30739 507.000
37.32734 462.000
37.34728 473.000
37.36723 485.000
37.38718 447.000
37.40713 444.000
37.42707 422.000
37.44702 461.000
37.46697 435.000
37.48691 432.000
37.50686 438.000
37.52681 433.000
37.54675 459.000
37.56670 448.000
37.58665 447.000
37.60660 434.000
37.62654 437.000
37.64649 453.000
37.66644 468.000
37.68638 442.000
37.70633 454.000
37.72628 456.000
37.74622 446.000
37.76617 410.000
37.78612 435.000
37.80606 423.000
37.82601 431.000
37.84596 395.000
37.86591 435.000
37.88585 426.000
37.90580 430.000
37.92575 438.000
37.94569 449.000
37.96564 418.000
37.98559 416.000
38.00553 442.000
38.02548 393.000
38.04543 413.000
38.06538 432.000
38.08532 398.000
38.10527 440.000
38.12522 409.000
38.14516 428.000
38.16511 393.000
38.18506 407.000
38.20500 421.000
38.22495 435.000
38.24490 406.000
38.26484 399.000
38.28479 440.000
38.30474 408.000
38.32469 450.000
38.34463 426.000
38.36458 425.000
38.38453 452.000
38.40447 415.000
38.42442 431.000
38.44437 401.000
38.46431 420.000
38.48426 423.000
38.50421 430.000
38.52416 442.000
38.54410 427.000
38.56405 399.000
38.58400 395.000
38.60394 447.000
38.62389 433.000
38.64384 388.000
38.66378 428.000
38.68373 390.000
38.70368 446.000
38.72362 443.000
38.74357 415.000
38.76352 402.000
38.78347 408.000
38.80341 412.000
38.82336 384.000
38.84331 401.000
38.86325 392.000
38.88320 400.000
38.90315 438.000
38.92309 398.000
38.94304 403.000
38.96299 387.000
38.98294 440.000
39.00288 428.000
39.02283 415.000
39.04278 391.000
39.06272 405.000
39.08267 401.000
39.10262 422.000
39.12256 455.000
39.14251 442.000
39.16246 415.000
39.18241 436.000
39.20235 384.000
39.22230 412.000
39.24225 450.000
39.26219 463.000
39.28214 428.000
39.30209 403.000
39.32203 425.000
39.34198 372.000
39.36193 421.000
39.38187 415.000
39.40182 396.000
39.42177 404.000
39.44172 417.000
39.46166 446.000
39.48161 437.000
39.50156 436.000
39.52150 419.000
39.54145 451.000
39.56140 447.000
39.58134 444.000
39.60129 447.000
39.62124 422.000
39.64119 421.000
39.66113 435.000
39.68108 428.000
39.70103 403.000
39.72097 391.000
39.74092 404.000
39.76087 398.000
39.78081 416.000
39.80076 410.000
39.82071 420.000
39.84065 423.000
39.86060 400.000
39.88055 430.000
39.90050 403.000
39.92044 402.000
39.94039 413.000
39.96034 432.000
39.98028 467.000
40.00023 421.000
40.02018 429.000
40.04012 439.000
40.06007 396.000
40.08002 374.000
40.09997 420.000
40.11991 415.000
40.13986 417.000
40.15981 406.000
40.17975 440.000
40.19970 420.000
40.21965 422.000
40.23959 408.000
40.25954 418.000
40.27949 420.000
40.29943 413.000
40.31938 428.000
40.33933 415.000
40.35928 445.000
40.37922 419.000
40.39917 450.000
40.41912 421.000
40.43906 385.000
40.45901 440.000
40.47896 431.000
40.49890 399.000
40.51885 407.000
40.53880 414.000
40.55875 401.000
40.57869 408.000
40.59864 416.000
40.61859 429.000
40.63853 460.000
40.65848 428.000
40.67843 434.000
40.69837 433.000
40.71832 435.000
40.73827 424.000
40.75822 424.000
40.77816 404.000
40.79811 425.000
40.81806 427.000
40.83800 391.000
40.85795 436.000
40.87790 434.000
40.89784 393.000
40.91779 402.000
40.93774 420.000
40.95768 406.000
40.97763 445.000
40.99758 410.000
41.01753 429.000
41.03747 446.000
41.05742 429.000
41.07737 398.000
41.09731 385.000
41.11726 391.000
41.13721 401.000
41.15715 429.000
41.17710 435.000
41.19705 408.000
41.21700 384.000
41.23694 436.000
41.25689 382.000
41.27684 422.000
41.29678 434.000
41.31673 370.000
41.33668 410.000
41.35662 368.000
41.37657 424.000
41.39652 398.000
41.41646 444.000
41.43641 420.000
41.45636 388.000
41.47631 441.000
41.49625 422.000
41.51620 429.000
41.53615 416.000
41.55609 402.000
41.57604 396.000
41.59599 399.000
41.61593 405.000
41.63588 431.000
41.65583 434.000
41.67578 415.000
41.69572 389.000
41.71567 393.000
41.73562 429.000
41.75556 407.000
41.77551 432.000
41.79546 430.000
41.81540 415.000
41.83535 421.000
41.85530 403.000
41.87524 464.000
41.89519 421.000
41.91514 426.000
41.93509 410.000
41.95503 465.000
41.97498 463.000
41.99493 408.000
42.01487 448.000
42.03482 406.000
42.05477 454.000
42.07471 418.000
42.09466 449.000
42.11461 478.000
42.13456 445.000
42.15450 418.000
42.17445 474.000
42.19440 444.000
42.21434 498.000
42.23429 461.000
42.25424 474.000
42.27418 495.000
42.29413 553.000
42.31408 475.000
42.33403 502.000
42.35397 546.000
42.37392 520.000
42.39387 561.000
42.41381 604.000
42.43376 571.000
42.45371 626.000
42.47365 607.000
42.49360 574.000
42.51355 577.000
42.53349 609.000
42.55344 637.000
42.57339 754.000
42.59334 754.000
42.61328 845.000
42.63323 942.000
42.65318 1071.000
42.67312 1120.000
42.69307 1226.000
42.71302 1232.000
42.73296 1295.000
42.75291 1487.000
42.77286 1426.000
42.79281 1534.000
42.81275 1650.000
42.83270 1809.000
42.85265 1954.000
42.87259 2213.000
42.89254 2612.000
42.91249 3100.000
42.93243 3541.000
42.95238 4209.000
42.97233 4784.000
42.99227 5119.000
43.01222 5279.000
43.03217 5087.000
43.05212 4599.000
43.07206 4013.000
43.09201 3613.000
43.11196 3315.000
43.13190 2969.000
43.15185 2631.000
43.17180 2060.000
43.19174 1680.000
43.21169 1344.000
43.23164 1107.000
43.25159 925.000
43.27153 867.000
43.29148 761.000
43.31143 755.000
43.33137 603.000
43.35132 578.000
43.37127 618.000
43.39121 502.000
43.41116 501.000
43.43111 467.000
43.45105 529.000
43.47100 424.000
43.49095 424.000
43.51090 475.000
43.53084 425.000
43.55079 413.000
43.57074 432.000
43.59068 372.000
43.61063 407.000
43.63058 436.000
43.65052 410.000
43.67047 419.000
43.69042 442.000
43.71037 400.000
43.73031 420.000
43.75026 389.000
43.77021 396.000
43.79015 383.000
43.81010 412.000
43.83005 412.000
43.84999 399.000
43.86994 393.000
43.88989 401.000
43.90984 409.000
43.92978 372.000
43.94973 386.000
43.96968 384.000
43.98962 406.000
44.00957 367.000
44.02952 389.000
44.04946 374.000
44.06941 399.000
44.08936 328.000
44.10930 381.000
44.12925 346.000
44.14920 402.000
44.16915 397.000
44.18909 396.000
44.20904 403.000
44.22899 369.000
44.24893 393.000
44.26888 370.000
44.28883 369.000
44.30877 420.000
44.32872 351.000
44.34867 377.000
44.36862 400.000
44.38856 422.000
44.40851 374.000
44.42846 372.000
44.44840 421.000
44.46835 396.000
44.48830 377.000
44.50824 376.000
44.52819 368.000
44.54814 345.000
44.56808 369.000
44.58803 402.000
44.60798 352.000
44.62793 360.000
44.64787 347.000
44.66782 375.000
44.68777 380.000
44.70771 309.000
44.72766 370.000
44.74761 357.000
44.76755 417.000
44.78750 364.000
44.80745 368.000
44.82740 374.000
44.84734 361.000
44.86729 365.000
44.88724 334.000
44.90718 413.000
44.92713 361.000
44.94708 342.000
44.96702 378.000
44.98697 380.000
45.00692 361.000
45.02686 339.000
45.04681 357.000
45.06676 349.000
45.08671 355.000
45.10665 348.000
45.12660 346.000
45.14655 352.000
45.16649 360.000
45.18644 337.000
45.20639 352.000
45.22633 331.000
45.24628 337.000
45.26623 371.000
45.28618 357.000
45.30612 375.000
45.32607 358.000
45.34602 378.000
45.36596 365.000
45.38591 355.000
45.40586 355.000
45.42580 362.000
45.44575 345.000
45.46570 346.000
45.48565 340.000
45.50559 388.000
45.52554 353.000
45.54549 348.000
45.56543 365.000
45.58538 350.000
45.60533 331.000
45.62527 338.000
45.64522 307.000
45.66517 347.000
45.68511 343.000
45.70506 364.000
45.72501 360.000
45.74496 365.000
45.76490 341.000
45.78485 351.000
45.80480 342.000
45.82474 346.000
45.84469 334.000
45.86464 346.000
45.88458 359.000
45.90453 354.000
45.92448 343.000
45.94443 336.000
45.96437 327.000
45.98432 326.000
46.00427 343.000
46.02421 356.000
46.04416 344.000
46.06411 347.000
46.08405 347.000
46.10400 321.000
46.12395 340.000
46.14389 348.000
46.16384 359.000
46.18379 331.000
46.20374 370.000
46.22368 317.000
46.24363 321.000
46.26358 351.000
46.28352 337.000
46.30347 348.000
46.32342 334.000
46.34336 336.000
46.36331 348.000
46.38326 376.000
46.40321 322.000
46.42315 362.000
46.44310 354.000
46.46305 332.000
46.48299 342.000
46.50294 338.000
46.52289 361.000
46.54283 341.000
46.56278 324.000
46.58273 299.000
46.60267 354.000
46.62262 356.000
46.64257 344.000
46.66252 333.000
46.68246 362.000
46.70241 316.000
46.72236 308.000
46.74230 361.000
46.76225 340.000
46.78220 372.000
46.80214 318.000
46.82209 360.000
46.84204 329.000
46.86199 328.000
46.88193 317.000
46.90188 324.000
46.92183 322.000
46.94177 344.000
46.96172 325.000
46.98167 314.000
47.00161 307.000
47.02156 354.000
47.04151 319.000
47.06146 327.000
47.08140 353.000
47.10135 347.000
47.12130 319.000
47.14124 323.000
47.16119 316.000
47.18114 325.000
47.20108 311.000
47.22103 329.000
47.24098 319.000
47.26092 332.000
47.28087 352.000
47.30082 311.000
47.32077 338.000
47.34071 336.000
47.36066 318.000
47.38061 359.000
47.40055 319.000
47.42050 336.000
47.44045 352.000
47.46039 336.000
47.48034 338.000
47.50029 315.000
47.52024 340.000
47.54018 337.000
47.56013 334.000
47.58008 309.000
47.60002 298.000
47.61997 341.000
47.63992 328.000
47.65986 309.000
47.67981 324.000
47.69976 346.000
47.71970 321.000
47.73965 382.000
47.75960 306.000
47.77955 345.000
47.79949 299.000
47.81944 321.000
47.83939 300.000
47.85933 321.000
47.87928 303.000
47.89923 289.000
47.91917 280.000
47.93912 340.000
47.95907 293.000
47.97902 326.000
47.99896 323.000
48.01891 302.000
48.03886 340.000
48.05880 343.000
48.07875 347.000
48.09870 328.000
48.11864 310.000
48.13859 278.000
48.15854 339.000
48.17848 282.000
48.19843 332.000
48.21838 299.000
48.23833 295.000
48.25827 289.000
48.27822 299.000
48.29817 299.000
48.31811 292.000
48.33806 318.000
48.35801 333.000
48.37795 316.000
48.39790 325.000
48.41785 315.000
48.43780 316.000
48.45774 309.000
48.47769 320.000
48.49764 318.000
48.51758 253.000
48.53753 295.000
48.55748 327.000
48.57742 300.000
48.59737 288.000
48.61732 294.000
48.63726 324.000
48.65721 312.000
48.67716 350.000
48.69711 305.000
48.71705 298.000
48.73700 332.000
48.75695 333.000
48.77689 276.000
48.79684 301.000
48.81679 289.000
48.83673 338.000
48.85668 334.000
48.87663 314.000
48.89658 309.000
48.91652 303.000
48.93647 316.000
48.95642 321.000
48.97636 314.000
48.99631 344.000
49.01626 297.000
49.03620 320.000
49.05615 336.000
49.07610 295.000
49.09605 306.000
49.11599 327.000
49.13594 314.000
49.15589 310.000
49.17583 350.000
49.19578 317.000
49.21573 321.000
49.23567 339.000
49.25562 330.000
49.27557 324.000
49.29551 329.000
49.31546 296.000
49.33541 326.000
49.35536 320.000
49.37530 336.000
49.39525 307.000
49.41520 315.000
49.43514 344.000
49.45509 363.000
49.47504 344.000
49.49498 364.000
49.51493 315.000
49.53488 328.000
49.55483 291.000
49.57477 318.000
49.59472 320.000
49.61467 353.000
49.63461 305.000
49.65456 310.000
49.67451 331.000
49.69445 319.000
49.71440 324.000
49.73435 343.000
49.75429 324.000
49.77424 316.000
49.79419 306.000
49.81414 336.000
49.83408 302.000
49.85403 285.000
49.87398 319.000
49.89392 335.000
49.91387 318.000
49.93382 334.000
49.95376 308.000
49.97371 272.000
49.99366 293.000
50.01361 311.000
50.03355 328.000
50.05350 317.000
50.07345 338.000
50.09339 323.000
50.11334 323.000
50.13329 320.000
50.15323 341.000
50.17318 303.000
50.19313 329.000
50.21307 310.000
50.23302 297.000
50.25297 323.000
50.27292 308.000
50.29286 335.000
50.31281 282.000
50.33276 333.000
50.35270 273.000
50.37265 290.000
50.39260 324.000
50.41254 292.000
50.43249 341.000
50.45244 287.000
50.47239 298.000
50.49233 315.000
50.51228 312.000
50.53223 315.000
50.55217 308.000
50.57212 324.000
50.59207 306.000
50.61201 342.000
50.63196 333.000
50.65191 326.000
50.67186 325.000
50.69180 298.000
50.71175 283.000
50.73170 297.000
50.75164 334.000
50.77159 323.000
50.79154 298.000
50.81148 303.000
50.83143 307.000
50.85138 302.000
50.87132 282.000
50.89127 322.000
50.91122 286.000
50.93117 294.000
50.95111 306.000
50.97106 306.000
50.99101 317.000
51.01095 287.000
51.03090 290.000
51.05085 317.000
51.07079 341.000
51.09074 273.000
51.11069 299.000
51.13064 315.000
51.15058 300.000
51.17053 310.000
51.19048 321.000
51.21042 293.000
51.23037 284.000
51.25032 272.000
51.27026 277.000
51.29021 347.000
51.31016 271.000
51.33010 335.000
51.35005 319.000
51.37000 311.000
51.38995 299.000
51.40989 272.000
51.42984 298.000
51.44979 292.000
51.46973 323.000
51.48968 331.000
51.50963 275.000
51.52957 326.000
51.54952 321.000
51.56947 314.000
51.58942 312.000
51.60936 298.000
51.62931 288.000
51.64926 273.000
51.66920 319.000
51.68915 316.000
51.70910 293.000
51.72904 342.000
51.74899 291.000
51.76894 348.000
51.78888 298.000
51.80883 329.000
51.82878 325.000
51.84873 302.000
51.86867 326.000
51.88862 281.000
51.90857 300.000
51.92851 304.000
51.94846 319.000
51.96841 304.000
51.98835 294.000
52.00830 309.000
52.02825 309.000
52.04820 281.000
52.06814 330.000
52.08809 272.000
52.10804 299.000
52.12798 343.000
52.14793 331.000
52.16788 288.000
52.18782 306.000
52.20777 281.000
52.22772 302.000
52.24767 310.000
52.26761 328.000
52.28756 268.000
52.30751 316.000
52.32745 310.000
52.34740 270.000
52.36735 338.000
52.38729 270.000
52.40724 278.000
52.42719 298.000
52.44713 321.000
52.46708 279.000
52.48703 319.000
52.50698 289.000
52.52692 291.000
52.54687 289.000
52.56682 314.000
52.58676 327.000
52.60671 280.000
52.62666 310.000
52.64660 320.000
52.66655 303.000
52.68650 304.000
52.70645 296.000
52.72639 275.000
52.74634 343.000
52.76629 301.000
52.78623 283.000
52.80618 302.000
52.82613 286.000
52.84607 339.000
52.86602 321.000
52.88597 301.000
52.90591 280.000
52.92586 309.000
52.94581 325.000
52.96576 312.000
52.98570 290.000
53.00565 276.000
53.02560 306.000
53.04554 268.000
53.06549 300.000
53.08544 269.000
53.10538 289.000
53.12533 300.000
53.14528 325.000
53.16523 309.000
53.18517 314.000
53.20512 268.000
53.22507 307.000
53.24501 259.000
53.26496 327.000
53.28491 297.000
53.30485 310.000
53.32480 326.000
53.34475 312.000
53.36469 343.000
53.38464 308.000
53.40459 299.000
53.42454 320.000
53.44448 309.000
53.46443 317.000
53.48438 334.000
53.50432 323.000
53.52427 343.000
53.54422 330.000
53.56416 403.000
53.58411 346.000
53.60406 382.000
53.62401 392.000
53.64395 402.000
53.66390 330.000
53.68385 378.000
53.70379 364.000
53.72374 355.000
53.74369 346.000
53.76363 337.000
53.78358 341.000
53.80353 361.000
53.82348 333.000
53.84342 334.000
53.86337 311.000
53.88332 333.000
53.90326 282.000
53.92321 305.000
53.94316 316.000
53.96310 316.000
53.98305 270.000
54.00300 291.000
54.02294 301.000
54.04289 288.000
54.06284 307.000
54.08279 287.000
54.10273 316.000
54.12268 300.000
54.14263 282.000
54.16257 313.000
54.18252 321.000
54.20247 300.000
54.22241 323.000
54.24236 292.000
54.26231 287.000
54.28226 304.000
54.30220 300.000
54.32215 317.000
54.34210 297.000
54.36204 296.000
54.38199 287.000
54.40194 288.000
54.42188 278.000
54.44183 283.000
54.46178 307.000
54.48172 296.000
54.50167 303.000
54.52162 300.000
54.54157 317.000
54.56151 324.000
54.58146 338.000
54.60141 298.000
54.62135 267.000
54.64130 297.000
54.66125 294.000
54.68119 295.000
54.70114 318.000
54.72109 291.000
54.74104 339.000
54.76098 300.000
54.78093 280.000
54.80088 307.000
54.82082 278.000
54.84077 290.000
54.86072 301.000
54.88066 260.000
54.90061 287.000
54.92056 273.000
54.94050 322.000
54.96045 263.000
54.98040 269.000
55.00035 322.000
55.02029 290.000
55.04024 306.000
55.06019 284.000
55.08013 309.000
55.10008 323.000
55.12003 298.000
55.13997 270.000
55.15992 302.000
55.17987 311.000
55.19982 299.000
55.21976 282.000
55.23971 277.000
55.25966 304.000
55.27960 301.000
55.29955 327.000
55.31950 275.000
55.33944 329.000
55.35939 242.000
55.37934 278.000
55.39929 310.000
55.41923 289.000
55.43918 275.000
55.45913 283.000
55.47907 291.000
55.49902 344.000
55.51897 273.000
55.53891 292.000
55.55886 289.000
55.57881 282.000
55.59875 282.000
55.61870 272.000
55.63865 292.000
55.65860 304.000
55.67854 295.000
55.69849 295.000
55.71844 318.000
55.73838 292.000
55.75833 321.000
55.77828 284.000
55.79822 299.000
55.81817 285.000
55.83812 301.000
55.85807 283.000
55.87801 261.000
55.89796 269.000
55.91791 290.000
55.93785 293.000
55.95780 316.000
55.97775 306.000
55.99769 314.000
56.01764 314.000
56.03759 288.000
56.05753 295.000
56.07748 302.000
56.09743 298.000
56.11738 319.000
56.13732 285.000
56.15727 290.000
56.17722 284.000
56.19716 301.000
56.21711 305.000
56.23706 346.000
56.25700 291.000
56.27695 272.000
56.29690 264.000
56.31685 286.000
56.33679 288.000
56.35674 274.000
56.37669 286.000
56.39663 321.000
56.41658 267.000
56.43653 276.000
56.45647 303.000
56.47642 311.000
56.49637 291.000
56.51631 290.000
56.53626 289.000
56.55621 307.000
56.57616 284.000
56.59610 306.000
56.61605 302.000
56.63600 285.000
56.65594 304.000
56.67589 296.000
56.69584 296.000
56.71578 334.000
56.73573 267.000
56.75568 293.000
56.77563 300.000
56.79557 313.000
56.81552 284.000
56.83547 335.000
56.85541 330.000
56.87536 335.000
56.89531 358.000
56.91525 410.000
56.93520 337.000
56.95515 327.000
56.97510 377.000
56.99504 346.000
57.01499 357.000
57.03494 370.000
57.05488 364.000
57.07483 443.000
57.09478 473.000
57.11472 477.000
57.13467 486.000
57.15462 501.000
57.17456 559.000
57.19451 582.000
57.21446 558.000
57.23441 573.000
57.25435 554.000
57.27430 481.000
57.29425 493.000
57.31419 441.000
57.33414 492.000
57.35409 479.000
57.37403 423.000
57.39398 438.000
57.41393 368.000
57.43388 365.000
57.45382 328.000
57.47377 352.000
57.49372 344.000
57.51366 329.000
57.53361 314.000
57.55356 291.000
57.57350 303.000
57.59345 281.000
57.61340 307.000
57.63334 287.000
57.65329 285.000
57.67324 319.000
57.69319 285.000
57.71313 287.000
57.73308 303.000
57.75303 330.000
57.77297 297.000
57.79292 274.000
57.81287 285.000
57.83281 287.000
57.85276 289.000
57.87271 260.000
57.89266 249.000
57.91260 291.000
57.93255 297.000
57.95250 284.000
57.97244 286.000
57.99239 310.000
58.01234 297.000
58.03228 256.000
58.05223 278.000
58.07218 308.000
58.09212 273.000
58.11207 295.000
58.13202 266.000
58.15197 282.000
58.17191 285.000
58.19186 287.000
58.21181 300.000
58.23175 290.000
58.25170 286.000
58.27165 260.000
58.29159 262.000
58.31154 275.000
58.33149 260.000
58.35144 286.000
58.37138 294.000
58.39133 268.000
58.41128 256.000
58.43122 284.000
58.45117 300.000
58.47112 306.000
58.49106 321.000
58.51101 258.000
58.53096 292.000
58.55090 274.000
58.57085 290.000
58.59080 295.000
58.61075 301.000
58.63069 280.000
58.65064 267.000
58.67059 284.000
58.69053 305.000
58.71048 276.000
58.73043 277.000
58.75037 289.000
58.77032 285.000
58.79027 277.000
58.81022 255.000
58.83016 292.000
58.85011 263.000
58.87006 303.000
58.89000 303.000
58.90995 286.000
58.92990 288.000
58.94984 292.000
58.96979 265.000
58.98974 280.000
59.00969 269.000
59.02963 309.000
59.04958 296.000
59.06953 319.000
59.08947 296.000
59.10942 311.000
59.12937 283.000
59.14931 290.000
59.16926 286.000
59.18921 311.000
59.20915 293.000
59.22910 278.000
59.24905 275.000
59.26900 282.000
59.28894 281.000
59.30889 253.000
59.32884 308.000
59.34878 258.000
59.36873 264.000
59.38868 309.000
59.40862 252.000
59.42857 268.000
59.44852 289.000
59.46847 292.000
59.48841 281.000
59.50836 290.000
59.52831 294.000
59.54825 281.000
59.56820 274.000
59.58815 293.000
59.60809 314.000
59.62804 295.000
59.64799 308.000
59.66793 291.000
59.68788 267.000
59.70783 293.000
59.72778 310.000
59.74772 267.000
59.76767 290.000
59.78762 255.000
59.80756 268.000
59.82751 288.000
59.84746 286.000
59.86740 320.000
59.88735 307.000
59.90730 272.000
59.92725 289.000
59.94719 294.000
59.96714 298.000
59.98709 273.000
60.00703 332.000
60.02698 273.000
60.04693 307.000
60.06687 277.000
60.08682 315.000
60.10677 275.000
60.12671 295.000
60.14666 299.000
60.16661 269.000
60.18656 286.000
60.20650 266.000
60.22645 276.000
60.24640 286.000
60.26634 308.000
60.28629 271.000
60.30624 280.000
60.32618 265.000
60.34613 306.000
60.36608 287.000
60.38603 314.000
60.40597 268.000
60.42592 296.000
60.44587 283.000
60.46581 265.000
60.48576 287.000
60.50571 286.000
60.52565 286.000
60.54560 265.000
60.56555 268.000
60.58550 298.000
60.60544 271.000
60.62539 299.000
60.64534 280.000
60.66528 275.000
60.68523 253.000
60.70518 269.000
60.72512 277.000
60.74507 303.000
60.76502 278.000
60.78496 271.000
60.80491 306.000
60.82486 277.000
60.84481 282.000
60.86475 304.000
60.88470 304.000
60.90465 300.000
60.92459 299.000
60.94454 286.000
60.96449 295.000
60.98443 275.000
61.00438 277.000
61.02433 296.000
61.04428 310.000
61.06422 292.000
61.08417 296.000
61.10412 256.000
61.12406 284.000
61.14401 272.000
61.16396 298.000
61.18390 280.000
61.20385 298.000
61.22380 315.000
61.24374 313.000
61.26369 308.000
61.28364 318.000
61.30359 323.000
61.32353 294.000
61.34348 314.000
61.36343 302.000
61.38337 285.000
61.40332 310.000
61.42327 328.000
61.44321 305.000
61.46316 295.000
61.48311 316.000
61.50306 328.000
61.52300 312.000
61.54295 287.000
61.56290 313.000
61.58284 306.000
61.60279 336.000
61.62274 340.000
61.64268 348.000
61.66263 322.000
61.68258 338.000
61.70252 314.000
61.72247 319.000
61.74242 344.000
61.76237 379.000
61.78231 353.000
61.80226 342.000
61.82221 323.000
61.84215 347.000
61.86210 372.000
61.88205 365.000
61.90199 366.000
61.92194 362.000
61.94189 380.000
61.96184 409.000
61.98178 412.000
62.00173 415.000
62.02168 419.000
62.04162 426.000
62.06157 412.000
62.08152 476.000
62.10146 458.000
62.12141 532.000
62.14136 500.000
62.16131 528.000
62.18125 599.000
62.20120 666.000
62.22115 664.000
62.24109 741.000
62.26104 797.000
62.28099 738.000
62.30093 834.000
62.32088 845.000
62.34083 925.000
62.36077 1059.000
62.38072 1119.000
62.40067 1164.000
62.42062 1261.000
62.44056 1543.000
62.46051 1755.000
62.48046 1927.000
62.50040 2136.000
62.52035 2376.000
62.54030 2472.000
62.56024 2533.000
62.58019 2523.000
62.60014 2291.000
62.62009 2068.000
62.64003 1916.000
62.65998 1691.000
62.67993 1600.000
62.69987 1696.000
62.71982 1634.000
62.73977 1565.000
62.75971 1461.000
62.77966 1258.000
62.79961 1137.000
62.81955 1052.000
62.83950 1015.000
62.85945 904.000
62.87940 806.000
62.89934 794.000
62.91929 634.000
62.93924 589.000
62.95918 583.000
62.97913 564.000
62.99908 540.000
63.01902 513.000
63.03897 556.000
63.05892 477.000
63.07887 446.000
63.09881 433.000
63.11876 385.000
63.13871 346.000
63.15865 363.000
63.17860 347.000
63.19855 315.000
63.21849 317.000
63.23844 307.000
63.25839 308.000
63.27833 309.000
63.29828 287.000
63.31823 309.000
63.33818 280.000
63.35812 307.000
63.37807 304.000
63.39802 304.000
63.41796 311.000
63.43791 297.000
63.45786 256.000
63.47780 311.000
63.49775 277.000
63.51770 284.000
63.53765 293.000
63.55759 288.000
63.57754 271.000
63.59749 293.000
63.61743 300.000
63.63738 262.000
63.65733 308.000
63.67727 266.000
63.69722 324.000
63.71717 304.000
63.73712 282.000
63.75706 265.000
63.77701 300.000
63.79696 294.000
63.81690 284.000
63.83685 303.000
63.85680 276.000
63.87674 279.000
63.89669 306.000
63.91664 264.000
63.93658 267.000
63.95653 288.000
63.97648 275.000
63.99643 310.000
64.01637 304.000
64.03632 317.000
64.05627 313.000
64.07621 263.000
64.09616 276.000
64.11611 273.000
64.13605 262.000
64.15600 296.000
64.17595 269.000
64.19590 273.000
64.21584 269.000
64.23579 263.000
64.25574 295.000
64.27568 295.000
64.29563 281.000
64.31558 293.000
64.33552 282.000
64.35547 265.000
64.37542 283.000
64.39536 295.000
64.41531 252.000
64.43526 251.000
64.45521 305.000
64.47515 259.000
64.49510 272.000
64.51505 301.000
64.53499 265.000
64.55494 267.000
64.57489 276.000
64.59483 287.000
64.61478 287.000
64.63473 276.000
64.65468 290.000
64.67462 273.000
64.69457 283.000
64.71452 267.000
64.73446 282.000
64.75441 267.000
64.77436 304.000
64.79430 270.000
64.81425 254.000
64.83420 288.000
64.85414 261.000
64.87409 265.000
64.89404 285.000
64.91399 274.000
64.93393 257.000
64.95388 267.000
64.97383 302.000
64.99377 253.000
65.01372 290.000
65.03367 280.000
65.05361 293.000
65.07356 249.000
65.09351 280.000
65.11346 308.000
65.13340 272.000
65.15335 281.000
65.17330 283.000
65.19324 280.000
65.21319 259.000
65.23314 268.000
65.25308 294.000
65.27303 249.000
65.29298 287.000
65.31293 279.000
65.33287 234.000
65.35282 278.000
65.37277 292.000
65.39271 291.000
65.41266 289.000
65.43261 255.000
65.45255 297.000
65.47250 274.000
65.49245 277.000
65.51239 268.000
65.53234 280.000
65.55229 278.000
65.57224 286.000
65.59218 303.000
65.61213 261.000
65.63208 296.000
65.65202 305.000
65.67197 278.000
65.69192 258.000
65.71186 302.000
65.73181 296.000
65.75176 273.000
65.77171 280.000
65.79165 240.000
65.81160 283.000
65.83155 272.000
65.85149 284.000
65.87144 263.000
65.89139 307.000
65.91133 269.000
65.93128 286.000
65.95123 260.000
65.97117 262.000
65.99112 298.000
66.01107 276.000
66.03102 276.000
66.05096 272.000
66.07091 296.000
66.09086 302.000
66.11080 284.000
66.13075 286.000
66.15070 258.000
66.17064 274.000
66.19059 257.000
66.21054 296.000
66.23049 302.000
66.25043 300.000
66.27038 271.000
66.29033 299.000
66.31027 276.000
66.33022 279.000
66.35017 292.000
66.37011 296.000
66.39006 280.000
66.41001 273.000
66.42995 258.000
66.44990 251.000
66.46985 265.000
66.48980 255.000
66.50974 253.000
66.52969 273.000
66.54964 267.000
66.56958 269.000
66.58953 282.000
66.60948 270.000
66.62942 248.000
66.64937 258.000
66.66932 271.000
66.68927 265.000
66.70921 277.000
66.72916 284.000
66.74911 279.000
66.76905 285.000
66.78900 272.000
66.80895 274.000
66.82889 269.000
66.84884 255.000
66.86879 246.000
66.88874 266.000
66.90868 266.000
66.92863 266.000
66.94858 276.000
66.96852 249.000
66.98847 268.000
67.00842 285.000
67.02836 307.000
67.04831 265.000
67.06826 249.000
67.08820 293.000
67.10815 265.000
67.12810 245.000
67.14805 295.000
67.16799 252.000
67.18794 248.000
67.20789 298.000
67.22783 245.000
67.24778 253.000
67.26773 240.000
67.28767 264.000
67.30762 254.000
67.32757 257.000
67.34752 260.000
67.36746 247.000
67.38741 283.000
67.40736 247.000
67.42730 284.000
67.44725 307.000
67.46720 242.000
67.48714 292.000
67.50709 268.000
67.52704 285.000
67.54698 254.000
67.56693 261.000
67.58688 290.000
67.60683 243.000
67.62677 236.000
67.64672 291.000
67.66667 301.000
67.68661 269.000
67.70656 258.000
67.72651 264.000
67.74645 255.000
67.76640 264.000
67.78635 241.000
67.80630 286.000
67.82624 262.000
67.84619 252.000
67.86614 279.000
67.88608 256.000
67.90603 269.000
67.92598 270.000
67.94592 262.000
67.96587 262.000
67.98582 265.000
68.00576 263.000
68.02571 289.000
68.04566 280.000
68.06561 274.000
68.08555 266.000
68.10550 300.000
68.12545 270.000
68.14539 271.000
68.16534 271.000
68.18529 261.000
68.20523 231.000
68.22518 260.000
68.24513 276.000
68.26508 238.000
68.28502 266.000
68.30497 269.000
68.32492 274.000
68.34486 227.000
68.36481 258.000
68.38476 281.000
68.40470 251.000
68.42465 284.000
68.44460 286.000
68.46455 299.000
68.48449 235.000
68.50444 237.000
68.52439 272.000
68.54433 266.000
68.56428 258.000
68.58423 274.000
68.60417 259.000
68.62412 264.000
68.64407 271.000
68.66401 276.000
68.68396 240.000
68.70391 254.000
68.72386 265.000
68.74380 257.000
68.76375 270.000
68.78370 243.000
68.80364 272.000
68.82359 258.000
68.84354 274.000
68.86348 271.000
68.88343 269.000
68.90338 246.000
68.92333 282.000
68.94327 260.000
68.96322 269.000
68.98317 266.000
69.00311 223.000
69.02306 297.000
69.04301 264.000
69.06295 290.000
69.08290 265.000
69.10285 311.000
69.12279 271.000
69.14274 263.000
69.16269 252.000
69.18264 265.000
69.20258 253.000
69.22253 267.000
69.24248 269.000
69.26242 279.000
69.28237 250.000
69.30232 248.000
69.32226 238.000
69.34221 265.000
69.36216 255.000
69.38211 283.000
69.40205 267.000
69.42200 283.000
69.44195 285.000
69.46189 265.000
69.48184 290.000
69.50179 279.000
69.52173 281.000
69.54168 282.000
69.56163 257.000
69.58157 249.000
69.60152 270.000
69.62147 296.000
69.64142 247.000
69.66136 245.000
69.68131 275.000
69.70126 245.000
69.72120 293.000
69.74115 258.000
69.76110 272.000
69.78104 272.000
69.80099 246.000
69.82094 272.000
69.84089 260.000
69.86083 241.000
69.88078 234.000
69.90073 311.000
69.92067 294.000
69.94062 258.000
69.96057 272.000
69.98051 274.000
70.00046 253.000
70.02041 244.000
70.04035 277.000
70.06030 269.000
70.08025 258.000
70.10020 257.000
70.12014 258.000
70.14009 235.000
70.16004 276.000
70.17998 241.000
70.19993 271.000
70.21988 259.000
70.23982 277.000
70.25977 245.000
70.27972 268.000
70.29967 267.000
70.31961 255.000
70.33956 266.000
70.35951 230.000
70.37945 244.000
70.39940 250.000
70.41935 244.000
70.43929 272.000
70.45924 275.000
70.47919 257.000
70.49914 270.000
70.51908 254.000
70.53903 244.000
70.55898 262.000
70.57892 247.000
70.59887 249.000
70.61882 253.000
70.63876 243.000
70.65871 270.000
70.67866 248.000
70.69860 266.000
70.71855 276.000
70.73850 256.000
70.75845 267.000
70.77839 261.000
70.79834 254.000
70.81829 269.000
70.83823 248.000
70.85818 251.000
70.87813 267.000
70.89807 230.000
70.91802 274.000
70.93797 282.000
70.95792 270.000
70.97786 278.000
70.99781 238.000
71.01776 265.000
71.03770 243.000
71.05765 272.000
71.07760 278.000
71.09754 265.000
71.11749 240.000
71.13744 283.000
71.15738 285.000
71.17733 250.000
71.19728 291.000
71.21723 292.000
71.23717 302.000
71.25712 289.000
71.27707 295.000
71.29701 281.000
71.31696 317.000
71.33691 272.000
71.35685 295.000
71.37680 279.000
71.39675 281.000
71.41670 282.000
71.43664 294.000
71.45659 286.000
71.47654 284.000
71.49648 238.000
71.51643 250.000
71.53638 272.000
71.55632 283.000
71.57627 271.000
71.59622 278.000
71.61616 277.000
71.63611 269.000
71.65606 280.000
71.67601 279.000
71.69595 273.000
71.71590 277.000
71.73585 244.000
71.75579 226.000
71.77574 244.000
71.79569 259.000
71.81563 262.000
71.83558 271.000
71.85553 255.000
71.87548 279.000
71.89542 252.000
71.91537 254.000
71.93532 260.000
71.95526 243.000
71.97521 233.000
71.99516 299.000
72.01510 263.000
72.03505 267.000
72.05500 253.000
72.07495 272.000
72.09489 268.000
72.11484 269.000
72.13479 253.000
72.15473 251.000
72.17468 265.000
72.19463 277.000
72.21457 267.000
72.23452 266.000
72.25447 234.000
72.27441 275.000
72.29436 273.000
72.31431 273.000
72.33426 258.000
72.35420 269.000
72.37415 238.000
72.39410 276.000
72.41404 281.000
72.43399 270.000
72.45394 266.000
72.47388 255.000
72.49383 291.000
72.51378 278.000
72.53373 259.000
72.55367 264.000
72.57362 282.000
72.59357 279.000
72.61351 275.000
72.63346 293.000
72.65341 294.000
72.67335 258.000
72.69330 267.000
72.71325 262.000
72.73319 262.000
72.75314 289.000
72.77309 293.000
72.79304 279.000
72.81298 262.000
72.83293 274.000
72.85288 286.000
72.87282 257.000
72.89277 288.000
72.91272 290.000
72.93266 277.000
72.95261 276.000
72.97256 251.000
72.99251 263.000
73.01245 251.000
73.03240 267.000
73.05235 271.000
73.07229 242.000
73.09224 258.000
73.11219 255.000
73.13213 275.000
73.15208 261.000
73.17203 275.000
73.19197 278.000
73.21192 258.000
73.23187 257.000
73.25182 268.000
73.27176 286.000
73.29171 260.000
73.31166 267.000
73.33160 255.000
73.35155 273.000
73.37150 277.000
73.39144 263.000
73.41139 268.000
73.43134 244.000
73.45129 290.000
73.47123 255.000
73.49118 264.000
73.51113 266.000
73.53107 242.000
73.55102 281.000
73.57097 251.000
73.59091 248.000
73.61086 269.000
73.63081 261.000
73.65076 255.000
73.67070 268.000
73.69065 258.000
73.71060 279.000
73.73054 243.000
73.75049 261.000
73.77044 252.000
73.79038 272.000
73.81033 270.000
73.83028 291.000
73.85022 263.000
73.87017 289.000
73.89012 274.000
73.91007 270.000
73.93001 285.000
73.94996 289.000
73.96991 255.000
73.98985 279.000
74.00980 286.000
74.02975 274.000
74.04969 277.000
74.06964 263.000
74.08959 264.000
74.10954 282.000
74.12948 263.000
74.14943 268.000
74.16938 295.000
74.18932 267.000
74.20927 268.000
74.22922 283.000
74.24916 282.000
74.26911 319.000
74.28906 337.000
74.30900 260.000
74.32895 312.000
74.34890 327.000
74.36885 318.000
74.38879 308.000
74.40874 326.000
74.42869 359.000
74.44863 336.000
74.46858 372.000
74.48853 336.000
74.50847 354.000
74.52842 366.000
74.54837 360.000
74.56832 319.000
74.58826 361.000
74.60821 347.000
74.62816 387.000
74.64810 394.000
74.66805 387.000
74.68800 409.000
74.70794 434.000
74.72789 421.000
74.74784 458.000
74.76778 461.000
74.78773 466.000
74.80768 502.000
74.82763 518.000
74.84757 547.000
74.86752 602.000
74.88747 576.000
74.90741 647.000
74.92736 695.000
74.94731 731.000
74.96725 785.000
74.98720 854.000
75.00715 870.000
75.02710 922.000
75.04704 961.000
75.06699 982.000
75.08694 924.000
75.10688 951.000
75.12683 844.000
75.14678 816.000
75.16672 740.000
75.18667 721.000
75.20662 668.000
75.22657 641.000
75.24651 625.000
75.26646 590.000
75.28641 653.000
75.30635 586.000
75.32630 577.000
75.34625 521.000
75.36619 522.000
75.38614 441.000
75.40609 437.000
75.42603 419.000
75.44598 353.000
75.46593 374.000
75.48588 335.000
75.50582 319.000
75.52577 367.000
75.54572 312.000
75.56566 317.000
75.58561 301.000
75.60556 307.000
75.62550 307.000
75.64545 307.000
75.66540 269.000
75.68535 311.000
75.70529 287.000
75.72524 243.000
75.74519 264.000
75.76513 273.000
75.78508 248.000
75.80503 262.000
75.82497 270.000
75.84492 264.000
75.86487 272.000
75.88481 262.000
75.90476 248.000
75.92471 293.000
75.94466 283.000
75.96460 260.000
75.98455 272.000
76.00450 259.000
76.02444 294.000
76.04439 270.000
76.06434 256.000
76.08428 272.000
76.10423 253.000
76.12418 280.000
76.14413 258.000
76.16407 260.000
76.18402 300.000
76.20397 268.000
76.22391 266.000
76.24386 284.000
76.26381 271.000
76.28375 251.000
76.30370 264.000
76.32365 258.000
76.34359 269.000
76.36354 257.000
76.38349 257.000
76.40344 280.000
76.42338 247.000
76.44333 236.000
76.46328 250.000
76.48322 242.000
76.50317 273.000
76.52312 236.000
76.54306 234.000
76.56301 249.000
76.58296 263.000
76.60291 272.000
76.62285 292.000
76.64280 255.000
76.66275 248.000
76.68269 273.000
76.70264 238.000
76.72259 242.000
76.74253 251.000
76.76248 300.000
76.78243 261.000
76.80238 263.000
76.82232 254.000
76.84227 210.000
76.86222 273.000
76.88216 230.000
76.90211 280.000
76.92206 290.000
76.94200 280.000
76.96195 251.000
76.98190 257.000
77.00184 241.000
77.02179 246.000
77.04174 280.000
77.06169 238.000
77.08163 255.000
77.10158 281.000
77.12153 276.000
77.14147 239.000
77.16142 255.000
77.18137 286.000
77.20131 277.000
77.22126 249.000
77.24121 255.000
77.26116 223.000
77.28110 255.000
77.30105 232.000
77.32100 242.000
77.34094 281.000
77.36089 238.000
77.38084 264.000
77.40078 261.000
77.42073 269.000
77.44068 266.000
77.46062 250.000
77.48057 289.000
77.50052 285.000
77.52047 267.000
77.54041 271.000
77.56036 253.000
77.58031 263.000
77.60025 213.000
77.62020 267.000
77.64015 275.000
77.66009 243.000
77.68004 254.000
77.69999 262.000
77.71994 270.000
77.73988 300.000
77.75983 250.000
77.77978 264.000
77.79972 248.000
77.81967 295.000
77.83962 263.000
77.85956 259.000
77.87951 255.000
77.89946 259.000
77.91940 245.000
77.93935 232.000
77.95930 246.000
77.97925 277.000
77.99919 238.000
78.01914 259.000
78.03909 256.000
78.05903 269.000
78.07898 250.000
78.09893 273.000
78.11887 249.000
78.13882 263.000
78.15877 280.000
78.17872 275.000
78.19866 256.000
78.21861 250.000
78.23856 256.000
78.25850 267.000
78.27845 274.000
78.29840 254.000
78.31834 260.000
78.33829 267.000
78.35824 265.000
78.37819 263.000
78.39813 249.000
78.41808 279.000
78.43803 299.000
78.45797 280.000
78.47792 297.000
78.49787 298.000
78.51781 307.000
78.53776 279.000
78.55771 296.000
78.57765 308.000
78.59760 322.000
78.61755 335.000
78.63750 341.000
78.65744 366.000
78.67739 351.000
78.69734 359.000
78.71728 361.000
78.73723 367.000
78.75718 398.000
78.77712 412.000
78.79707 414.000
78.81702 427.000
78.83697 468.000
78.85691 499.000
78.87686 464.000
78.89681 554.000
78.91675 602.000
78.93670 646.000
78.95665 642.000
78.97659 692.000
78.99654 724.000
79.01649 742.000
79.03643 799.000
79.05638 769.000
79.07633 764.000
79.09628 662.000
79.11622 667.000
79.13617 607.000
79.15612 569.000
79.17606 565.000
79.19601 540.000
79.21596 504.000
79.23590 528.000
79.25585 529.000
79.27580 529.000
79.29575 509.000
79.31569 493.000
79.33564 463.000
79.35559 432.000
79.37553 417.000
79.39548 403.000
79.41543 329.000
79.43537 335.000
79.45532 331.000
79.47527 322.000
79.49521 323.000
79.51516 297.000
79.53511 295.000
79.55506 283.000
79.57500 311.000
79.59495 289.000
79.61490 270.000
79.63484 316.000
79.65479 273.000
79.67474 265.000
79.69468 272.000
79.71463 265.000
79.73458 272.000
79.75453 280.000
79.77447 255.000
79.79442 280.000
79.81437 256.000
79.83431 279.000
79.85426 265.000
79.87421 258.000
79.89415 246.000
79.91410 264.000
79.93405 278.000
79.95399 258.000
79.97394 263.000
79.99389 255.000
80.01384 265.000
80.03378 247.000
80.05373 269.000
80.07368 228.000
80.09362 283.000
80.11357 256.000
80.13352 266.000
80.15346 256.000
80.17341 264.000
80.19336 234.000
80.21331 242.000
80.23325 249.000
80.25320 254.000
80.27315 254.000
80.29309 261.000
80.31304 264.000
80.33299 237.000
80.35293 246.000
80.37288 251.000
80.39283 258.000
80.41278 250.000
80.43272 255.000
80.45267 287.000
80.47262 271.000
80.49256 240.000
80.51251 238.000
80.53246 256.000
80.55240 240.000
80.57235 269.000
80.59230 240.000
80.61224 227.000
80.63219 239.000
80.65214 264.000
80.67209 260.000
80.69203 229.000
80.71198 251.000
80.73193 288.000
80.75187 257.000
80.77182 261.000
80.79177 247.000
80.81171 225.000
80.83166 247.000
80.85161 252.000
80.87156 238.000
80.89150 249.000
80.91145 255.000
80.93140 256.000
80.95134 262.000
80.97129 245.000
80.99124 239.000
81.01118 259.000
81.03113 243.000
81.05108 279.000
81.07102 216.000
81.09097 261.000
81.11092 274.000
81.13087 261.000
81.15081 263.000
81.17076 232.000
81.19071 264.000
81.21065 236.000
81.23060 267.000
81.25055 270.000
81.27049 265.000
81.29044 233.000
81.31039 245.000
81.33034 289.000
81.35028 257.000
81.37023 263.000
81.39018 252.000
81.41012 239.000
81.43007 252.000
81.45002 263.000
81.46996 243.000
81.48991 273.000
81.50986 234.000
81.52980 254.000
81.54975 245.000
81.56970 244.000
81.58965 260.000
81.60959 260.000
81.62954 280.000
81.64949 237.000
81.66943 255.000
81.68938 238.000
81.70933 264.000
81.72927 252.000
81.74922 264.000
81.76917 228.000
81.78912 253.000
81.80906 234.000
81.82901 244.000
81.84896 270.000
81.86890 248.000
81.88885 236.000
81.90880 235.000
81.92874 260.000
81.94869 270.000
81.96864 218.000
81.98859 235.000
82.00853 267.000
82.02848 228.000
82.04843 243.000
82.06837 249.000
82.08832 228.000
82.10827 250.000
82.12821 254.000
82.14816 237.000
82.16811 262.000
82.18805 260.000
82.20800 260.000
82.22795 249.000
82.24790 257.000
82.26784 234.000
82.28779 236.000
82.30774 295.000
82.32768 256.000
82.34763 300.000
82.36758 258.000
82.38752 243.000
82.40747 259.000
82.42742 246.000
82.44737 259.000
82.46731 251.000
82.48726 264.000
82.50721 261.000
82.52715 264.000
82.54710 259.000
82.56705 258.000
82.58699 242.000
82.60694 255.000
82.62689 248.000
82.64683 280.000
82.66678 262.000
82.68673 266.000
82.70668 245.000
82.72662 263.000
82.74657 242.000
82.76652 252.000
82.78646 240.000
82.80641 265.000
82.82636 262.000
82.84630 230.000
82.86625 270.000
82.88620 262.000
82.90615 263.000
82.92609 268.000
82.94604 259.000
82.96599 226.000
82.98593 269.000
83.00588 259.000
83.02583 266.000
83.04577 269.000
83.06572 267.000
83.08567 252.000
83.10561 273.000
83.12556 234.000
83.14551 245.000
83.16546 240.000
83.18540 238.000
83.20535 276.000
83.22530 237.000
83.24524 248.000
83.26519 249.000
83.28514 258.000
83.30508 278.000
83.32503 238.000
83.34498 282.000
83.36493 260.000
83.38487 255.000
83.40482 231.000
83.42477 243.000
83.44471 250.000
83.46466 251.000
83.48461 239.000
83.50455 226.000
83.52450 256.000
83.54445 252.000
83.56440 254.000
83.58434 247.000
83.60429 250.000
83.62424 246.000
83.64418 234.000
83.66413 247.000
83.68408 259.000
83.70402 259.000
83.72397 260.000
83.74392 278.000
83.76386 240.000
83.78381 256.000
83.80376 225.000
83.82371 283.000
83.84365 216.000
83.86360 252.000
83.88355 281.000
83.90349 241.000
83.92344 249.000
83.94339 242.000
83.96333 243.000
83.98328 227.000
84.00323 280.000
84.02318 272.000
84.04312 255.000
84.06307 235.000
84.08302 251.000
84.10296 251.000
84.12291 271.000
84.14286 220.000
84.16280 248.000
84.18275 243.000
84.20270 255.000
84.22264 289.000
84.24259 243.000
84.26254 252.000
84.28249 264.000
84.30243 258.000
84.32238 237.000
84.34233 240.000
84.36227 275.000
84.38222 267.000
84.40217 259.000
84.42211 280.000
84.44206 246.000
84.46201 240.000
84.48196 247.000
84.50190 255.000
84.52185 247.000
84.54180 267.000
84.56174 234.000
84.58169 245.000
84.60164 235.000
84.62158 218.000
84.64153 250.000
84.66148 226.000
84.68142 263.000
84.70137 238.000
84.72132 247.000
84.74127 264.000
84.76121 249.000
84.78116 246.000
84.80111 233.000
84.82105 266.000
84.84100 248.000
84.86095 237.000
84.88089 245.000
84.90084 272.000
84.92079 245.000
84.94074 217.000
84.96068 234.000
84.98063 219.000
85.00058 241.000
85.02052 281.000
85.04047 247.000
85.06042 229.000
85.08036 249.000
85.10031 255.000
85.12026 264.000
85.14021 258.000
85.16015 234.000
85.18010 258.000
85.20005 250.000
85.21999 242.000
85.23994 247.000
85.25989 231.000
85.27983 249.000
85.29978 232.000
85.31973 250.000
85.33967 254.000
85.35962 261.000
85.37957 255.000
85.39952 277.000
85.41946 240.000
85.43941 232.000
85.45936 281.000
85.47930 254.000
85.49925 241.000
85.51920 266.000
85.53914 257.000
85.55909 255.000
85.57904 265.000
85.59899 231.000
85.61893 262.000
85.63888 250.000
85.65883 245.000
85.67877 282.000
85.69872 228.000
85.71867 290.000
85.73861 266.000
85.75856 254.000
85.77851 270.000
85.79845 240.000
85.81840 270.000
85.83835 253.000
85.85830 253.000
85.87824 262.000
85.89819 234.000
85.91814 252.000
85.93808 258.000
85.95803 249.000
85.97798 240.000
85.99792 235.000
86.01787 254.000
86.03782 247.000
86.05777 262.000
86.07771 230.000
86.09766 222.000
86.11761 255.000
86.13755 270.000
86.15750 259.000
86.17745 278.000
86.19739 239.000
86.21734 254.000
86.23729 280.000
86.25723 265.000
86.27718 241.000
86.29713 269.000
86.31708 261.000
86.33702 263.000
86.35697 259.000
86.37692 270.000
86.39686 239.000
86.41681 244.000
86.43676 249.000
86.45670 268.000
86.47665 261.000
86.49660 261.000
86.51655 229.000
86.53649 274.000
86.55644 261.000
86.57639 249.000
86.59633 238.000
86.61628 244.000
86.63623 268.000
86.65617 268.000
86.67612 268.000
86.69607 205.000
86.71602 263.000
86.73596 259.000
86.75591 243.000
86.77586 249.000
86.79580 252.000
86.81575 296.000
86.83570 283.000
86.85564 250.000
86.87559 239.000
86.89554 256.000
86.91548 254.000
86.93543 241.000
86.95538 242.000
86.97533 236.000
86.99527 277.000
87.01522 236.000
87.03517 260.000
87.05511 278.000
87.07506 277.000
87.09501 252.000
87.11495 255.000
87.13490 256.000
87.15485 254.000
87.17480 264.000
87.19474 274.000
87.21469 267.000
87.23464 238.000
87.25458 279.000
87.27453 283.000
87.29448 261.000
87.31442 271.000
87.33437 258.000
87.35432 285.000
87.37426 250.000
87.39421 293.000
87.41416 257.000
87.43411 278.000
87.45405 262.000
87.47400 269.000
87.49395 272.000
87.51389 254.000
87.53384 257.000
87.55379 277.000
87.57373 279.000
87.59368 253.000
87.61363 284.000
87.63358 286.000
87.65352 274.000
87.67347 252.000
87.69342 292.000
87.71336 278.000
87.73331 261.000
87.75326 264.000
87.77320 256.000
87.79315 233.000
87.81310 261.000
87.83304 253.000
87.85299 249.000
87.87294 222.000
87.89289 255.000
87.91283 253.000
87.93278 236.000
87.95273 242.000
87.97267 214.000
87.99262 253.000
88.01257 246.000
88.03251 251.000
88.05246 266.000
88.07241 263.000
88.09236 239.000
88.11230 265.000
88.13225 240.000
88.15220 254.000
88.17214 281.000
88.19209 271.000
88.21204 242.000
88.23198 268.000
88.25193 251.000
88.27188 263.000
88.29183 271.000
88.31177 225.000
88.33172 243.000
88.35167 248.000
88.37161 244.000
88.39156 223.000
88.41151 246.000
88.43145 252.000
88.45140 276.000
88.47135 247.000
88.49129 267.000
88.51124 260.000
88.53119 241.000
88.55114 234.000
88.57108 259.000
88.59103 243.000
88.61098 241.000
88.63092 252.000
88.65087 266.000
88.67082 248.000
88.69076 245.000
88.71071 264.000
88.73066 260.000
88.75061 253.000
88.77055 251.000
88.79050 263.000
88.81045 257.000
88.83039 238.000
88.85034 265.000
88.87029 277.000
88.89023 258.000
88.91018 255.000
88.93013 248.000
88.95007 248.000
88.97002 230.000
88.98997 230.000
89.00992 222.000
89.02986 214.000
89.04981 248.000
89.06976 228.000
89.08970 252.000
89.10965 257.000
89.12960 253.000
89.14954 241.000
89.16949 256.000
89.18944 211.000
89.20939 264.000
89.22933 277.000
89.24928 270.000
89.26923 265.000
89.28917 270.000
89.30912 239.000
89.32907 247.000
89.34901 271.000
89.36896 254.000
89.38891 255.000
89.40885 255.000
89.42880 251.000
89.44875 265.000
89.46870 289.000
89.48864 245.000
89.50859 259.000
89.52854 250.000
89.54848 224.000
89.56843 255.000
89.58838 242.000
89.60832 264.000
89.62827 262.000
89.64822 247.000
89.66817 256.000
89.68811 272.000
89.70806 245.000
89.72801 269.000
89.74795 250.000
89.76790 242.000
89.78785 242.000
89.80779 256.000
89.82774 268.000
89.84769 284.000
89.86764 277.000
89.88758 290.000
89.90753 282.000
89.92748 284.000
89.94742 258.000
89.96737 267.000
89.98732 293.000
90.00726 283.000
