10.00000 90.000
10.01995 100.000
10.03989 103.000
10.05984 90.000
10.07979 75.000
10.09973 110.000
10.11968 63.000
10.13963 87.000
10.15958 67.000
10.17952 93.000
10.19947 85.000
10.21942 94.000
10.23936 79.000
10.25931 109.000
10.27926 104.000
10.29920 96.000
10.31915 95.000
10.33910 96.000
10.35905 100.000
10.37899 92.000
10.39894 104.000
10.41889 99.000
10.43883 93.000
10.45878 84.000
10.47873 104.000
10.49867 101.000
10.51862 94.000
10.53857 108.000
10.55851 106.000
10.57846 115.000
10.59841 115.000
10.61836 90.000
10.63830 105.000
10.65825 104.000
10.67820 88.000
10.69814 98.000
10.71809 89.000
10.73804 119.000
10.75798 98.000
10.77793 100.000
10.79788 112.000
10.81783 90.000
10.83777 105.000
10.85772 85.000
10.87767 109.000
10.89761 102.000
10.91756 101.000
10.93751 105.000
10.95745 109.000
10.97740 130.000
10.99735 100.000
11.01730 108.000
11.03724 117.000
11.05719 107.000
11.07714 105.000
11.09708 108.000
11.11703 111.000
11.13698 99.000
11.15692 120.000
11.17687 93.000
11.19682 100.000
11.21676 110.000
11.23671 121.000
11.25666 111.000
11.27661 118.000
11.29655 106.000
11.31650 119.000
11.33645 124.000
11.35639 111.000
11.37634 111.000
11.39629 113.000
11.41623 106.000
11.43618 99.000
11.45613 129.000
11.47608 112.000
11.49602 112.000
11.51597 121.000
11.53592 137.000
11.55586 117.000
11.57581 110.000
11.59576 123.000
11.61570 117.000
11.63565 110.000
11.65560 110.000
11.67554 101.000
11.69549 130.000
11.71544 124.000
11.73539 105.000
11.75533 123.000
11.77528 114.000
11.79523 132.000
11.81517 100.000
11.83512 116.000
11.85507 121.000
11.87501 119.000
11.89496 126.000
11.91491 110.000
11.93486 123.000
11.95480 131.000
11.97475 125.000
11.99470 115.000
12.01464 111.000
12.03459 111.000
12.05454 133.000
12.07448 120.000
12.09443 131.000
12.11438 115.000
12.13432 125.000
12.15427 131.000
12.17422 110.000
12.19417 131.000
12.21411 127.000
12.23406 112.000
12.25401 139.000
12.27395 96.000
12.29390 120.000
12.31385 152.000
12.33379 140.000
12.35374 150.000
12.37369 145.000
12.39364 140.000
12.41358 124.000
12.43353 141.000
12.45348 138.000
12.47342 117.000
12.49337 157.000
12.51332 144.000
12.53326 140.000
12.55321 121.000
12.57316 151.000
12.59311 114.000
12.61305 128.000
12.63300 124.000
12.65295 165.000
12.67289 133.000
12.69284 147.000
12.71279 149.000
12.73273 144.000
12.75268 132.000
12.77263 140.000
12.79257 163.000
12.81252 152.000
12.83247 127.000
12.85242 133.000
12.87236 142.000
12.89231 159.000
12.91226 145.000
12.93220 140.000
12.95215 141.000
12.97210 141.000
12.99204 134.000
13.01199 149.000
13.03194 150.000
13.05189 145.000
13.07183 137.000
13.09178 143.000
13.11173 145.000
13.13167 134.000
13.15162 160.000
13.17157 163.000
13.19151 140.000
13.21146 175.000
13.23141 140.000
13.25135 147.000
13.27130 140.000
13.29125 149.000
13.31120 133.000
13.33114 159.000
13.35109 132.000
13.37104 159.000
13.39098 142.000
13.41093 137.000
13.43088 143.000
13.45082 140.000
13.47077 144.000
13.49072 167.000
13.51067 159.000
13.53061 116.000
13.55056 133.000
13.57051 134.000
13.59045 136.000
13.61040 155.000
13.63035 164.000
13.65029 172.000
13.67024 132.000
13.69019 139.000
13.71013 147.000
13.73008 151.000
13.75003 153.000
13.76998 154.000
13.78992 147.000
13.80987 156.000
13.82982 144.000
13.84976 159.000
13.86971 142.000
13.88966 154.000
13.90960 145.000
13.92955 151.000
13.94950 154.000
13.96945 155.000
13.98939 148.000
14.00934 150.000
14.02929 145.000
14.04923 136.000
14.06918 149.000
14.08913 150.000
14.10907 166.000
14.12902 168.000
14.14897 172.000
14.16892 162.000
14.18886 139.000
14.20881 156.000
14.22876 176.000
14.24870 167.000
14.26865 157.000
14.28860 160.000
14.30854 158.000
14.32849 145.000
14.34844 158.000
14.36838 157.000
14.38833 181.000
14.40828 138.000
14.42823 153.000
14.44817 168.000
14.46812 167.000
14.48807 163.000
14.50801 173.000
14.52796 160.000
14.54791 166.000
14.56785 179.000
14.58780 163.000
14.60775 151.000
14.62770 163.000
14.64764 142.000
14.66759 184.000
14.68754 154.000
14.70748 168.000
14.72743 158.000
14.74738 155.000
14.76732 180.000
14.78727 165.000
14.80722 158.000
14.82716 154.000
14.84711 164.000
14.86706 153.000
14.88701 155.000
14.90695 168.000
14.92690 181.000
14.94685 148.000
14.96679 163.000
14.98674 176.000
15.00669 155.000
15.02663 204.000
15.04658 169.000
15.06653 164.000
15.08648 164.000
15.10642 181.000
15.12637 183.000
15.14632 196.000
15.16626 187.000
15.18621 165.000
15.20616 177.000
15.22610 142.000
15.24605 178.000
15.26600 185.000
15.28594 167.000
15.30589 165.000
15.32584 155.000
15.34579 189.000
15.36573 174.000
15.38568 188.000
15.40563 167.000
15.42557 190.000
15.44552 160.000
15.46547 188.000
15.48541 165.000
15.50536 178.000
15.52531 190.000
15.54526 174.000
15.56520 179.000
15.58515 197.000
15.60510 184.000
15.62504 201.000
15.64499 208.000
15.66494 159.000
15.68488 157.000
15.70483 179.000
15.72478 211.000
15.74472 208.000
15.76467 181.000
15.78462 190.000
15.80457 194.000
15.82451 184.000
15.84446 204.000
15.86441 192.000
15.88435 200.000
15.90430 200.000
15.92425 210.000
15.94419 198.000
15.96414 206.000
15.98409 197.000
16.00404 199.000
16.02398 186.000
16.04393 191.000
16.06388 210.000
16.08382 180.000
16.10377 203.000
16.12372 197.000
16.14366 198.000
16.16361 211.000
16.18356 206.000
16.20351 226.000
16.22345 185.000
16.24340 196.000
16.26335 220.000
16.28329 217.000
16.30324 208.000
16.32319 213.000
16.34313 210.000
16.36308 189.000
16.38303 203.000
16.40297 201.000
16.42292 216.000
16.44287 237.000
16.46282 250.000
16.48276 241.000
16.50271 238.000
16.52266 236.000
16.54260 248.000
16.56255 241.000
16.58250 209.000
16.60244 221.000
16.62239 235.000
16.64234 245.000
16.66229 231.000
16.68223 265.000
16.70218 249.000
16.72213 236.000
16.74207 244.000
16.76202 220.000
16.78197 251.000
16.80191 237.000
16.82186 249.000
16.84181 239.000
16.86175 252.000
16.88170 266.000
16.90165 254.000
16.92160 299.000
16.94154 238.000
16.96149 241.000
16.98144 235.000
17.00138 263.000
17.02133 279.000
17.04128 238.000
17.06122 282.000
17.08117 286.000
17.10112 233.000
17.12107 263.000
17.14101 288.000
17.16096 291.000
17.18091 293.000
17.20085 267.000
17.22080 285.000
17.24075 272.000
17.26069 300.000
17.28064 283.000
17.30059 289.000
17.32053 253.000
17.34048 289.000
17.36043 276.000
17.38038 265.000
17.40032 304.000
17.42027 277.000
17.44022 283.000
17.46016 277.000
17.48011 333.000
17.50006 307.000
17.52000 309.000
17.53995 320.000
17.55990 271.000
17.57985 306.000
17.59979 278.000
17.61974 283.000
17.63969 321.000
17.65963 316.000
17.67958 354.000
17.69953 346.000
17.71947 323.000
17.73942 318.000
17.75937 347.000
17.77932 320.000
17.79926 321.000
17.81921 317.000
17.83916 311.000
17.85910 341.000
17.87905 315.000
17.89900 362.000
17.91894 313.000
17.93889 345.000
17.95884 302.000
17.97878 344.000
17.99873 311.000
18.01868 339.000
18.03863 376.000
18.05857 339.000
18.07852 389.000
18.09847 350.000
18.11841 365.000
18.13836 345.000
18.15831 333.000
18.17825 391.000
18.19820 347.000
18.21815 360.000
18.23810 344.000
18.25804 370.000
18.27799 372.000
18.29794 347.000
18.31788 359.000
18.33783 342.000
18.35778 374.000
18.37772 371.000
18.39767 368.000
18.41762 393.000
18.43756 415.000
18.45751 369.000
18.47746 391.000
18.49741 394.000
18.51735 347.000
18.53730 385.000
18.55725 413.000
18.57719 385.000
18.59714 376.000
18.61709 458.000
18.63703 401.000
18.65698 424.000
18.67693 390.000
18.69688 414.000
18.71682 395.000
18.73677 409.000
18.75672 389.000
18.77666 428.000
18.79661 411.000
18.81656 401.000
18.83650 432.000
18.85645 397.000
18.87640 381.000
18.89634 419.000
18.91629 387.000
18.93624 399.000
18.95619 418.000
18.97613 423.000
18.99608 405.000
19.01603 463.000
19.03597 412.000
19.05592 434.000
19.07587 400.000
19.09581 403.000
19.11576 400.000
19.13571 470.000
19.15566 423.000
19.17560 434.000
19.19555 467.000
19.21550 413.000
19.23544 454.000
19.25539 492.000
19.27534 439.000
19.29528 414.000
19.31523 432.000
19.33518 459.000
19.35513 455.000
19.37507 469.000
19.39502 437.000
19.41497 490.000
19.43491 459.000
19.45486 450.000
19.47481 487.000
19.49475 447.000
19.51470 470.000
19.53465 440.000
19.55459 425.000
19.57454 476.000
19.59449 447.000
19.61444 470.000
19.63438 460.000
19.65433 467.000
19.67428 504.000
19.69422 468.000
19.71417 479.000
19.73412 482.000
19.75406 440.000
19.77401 479.000
19.79396 482.000
19.81391 491.000
19.83385 517.000
19.85380 472.000
19.87375 494.000
19.89369 460.000
19.91364 495.000
19.93359 492.000
19.95353 462.000
19.97348 475.000
19.99343 501.000
20.01337 460.000
20.03332 457.000
20.05327 501.000
20.07322 471.000
20.09316 486.000
20.11311 494.000
20.13306 509.000
20.15300 465.000
20.17295 471.000
20.19290 511.000
20.21284 490.000
20.23279 511.000
20.25274 519.000
20.27269 510.000
20.29263 518.000
20.31258 515.000
20.33253 516.000
20.35247 526.000
20.37242 548.000
20.39237 508.000
20.41231 505.000
20.43226 480.000
20.45221 484.000
20.47215 538.000
20.49210 508.000
20.51205 531.000
20.53200 485.000
20.55194 505.000
20.57189 539.000
20.59184 518.000
20.61178 485.000
20.63173 514.000
20.65168 515.000
20.67162 534.000
20.69157 526.000
20.71152 545.000
20.73147 540.000
20.75141 549.000
20.77136 527.000
20.79131 547.000
20.81125 536.000
20.83120 566.000
20.85115 533.000
20.87109 533.000
20.89104 510.000
20.91099 495.000
20.93094 549.000
20.95088 547.000
20.97083 530.000
20.99078 585.000
21.01072 520.000
21.03067 546.000
21.05062 528.000
21.07056 552.000
21.09051 572.000
21.11046 567.000
21.13040 536.000
21.15035 531.000
21.17030 580.000
21.19025 561.000
21.21019 576.000
21.23014 541.000
21.25009 507.000
21.27003 563.000
21.28998 573.000
21.30993 574.000
21.32987 568.000
21.34982 532.000
21.36977 541.000
21.38972 574.000
21.40966 554.000
21.42961 567.000
21.44956 554.000
21.46950 613.000
21.48945 563.000
21.50940 560.000
21.52934 552.000
21.54929 579.000
21.56924 569.000
21.58918 588.000
21.60913 609.000
21.62908 564.000
21.64903 580.000
21.66897 566.000
21.68892 600.000
21.70887 567.000
21.72881 563.000
21.74876 573.000
21.76871 578.000
21.78865 609.000
21.80860 590.000
21.82855 568.000
21.84850 619.000
21.86844 612.000
21.88839 602.000
21.90834 599.000
21.92828 583.000
21.94823 595.000
21.96818 586.000
21.98812 592.000
22.00807 573.000
22.02802 602.000
22.04796 620.000
22.06791 578.000
22.08786 570.000
22.10781 606.000
22.12775 583.000
22.14770 615.000
22.16765 600.000
22.18759 608.000
22.20754 592.000
22.22749 589.000
22.24743 538.000
22.26738 636.000
22.28733 621.000
22.30728 625.000
22.32722 571.000
22.34717 611.000
22.36712 622.000
22.38706 621.000
22.40701 630.000
22.42696 624.000
22.44690 624.000
22.46685 621.000
22.48680 622.000
22.50675 644.000
22.52669 622.000
22.54664 652.000
22.56659 660.000
22.58653 607.000
22.60648 628.000
22.62643 652.000
22.64637 621.000
22.66632 626.000
22.68627 600.000
22.70621 619.000
22.72616 616.000
22.74611 634.000
22.76606 618.000
22.78600 665.000
22.80595 651.000
22.82590 662.000
22.84584 627.000
22.86579 618.000
22.88574 596.000
22.90568 649.000
22.92563 622.000
22.94558 627.000
22.96553 635.000
22.98547 645.000
23.00542 628.000
23.02537 700.000
23.04531 665.000
23.06526 635.000
23.08521 671.000
23.10515 661.000
23.12510 691.000
23.14505 658.000
23.16499 613.000
23.18494 654.000
23.20489 605.000
23.22484 631.000
23.24478 681.000
23.26473 661.000
23.28468 681.000
23.30462 635.000
23.32457 683.000
23.34452 663.000
23.36446 705.000
23.38441 649.000
23.40436 658.000
23.42431 614.000
23.44425 640.000
23.46420 725.000
23.48415 679.000
23.50409 644.000
23.52404 700.000
23.54399 668.000
23.56393 703.000
23.58388 679.000
23.60383 774.000
23.62377 697.000
23.64372 730.000
23.66367 713.000
23.68362 637.000
23.70356 706.000
23.72351 744.000
23.74346 698.000
23.76340 702.000
23.78335 657.000
23.80330 658.000
23.82324 706.000
23.84319 727.000
23.86314 736.000
23.88309 700.000
23.90303 664.000
23.92298 784.000
23.94293 751.000
23.96287 720.000
23.98282 730.000
24.00277 758.000
24.02271 665.000
24.04266 737.000
24.06261 702.000
24.08256 743.000
24.10250 738.000
24.12245 750.000
24.14240 733.000
24.16234 723.000
24.18229 756.000
24.20224 754.000
24.22218 749.000
24.24213 743.000
24.26208 749.000
24.28202 796.000
24.30197 751.000
24.32192 755.000
24.34187 765.000
24.36181 724.000
24.38176 753.000
24.40171 796.000
24.42165 743.000
24.44160 787.000
24.46155 747.000
24.48149 740.000
24.50144 767.000
24.52139 813.000
24.54134 769.000
24.56128 777.000
24.58123 768.000
24.60118 795.000
24.62112 774.000
24.64107 836.000
24.66102 744.000
24.68096 842.000
24.70091 797.000
24.72086 855.000
24.74080 797.000
24.76075 770.000
24.78070 809.000
24.80065 825.000
24.82059 811.000
24.84054 793.000
24.86049 850.000
24.88043 797.000
24.90038 837.000
24.92033 799.000
24.94027 841.000
24.96022 797.000
24.98017 822.000
25.00012 840.000
25.02006 846.000
25.04001 823.000
25.05996 847.000
25.07990 832.000
25.09985 825.000
25.11980 883.000
25.13974 831.000
25.15969 879.000
25.17964 911.000
25.19958 838.000
25.21953 875.000
25.23948 861.000
25.25943 841.000
25.27937 842.000
25.29932 873.000
25.31927 910.000
25.33921 850.000
25.35916 908.000
25.37911 881.000
25.39905 863.000
25.41900 913.000
25.43895 895.000
25.45890 892.000
25.47884 881.000
25.49879 864.000
25.51874 860.000
25.53868 881.000
25.55863 950.000
25.57858 993.000
25.59852 908.000
25.61847 893.000
25.63842 945.000
25.65837 904.000
25.67831 941.000
25.69826 848.000
25.71821 940.000
25.73815 947.000
25.75810 901.000
25.77805 897.000
25.79799 886.000
25.81794 988.000
25.83789 963.000
25.85783 933.000
25.87778 922.000
25.89773 963.000
25.91768 960.000
25.93762 967.000
25.95757 1007.000
25.97752 1006.000
25.99746 1053.000
26.01741 952.000
26.03736 1008.000
26.05730 984.000
26.07725 979.000
26.09720 990.000
26.11715 952.000
26.13709 944.000
26.15704 1004.000
26.17699 974.000
26.19693 998.000
26.21688 1011.000
26.23683 963.000
26.25677 1040.000
26.27672 999.000
26.29667 1025.000
26.31661 957.000
26.33656 1032.000
26.35651 1016.000
26.37646 1027.000
26.39640 1074.000
26.41635 1023.000
26.43630 995.000
26.45624 1058.000
26.47619 1058.000
26.49614 1068.000
26.51608 1060.000
26.53603 1056.000
26.55598 1111.000
26.57593 1018.000
26.59587 1013.000
26.61582 1111.000
26.63577 1075.000
26.65571 1088.000
26.67566 1008.000
26.69561 1081.000
26.71555 1063.000
26.73550 1025.000
26.75545 1022.000
26.77539 1090.000
26.79534 1088.000
26.81529 1065.000
26.83524 1095.000
26.85518 1064.000
26.87513 1122.000
26.89508 1116.000
26.91502 1146.000
26.93497 1161.000
26.95492 1107.000
26.97486 1111.000
26.99481 1095.000
27.01476 1131.000
27.03471 1094.000
27.05465 1088.000
27.07460 1111.000
27.09455 1165.000
27.11449 1120.000
27.13444 1189.000
27.15439 1101.000
27.17433 1155.000
27.19428 1162.000
27.21423 1232.000
27.23417 1145.000
27.25412 1166.000
27.27407 1199.000
27.29402 1118.000
27.31396 1217.000
27.33391 1162.000
27.35386 1169.000
27.37380 1128.000
27.39375 1140.000
27.41370 1224.000
27.43364 1202.000
27.45359 1196.000
27.47354 1206.000
27.49349 1224.000
27.51343 1229.000
27.53338 1232.000
27.55333 1258.000
27.57327 1138.000
27.59322 1197.000
27.61317 1208.000
27.63311 1225.000
27.65306 1216.000
27.67301 1213.000
27.69296 1241.000
27.71290 1244.000
27.73285 1184.000
27.75280 1292.000
27.77274 1258.000
27.79269 1221.000
27.81264 1255.000
27.83258 1274.000
27.85253 1185.000
27.87248 1275.000
27.89242 1276.000
27.91237 1273.000
27.93232 1237.000
27.95227 1205.000
27.97221 1225.000
27.99216 1241.000
28.01211 1271.000
28.03205 1288.000
28.05200 1262.000
28.07195 1251.000
28.09189 1282.000
28.11184 1322.000
28.13179 1320.000
28.15174 1281.000
28.17168 1282.000
28.19163 1265.000
28.21158 1262.000
28.23152 1293.000
28.25147 1220.000
28.27142 1298.000
28.29136 1286.000
28.31131 1252.000
28.33126 1291.000
28.35120 1282.000
28.37115 1340.000
28.39110 1317.000
28.41105 1329.000
28.43099 1313.000
28.45094 1278.000
28.47089 1220.000
28.49083 1280.000
28.51078 1311.000
28.53073 1289.000
28.55067 1302.000
28.57062 1296.000
28.59057 1223.000
28.61052 1270.000
28.63046 1324.000
28.65041 1273.000
28.67036 1326.000
28.69030 1298.000
28.71025 1289.000
28.73020 1289.000
28.75014 1292.000
28.77009 1324.000
28.79004 1257.000
28.80998 1336.000
28.82993 1343.000
28.84988 1275.000
28.86983 1326.000
28.88977 1395.000
28.90972 1322.000
28.92967 1288.000
28.94961 1289.000
28.96956 1300.000
28.98951 1368.000
29.00945 1353.000
29.02940 1313.000
29.04935 1326.000
29.06930 1337.000
29.08924 1303.000
29.10919 1384.000
29.12914 1395.000
29.14908 1339.000
29.16903 1354.000
29.18898 1313.000
29.20892 1398.000
29.22887 1314.000
29.24882 1266.000
29.26877 1338.000
29.28871 1304.000
29.30866 1373.000
29.32861 1401.000
29.34855 1344.000
29.36850 1423.000
29.38845 1278.000
29.40839 1401.000
29.42834 1308.000
29.44829 1375.000
29.46823 1353.000
29.48818 1325.000
29.50813 1362.000
29.52808 1331.000
29.54802 1369.000
29.56797 1271.000
29.58792 1336.000
29.60786 1316.000
29.62781 1355.000
29.64776 1372.000
29.66770 1335.000
29.68765 1340.000
29.70760 1320.000
29.72755 1311.000
29.74749 1377.000
29.76744 1304.000
29.78739 1348.000
29.80733 1372.000
29.82728 1319.000
29.84723 1363.000
29.86717 1361.000
29.88712 1390.000
29.90707 1345.000
29.92701 1343.000
29.94696 1369.000
29.96691 1384.000
29.98686 1372.000
30.00680 1299.000
30.02675 1316.000
30.04670 1360.000
30.06664 1337.000
30.08659 1318.000
30.10654 1324.000
30.12648 1294.000
30.14643 1336.000
30.16638 1331.000
30.18633 1333.000
30.20627 1342.000
30.22622 1256.000
30.24617 1334.000
30.26611 1317.000
30.28606 1352.000
30.30601 1348.000
30.32595 1338.000
30.34590 1370.000
30.36585 1302.000
30.38579 1318.000
30.40574 1307.000
30.42569 1385.000
30.44564 1270.000
30.46558 1286.000
30.48553 1309.000
30.50548 1273.000
30.52542 1305.000
30.54537 1407.000
30.56532 1254.000
30.58526 1360.000
30.60521 1350.000
30.62516 1276.000
30.64511 1323.000
30.66505 1246.000
30.68500 1279.000
30.70495 1307.000
30.72489 1282.000
30.74484 1279.000
30.76479 1319.000
30.78473 1283.000
30.80468 1324.000
30.82463 1304.000
30.84458 1335.000
30.86452 1266.000
30.88447 1315.000
30.90442 1304.000
30.92436 1213.000
30.94431 1333.000
30.96426 1218.000
30.98420 1265.000
31.00415 1361.000
31.02410 1269.000
31.04404 1290.000
31.06399 1338.000
31.08394 1209.000
31.10389 1265.000
31.12383 1287.000
31.14378 1223.000
31.16373 1309.000
31.18367 1287.000
31.20362 1288.000
31.22357 1284.000
31.24351 1296.000
31.26346 1223.000
31.28341 1239.000
31.30336 1251.000
31.32330 1274.000
31.34325 1249.000
31.36320 1252.000
31.38314 1246.000
31.40309 1234.000
31.42304 1260.000
31.44298 1270.000
31.46293 1236.000
31.48288 1254.000
31.50282 1227.000
31.52277 1299.000
31.54272 1172.000
31.56267 1147.000
31.58261 1206.000
31.60256 1199.000
31.62251 1256.000
31.64245 1236.000
31.66240 1246.000
31.68235 1294.000
31.70229 1219.000
31.72224 1167.000
31.74219 1289.000
31.76214 1166.000
31.78208 1172.000
31.80203 1240.000
31.82198 1216.000
31.84192 1244.000
31.86187 1203.000
31.88182 1222.000
31.90176 1236.000
31.92171 1195.000
31.94166 1169.000
31.96160 1191.000
31.98155 1231.000
32.00150 1169.000
32.02145 1195.000
32.04139 1203.000
32.06134 1202.000
32.08129 1158.000
32.10123 1159.000
32.12118 1193.000
32.14113 1215.000
32.16107 1204.000
32.18102 1203.000
32.20097 1197.000
32.22092 1184.000
32.24086 1161.000
32.26081 1139.000
32.28076 1122.000
32.30070 1148.000
32.32065 1181.000
32.34060 1149.000
32.36054 1110.000
32.38049 1171.000
32.40044 1100.000
32.42039 1177.000
32.44033 1114.000
32.46028 1205.000
32.48023 1120.000
32.50017 1118.000
32.52012 1116.000
32.54007 1162.000
32.56001 1140.000
32.57996 1069.000
32.59991 1151.000
32.61985 1196.000
32.63980 1127.000
32.65975 1084.000
32.67970 1118.000
32.69964 1113.000
32.71959 1146.000
32.73954 1136.000
32.75948 1163.000
32.77943 1047.000
32.79938 1160.000
32.81932 1071.000
32.83927 1087.000
32.85922 1069.000
32.87917 1072.000
32.89911 1040.000
32.91906 1120.000
32.93901 1114.000
32.95895 1090.000
32.97890 1097.000
32.99885 1034.000
33.01879 1117.000
33.03874 1070.000
33.05869 1058.000
33.07863 1057.000
33.09858 1051.000
33.11853 1086.000
33.13848 1054.000
33.15842 1070.000
33.17837 1058.000
33.19832 1095.000
33.21826 1101.000
33.23821 1040.000
33.25816 1049.000
33.27810 985.000
33.29805 1006.000
33.31800 1002.000
33.33795 1036.000
33.35789 1030.000
33.37784 991.000
33.39779 1007.000
33.41773 983.000
33.43768 1006.000
33.45763 1038.000
33.47757 1046.000
33.49752 999.000
33.51747 992.000
33.53741 1015.000
33.55736 1069.000
33.57731 1036.000
33.59726 1031.000
33.61720 1057.000
33.63715 1022.000
33.65710 1011.000
33.67704 1040.000
33.69699 1009.000
33.71694 987.000
33.73688 1017.000
33.75683 1004.000
33.77678 1024.000
33.79673 1015.000
33.81667 948.000
33.83662 1018.000
33.85657 971.000
33.87651 963.000
33.89646 962.000
33.91641 1018.000
33.93635 984.000
33.95630 982.000
33.97625 971.000
33.99620 990.000
34.01614 954.000
34.03609 957.000
34.05604 940.000
34.07598 933.000
34.09593 954.000
34.11588 956.000
34.13582 940.000
34.15577 953.000
34.17572 993.000
34.19566 951.000
34.21561 1006.000
34.23556 955.000
34.25551 954.000
34.27545 920.000
34.29540 941.000
34.31535 890.000
34.33529 907.000
34.35524 932.000
34.37519 954.000
34.39513 970.000
34.41508 914.000
34.43503 918.000
34.45498 924.000
34.47492 896.000
34.49487 894.000
34.51482 947.000
34.53476 905.000
34.55471 925.000
34.57466 926.000
34.59460 892.000
34.61455 920.000
34.63450 908.000
34.65444 909.000
34.67439 922.000
34.69434 930.000
34.71429 878.000
34.73423 931.000
34.75418 940.000
34.77413 930.000
34.79407 906.000
34.81402 915.000
34.83397 893.000
34.85391 888.000
34.87386 904.000
34.89381 901.000
34.91376 907.000
34.93370 904.000
34.95365 869.000
34.97360 904.000
34.99354 862.000
35.01349 876.000
35.03344 911.000
35.05338 929.000
35.07333 857.000
35.09328 866.000
35.11322 899.000
35.13317 863.000
35.15312 873.000
35.17307 860.000
35.19301 848.000
35.21296 877.000
35.23291 841.000
35.25285 826.000
35.27280 843.000
35.29275 873.000
35.31269 865.000
35.33264 882.000
35.35259 829.000
35.37254 852.000
35.39248 841.000
35.41243 843.000
35.43238 837.000
35.45232 832.000
35.47227 851.000
35.49222 825.000
35.51216 855.000
35.53211 864.000
35.55206 835.000
35.57201 813.000
35.59195 835.000
35.61190 797.000
35.63185 840.000
35.65179 773.000
35.67174 845.000
35.69169 818.000
35.71163 785.000
35.73158 814.000
35.75153 837.000
35.77147 834.000
35.79142 820.000
35.81137 784.000
35.83132 817.000
35.85126 881.000
35.87121 792.000
35.89116 808.000
35.91110 825.000
35.93105 815.000
35.95100 791.000
35.97094 801.000
35.99089 852.000
36.01084 769.000
36.03079 782.000
36.05073 778.000
36.07068 800.000
36.09063 734.000
36.11057 780.000
36.13052 756.000
36.15047 821.000
36.17041 780.000
36.19036 830.000
36.21031 760.000
36.23025 816.000
36.25020 839.000
36.27015 774.000
36.29010 800.000
36.31004 812.000
36.32999 777.000
36.34994 835.000
36.36988 783.000
36.38983 768.000
36.40978 764.000
36.42972 830.000
36.44967 758.000
36.46962 788.000
36.48957 771.000
36.50951 837.000
36.52946 801.000
36.54941 736.000
36.56935 757.000
36.58930 777.000
36.60925 751.000
36.62919 775.000
36.64914 795.000
36.66909 820.000
36.68903 781.000
36.70898 794.000
36.72893 760.000
36.74888 740.000
36.76882 773.000
36.78877 761.000
36.80872 775.000
36.82866 783.000
36.84861 738.000
36.86856 796.000
36.88850 761.000
36.90845 789.000
36.92840 833.000
36.94835 794.000
36.96829 770.000
36.98824 750.000
37.00819 739.000
37.02813 742.000
37.04808 839.000
37.06803 777.000
37.08797 784.000
37.10792 784.000
37.12787 779.000
37.14781 756.000
37.16776 763.000
37.18771 763.000
37.20766 705.000
37.22760 699.000
37.24755 792.000
37.26750 808.000
37.28744 769.000
37.30739 751.000
37.32734 739.000
37.34728 786.000
37.36723 788.000
37.38718 777.000
37.40713 731.000
37.42707 763.000
37.44702 694.000
37.46697 708.000
37.48691 732.000
37.50686 693.000
37.52681 771.000
37.54675 739.000
37.56670 769.000
37.58665 756.000
37.60660 809.000
37.62654 717.000
37.64649 805.000
37.66644 764.000
37.68638 704.000
37.70633 734.000
37.72628 731.000
37.74622 771.000
37.76617 752.000
37.78612 739.000
37.80606 676.000
37.82601 771.000
37.84596 796.000
37.86591 718.000
37.88585 754.000
37.90580 776.000
37.92575 782.000
37.94569 787.000
37.96564 738.000
37.98559 774.000
38.00553 779.000
38.02548 766.000
38.04543 712.000
38.06538 763.000
38.08532 759.000
38.10527 769.000
38.12522 704.000
38.14516 751.000
38.16511 749.000
38.18506 771.000
38.20500 730.000
38.22495 787.000
38.24490 728.000
38.26484 760.000
38.28479 746.000
38.30474 756.000
38.32469 749.000
38.34463 718.000
38.36458 777.000
38.38453 731.000
38.40447 756.000
38.42442 768.000
38.44437 744.000
38.46431 790.000
38.48426 758.000
38.50421 758.000
38.52416 764.000
38.54410 723.000
38.56405 747.000
38.58400 785.000
38.60394 743.000
38.62389 724.000
38.64384 748.000
38.66378 785.000
38.68373 732.000
38.70368 731.000
38.72362 774.000
38.74357 740.000
38.76352 707.000
38.78347 762.000
38.80341 754.000
38.82336 762.000
38.84331 738.000
38.86325 792.000
38.88320 741.000
38.90315 760.000
38.92309 731.000
38.94304 741.000
38.96299 782.000
38.98294 799.000
39.00288 763.000
39.02283 738.000
39.04278 738.000
39.06272 744.000
39.08267 729.000
39.10262 729.000
39.12256 775.000
39.14251 747.000
39.16246 808.000
39.18241 803.000
39.20235 756.000
39.22230 743.000
39.24225 769.000
39.26219 773.000
39.28214 756.000
39.30209 735.000
39.32203 775.000
39.34198 725.000
39.36193 760.000
39.38187 785.000
39.40182 834.000
39.42177 814.000
39.44172 746.000
39.46166 816.000
39.48161 766.000
39.50156 778.000
39.52150 757.000
39.54145 788.000
39.56140 779.000
39.58134 688.000
39.60129 778.000
39.62124 690.000
39.64119 797.000
39.66113 799.000
39.68108 711.000
39.70103 805.000
39.72097 800.000
39.74092 765.000
39.76087 804.000
39.78081 776.000
39.80076 800.000
39.82071 789.000
39.84065 718.000
39.86060 725.000
39.88055 765.000
39.90050 707.000
39.92044 761.000
39.94039 730.000
39.96034 800.000
39.98028 818.000
40.00023 812.000
40.02018 835.000
40.04012 741.000
40.06007 778.000
40.08002 831.000
40.09997 774.000
40.11991 810.000
40.13986 798.000
40.15981 786.000
40.17975 804.000
40.19970 762.000
40.21965 718.000
40.23959 759.000
40.25954 811.000
40.27949 772.000
40.29943 773.000
40.31938 746.000
40.33933 775.000
40.35928 808.000
40.37922 749.000
40.39917 750.000
40.41912 714.000
40.43906 786.000
40.45901 816.000
40.47896 794.000
40.49890 765.000
40.51885 771.000
40.53880 757.000
40.55875 795.000
40.57869 789.000
40.59864 798.000
40.61859 787.000
40.63853 734.000
40.65848 759.000
40.67843 786.000
40.69837 757.000
40.71832 802.000
40.73827 780.000
40.75822 730.000
40.77816 786.000
40.79811 826.000
40.81806 824.000
40.83800 761.000
40.85795 777.000
40.87790 749.000
40.89784 804.000
40.91779 769.000
40.93774 813.000
40.95768 773.000
40.97763 810.000
40.99758 754.000
41.01753 827.000
41.03747 768.000
41.05742 789.000
41.07737 776.000
41.09731 753.000
41.11726 789.000
41.13721 779.000
41.15715 762.000
41.17710 773.000
41.19705 752.000
41.21700 787.000
41.23694 771.000
41.25689 754.000
41.27684 753.000
41.29678 741.000
41.31673 788.000
41.33668 747.000
41.35662 734.000
41.37657 749.000
41.39652 750.000
41.41646 771.000
41.43641 754.000
41.45636 759.000
41.47631 720.000
41.49625 740.000
41.51620 788.000
41.53615 744.000
41.55609 786.000
41.57604 735.000
41.59599 739.000
41.61593 795.000
41.63588 774.000
41.65583 763.000
41.67578 776.000
41.69572 761.000
41.71567 754.000
41.73562 736.000
41.75556 757.000
41.77551 749.000
41.79546 753.000
41.81540 715.000
41.83535 755.000
41.85530 777.000
41.87524 741.000
41.89519 789.000
41.91514 797.000
41.93509 712.000
41.95503 757.000
41.97498 725.000
41.99493 738.000
42.01487 803.000
42.03482 747.000
42.05477 715.000
42.07471 746.000
42.09466 778.000
42.11461 746.000
42.13456 742.000
42.15450 726.000
42.17445 778.000
42.19440 745.000
42.21434 662.000
42.23429 745.000
42.25424 726.000
42.27418 684.000
42.29413 751.000
42.31408 788.000
42.33403 741.000
42.35397 705.000
42.37392 736.000
42.39387 801.000
42.41381 700.000
42.43376 729.000
42.45371 725.000
42.47365 706.000
42.49360 738.000
42.51355 699.000
42.53349 722.000
42.55344 738.000
42.57339 697.000
42.59334 765.000
42.61328 757.000
42.63323 731.000
42.65318 768.000
42.67312 721.000
42.69307 684.000
42.71302 660.000
42.73296 724.000
42.75291 718.000
42.77286 757.000
42.79281 731.000
42.81275 687.000
42.83270 700.000
42.85265 728.000
42.87259 698.000
42.89254 718.000
42.91249 744.000
42.93243 724.000
42.95238 648.000
42.97233 680.000
42.99227 668.000
43.01222 725.000
43.03217 709.000
43.05212 717.000
43.07206 739.000
43.09201 731.000
43.11196 661.000
43.13190 707.000
43.15185 689.000
43.17180 678.000
43.19174 706.000
43.21169 697.000
43.23164 730.000
43.25159 691.000
43.27153 706.000
43.29148 714.000
43.31143 704.000
43.33137 695.000
43.35132 684.000
43.37127 669.000
43.39121 705.000
43.41116 697.000
43.43111 682.000
43.45105 681.000
43.47100 678.000
43.49095 666.000
43.51090 675.000
43.53084 674.000
43.55079 665.000
43.57074 677.000
43.59068 691.000
43.61063 706.000
43.63058 674.000
43.65052 682.000
43.67047 679.000
43.69042 710.000
43.71037 666.000
43.73031 633.000
43.75026 651.000
43.77021 655.000
43.79015 680.000
43.81010 639.000
43.83005 654.000
43.84999 607.000
43.86994 691.000
43.88989 661.000
43.90984 664.000
43.92978 670.000
43.94973 619.000
43.96968 649.000
43.98962 695.000
44.00957 640.000
44.02952 709.000
44.04946 645.000
44.06941 685.000
44.08936 694.000
44.10930 656.000
44.12925 618.000
44.14920 660.000
44.16915 632.000
44.18909 632.000
44.20904 610.000
44.22899 646.000
44.24893 685.000
44.26888 677.000
44.28883 623.000
44.30877 631.000
44.32872 648.000
44.34867 599.000
44.36862 660.000
44.38856 614.000
44.40851 659.000
44.42846 646.000
44.44840 641.000
44.46835 677.000
44.48830 637.000
44.50824 643.000
44.52819 629.000
44.54814 650.000
44.56808 630.000
44.58803 641.000
44.60798 649.000
44.62793 681.000
44.64787 610.000
44.66782 666.000
44.68777 605.000
44.70771 588.000
44.72766 594.000
44.74761 604.000
44.76755 628.000
44.78750 630.000
44.80745 550.000
44.82740 611.000
44.84734 657.000
44.86729 613.000
44.88724 626.000
44.90718 628.000
44.92713 646.000
44.94708 609.000
44.96702 580.000
44.98697 643.000
45.00692 595.000
45.02686 630.000
45.04681 633.000
45.06676 599.000
45.08671 551.000
45.10665 636.000
45.12660 588.000
45.14655 585.000
45.16649 600.000
45.18644 606.000
45.20639 625.000
45.22633 557.000
45.24628 587.000
45.26623 612.000
45.28618 587.000
45.30612 596.000
45.32607 587.000
45.34602 625.000
45.36596 564.000
45.38591 572.000
45.40586 581.000
45.42580 609.000
45.44575 601.000
45.46570 602.000
45.48565 597.000
45.50559 598.000
45.52554 614.000
45.54549 548.000
45.56543 596.000
45.58538 602.000
45.60533 579.000
45.62527 620.000
45.64522 571.000
45.66517 585.000
45.68511 594.000
45.70506 587.000
45.72501 569.000
45.74496 615.000
45.76490 571.000
45.78485 585.000
45.80480 576.000
45.82474 568.000
45.84469 604.000
45.86464 582.000
45.88458 536.000
45.90453 549.000
45.92448 530.000
45.94443 527.000
45.96437 536.000
45.98432 569.000
46.00427 610.000
46.02421 576.000
46.04416 565.000
46.06411 565.000
46.08405 551.000
46.10400 576.000
46.12395 554.000
46.14389 522.000
46.16384 522.000
46.18379 582.000
46.20374 556.000
46.22368 549.000
46.24363 538.000
46.26358 574.000
46.28352 510.000
46.30347 541.000
46.32342 539.000
46.34336 519.000
46.36331 565.000
46.38326 552.000
46.40321 530.000
46.42315 501.000
46.44310 551.000
46.46305 567.000
46.48299 536.000
46.50294 539.000
46.52289 522.000
46.54283 530.000
46.56278 538.000
46.58273 557.000
46.60267 541.000
46.62262 587.000
46.64257 556.000
46.66252 531.000
46.68246 536.000
46.70241 539.000
46.72236 502.000
46.74230 510.000
46.76225 540.000
46.78220 570.000
46.80214 563.000
46.82209 505.000
46.84204 516.000
46.86199 545.000
46.88193 528.000
46.90188 534.000
46.92183 559.000
46.94177 532.000
46.96172 536.000
46.98167 513.000
47.00161 506.000
47.02156 526.000
47.04151 504.000
47.06146 578.000
47.08140 480.000
47.10135 546.000
47.12130 517.000
47.14124 543.000
47.16119 493.000
47.18114 517.000
47.20108 488.000
47.22103 513.000
47.24098 473.000
47.26092 553.000
47.28087 511.000
47.30082 511.000
47.32077 517.000
47.34071 498.000
47.36066 498.000
47.38061 491.000
47.40055 484.000
47.42050 518.000
47.44045 491.000
47.46039 517.000
47.48034 497.000
47.50029 508.000
47.52024 508.000
47.54018 510.000
47.56013 531.000
47.58008 537.000
47.60002 504.000
47.61997 540.000
47.63992 479.000
47.65986 507.000
47.67981 542.000
47.69976 527.000
47.71970 525.000
47.73965 512.000
47.75960 505.000
47.77955 480.000
47.79949 464.000
47.81944 526.000
47.83939 498.000
47.85933 489.000
47.87928 478.000
47.89923 485.000
47.91917 494.000
47.93912 482.000
47.95907 503.000
47.97902 459.000
47.99896 505.000
48.01891 488.000
48.03886 525.000
48.05880 506.000
48.07875 466.000
48.09870 483.000
48.11864 506.000
48.13859 507.000
48.15854 505.000
48.17848 499.000
48.19843 519.000
48.21838 506.000
48.23833 476.000
48.25827 520.000
48.27822 490.000
48.29817 493.000
48.31811 497.000
48.33806 505.000
48.35801 465.000
48.37795 460.000
48.39790 477.000
48.41785 531.000
48.43780 505.000
48.45774 483.000
48.47769 429.000
48.49764 449.000
48.51758 466.000
48.53753 489.000
48.55748 502.000
48.57742 480.000
48.59737 490.000
48.61732 456.000
48.63726 481.000
48.65721 459.000
48.67716 471.000
48.69711 464.000
48.71705 466.000
48.73700 463.000
48.75695 478.000
48.77689 480.000
48.79684 447.000
48.81679 507.000
48.83673 463.000
48.85668 453.000
48.87663 489.000
48.89658 481.000
48.91652 482.000
48.93647 479.000
48.95642 490.000
48.97636 474.000
48.99631 475.000
49.01626 478.000
49.03620 502.000
49.05615 460.000
49.07610 435.000
49.09605 468.000
49.11599 501.000
49.13594 486.000
49.15589 500.000
49.17583 445.000
49.19578 456.000
49.21573 445.000
49.23567 446.000
49.25562 503.000
49.27557 501.000
49.29551 477.000
49.31546 476.000
49.33541 463.000
49.35536 487.000
49.37530 464.000
49.39525 486.000
49.41520 428.000
49.43514 453.000
49.45509 500.000
49.47504 449.000
49.49498 465.000
49.51493 423.000
49.53488 446.000
49.55483 447.000
49.57477 465.000
49.59472 491.000
49.61467 460.000
49.63461 466.000
49.65456 497.000
49.67451 492.000
49.69445 475.000
49.71440 439.000
49.73435 497.000
49.75429 509.000
49.77424 465.000
49.79419 497.000
49.81414 456.000
49.83408 442.000
49.85403 447.000
49.87398 411.000
49.89392 503.000
49.91387 445.000
49.93382 456.000
49.95376 498.000
49.97371 467.000
49.99366 468.000
50.01361 473.000
50.03355 448.000
50.05350 461.000
50.07345 502.000
50.09339 475.000
50.11334 483.000
50.13329 450.000
50.15323 481.000
50.17318 426.000
50.19313 457.000
50.21307 474.000
50.23302 473.000
50.25297 427.000
50.27292 495.000
50.29286 435.000
50.31281 442.000
50.33276 453.000
50.35270 425.000
50.37265 422.000
50.39260 447.000
50.41254 470.000
50.43249 440.000
50.45244 437.000
50.47239 476.000
50.49233 440.000
50.51228 426.000
50.53223 437.000
50.55217 418.000
50.57212 431.000
50.59207 454.000
50.61201 476.000
50.63196 438.000
50.65191 437.000
50.67186 455.000
50.69180 444.000
50.71175 478.000
50.73170 465.000
50.75164 471.000
50.77159 479.000
50.79154 474.000
50.81148 463.000
50.83143 422.000
50.85138 477.000
50.87132 462.000
50.89127 428.000
50.91122 446.000
50.93117 439.000
50.95111 431.000
50.97106 468.000
50.99101 434.000
51.01095 457.000
51.03090 514.000
51.05085 490.000
51.07079 457.000
51.09074 444.000
51.11069 450.000
51.13064 471.000
51.15058 444.000
51.17053 432.000
51.19048 476.000
51.21042 435.000
51.23037 441.000
51.25032 470.000
51.27026 459.000
51.29021 434.000
51.31016 427.000
51.33010 411.000
51.35005 441.000
51.37000 467.000
51.38995 482.000
51.40989 438.000
51.42984 464.000
51.44979 446.000
51.46973 428.000
51.48968 465.000
51.50963 433.000
51.52957 428.000
51.54952 417.000
51.56947 437.000
51.58942 421.000
51.60936 435.000
51.62931 434.000
51.64926 459.000
51.66920 430.000
51.68915 442.000
51.70910 450.000
51.72904 473.000
51.74899 428.000
51.76894 441.000
51.78888 411.000
51.80883 450.000
51.82878 446.000
51.84873 441.000
51.86867 433.000
51.88862 459.000
51.90857 449.000
51.92851 423.000
51.94846 430.000
51.96841 433.000
51.98835 405.000
52.00830 404.000
52.02825 454.000
52.04820 448.000
52.06814 411.000
52.08809 434.000
52.10804 430.000
52.12798 409.000
52.14793 456.000
52.16788 432.000
52.18782 422.000
52.20777 447.000
52.22772 413.000
52.24767 384.000
52.26761 432.000
52.28756 386.000
52.30751 438.000
52.32745 409.000
52.34740 421.000
52.36735 438.000
52.38729 465.000
52.40724 410.000
52.42719 408.000
52.44713 421.000
52.46708 407.000
52.48703 413.000
52.50698 430.000
52.52692 444.000
52.54687 446.000
52.56682 389.000
52.58676 426.000
52.60671 412.000
52.62666 424.000
52.64660 434.000
52.66655 451.000
52.68650 402.000
52.70645 432.000
52.72639 394.000
52.74634 438.000
52.76629 421.000
52.78623 454.000
52.80618 434.000
52.82613 417.000
52.84607 416.000
52.86602 391.000
52.88597 386.000
52.90591 433.000
52.92586 406.000
52.94581 424.000
52.96576 429.000
52.98570 410.000
53.00565 441.000
53.02560 430.000
53.04554 457.000
53.06549 427.000
53.08544 402.000
53.10538 420.000
53.12533 382.000
53.14528 434.000
53.16523 414.000
53.18517 412.000
53.20512 409.000
53.22507 422.000
53.24501 409.000
53.26496 444.000
53.28491 418.000
53.30485 407.000
53.32480 459.000
53.34475 403.000
53.36469 437.000
53.38464 441.000
53.40459 396.000
53.42454 435.000
53.44448 449.000
53.46443 401.000
53.48438 416.000
53.50432 395.000
53.52427 411.000
53.54422 438.000
53.56416 410.000
53.58411 409.000
53.60406 410.000
53.62401 393.000
53.64395 348.000
53.66390 442.000
53.68385 433.000
53.70379 434.000
53.72374 445.000
53.74369 423.000
53.76363 446.000
53.78358 458.000
53.80353 394.000
53.82348 400.000
53.84342 436.000
53.86337 416.000
53.88332 452.000
53.90326 392.000
53.92321 384.000
53.94316 423.000
53.96310 413.000
53.98305 371.000
54.00300 396.000
54.02294 421.000
54.04289 426.000
54.06284 403.000
54.08279 379.000
54.10273 429.000
54.12268 382.000
54.14263 419.000
54.16257 374.000
54.18252 363.000
54.20247 410.000
54.22241 406.000
54.24236 419.000
54.26231 376.000
54.28226 396.000
54.30220 406.000
54.32215 414.000
54.34210 422.000
54.36204 410.000
54.38199 407.000
54.40194 379.000
54.42188 391.000
54.44183 411.000
54.46178 419.000
54.48172 434.000
54.50167 399.000
54.52162 385.000
54.54157 354.000
54.56151 406.000
54.58146 382.000
54.60141 398.000
54.62135 412.000
54.64130 359.000
54.66125 384.000
54.68119 393.000
54.70114 428.000
54.72109 378.000
54.74104 401.000
54.76098 388.000
54.78093 444.000
54.80088 421.000
54.82082 392.000
54.84077 440.000
54.86072 396.000
54.88066 370.000
54.90061 369.000
54.92056 402.000
54.94050 390.000
54.96045 386.000
54.98040 399.000
55.00035 379.000
55.02029 397.000
55.04024 414.000
55.06019 398.000
55.08013 384.000
55.10008 395.000
55.12003 406.000
55.13997 404.000
55.15992 412.000
55.17987 443.000
55.19982 412.000
55.21976 444.000
55.23971 389.000
55.25966 403.000
55.27960 419.000
55.29955 372.000
55.31950 411.000
55.33944 421.000
55.35939 399.000
55.37934 403.000
55.39929 394.000
55.41923 341.000
55.43918 402.000
55.45913 387.000
55.47907 440.000
55.49902 418.000
55.51897 423.000
55.53891 395.000
55.55886 374.000
55.57881 335.000
55.59875 421.000
55.61870 400.000
55.63865 402.000
55.65860 390.000
55.67854 398.000
55.69849 409.000
55.71844 411.000
55.73838 385.000
55.75833 388.000
55.77828 366.000
55.79822 383.000
55.81817 378.000
55.83812 402.000
55.85807 403.000
55.87801 379.000
55.89796 418.000
55.91791 405.000
55.93785 372.000
55.95780 358.000
55.97775 352.000
55.99769 367.000
56.01764 418.000
56.03759 385.000
56.05753 394.000
56.07748 400.000
56.09743 366.000
56.11738 372.000
56.13732 338.000
56.15727 402.000
56.17722 384.000
56.19716 359.000
56.21711 366.000
56.23706 360.000
56.25700 363.000
56.27695 354.000
56.29690 387.000
56.31685 408.000
56.33679 360.000
56.35674 407.000
56.37669 386.000
56.39663 364.000
56.41658 359.000
56.43653 394.000
56.45647 362.000
56.47642 386.000
56.49637 381.000
56.51631 396.000
56.53626 345.000
56.55621 412.000
56.57616 345.000
56.59610 375.000
56.61605 386.000
56.63600 404.000
56.65594 360.000
56.67589 372.000
56.69584 382.000
56.71578 396.000
56.73573 376.000
56.75568 406.000
56.77563 377.000
56.79557 354.000
56.81552 364.000
56.83547 360.000
56.85541 346.000
56.87536 394.000
56.89531 394.000
56.91525 393.000
56.93520 361.000
56.95515 376.000
56.97510 361.000
56.99504 349.000
57.01499 354.000
57.03494 368.000
57.05488 408.000
57.07483 349.000
57.09478 421.000
57.11472 398.000
57.13467 366.000
57.15462 353.000
57.17456 408.000
57.19451 372.000
57.21446 368.000
57.23441 373.000
57.25435 365.000
57.27430 398.000
57.29425 365.000
57.31419 359.000
57.33414 373.000
57.35409 391.000
57.37403 357.000
57.39398 385.000
57.41393 348.000
57.43388 372.000
57.45382 383.000
57.47377 355.000
57.49372 345.000
57.51366 368.000
57.53361 360.000
57.55356 365.000
57.57350 384.000
57.59345 367.000
57.61340 351.000
57.63334 386.000
57.65329 368.000
57.67324 364.000
57.69319 360.000
57.71313 377.000
57.73308 331.000
57.75303 371.000
57.77297 403.000
57.79292 386.000
57.81287 382.000
57.83281 388.000
57.85276 373.000
57.87271 383.000
57.89266 328.000
57.91260 364.000
57.93255 370.000
57.95250 363.000
57.97244 368.000
57.99239 364.000
58.01234 360.000
58.03228 312.000
58.05223 355.000
58.07218 365.000
58.09212 376.000
58.11207 342.000
58.13202 379.000
58.15197 363.000
58.17191 342.000
58.19186 362.000
58.21181 360.000
58.23175 376.000
58.25170 350.000
58.27165 350.000
58.29159 395.000
58.31154 348.000
58.33149 333.000
58.35144 366.000
58.37138 331.000
58.39133 349.000
58.41128 319.000
58.43122 308.000
58.45117 345.000
58.47112 360.000
58.49106 336.000
58.51101 351.000
58.53096 339.000
58.55090 355.000
58.57085 318.000
58.59080 366.000
58.61075 338.000
58.63069 361.000
58.65064 354.000
58.67059 349.000
58.69053 332.000
58.71048 356.000
58.73043 344.000
58.75037 339.000
58.77032 358.000
58.79027 340.000
58.81022 362.000
58.83016 344.000
58.85011 358.000
58.87006 367.000
58.89000 344.000
58.90995 363.000
58.92990 376.000
58.94984 321.000
58.96979 308.000
58.98974 364.000
59.00969 357.000
59.02963 332.000
59.04958 342.000
59.06953 343.000
59.08947 337.000
59.10942 385.000
59.12937 354.000
59.14931 342.000
59.16926 326.000
59.18921 356.000
59.20915 371.000
59.22910 353.000
59.24905 337.000
59.26900 349.000
59.28894 361.000
59.30889 362.000
59.32884 337.000
59.34878 325.000
59.36873 366.000
59.38868 342.000
59.40862 336.000
59.42857 317.000
59.44852 349.000
59.46847 336.000
59.48841 347.000
59.50836 346.000
59.52831 362.000
59.54825 358.000
59.56820 325.000
59.58815 300.000
59.60809 346.000
59.62804 322.000
59.64799 363.000
59.66793 351.000
59.68788 337.000
59.70783 309.000
59.72778 340.000
59.74772 329.000
59.76767 343.000
59.78762 317.000
59.80756 345.000
59.82751 395.000
59.84746 332.000
59.86740 341.000
59.88735 353.000
59.90730 334.000
59.92725 356.000
59.94719 341.000
59.96714 359.000
59.98709 324.000
60.00703 319.000
60.02698 337.000
60.04693 342.000
60.06687 327.000
60.08682 375.000
60.10677 332.000
60.12671 368.000
60.14666 339.000
60.16661 319.000
60.18656 347.000
60.20650 347.000
60.22645 373.000
60.24640 329.000
60.26634 345.000
60.28629 328.000
60.30624 316.000
60.32618 339.000
60.34613 325.000
60.36608 355.000
60.38603 343.000
60.40597 352.000
60.42592 331.000
60.44587 332.000
60.46581 337.000
60.48576 311.000
60.50571 326.000
60.52565 341.000
60.54560 350.000
60.56555 352.000
60.58550 359.000
60.60544 298.000
60.62539 345.000
60.64534 338.000
60.66528 345.000
60.68523 350.000
60.70518 328.000
60.72512 331.000
60.74507 323.000
60.76502 323.000
60.78496 333.000
60.80491 289.000
60.82486 338.000
60.84481 374.000
60.86475 344.000
60.88470 330.000
60.90465 300.000
60.92459 372.000
60.94454 344.000
60.96449 315.000
60.98443 315.000
61.00438 350.000
61.02433 298.000
61.04428 326.000
61.06422 320.000
61.08417 348.000
61.10412 336.000
61.12406 357.000
61.14401 349.000
61.16396 320.000
61.18390 336.000
61.20385 331.000
61.22380 336.000
61.24374 308.000
61.26369 345.000
61.28364 341.000
61.30359 355.000
61.32353 333.000
61.34348 355.000
61.36343 335.000
61.38337 324.000
61.40332 353.000
61.42327 325.000
61.44321 351.000
61.46316 309.000
61.48311 305.000
61.50306 353.000
61.52300 296.000
61.54295 287.000
61.56290 360.000
61.58284 319.000
61.60279 327.000
61.62274 295.000
61.64268 341.000
61.66263 345.000
61.68258 328.000
61.70252 329.000
61.72247 320.000
61.74242 335.000
61.76237 338.000
61.78231 330.000
61.80226 346.000
61.82221 337.000
61.84215 309.000
61.86210 350.000
61.88205 324.000
61.90199 307.000
61.92194 306.000
61.94189 298.000
61.96184 350.000
61.98178 364.000
62.00173 305.000
62.02168 333.000
62.04162 318.000
62.06157 309.000
62.08152 314.000
62.10146 334.000
62.12141 321.000
62.14136 343.000
62.16131 281.000
62.18125 292.000
62.20120 327.000
62.22115 338.000
62.24109 298.000
62.26104 331.000
62.28099 341.000
62.30093 319.000
62.32088 306.000
62.34083 307.000
62.36077 300.000
62.38072 319.000
62.40067 322.000
62.42062 307.000
62.44056 328.000
62.46051 295.000
62.48046 323.000
62.50040 317.000
62.52035 351.000
62.54030 304.000
62.56024 364.000
62.58019 304.000
62.60014 323.000
62.62009 314.000
62.64003 339.000
62.65998 348.000
62.67993 305.000
62.69987 311.000
62.71982 347.000
62.73977 306.000
62.75971 290.000
62.77966 339.000
62.79961 308.000
62.81955 331.000
62.83950 331.000
62.85945 331.000
62.87940 319.000
62.89934 338.000
62.91929 305.000
62.93924 292.000
62.95918 342.000
62.97913 278.000
62.99908 307.000
63.01902 323.000
63.03897 295.000
63.05892 311.000
63.07887 331.000
63.09881 290.000
63.11876 303.000
63.13871 310.000
63.15865 337.000
63.17860 309.000
63.19855 323.000
63.21849 297.000
63.23844 308.000
63.25839 311.000
63.27833 307.000
63.29828 308.000
63.31823 288.000
63.33818 333.000
63.35812 303.000
63.37807 304.000
63.39802 335.000
63.41796 323.000
63.43791 317.000
63.45786 307.000
63.47780 313.000
63.49775 331.000
63.51770 297.000
63.53765 328.000
63.55759 308.000
63.57754 323.000
63.59749 307.000
63.61743 324.000
63.63738 285.000
63.65733 302.000
63.67727 292.000
63.69722 280.000
63.71717 278.000
63.73712 301.000
63.75706 339.000
63.77701 307.000
63.79696 338.000
63.81690 309.000
63.83685 313.000
63.85680 301.000
63.87674 322.000
63.89669 322.000
63.91664 294.000
63.93658 286.000
63.95653 335.000
63.97648 296.000
63.99643 323.000
64.01637 317.000
64.03632 303.000
64.05627 337.000
64.07621 325.000
64.09616 310.000
64.11611 334.000
64.13605 344.000
64.15600 331.000
64.17595 309.000
64.19590 300.000
64.21584 290.000
64.23579 314.000
64.25574 298.000
64.27568 304.000
64.29563 305.000
64.31558 314.000
64.33552 304.000
64.35547 317.000
64.37542 309.000
64.39536 331.000
64.41531 323.000
64.43526 313.000
64.45521 320.000
64.47515 305.000
64.49510 290.000
64.51505 325.000
64.53499 308.000
64.55494 291.000
64.57489 319.000
64.59483 318.000
64.61478 308.000
64.63473 303.000
64.65468 293.000
64.67462 335.000
64.69457 317.000
64.71452 290.000
64.73446 337.000
64.75441 312.000
64.77436 323.000
64.79430 333.000
64.81425 302.000
64.83420 308.000
64.85414 287.000
64.87409 275.000
64.89404 319.000
64.91399 313.000
64.93393 326.000
64.95388 321.000
64.97383 305.000
64.99377 310.000
65.01372 333.000
65.03367 289.000
65.05361 301.000
65.07356 306.000
65.09351 296.000
65.11346 318.000
65.13340 304.000
65.15335 285.000
65.17330 321.000
65.19324 275.000
65.21319 307.000
65.23314 313.000
65.25308 317.000
65.27303 321.000
65.29298 328.000
65.31293 305.000
65.33287 330.000
65.35282 287.000
65.37277 318.000
65.39271 301.000
65.41266 321.000
65.43261 308.000
65.45255 300.000
65.47250 335.000
65.49245 293.000
65.51239 295.000
65.53234 244.000
65.55229 307.000
65.57224 302.000
65.59218 311.000
65.61213 330.000
65.63208 299.000
65.65202 310.000
65.67197 284.000
65.69192 273.000
65.71186 302.000
65.73181 284.000
65.75176 279.000
65.77171 275.000
65.79165 300.000
65.81160 293.000
65.83155 302.000
65.85149 297.000
65.87144 294.000
65.89139 307.000
65.91133 304.000
65.93128 319.000
65.95123 306.000
65.97117 305.000
65.99112 286.000
66.01107 296.000
66.03102 319.000
66.05096 306.000
66.07091 308.000
66.09086 309.000
66.11080 304.000
66.13075 319.000
66.15070 334.000
66.17064 275.000
66.19059 295.000
66.21054 315.000
66.23049 296.000
66.25043 282.000
66.27038 311.000
66.29033 288.000
66.31027 303.000
66.33022 327.000
66.35017 297.000
66.37011 313.000
66.39006 300.000
66.41001 264.000
66.42995 301.000
66.44990 287.000
66.46985 306.000
66.48980 289.000
66.50974 296.000
66.52969 334.000
66.54964 300.000
66.56958 302.000
66.58953 290.000
66.60948 333.000
66.62942 305.000
66.64937 277.000
66.66932 289.000
66.68927 308.000
66.70921 325.000
66.72916 312.000
66.74911 313.000
66.76905 340.000
66.78900 317.000
66.80895 298.000
66.82889 325.000
66.84884 292.000
66.86879 299.000
66.88874 295.000
66.90868 303.000
66.92863 348.000
66.94858 319.000
66.96852 281.000
66.98847 281.000
67.00842 293.000
67.02836 321.000
67.04831 292.000
67.06826 298.000
67.08820 355.000
67.10815 271.000
67.12810 297.000
67.14805 314.000
67.16799 292.000
67.18794 310.000
67.20789 290.000
67.22783 350.000
67.24778 306.000
67.26773 301.000
67.28767 263.000
67.30762 278.000
67.32757 328.000
67.34752 315.000
67.36746 323.000
67.38741 310.000
67.40736 299.000
67.42730 277.000
67.44725 331.000
67.46720 275.000
67.48714 302.000
67.50709 306.000
67.52704 312.000
67.54698 278.000
67.56693 306.000
67.58688 302.000
67.60683 292.000
67.62677 278.000
67.64672 283.000
67.66667 285.000
67.68661 282.000
67.70656 285.000
67.72651 327.000
67.74645 306.000
67.76640 317.000
67.78635 287.000
67.80630 271.000
67.82624 333.000
67.84619 307.000
67.86614 269.000
67.88608 313.000
67.90603 269.000
67.92598 295.000
67.94592 268.000
67.96587 267.000
67.98582 294.000
68.00576 286.000
68.02571 308.000
68.04566 299.000
68.06561 297.000
68.08555 308.000
68.10550 291.000
68.12545 311.000
68.14539 329.000
68.16534 294.000
68.18529 291.000
68.20523 299.000
68.22518 270.000
68.24513 278.000
68.26508 287.000
68.28502 276.000
68.30497 327.000
68.32492 283.000
68.34486 300.000
68.36481 300.000
68.38476 322.000
68.40470 303.000
68.42465 298.000
68.44460 278.000
68.46455 324.000
68.48449 278.000
68.50444 273.000
68.52439 290.000
68.54433 300.000
68.56428 299.000
68.58423 255.000
68.60417 290.000
68.62412 289.000
68.64407 288.000
68.66401 268.000
68.68396 293.000
68.70391 287.000
68.72386 296.000
68.74380 307.000
68.76375 295.000
68.78370 290.000
68.80364 307.000
68.82359 299.000
68.84354 303.000
68.86348 285.000
68.88343 270.000
68.90338 278.000
68.92333 283.000
68.94327 308.000
68.96322 280.000
68.98317 283.000
69.00311 284.000
69.02306 313.000
69.04301 276.000
69.06295 280.000
69.08290 297.000
69.10285 309.000
69.12279 272.000
69.14274 279.000
69.16269 297.000
69.18264 298.000
69.20258 310.000
69.22253 312.000
69.24248 290.000
69.26242 285.000
69.28237 294.000
69.30232 319.000
69.32226 314.000
69.34221 298.000
69.36216 299.000
69.38211 279.000
69.40205 316.000
69.42200 252.000
69.44195 321.000
69.46189 320.000
69.48184 303.000
69.50179 314.000
69.52173 305.000
69.54168 297.000
69.56163 290.000
69.58157 311.000
69.60152 309.000
69.62147 300.000
69.64142 277.000
69.66136 280.000
69.68131 296.000
69.70126 325.000
69.72120 270.000
69.74115 284.000
69.76110 289.000
69.78104 270.000
69.80099 295.000
69.82094 283.000
69.84089 311.000
69.86083 291.000
69.88078 286.000
69.90073 293.000
69.92067 290.000
69.94062 288.000
69.96057 333.000
69.98051 275.000
70.00046 271.000
70.02041 295.000
70.04035 284.000
70.06030 285.000
70.08025 302.000
70.10020 285.000
70.12014 271.000
70.14009 279.000
70.16004 284.000
70.17998 316.000
70.19993 312.000
70.21988 302.000
70.23982 300.000
70.25977 326.000
70.27972 263.000
70.29967 302.000
70.31961 277.000
70.33956 307.000
70.35951 301.000
70.37945 329.000
70.39940 277.000
70.41935 306.000
70.43929 305.000
70.45924 323.000
70.47919 308.000
70.49914 283.000
70.51908 299.000
70.53903 258.000
70.55898 276.000
70.57892 295.000
70.59887 296.000
70.61882 306.000
70.63876 283.000
70.65871 319.000
70.67866 332.000
70.69860 291.000
70.71855 292.000
70.73850 299.000
70.75845 324.000
70.77839 295.000
70.79834 298.000
70.81829 273.000
70.83823 286.000
70.85818 284.000
70.87813 308.000
70.89807 278.000
70.91802 277.000
70.93797 272.000
70.95792 293.000
70.97786 326.000
70.99781 284.000
71.01776 293.000
71.03770 306.000
71.05765 299.000
71.07760 305.000
71.09754 292.000
71.11749 306.000
71.13744 325.000
71.15738 308.000
71.17733 295.000
71.19728 300.000
71.21723 290.000
71.23717 322.000
71.25712 295.000
71.27707 284.000
71.29701 276.000
71.31696 276.000
71.33691 291.000
71.35685 257.000
71.37680 266.000
71.39675 314.000
71.41670 292.000
71.43664 288.000
71.45659 297.000
71.47654 315.000
71.49648 305.000
71.51643 276.000
71.53638 284.000
71.55632 281.000
71.57627 308.000
71.59622 275.000
71.61616 281.000
71.63611 265.000
71.65606 283.000
71.67601 304.000
71.69595 284.000
71.71590 254.000
71.73585 273.000
71.75579 284.000
71.77574 283.000
71.79569 317.000
71.81563 281.000
71.83558 290.000
71.85553 290.000
71.87548 287.000
71.89542 319.000
71.91537 281.000
71.93532 284.000
71.95526 299.000
71.97521 285.000
71.99516 283.000
72.01510 315.000
72.03505 304.000
72.05500 274.000
72.07495 278.000
72.09489 293.000
72.11484 294.000
72.13479 275.000
72.15473 288.000
72.17468 297.000
72.19463 293.000
72.21457 282.000
72.23452 285.000
72.25447 310.000
72.27441 325.000
72.29436 283.000
72.31431 294.000
72.33426 281.000
72.35420 274.000
72.37415 289.000
72.39410 292.000
72.41404 301.000
72.43399 292.000
72.45394 301.000
72.47388 278.000
72.49383 286.000
72.51378 281.000
72.53373 320.000
72.55367 291.000
72.57362 285.000
72.59357 262.000
72.61351 300.000
72.63346 276.000
72.65341 302.000
72.67335 271.000
72.69330 307.000
72.71325 291.000
72.73319 301.000
72.75314 290.000
72.77309 310.000
72.79304 284.000
72.81298 275.000
72.83293 302.000
72.85288 296.000
72.87282 273.000
72.89277 309.000
72.91272 301.000
72.93266 299.000
72.95261 307.000
72.97256 307.000
72.99251 310.000
73.01245 334.000
73.03240 291.000
73.05235 287.000
73.07229 290.000
73.09224 271.000
73.11219 301.000
73.13213 286.000
73.15208 276.000
73.17203 263.000
73.19197 308.000
73.21192 294.000
73.23187 286.000
73.25182 287.000
73.27176 280.000
73.29171 300.000
73.31166 273.000
73.33160 286.000
73.35155 275.000
73.37150 290.000
73.39144 298.000
73.41139 279.000
73.43134 271.000
73.45129 287.000
73.47123 266.000
73.49118 267.000
73.51113 280.000
73.53107 289.000
73.55102 274.000
73.57097 288.000
73.59091 270.000
73.61086 295.000
73.63081 289.000
73.65076 283.000
73.67070 290.000
73.69065 257.000
73.71060 263.000
73.73054 237.000
73.75049 288.000
73.77044 302.000
73.79038 294.000
73.81033 306.000
73.83028 296.000
73.85022 291.000
73.87017 289.000
73.89012 302.000
73.91007 283.000
73.93001 299.000
73.94996 311.000
73.96991 310.000
73.98985 281.000
74.00980 281.000
74.02975 291.000
74.04969 296.000
74.06964 272.000
74.08959 288.000
74.10954 295.000
74.12948 296.000
74.14943 293.000
74.16938 297.000
74.18932 269.000
74.20927 316.000
74.22922 295.000
74.24916 255.000
74.26911 307.000
74.28906 289.000
74.30900 300.000
74.32895 302.000
74.34890 319.000
74.36885 285.000
74.38879 308.000
74.40874 287.000
74.42869 307.000
74.44863 294.000
74.46858 306.000
74.48853 282.000
74.50847 265.000
74.52842 296.000
74.54837 301.000
74.56832 295.000
74.58826 284.000
74.60821 311.000
74.62816 292.000
74.64810 290.000
74.66805 281.000
74.68800 291.000
74.70794 297.000
74.72789 305.000
74.74784 296.000
74.76778 310.000
74.78773 256.000
74.80768 297.000
74.82763 286.000
74.84757 323.000
74.86752 272.000
74.88747 292.000
74.90741 316.000
74.92736 311.000
74.94731 292.000
74.96725 269.000
74.98720 285.000
75.00715 252.000
75.02710 286.000
75.04704 301.000
75.06699 275.000
75.08694 304.000
75.10688 298.000
75.12683 311.000
75.14678 285.000
75.16672 300.000
75.18667 320.000
75.20662 287.000
75.22657 283.000
75.24651 281.000
75.26646 288.000
75.28641 262.000
75.30635 294.000
75.32630 274.000
75.34625 283.000
75.36619 291.000
75.38614 294.000
75.40609 268.000
75.42603 311.000
75.44598 292.000
75.46593 263.000
75.48588 320.000
75.50582 272.000
75.52577 298.000
75.54572 294.000
75.56566 269.000
75.58561 305.000
75.60556 316.000
75.62550 304.000
75.64545 263.000
75.66540 278.000
75.68535 283.000
75.70529 283.000
75.72524 303.000
75.74519 285.000
75.76513 271.000
75.78508 250.000
75.80503 257.000
75.82497 327.000
75.84492 286.000
75.86487 270.000
75.88481 295.000
75.90476 278.000
75.92471 297.000
75.94466 279.000
75.96460 285.000
75.98455 296.000
76.00450 259.000
76.02444 256.000
76.04439 277.000
76.06434 311.000
76.08428 250.000
76.10423 278.000
76.12418 312.000
76.14413 282.000
76.16407 296.000
76.18402 283.000
76.20397 275.000
76.22391 291.000
76.24386 297.000
76.26381 314.000
76.28375 276.000
76.30370 295.000
76.32365 292.000
76.34359 292.000
76.36354 284.000
76.38349 254.000
76.40344 307.000
76.42338 263.000
76.44333 268.000
76.46328 267.000
76.48322 274.000
76.50317 276.000
76.52312 298.000
76.54306 260.000
76.56301 282.000
76.58296 263.000
76.60291 285.000
76.62285 289.000
76.64280 289.000
76.66275 276.000
76.68269 268.000
76.70264 273.000
76.72259 276.000
76.74253 285.000
76.76248 295.000
76.78243 284.000
76.80238 284.000
76.82232 289.000
76.84227 304.000
76.86222 292.000
76.88216 298.000
76.90211 291.000
76.92206 271.000
76.94200 274.000
76.96195 292.000
76.98190 270.000
77.00184 285.000
77.02179 272.000
77.04174 288.000
77.06169 301.000
77.08163 291.000
77.10158 299.000
77.12153 286.000
77.14147 255.000
77.16142 286.000
77.18137 293.000
77.20131 288.000
77.22126 288.000
77.24121 323.000
77.26116 289.000
77.28110 273.000
77.30105 283.000
77.32100 270.000
77.34094 288.000
77.36089 279.000
77.38084 258.000
77.40078 288.000
77.42073 303.000
77.44068 297.000
77.46062 288.000
77.48057 261.000
77.50052 254.000
77.52047 266.000
77.54041 304.000
77.56036 295.000
77.58031 289.000
77.60025 303.000
77.62020 265.000
77.64015 296.000
77.66009 306.000
77.68004 296.000
77.69999 312.000
77.71994 282.000
77.73988 274.000
77.75983 283.000
77.77978 303.000
77.79972 299.000
77.81967 278.000
77.83962 267.000
77.85956 260.000
77.87951 285.000
77.89946 264.000
77.91940 289.000
77.93935 297.000
77.95930 291.000
77.97925 306.000
77.99919 295.000
78.01914 302.000
78.03909 301.000
78.05903 281.000
78.07898 286.000
78.09893 276.000
78.11887 283.000
78.13882 319.000
78.15877 283.000
78.17872 288.000
78.19866 294.000
78.21861 268.000
78.23856 299.000
78.25850 290.000
78.27845 306.000
78.29840 339.000
78.31834 255.000
78.33829 315.000
78.35824 317.000
78.37819 262.000
78.39813 285.000
78.41808 305.000
78.43803 281.000
78.45797 288.000
78.47792 296.000
78.49787 273.000
78.51781 280.000
78.53776 279.000
78.55771 280.000
78.57765 289.000
78.59760 279.000
78.61755 313.000
78.63750 283.000
78.65744 284.000
78.67739 311.000
78.69734 276.000
78.71728 282.000
78.73723 275.000
78.75718 292.000
78.77712 281.000
78.79707 322.000
78.81702 303.000
78.83697 297.000
78.85691 283.000
78.87686 314.000
78.89681 290.000
78.91675 268.000
78.93670 310.000
78.95665 305.000
78.97659 266.000
78.99654 294.000
79.01649 287.000
79.03643 281.000
79.05638 300.000
79.07633 307.000
79.09628 277.000
79.11622 293.000
79.13617 330.000
79.15612 314.000
79.17606 283.000
79.19601 270.000
79.21596 290.000
79.23590 291.000
79.25585 308.000
79.27580 314.000
79.29575 266.000
79.31569 274.000
79.33564 325.000
79.35559 295.000
79.37553 292.000
79.39548 268.000
79.41543 293.000
79.43537 279.000
79.45532 248.000
79.47527 269.000
79.49521 296.000
79.51516 288.000
79.53511 300.000
79.55506 298.000
79.57500 290.000
79.59495 281.000
79.61490 294.000
79.63484 290.000
79.65479 272.000
79.67474 287.000
79.69468 315.000
79.71463 276.000
79.73458 246.000
79.75453 294.000
79.77447 266.000
79.79442 307.000
79.81437 285.000
79.83431 292.000
79.85426 290.000
79.87421 299.000
79.89415 299.000
79.91410 287.000
79.93405 287.000
79.95399 325.000
79.97394 312.000
79.99389 301.000
80.01384 294.000
80.03378 284.000
80.05373 276.000
80.07368 294.000
80.09362 288.000
80.11357 290.000
80.13352 294.000
80.15346 278.000
80.17341 298.000
80.19336 326.000
80.21331 286.000
80.23325 280.000
80.25320 263.000
80.27315 278.000
80.29309 311.000
80.31304 283.000
80.33299 256.000
80.35293 288.000
80.37288 292.000
80.39283 292.000
80.41278 304.000
80.43272 267.000
80.45267 313.000
80.47262 298.000
80.49256 277.000
80.51251 290.000
80.53246 311.000
80.55240 311.000
80.57235 298.000
80.59230 292.000
80.61224 303.000
80.63219 282.000
80.65214 311.000
80.67209 261.000
80.69203 257.000
80.71198 303.000
80.73193 242.000
80.75187 287.000
80.77182 289.000
80.79177 291.000
80.81171 306.000
80.83166 286.000
80.85161 279.000
80.87156 286.000
80.89150 296.000
80.91145 290.000
80.93140 275.000
80.95134 295.000
80.97129 290.000
80.99124 249.000
81.01118 287.000
81.03113 310.000
81.05108 305.000
81.07102 308.000
81.09097 297.000
81.11092 301.000
81.13087 261.000
81.15081 284.000
81.17076 301.000
81.19071 278.000
81.21065 274.000
81.23060 291.000
81.25055 263.000
81.27049 281.000
81.29044 288.000
81.31039 315.000
81.33034 307.000
81.35028 266.000
81.37023 318.000
81.39018 320.000
81.41012 277.000
81.43007 273.000
81.45002 291.000
81.46996 277.000
81.48991 309.000
81.50986 308.000
81.52980 305.000
81.54975 301.000
81.56970 276.000
81.58965 275.000
81.60959 304.000
81.62954 296.000
81.64949 262.000
81.66943 270.000
81.68938 304.000
81.70933 320.000
81.72927 273.000
81.74922 273.000
81.76917 308.000
81.78912 314.000
81.80906 282.000
81.82901 284.000
81.84896 289.000
81.86890 300.000
81.88885 309.000
81.90880 283.000
81.92874 305.000
81.94869 291.000
81.96864 324.000
81.98859 277.000
82.00853 306.000
82.02848 274.000
82.04843 280.000
82.06837 294.000
82.08832 303.000
82.10827 264.000
82.12821 287.000
82.14816 322.000
82.16811 298.000
82.18805 288.000
82.20800 316.000
82.22795 288.000
82.24790 295.000
82.26784 281.000
82.28779 319.000
82.30774 317.000
82.32768 284.000
82.34763 296.000
82.36758 307.000
82.38752 283.000
82.40747 279.000
82.42742 274.000
82.44737 287.000
82.46731 289.000
82.48726 292.000
82.50721 295.000
82.52715 309.000
82.54710 275.000
82.56705 271.000
82.58699 292.000
82.60694 283.000
82.62689 297.000
82.64683 273.000
82.66678 272.000
82.68673 310.000
82.70668 299.000
82.72662 276.000
82.74657 297.000
82.76652 283.000
82.78646 290.000
82.80641 276.000
82.82636 285.000
82.84630 288.000
82.86625 302.000
82.88620 288.000
82.90615 295.000
82.92609 289.000
82.94604 272.000
82.96599 306.000
82.98593 268.000
83.00588 286.000
83.02583 289.000
83.04577 274.000
83.06572 304.000
83.08567 266.000
83.10561 319.000
83.12556 299.000
83.14551 284.000
83.16546 275.000
83.18540 298.000
83.20535 312.000
83.22530 305.000
83.24524 314.000
83.26519 296.000
83.28514 281.000
83.30508 293.000
83.32503 256.000
83.34498 322.000
83.36493 293.000
83.38487 296.000
83.40482 259.000
83.42477 274.000
83.44471 281.000
83.46466 276.000
83.48461 293.000
83.50455 281.000
83.52450 299.000
83.54445 278.000
83.56440 283.000
83.58434 303.000
83.60429 282.000
83.62424 296.000
83.64418 299.000
83.66413 288.000
83.68408 290.000
83.70402 309.000
83.72397 309.000
83.74392 291.000
83.76386 306.000
83.78381 317.000
83.80376 286.000
83.82371 274.000
83.84365 304.000
83.86360 298.000
83.88355 293.000
83.90349 290.000
83.92344 286.000
83.94339 285.000
83.96333 273.000
83.98328 305.000
84.00323 286.000
84.02318 289.000
84.04312 300.000
84.06307 276.000
84.08302 273.000
84.10296 306.000
84.12291 298.000
84.14286 279.000
84.16280 296.000
84.18275 276.000
84.20270 268.000
84.22264 307.000
84.24259 277.000
84.26254 285.000
84.28249 293.000
84.30243 325.000
84.32238 293.000
84.34233 281.000
84.36227 288.000
84.38222 300.000
84.40217 306.000
84.42211 299.000
84.44206 306.000
84.46201 285.000
84.48196 266.000
84.50190 290.000
84.52185 295.000
84.54180 299.000
84.56174 275.000
84.58169 265.000
84.60164 305.000
84.62158 262.000
84.64153 284.000
84.66148 293.000
84.68142 253.000
84.70137 285.000
84.72132 291.000
84.74127 314.000
84.76121 264.000
84.78116 287.000
84.80111 316.000
84.82105 290.000
84.84100 298.000
84.86095 270.000
84.88089 312.000
84.90084 273.000
84.92079 310.000
84.94074 292.000
84.96068 294.000
84.98063 288.000
85.00058 301.000
85.02052 288.000
85.04047 282.000
85.06042 299.000
85.08036 305.000
85.10031 278.000
85.12026 304.000
85.14021 304.000
85.16015 297.000
85.18010 289.000
85.20005 256.000
85.21999 295.000
85.23994 299.000
85.25989 280.000
85.27983 306.000
85.29978 288.000
85.31973 293.000
85.33967 292.000
85.35962 310.000
85.37957 297.000
85.39952 296.000
85.41946 292.000
85.43941 285.000
85.45936 281.000
85.47930 293.000
85.49925 298.000
85.51920 311.000
85.53914 290.000
85.55909 312.000
85.57904 269.000
85.59899 289.000
85.61893 289.000
85.63888 293.000
85.65883 343.000
85.67877 324.000
85.69872 303.000
85.71867 292.000
85.73861 286.000
85.75856 302.000
85.77851 293.000
85.79845 247.000
85.81840 300.000
85.83835 311.000
85.85830 330.000
85.87824 277.000
85.89819 293.000
85.91814 312.000
85.93808 282.000
85.95803 313.000
85.97798 295.000
85.99792 277.000
86.01787 309.000
86.03782 276.000
86.05777 268.000
86.07771 280.000
86.09766 295.000
86.11761 320.000
86.13755 309.000
86.15750 260.000
86.17745 296.000
86.19739 323.000
86.21734 289.000
86.23729 302.000
86.25723 297.000
86.27718 299.000
86.29713 242.000
86.31708 297.000
86.33702 303.000
86.35697 334.000
86.37692 290.000
86.39686 325.000
86.41681 302.000
86.43676 281.000
86.45670 339.000
86.47665 291.000
86.49660 292.000
86.51655 314.000
86.53649 340.000
86.55644 302.000
86.57639 298.000
86.59633 330.000
86.61628 311.000
86.63623 337.000
86.65617 272.000
86.67612 285.000
86.69607 298.000
86.71602 293.000
86.73596 291.000
86.75591 321.000
86.77586 304.000
86.79580 299.000
86.81575 308.000
86.83570 307.000
86.85564 279.000
86.87559 292.000
86.89554 269.000
86.91548 275.000
86.93543 278.000
86.95538 298.000
86.97533 288.000
86.99527 290.000
87.01522 278.000
87.03517 295.000
87.05511 318.000
87.07506 320.000
87.09501 289.000
87.11495 284.000
87.13490 313.000
87.15485 241.000
87.17480 283.000
87.19474 293.000
87.21469 305.000
87.23464 309.000
87.25458 293.000
87.27453 302.000
87.29448 272.000
87.31442 294.000
87.33437 275.000
87.35432 297.000
87.37426 269.000
87.39421 280.000
87.41416 267.000
87.43411 296.000
87.45405 248.000
87.47400 276.000
87.49395 304.000
87.51389 283.000
87.53384 298.000
87.55379 284.000
87.57373 291.000
87.59368 305.000
87.61363 275.000
87.63358 258.000
87.65352 280.000
87.67347 266.000
87.69342 310.000
87.71336 270.000
87.73331 278.000
87.75326 326.000
87.77320 283.000
87.79315 290.000
87.81310 295.000
87.83304 303.000
87.85299 273.000
87.87294 265.000
87.89289 256.000
87.91283 285.000
87.93278 323.000
87.95273 281.000
87.97267 300.000
87.99262 314.000
88.01257 279.000
88.03251 296.000
88.05246 269.000
88.07241 301.000
88.09236 307.000
88.11230 299.000
88.13225 282.000
88.15220 291.000
88.17214 272.000
88.19209 288.000
88.21204 317.000
88.23198 309.000
88.25193 314.000
88.27188 285.000
88.29183 310.000
88.31177 291.000
88.33172 290.000
88.35167 298.000
88.37161 275.000
88.39156 289.000
88.41151 297.000
88.43145 278.000
88.45140 309.000
88.47135 289.000
88.49129 286.000
88.51124 284.000
88.53119 282.000
88.55114 307.000
88.57108 274.000
88.59103 302.000
88.61098 270.000
88.63092 292.000
88.65087 285.000
88.67082 285.000
88.69076 334.000
88.71071 278.000
88.73066 295.000
88.75061 301.000
88.77055 276.000
88.79050 282.000
88.81045 280.000
88.83039 264.000
88.85034 297.000
88.87029 311.000
88.89023 281.000
88.91018 244.000
88.93013 281.000
88.95007 288.000
88.97002 293.000
88.98997 304.000
89.00992 240.000
89.02986 240.000
89.04981 278.000
89.06976 267.000
89.08970 293.000
89.10965 259.000
89.12960 290.000
89.14954 289.000
89.16949 289.000
89.18944 276.000
89.20939 307.000
89.22933 296.000
89.24928 268.000
89.26923 269.000
89.28917 268.000
89.30912 259.000
89.32907 278.000
89.34901 284.000
89.36896 283.000
89.38891 293.000
89.40885 272.000
89.42880 280.000
89.44875 283.000
89.46870 278.000
89.48864 273.000
89.50859 268.000
89.52854 287.000
89.54848 281.000
89.56843 287.000
89.58838 299.000
89.60832 294.000
89.62827 286.000
89.64822 285.000
89.66817 268.000
89.68811 277.000
89.70806 290.000
89.72801 281.000
89.74795 293.000
89.76790 298.000
89.78785 315.000
89.80779 286.000
89.82774 241.000
89.84769 276.000
89.86764 276.000
89.88758 289.000
89.90753 267.000
89.92748 270.000
89.94742 303.000
89.96737 254.000
89.98732 276.000
90.00726 275.000
