10.00000 223.000
10.01995 201.000
10.03989 184.000
10.05984 214.000
10.07979 208.000
10.09973 205.000
10.11968 207.000
10.13963 186.000
10.15958 191.000
10.17952 226.000
10.19947 216.000
10.21942 198.000
10.23936 203.000
10.25931 200.000
10.27926 195.000
10.29920 208.000
10.31915 186.000
10.33910 201.000
10.35905 167.000
10.37899 196.000
10.39894 195.000
10.41889 187.000
10.43883 194.000
10.45878 218.000
10.47873 224.000
10.49867 216.000
10.51862 214.000
10.53857 203.000
10.55851 218.000
10.57846 212.000
10.59841 171.000
10.61836 199.000
10.63830 183.000
10.65825 206.000
10.67820 208.000
10.69814 208.000
10.71809 218.000
10.73804 187.000
10.75798 200.000
10.77793 218.000
10.79788 214.000
10.81783 230.000
10.83777 196.000
10.85772 221.000
10.87767 218.000
10.89761 216.000
10.91756 203.000
10.93751 235.000
10.95745 207.000
10.97740 211.000
10.99735 198.000
11.01730 221.000
11.03724 228.000
11.05719 190.000
11.07714 182.000
11.09708 195.000
11.11703 204.000
11.13698 222.000
11.15692 213.000
11.17687 207.000
11.19682 196.000
11.21676 231.000
11.23671 187.000
11.25666 203.000
11.27661 208.000
11.29655 208.000
11.31650 199.000
11.33645 218.000
11.35639 196.000
11.37634 199.000
11.39629 237.000
11.41623 219.000
11.43618 192.000
11.45613 197.000
11.47608 206.000
11.49602 247.000
11.51597 209.000
11.53592 209.000
11.55586 200.000
11.57581 198.000
11.59576 215.000
11.61570 200.000
11.63565 233.000
11.65560 235.000
11.67554 188.000
11.69549 225.000
11.71544 194.000
11.73539 232.000
11.75533 213.000
11.77528 212.000
11.79523 238.000
11.81517 209.000
11.83512 217.000
11.85507 226.000
11.87501 193.000
11.89496 239.000
11.91491 230.000
11.93486 224.000
11.95480 213.000
11.97475 230.000
11.99470 237.000
12.01464 203.000
12.03459 214.000
12.05454 228.000
12.07448 208.000
12.09443 208.000
12.11438 197.000
12.13432 207.000
12.15427 211.000
12.17422 238.000
12.19417 209.000
12.21411 229.000
12.23406 178.000
12.25401 230.000
12.27395 229.000
12.29390 239.000
12.31385 214.000
12.33379 238.000
12.35374 217.000
12.37369 205.000
12.39364 235.000
12.41358 206.000
12.43353 200.000
12.45348 207.000
12.47342 223.000
12.49337 206.000
12.51332 223.000
12.53326 238.000
12.55321 223.000
12.57316 214.000
12.59311 220.000
12.61305 246.000
12.63300 211.000
12.65295 222.000
12.67289 223.000
12.69284 221.000
12.71279 220.000
12.73273 215.000
12.75268 212.000
12.77263 234.000
12.79257 218.000
12.81252 197.000
12.83247 228.000
12.85242 198.000
12.87236 247.000
12.89231 220.000
12.91226 221.000
12.93220 254.000
12.95215 222.000
12.97210 230.000
12.99204 214.000
13.01199 241.000
13.03194 241.000
13.05189 200.000
13.07183 217.000
13.09178 244.000
13.11173 216.000
13.13167 247.000
13.15162 225.000
13.17157 230.000
13.19151 202.000
13.21146 237.000
13.23141 203.000
13.25135 219.000
13.27130 226.000
13.29125 209.000
13.31120 189.000
13.33114 237.000
13.35109 211.000
13.37104 236.000
13.39098 240.000
13.41093 233.000
13.43088 225.000
13.45082 217.000
13.47077 204.000
13.49072 219.000
13.51067 226.000
13.53061 216.000
13.55056 209.000
13.57051 232.000
13.59045 212.000
13.61040 232.000
13.63035 207.000
13.65029 217.000
13.67024 202.000
13.69019 242.000
13.71013 243.000
13.73008 223.000
13.75003 221.000
13.76998 217.000
13.78992 240.000
13.80987 222.000
13.82982 224.000
13.84976 219.000
13.86971 239.000
13.88966 213.000
13.90960 236.000
13.92955 222.000
13.94950 207.000
13.96945 203.000
13.98939 236.000
14.00934 247.000
14.02929 247.000
14.04923 221.000
14.06918 228.000
14.08913 241.000
14.10907 210.000
14.12902 211.000
14.14897 217.000
14.16892 231.000
14.18886 224.000
14.20881 215.000
14.22876 219.000
14.24870 229.000
14.26865 218.000
14.28860 236.000
14.30854 230.000
14.32849 208.000
14.34844 219.000
14.36838 240.000
14.38833 228.000
14.40828 252.000
14.42823 225.000
14.44817 225.000
14.46812 202.000
14.48807 231.000
14.50801 211.000
14.52796 222.000
14.54791 227.000
14.56785 218.000
14.58780 205.000
14.60775 240.000
14.62770 242.000
14.64764 207.000
14.66759 227.000
14.68754 234.000
14.70748 257.000
14.72743 210.000
14.74738 205.000
14.76732 215.000
14.78727 215.000
14.80722 225.000
14.82716 241.000
14.84711 194.000
14.86706 243.000
14.88701 231.000
14.90695 235.000
14.92690 231.000
14.94685 226.000
14.96679 235.000
14.98674 240.000
15.00669 222.000
15.02663 208.000
15.04658 231.000
15.06653 264.000
15.08648 235.000
15.10642 231.000
15.12637 228.000
15.14632 215.000
15.16626 226.000
15.18621 231.000
15.20616 211.000
15.22610 214.000
15.24605 258.000
15.26600 236.000
15.28594 228.000
15.30589 210.000
15.32584 239.000
15.34579 221.000
15.36573 204.000
15.38568 231.000
15.40563 230.000
15.42557 230.000
15.44552 257.000
15.46547 245.000
15.48541 215.000
15.50536 212.000
15.52531 239.000
15.54526 220.000
15.56520 217.000
15.58515 246.000
15.60510 252.000
15.62504 226.000
15.64499 235.000
15.66494 268.000
15.68488 219.000
15.70483 239.000
15.72478 214.000
15.74472 247.000
15.76467 232.000
15.78462 241.000
15.80457 258.000
15.82451 217.000
15.84446 261.000
15.86441 242.000
15.88435 225.000
15.90430 231.000
15.92425 214.000
15.94419 229.000
15.96414 231.000
15.98409 214.000
16.00404 211.000
16.02398 273.000
16.04393 218.000
16.06388 234.000
16.08382 239.000
16.10377 221.000
16.12372 219.000
16.14366 230.000
16.16361 243.000
16.18356 236.000
16.20351 232.000
16.22345 241.000
16.24340 248.000
16.26335 240.000
16.28329 218.000
16.30324 231.000
16.32319 246.000
16.34313 261.000
16.36308 250.000
16.38303 215.000
16.40297 236.000
16.42292 249.000
16.44287 259.000
16.46282 221.000
16.48276 248.000
16.50271 248.000
16.52266 218.000
16.54260 231.000
16.56255 262.000
16.58250 238.000
16.60244 231.000
16.62239 226.000
16.64234 250.000
16.66229 208.000
16.68223 224.000
16.70218 240.000
16.72213 220.000
16.74207 233.000
16.76202 242.000
16.78197 229.000
16.80191 234.000
16.82186 252.000
16.84181 201.000
16.86175 231.000
16.88170 253.000
16.90165 225.000
16.92160 252.000
16.94154 216.000
16.96149 235.000
16.98144 244.000
17.00138 227.000
17.02133 236.000
17.04128 237.000
17.06122 230.000
17.08117 256.000
17.10112 245.000
17.12107 232.000
17.14101 245.000
17.16096 235.000
17.18091 240.000
17.20085 227.000
17.22080 234.000
17.24075 242.000
17.26069 264.000
17.28064 280.000
17.30059 258.000
17.32053 236.000
17.34048 231.000
17.36043 227.000
17.38038 240.000
17.40032 222.000
17.42027 243.000
17.44022 235.000
17.46016 230.000
17.48011 265.000
17.50006 255.000
17.52000 256.000
17.53995 247.000
17.55990 256.000
17.57985 231.000
17.59979 265.000
17.61974 238.000
17.63969 232.000
17.65963 244.000
17.67958 258.000
17.69953 245.000
17.71947 258.000
17.73942 256.000
17.75937 254.000
17.77932 251.000
17.79926 249.000
17.81921 247.000
17.83916 241.000
17.85910 276.000
17.87905 236.000
17.89900 244.000
17.91894 244.000
17.93889 231.000
17.95884 238.000
17.97878 245.000
17.99873 255.000
18.01868 241.000
18.03863 244.000
18.05857 232.000
18.07852 290.000
18.09847 243.000
18.11841 247.000
18.13836 243.000
18.15831 254.000
18.17825 244.000
18.19820 233.000
18.21815 258.000
18.23810 261.000
18.25804 256.000
18.27799 238.000
18.29794 275.000
18.31788 269.000
18.33783 292.000
18.35778 317.000
18.37772 295.000
18.39767 379.000
18.41762 365.000
18.43756 364.000
18.45751 318.000
18.47746 289.000
18.49741 301.000
18.51735 238.000
18.53730 277.000
18.55725 279.000
18.57719 256.000
18.59714 262.000
18.61709 248.000
18.63703 215.000
18.65698 252.000
18.67693 278.000
18.69688 259.000
18.71682 252.000
18.73677 247.000
18.75672 216.000
18.77666 280.000
18.79661 250.000
18.81656 254.000
18.83650 261.000
18.85645 254.000
18.87640 253.000
18.89634 248.000
18.91629 235.000
18.93624 245.000
18.95619 254.000
18.97613 259.000
18.99608 252.000
19.01603 257.000
19.03597 263.000
19.05592 289.000
19.07587 270.000
19.09581 261.000
19.11576 260.000
19.13571 293.000
19.15566 249.000
19.17560 234.000
19.19555 247.000
19.21550 270.000
19.23544 252.000
19.25539 253.000
19.27534 243.000
19.29528 263.000
19.31523 260.000
19.33518 230.000
19.35513 278.000
19.37507 257.000
19.39502 253.000
19.41497 273.000
19.43491 259.000
19.45486 237.000
19.47481 246.000
19.49475 255.000
19.51470 260.000
19.53465 260.000
19.55459 258.000
19.57454 253.000
19.59449 250.000
19.61444 243.000
19.63438 289.000
19.65433 275.000
19.67428 290.000
19.69422 277.000
19.71417 260.000
19.73412 279.000
19.75406 265.000
19.77401 251.000
19.79396 242.000
19.81391 249.000
19.83385 293.000
19.85380 268.000
19.87375 242.000
19.89369 287.000
19.91364 247.000
19.93359 251.000
19.95353 282.000
19.97348 263.000
19.99343 250.000
20.01337 303.000
20.03332 260.000
20.05327 256.000
20.07322 248.000
20.09316 257.000
20.11311 261.000
20.13306 267.000
20.15300 240.000
20.17295 269.000
20.19290 266.000
20.21284 270.000
20.23279 286.000
20.25274 299.000
20.27269 295.000
20.29263 263.000
20.31258 250.000
20.33253 306.000
20.35247 239.000
20.37242 250.000
20.39237 279.000
20.41231 276.000
20.43226 292.000
20.45221 261.000
20.47215 258.000
20.49210 272.000
20.51205 279.000
20.53200 310.000
20.55194 273.000
20.57189 288.000
20.59184 273.000
20.61178 277.000
20.63173 253.000
20.65168 291.000
20.67162 265.000
20.69157 281.000
20.71152 301.000
20.73147 305.000
20.75141 332.000
20.77136 313.000
20.79131 301.000
20.81125 321.000
20.83120 427.000
20.85115 441.000
20.87109 482.000
20.89104 534.000
20.91099 560.000
20.93094 610.000
20.95088 581.000
20.97083 669.000
20.99078 746.000
21.01072 801.000
21.03067 905.000
21.05062 905.000
21.07056 857.000
21.09051 803.000
21.11046 812.000
21.13040 673.000
21.15035 524.000
21.17030 476.000
21.19025 420.000
21.21019 349.000
21.23014 328.000
21.25009 332.000
21.27003 306.000
21.28998 321.000
21.30993 305.000
21.32987 291.000
21.34982 289.000
21.36977 276.000
21.38972 277.000
21.40966 279.000
21.42961 280.000
21.44956 267.000
21.46950 253.000
21.48945 266.000
21.50940 266.000
21.52934 279.000
21.54929 275.000
21.56924 274.000
21.58918 287.000
21.60913 292.000
21.62908 299.000
21.64903 264.000
21.66897 267.000
21.68892 271.000
21.70887 299.000
21.72881 298.000
21.74876 274.000
21.76871 248.000
21.78865 265.000
21.80860 288.000
21.82855 300.000
21.84850 282.000
21.86844 285.000
21.88839 287.000
21.90834 286.000
21.92828 285.000
21.94823 291.000
21.96818 281.000
21.98812 280.000
22.00807 278.000
22.02802 262.000
22.04796 278.000
22.06791 288.000
22.08786 262.000
22.10781 253.000
22.12775 261.000
22.14770 283.000
22.16765 262.000
22.18759 319.000
22.20754 308.000
22.22749 262.000
22.24743 310.000
22.26738 267.000
22.28733 261.000
22.30728 251.000
22.32722 281.000
22.34717 253.000
22.36712 288.000
22.38706 257.000
22.40701 281.000
22.42696 273.000
22.44690 259.000
22.46685 287.000
22.48680 282.000
22.50675 299.000
22.52669 289.000
22.54664 302.000
22.56659 274.000
22.58653 271.000
22.60648 310.000
22.62643 276.000
22.64637 261.000
22.66632 257.000
22.68627 282.000
22.70621 295.000
22.72616 320.000
22.74611 309.000
22.76606 294.000
22.78600 262.000
22.80595 304.000
22.82590 333.000
22.84584 288.000
22.86579 291.000
22.88574 284.000
22.90568 293.000
22.92563 286.000
22.94558 271.000
22.96553 287.000
22.98547 307.000
23.00542 252.000
23.02537 298.000
23.04531 321.000
23.06526 300.000
23.08521 330.000
23.10515 320.000
23.12510 286.000
23.14505 286.000
23.16499 276.000
23.18494 278.000
23.20489 265.000
23.22484 286.000
23.24478 282.000
23.26473 274.000
23.28468 299.000
23.30462 272.000
23.32457 301.000
23.34452 287.000
23.36446 294.000
23.38441 262.000
23.40436 284.000
23.42431 305.000
23.44425 296.000
23.46420 255.000
23.48415 277.000
23.50409 276.000
23.52404 308.000
23.54399 308.000
23.56393 269.000
23.58388 314.000
23.60383 296.000
23.62377 291.000
23.64372 314.000
23.66367 329.000
23.68362 282.000
23.70356 287.000
23.72351 310.000
23.74346 306.000
23.76340 284.000
23.78335 279.000
23.80330 288.000
23.82324 321.000
23.84319 337.000
23.86314 327.000
23.88309 298.000
23.90303 325.000
23.92298 318.000
23.94293 303.000
23.96287 302.000
23.98282 295.000
24.00277 304.000
24.02271 328.000
24.04266 292.000
24.06261 277.000
24.08256 325.000
24.10250 293.000
24.12245 303.000
24.14240 331.000
24.16234 305.000
24.18229 289.000
24.20224 303.000
24.22218 301.000
24.24213 305.000
24.26208 295.000
24.28202 333.000
24.30197 302.000
24.32192 298.000
24.34187 338.000
24.36181 319.000
24.38176 294.000
24.40171 312.000
24.42165 329.000
24.44160 361.000
24.46155 299.000
24.48149 294.000
24.50144 342.000
24.52139 311.000
24.54134 320.000
24.56128 280.000
24.58123 314.000
24.60118 318.000
24.62112 309.000
24.64107 301.000
24.66102 301.000
24.68096 321.000
24.70091 319.000
24.72086 294.000
24.74080 321.000
24.76075 341.000
24.78070 339.000
24.80065 311.000
24.82059 299.000
24.84054 330.000
24.86049 327.000
24.88043 345.000
24.90038 290.000
24.92033 316.000
24.94027 330.000
24.96022 299.000
24.98017 308.000
25.00012 340.000
25.02006 314.000
25.04001 342.000
25.05996 296.000
25.07990 291.000
25.09985 309.000
25.11980 346.000
25.13974 327.000
25.15969 313.000
25.17964 333.000
25.19958 342.000
25.21953 296.000
25.23948 322.000
25.25943 294.000
25.27937 308.000
25.29932 340.000
25.31927 377.000
25.33921 325.000
25.35916 340.000
25.37911 346.000
25.39905 344.000
25.41900 323.000
25.43895 321.000
25.45890 361.000
25.47884 336.000
25.49879 309.000
25.51874 321.000
25.53868 329.000
25.55863 310.000
25.57858 318.000
25.59852 339.000
25.61847 317.000
25.63842 306.000
25.65837 324.000
25.67831 296.000
25.69826 329.000
25.71821 305.000
25.73815 344.000
25.75810 316.000
25.77805 348.000
25.79799 340.000
25.81794 298.000
25.83789 341.000
25.85783 336.000
25.87778 319.000
25.89773 316.000
25.91768 341.000
25.93762 344.000
25.95757 333.000
25.97752 320.000
25.99746 329.000
26.01741 359.000
26.03736 325.000
26.05730 344.000
26.07725 378.000
26.09720 351.000
26.11715 305.000
26.13709 340.000
26.15704 344.000
26.17699 332.000
26.19693 354.000
26.21688 328.000
26.23683 342.000
26.25677 370.000
26.27672 356.000
26.29667 387.000
26.31661 321.000
26.33656 335.000
26.35651 388.000
26.37646 355.000
26.39640 344.000
26.41635 323.000
26.43630 333.000
26.45624 340.000
26.47619 370.000
26.49614 348.000
26.51608 364.000
26.53603 329.000
26.55598 362.000
26.57593 368.000
26.59587 359.000
26.61582 326.000
26.63577 354.000
26.65571 406.000
26.67566 348.000
26.69561 375.000
26.71555 360.000
26.73550 353.000
26.75545 354.000
26.77539 354.000
26.79534 392.000
26.81529 348.000
26.83524 352.000
26.85518 362.000
26.87513 391.000
26.89508 361.000
26.91502 340.000
26.93497 356.000
26.95492 336.000
26.97486 382.000
26.99481 380.000
27.01476 363.000
27.03471 336.000
27.05465 371.000
27.07460 373.000
27.09455 384.000
27.11449 358.000
27.13444 349.000
27.15439 380.000
27.17433 378.000
27.19428 380.000
27.21423 386.000
27.23417 401.000
27.25412 387.000
27.27407 339.000
27.29402 398.000
27.31396 371.000
27.33391 377.000
27.35386 377.000
27.37380 350.000
27.39375 366.000
27.41370 370.000
27.43364 333.000
27.45359 358.000
27.47354 360.000
27.49349 398.000
27.51343 369.000
27.53338 394.000
27.55333 379.000
27.57327 367.000
27.59322 376.000
27.61317 339.000
27.63311 363.000
27.65306 393.000
27.67301 370.000
27.69296 378.000
27.71290 346.000
27.73285 345.000
27.75280 370.000
27.77274 367.000
27.79269 356.000
27.81264 377.000
27.83258 368.000
27.85253 398.000
27.87248 361.000
27.89242 401.000
27.91237 390.000
27.93232 377.000
27.95227 371.000
27.97221 389.000
27.99216 350.000
28.01211 363.000
28.03205 362.000
28.05200 363.000
28.07195 394.000
28.09189 377.000
28.11184 392.000
28.13179 373.000
28.15174 348.000
28.17168 379.000
28.19163 367.000
28.21158 367.000
28.23152 368.000
28.25147 414.000
28.27142 359.000
28.29136 414.000
28.31131 384.000
28.33126 360.000
28.35120 339.000
28.37115 365.000
28.39110 393.000
28.41105 403.000
28.43099 383.000
28.45094 332.000
28.47089 408.000
28.49083 408.000
28.51078 373.000
28.53073 378.000
28.55067 372.000
28.57062 370.000
28.59057 379.000
28.61052 427.000
28.63046 409.000
28.65041 398.000
28.67036 351.000
28.69030 389.000
28.71025 350.000
28.73020 449.000
28.75014 404.000
28.77009 393.000
28.79004 372.000
28.80998 406.000
28.82993 395.000
28.84988 398.000
28.86983 386.000
28.88977 357.000
28.90972 382.000
28.92967 403.000
28.94961 392.000
28.96956 383.000
28.98951 383.000
29.00945 413.000
29.02940 413.000
29.04935 390.000
29.06930 418.000
29.08924 371.000
29.10919 385.000
29.12914 431.000
29.14908 432.000
29.16903 395.000
29.18898 411.000
29.20892 368.000
29.22887 394.000
29.24882 383.000
29.26877 416.000
29.28871 400.000
29.30866 401.000
29.32861 412.000
29.34855 383.000
29.36850 422.000
29.38845 385.000
29.40839 384.000
29.42834 466.000
29.44829 403.000
29.46823 435.000
29.48818 437.000
29.50813 411.000
29.52808 414.000
29.54802 457.000
29.56797 444.000
29.58792 462.000
29.60786 420.000
29.62781 446.000
29.64776 442.000
29.66770 423.000
29.68765 414.000
29.70760 421.000
29.72755 401.000
29.74749 410.000
29.76744 417.000
29.78739 399.000
29.80733 384.000
29.82728 379.000
29.84723 420.000
29.86717 423.000
29.88712 417.000
29.90707 419.000
29.92701 403.000
29.94696 426.000
29.96691 403.000
29.98686 416.000
30.00680 408.000
30.02675 419.000
30.04670 429.000
30.06664 418.000
30.08659 412.000
30.10654 418.000
30.12648 459.000
30.14643 485.000
30.16638 491.000
30.18633 479.000
30.20627 533.000
30.22622 546.000
30.24617 578.000
30.26611 706.000
30.28606 775.000
30.30601 666.000
30.32595 649.000
30.34590 634.000
30.36585 595.000
30.38579 612.000
30.40574 469.000
30.42569 446.000
30.44564 455.000
30.46558 425.000
30.48553 448.000
30.50548 432.000
30.52542 415.000
30.54537 441.000
30.56532 422.000
30.58526 445.000
30.60521 426.000
30.62516 437.000
30.64511 426.000
30.66505 426.000
30.68500 394.000
30.70495 402.000
30.72489 402.000
30.74484 445.000
30.76479 437.000
30.78473 420.000
30.80468 450.000
30.82463 437.000
30.84458 432.000
30.86452 431.000
30.88447 429.000
30.90442 412.000
30.92436 411.000
30.94431 447.000
30.96426 396.000
30.98420 433.000
31.00415 446.000
31.02410 395.000
31.04404 368.000
31.06399 377.000
31.08394 430.000
31.10389 385.000
31.12383 450.000
31.14378 406.000
31.16373 392.000
31.18367 411.000
31.20362 421.000
31.22357 428.000
31.24351 393.000
31.26346 418.000
31.28341 425.000
31.30336 391.000
31.32330 408.000
31.34325 456.000
31.36320 432.000
31.38314 427.000
31.40309 409.000
31.42304 448.000
31.44298 434.000
31.46293 433.000
31.48288 399.000
31.50282 445.000
31.52277 395.000
31.54272 448.000
31.56267 395.000
31.58261 445.000
31.60256 419.000
31.62251 421.000
31.64245 393.000
31.66240 419.000
31.68235 384.000
31.70229 395.000
31.72224 405.000
31.74219 395.000
31.76214 404.000
31.78208 389.000
31.80203 419.000
31.82198 435.000
31.84192 379.000
31.86187 392.000
31.88182 396.000
31.90176 359.000
31.92171 427.000
31.94166 388.000
31.96160 382.000
31.98155 428.000
32.00150 392.000
32.02145 426.000
32.04139 421.000
32.06134 409.000
32.08129 391.000
32.10123 381.000
32.12118 385.000
32.14113 427.000
32.16107 395.000
32.18102 434.000
32.20097 424.000
32.22092 407.000
32.24086 375.000
32.26081 395.000
32.28076 427.000
32.30070 379.000
32.32065 378.000
32.34060 393.000
32.36054 397.000
32.38049 415.000
32.40044 416.000
32.42039 409.000
32.44033 419.000
32.46028 399.000
32.48023 400.000
32.50017 412.000
32.52012 376.000
32.54007 408.000
32.56001 388.000
32.57996 407.000
32.59991 420.000
32.61985 399.000
32.63980 395.000
32.65975 420.000
32.67970 402.000
32.69964 380.000
32.71959 388.000
32.73954 388.000
32.75948 392.000
32.77943 416.000
32.79938 382.000
32.81932 373.000
32.83927 410.000
32.85922 361.000
32.87917 399.000
32.89911 393.000
32.91906 421.000
32.93901 405.000
32.95895 378.000
32.97890 427.000
32.99885 402.000
33.01879 443.000
33.03874 406.000
33.05869 361.000
33.07863 403.000
33.09858 405.000
33.11853 382.000
33.13848 357.000
33.15842 377.000
33.17837 423.000
33.19832 386.000
33.21826 402.000
33.23821 408.000
33.25816 404.000
33.27810 358.000
33.29805 415.000
33.31800 415.000
33.33795 382.000
33.35789 380.000
33.37784 398.000
33.39779 393.000
33.41773 391.000
33.43768 425.000
33.45763 427.000
33.47757 389.000
33.49752 419.000
33.51747 416.000
33.53741 354.000
33.55736 412.000
33.57731 416.000
33.59726 430.000
33.61720 394.000
33.63715 406.000
33.65710 445.000
33.67704 452.000
33.69699 423.000
33.71694 395.000
33.73688 407.000
33.75683 471.000
33.77678 423.000
33.79673 382.000
33.81667 382.000
33.83662 407.000
33.85657 424.000
33.87651 419.000
33.89646 377.000
33.91641 400.000
33.93635 396.000
33.95630 448.000
33.97625 431.000
33.99620 427.000
34.01614 422.000
34.03609 397.000
34.05604 378.000
34.07598 441.000
34.09593 418.000
34.11588 443.000
34.13582 401.000
34.15577 426.000
34.17572 460.000
34.19566 420.000
34.21561 449.000
34.23556 478.000
34.25551 470.000
34.27545 478.000
34.29540 519.000
34.31535 506.000
34.33529 514.000
34.35524 505.000
34.37519 502.000
34.39513 514.000
34.41508 532.000
34.43503 608.000
34.45498 572.000
34.47492 575.000
34.49487 593.000
34.51482 628.000
34.53476 708.000
34.55471 672.000
34.57466 687.000
34.59460 781.000
34.61455 784.000
34.63450 789.000
34.65444 813.000
34.67439 829.000
34.69434 819.000
34.71429 851.000
34.73423 789.000
34.75418 776.000
34.77413 707.000
34.79407 654.000
34.81402 598.000
34.83397 608.000
34.85391 548.000
34.87386 492.000
34.89381 552.000
34.91376 484.000
34.93370 490.000
34.95365 467.000
34.97360 483.000
34.99354 425.000
35.01349 414.000
35.03344 418.000
35.05338 419.000
35.07333 422.000
35.09328 441.000
35.11322 475.000
35.13317 425.000
35.15312 491.000
35.17307 454.000
35.19301 464.000
35.21296 498.000
35.23291 438.000
35.25285 457.000
35.27280 457.000
35.29275 487.000
35.31269 459.000
35.33264 478.000
35.35259 490.000
35.37254 475.000
35.39248 443.000
35.41243 486.000
35.43238 443.000
35.45232 511.000
35.47227 526.000
35.49222 539.000
35.51216 553.000
35.53211 569.000
35.55206 567.000
35.57201 657.000
35.59195 742.000
35.61190 815.000
35.63185 1052.000
35.65179 1314.000
35.67174 1517.000
35.69169 1433.000
35.71163 1235.000
35.73158 1068.000
35.75153 1090.000
35.77147 988.000
35.79142 822.000
35.81137 755.000
35.83132 592.000
35.85126 490.000
35.87121 484.000
35.89116 481.000
35.91110 434.000
35.93105 438.000
35.95100 410.000
35.97094 408.000
35.99089 415.000
36.01084 400.000
36.03079 434.000
36.05073 427.000
36.07068 406.000
36.09063 412.000
36.11057 393.000
36.13052 409.000
36.15047 449.000
36.17041 430.000
36.19036 418.000
36.21031 438.000
36.23025 451.000
36.25020 455.000
36.27015 441.000
36.29010 421.000
36.31004 474.000
36.32999 439.000
36.34994 486.000
36.36988 479.000
36.38983 458.000
36.40978 485.000
36.42972 499.000
36.44967 526.000
36.46962 456.000
36.48957 431.000
36.50951 537.000
36.52946 501.000
36.54941 535.000
36.56935 513.000
36.58930 600.000
36.60925 576.000
36.62919 609.000
36.64914 609.000
36.66909 583.000
36.68903 598.000
36.70898 628.000
36.72893 595.000
36.74888 572.000
36.76882 578.000
36.78877 573.000
36.80872 593.000
36.82866 577.000
36.84861 589.000
36.86856 600.000
36.88850 646.000
36.90845 663.000
36.92840 702.000
36.94835 837.000
36.96829 948.000
36.98824 1192.000
37.00819 1357.000
37.02813 1675.000
37.04808 2175.000
37.06803 2767.000
37.08797 3397.000
37.10792 3995.000
37.12787 4359.000
37.14781 4426.000
37.16776 4090.000
37.18771 3682.000
37.20766 3284.000
37.22760 3032.000
37.24755 2520.000
37.26750 1904.000
37.28744 1568.000
37.30739 1170.000
37.32734 913.000
37.34728 702.000
37.36723 626.000
37.38718 575.000
37.40713 522.000
37.42707 476.000
37.44702 501.000
37.46697 461.000
37.48691 466.000
37.50686 452.000
37.52681 379.000
37.54675 405.000
37.56670 408.000
37.58665 385.000
37.60660 386.000
37.62654 401.000
37.64649 370.000
37.66644 403.000
37.68638 412.000
37.70633 374.000
37.72628 387.000
37.74622 385.000
37.76617 387.000
37.78612 371.000
37.80606 392.000
37.82601 352.000
37.84596 398.000
37.86591 415.000
37.88585 390.000
37.90580 365.000
37.92575 385.000
37.94569 370.000
37.96564 363.000
37.98559 387.000
38.00553 391.000
38.02548 362.000
38.04543 387.000
38.06538 380.000
38.08532 373.000
38.10527 365.000
38.12522 388.000
38.14516 363.000
38.16511 394.000
38.18506 382.000
38.20500 362.000
38.22495 362.000
38.24490 363.000
38.26484 383.000
38.28479 377.000
38.30474 370.000
38.32469 372.000
38.34463 405.000
38.36458 342.000
38.38453 366.000
38.40447 385.000
38.42442 380.000
38.44437 387.000
38.46431 381.000
38.48426 381.000
38.50421 334.000
38.52416 382.000
38.54410 373.000
38.56405 378.000
38.58400 352.000
38.60394 336.000
38.62389 373.000
38.64384 394.000
38.66378 389.000
38.68373 384.000
38.70368 325.000
38.72362 380.000
38.74357 381.000
38.76352 353.000
38.78347 387.000
38.80341 400.000
38.82336 370.000
38.84331 385.000
38.86325 374.000
38.88320 393.000
38.90315 366.000
38.92309 389.000
38.94304 363.000
38.96299 378.000
38.98294 389.000
39.00288 356.000
39.02283 367.000
39.04278 349.000
39.06272 335.000
39.08267 378.000
39.10262 342.000
39.12256 326.000
39.14251 371.000
39.16246 376.000
39.18241 375.000
39.20235 382.000
39.22230 345.000
39.24225 356.000
39.26219 362.000
39.28214 375.000
39.30209 406.000
39.32203 414.000
39.34198 349.000
39.36193 356.000
39.38187 359.000
39.40182 374.000
39.42177 358.000
39.44172 353.000
39.46166 371.000
39.48161 321.000
39.50156 382.000
39.52150 371.000
39.54145 362.000
39.56140 369.000
39.58134 349.000
39.60129 391.000
39.62124 377.000
39.64119 397.000
39.66113 395.000
39.68108 371.000
39.70103 348.000
39.72097 327.000
39.74092 371.000
39.76087 323.000
39.78081 350.000
39.80076 372.000
39.82071 351.000
39.84065 337.000
39.86060 379.000
39.88055 347.000
39.90050 342.000
39.92044 358.000
39.94039 363.000
39.96034 372.000
39.98028 385.000
40.00023 375.000
40.02018 375.000
40.04012 362.000
40.06007 370.000
40.08002 384.000
40.09997 370.000
40.11991 346.000
40.13986 346.000
40.15981 351.000
40.17975 380.000
40.19970 378.000
40.21965 372.000
40.23959 401.000
40.25954 367.000
40.27949 349.000
40.29943 357.000
40.31938 367.000
40.33933 347.000
40.35928 363.000
40.37922 357.000
40.39917 345.000
40.41912 359.000
40.43906 395.000
40.45901 348.000
40.47896 371.000
40.49890 326.000
40.51885 360.000
40.53880 397.000
40.55875 388.000
40.57869 341.000
40.59864 366.000
40.61859 372.000
40.63853 367.000
40.65848 342.000
40.67843 346.000
40.69837 389.000
40.71832 369.000
40.73827 348.000
40.75822 405.000
40.77816 358.000
40.79811 336.000
40.81806 357.000
40.83800 379.000
40.85795 363.000
40.87790 360.000
40.89784 391.000
40.91779 367.000
40.93774 363.000
40.95768 380.000
40.97763 354.000
40.99758 369.000
41.01753 352.000
41.03747 351.000
41.05742 353.000
41.07737 363.000
41.09731 374.000
41.11726 361.000
41.13721 325.000
41.15715 385.000
41.17710 347.000
41.19705 337.000
41.21700 371.000
41.23694 381.000
41.25689 326.000
41.27684 337.000
41.29678 349.000
41.31673 373.000
41.33668 346.000
41.35662 356.000
41.37657 366.000
41.39652 343.000
41.41646 365.000
41.43641 367.000
41.45636 377.000
41.47631 341.000
41.49625 327.000
41.51620 368.000
41.53615 361.000
41.55609 363.000
41.57604 342.000
41.59599 374.000
41.61593 381.000
41.63588 333.000
41.65583 368.000
41.67578 391.000
41.69572 377.000
41.71567 405.000
41.73562 349.000
41.75556 400.000
41.77551 367.000
41.79546 355.000
41.81540 373.000
41.83535 390.000
41.85530 341.000
41.87524 380.000
41.89519 383.000
41.91514 392.000
41.93509 385.000
41.95503 374.000
41.97498 367.000
41.99493 420.000
42.01487 397.000
42.03482 356.000
42.05477 416.000
42.07471 375.000
42.09466 396.000
42.11461 366.000
42.13456 444.000
42.15450 418.000
42.17445 424.000
42.19440 386.000
42.21434 442.000
42.23429 444.000
42.25424 400.000
42.27418 508.000
42.29413 463.000
42.31408 474.000
42.33403 467.000
42.35397 471.000
42.37392 471.000
42.39387 501.000
42.41381 497.000
42.43376 536.000
42.45371 503.000
42.47365 527.000
42.49360 575.000
42.51355 522.000
42.53349 529.000
42.55344 600.000
42.57339 622.000
42.59334 617.000
42.61328 669.000
42.63323 704.000
42.65318 728.000
42.67312 741.000
42.69307 772.000
42.71302 784.000
42.73296 837.000
42.75291 810.000
42.77286 872.000
42.79281 866.000
42.81275 927.000
42.83270 926.000
42.85265 986.000
42.87259 1059.000
42.89254 1034.000
42.91249 1149.000
42.93243 1288.000
42.95238 1466.000
42.97233 1629.000
42.99227 1849.000
43.01222 2168.000
43.03217 2552.000
43.05212 2863.000
43.07206 3298.000
43.09201 3933.000
43.11196 4268.000
43.13190 4718.000
43.15185 5112.000
43.17180 5192.000
43.19174 5051.000
43.21169 4845.000
43.23164 4621.000
43.25159 4045.000
43.27153 3496.000
43.29148 3132.000
43.31143 2759.000
43.33137 2294.000
43.35132 2021.000
43.37127 1624.000
43.39121 1248.000
43.41116 1065.000
43.43111 954.000
43.45105 820.000
43.47100 725.000
43.49095 688.000
43.51090 624.000
43.53084 559.000
43.55079 541.000
43.57074 525.000
43.59068 464.000
43.61063 461.000
43.63058 445.000
43.65052 438.000
43.67047 434.000
43.69042 457.000
43.71037 420.000
43.73031 434.000
43.75026 381.000
43.77021 395.000
43.79015 416.000
43.81010 423.000
43.83005 416.000
43.84999 407.000
43.86994 373.000
43.88989 401.000
43.90984 385.000
43.92978 363.000
43.94973 372.000
43.96968 382.000
43.98962 371.000
44.00957 400.000
44.02952 357.000
44.04946 393.000
44.06941 358.000
44.08936 339.000
44.10930 349.000
44.12925 408.000
44.14920 344.000
44.16915 388.000
44.18909 375.000
44.20904 368.000
44.22899 349.000
44.24893 357.000
44.26888 373.000
44.28883 365.000
44.30877 336.000
44.32872 381.000
44.34867 336.000
44.36862 363.000
44.38856 373.000
44.40851 341.000
44.42846 348.000
44.44840 339.000
44.46835 357.000
44.48830 349.000
44.50824 379.000
44.52819 386.000
44.54814 358.000
44.56808 345.000
44.58803 345.000
44.60798 357.000
44.62793 343.000
44.64787 353.000
44.66782 347.000
44.68777 331.000
44.70771 365.000
44.72766 368.000
44.74761 338.000
44.76755 374.000
44.78750 350.000
44.80745 362.000
44.82740 306.000
44.84734 348.000
44.86729 356.000
44.88724 360.000
44.90718 319.000
44.92713 329.000
44.94708 367.000
44.96702 307.000
44.98697 334.000
45.00692 362.000
45.02686 376.000
45.04681 357.000
45.06676 346.000
45.08671 359.000
45.10665 309.000
45.12660 341.000
45.14655 353.000
45.16649 334.000
45.18644 333.000
45.20639 315.000
45.22633 329.000
45.24628 352.000
45.26623 340.000
45.28618 351.000
45.30612 343.000
45.32607 344.000
45.34602 382.000
45.36596 324.000
45.38591 329.000
45.40586 360.000
45.42580 381.000
45.44575 342.000
45.46570 325.000
45.48565 354.000
45.50559 320.000
45.52554 317.000
45.54549 345.000
45.56543 336.000
45.58538 332.000
45.60533 352.000
45.62527 298.000
45.64522 324.000
45.66517 355.000
45.68511 317.000
45.70506 363.000
45.72501 357.000
45.74496 303.000
45.76490 368.000
45.78485 328.000
45.80480 318.000
45.82474 331.000
45.84469 299.000
45.86464 323.000
45.88458 359.000
45.90453 350.000
45.92448 340.000
45.94443 341.000
45.96437 316.000
45.98432 358.000
46.00427 292.000
46.02421 362.000
46.04416 312.000
46.06411 318.000
46.08405 344.000
46.10400 324.000
46.12395 345.000
46.14389 332.000
46.16384 325.000
46.18379 308.000
46.20374 329.000
46.22368 319.000
46.24363 319.000
46.26358 327.000
46.28352 299.000
46.30347 335.000
46.32342 338.000
46.34336 286.000
46.36331 332.000
46.38326 316.000
46.40321 338.000
46.42315 308.000
46.44310 320.000
46.46305 298.000
46.48299 319.000
46.50294 321.000
46.52289 300.000
46.54283 343.000
46.56278 328.000
46.58273 335.000
46.60267 317.000
46.62262 342.000
46.64257 307.000
46.66252 331.000
46.68246 313.000
46.70241 332.000
46.72236 327.000
46.74230 337.000
46.76225 355.000
46.78220 340.000
46.80214 297.000
46.82209 317.000
46.84204 330.000
46.86199 306.000
46.88193 325.000
46.90188 333.000
46.92183 334.000
46.94177 324.000
46.96172 313.000
46.98167 304.000
47.00161 337.000
47.02156 317.000
47.04151 331.000
47.06146 283.000
47.08140 327.000
47.10135 303.000
47.12130 321.000
47.14124 339.000
47.16119 305.000
47.18114 340.000
47.20108 310.000
47.22103 338.000
47.24098 304.000
47.26092 319.000
47.28087 319.000
47.30082 345.000
47.32077 329.000
47.34071 305.000
47.36066 327.000
47.38061 303.000
47.40055 349.000
47.42050 342.000
47.44045 374.000
47.46039 304.000
47.48034 329.000
47.50029 330.000
47.52024 372.000
47.54018 327.000
47.56013 348.000
47.58008 322.000
47.60002 340.000
47.61997 310.000
47.63992 302.000
47.65986 293.000
47.67981 317.000
47.69976 297.000
47.71970 343.000
47.73965 330.000
47.75960 307.000
47.77955 336.000
47.79949 327.000
47.81944 324.000
47.83939 333.000
47.85933 316.000
47.87928 353.000
47.89923 335.000
47.91917 307.000
47.93912 323.000
47.95907 270.000
47.97902 341.000
47.99896 323.000
48.01891 312.000
48.03886 320.000
48.05880 332.000
48.07875 307.000
48.09870 314.000
48.11864 316.000
48.13859 339.000
48.15854 308.000
48.17848 303.000
48.19843 324.000
48.21838 323.000
48.23833 337.000
48.25827 308.000
48.27822 296.000
48.29817 326.000
48.31811 318.000
48.33806 328.000
48.35801 313.000
48.37795 311.000
48.39790 357.000
48.41785 305.000
48.43780 311.000
48.45774 284.000
48.47769 306.000
48.49764 295.000
48.51758 309.000
48.53753 317.000
48.55748 298.000
48.57742 326.000
48.59737 304.000
48.61732 322.000
48.63726 292.000
48.65721 308.000
48.67716 311.000
48.69711 316.000
48.71705 340.000
48.73700 338.000
48.75695 310.000
48.77689 318.000
48.79684 321.000
48.81679 309.000
48.83673 319.000
48.85668 337.000
48.87663 317.000
48.89658 330.000
48.91652 363.000
48.93647 288.000
48.95642 332.000
48.97636 305.000
48.99631 309.000
49.01626 323.000
49.03620 306.000
49.05615 330.000
49.07610 329.000
49.09605 326.000
49.11599 332.000
49.13594 296.000
49.15589 299.000
49.17583 347.000
49.19578 320.000
49.21573 316.000
49.23567 302.000
49.25562 325.000
49.27557 336.000
49.29551 337.000
49.31546 334.000
49.33541 342.000
49.35536 338.000
49.37530 316.000
49.39525 351.000
49.41520 332.000
49.43514 359.000
49.45509 323.000
49.47504 350.000
49.49498 327.000
49.51493 347.000
49.53488 306.000
49.55483 320.000
49.57477 344.000
49.59472 325.000
49.61467 335.000
49.63461 345.000
49.65456 381.000
49.67451 311.000
49.69445 352.000
49.71440 368.000
49.73435 316.000
49.75429 341.000
49.77424 359.000
49.79419 339.000
49.81414 350.000
49.83408 317.000
49.85403 322.000
49.87398 339.000
49.89392 358.000
49.91387 372.000
49.93382 343.000
49.95376 354.000
49.97371 347.000
49.99366 358.000
50.01361 311.000
50.03355 330.000
50.05350 316.000
50.07345 321.000
50.09339 338.000
50.11334 319.000
50.13329 334.000
50.15323 352.000
50.17318 333.000
50.19313 308.000
50.21307 336.000
50.23302 326.000
50.25297 313.000
50.27292 315.000
50.29286 328.000
50.31281 326.000
50.33276 332.000
50.35270 302.000
50.37265 286.000
50.39260 349.000
50.41254 301.000
50.43249 298.000
50.45244 299.000
50.47239 337.000
50.49233 299.000
50.51228 332.000
50.53223 296.000
50.55217 297.000
50.57212 325.000
50.59207 342.000
50.61201 322.000
50.63196 303.000
50.65191 300.000
50.67186 297.000
50.69180 320.000
50.71175 316.000
50.73170 311.000
50.75164 299.000
50.77159 300.000
50.79154 311.000
50.81148 295.000
50.83143 287.000
50.85138 309.000
50.87132 330.000
50.89127 276.000
50.91122 320.000
50.93117 318.000
50.95111 327.000
50.97106 275.000
50.99101 308.000
51.01095 306.000
51.03090 298.000
51.05085 295.000
51.07079 309.000
51.09074 315.000
51.11069 302.000
51.13064 304.000
51.15058 320.000
51.17053 287.000
51.19048 288.000
51.21042 311.000
51.23037 296.000
51.25032 296.000
51.27026 349.000
51.29021 325.000
51.31016 291.000
51.33010 286.000
51.35005 294.000
51.37000 305.000
51.38995 305.000
51.40989 296.000
51.42984 340.000
51.44979 278.000
51.46973 311.000
51.48968 307.000
51.50963 298.000
51.52957 323.000
51.54952 294.000
51.56947 342.000
51.58942 291.000
51.60936 312.000
51.62931 315.000
51.64926 313.000
51.66920 311.000
51.68915 302.000
51.70910 309.000
51.72904 301.000
51.74899 324.000
51.76894 297.000
51.78888 307.000
51.80883 308.000
51.82878 307.000
51.84873 297.000
51.86867 306.000
51.88862 298.000
51.90857 289.000
51.92851 288.000
51.94846 290.000
51.96841 325.000
51.98835 290.000
52.00830 333.000
52.02825 311.000
52.04820 289.000
52.06814 306.000
52.08809 297.000
52.10804 297.000
52.12798 306.000
52.14793 320.000
52.16788 293.000
52.18782 310.000
52.20777 266.000
52.22772 321.000
52.24767 343.000
52.26761 302.000
52.28756 313.000
52.30751 343.000
52.32745 301.000
52.34740 290.000
52.36735 302.000
52.38729 285.000
52.40724 323.000
52.42719 327.000
52.44713 314.000
52.46708 331.000
52.48703 300.000
52.50698 304.000
52.52692 321.000
52.54687 294.000
52.56682 283.000
52.58676 298.000
52.60671 316.000
52.62666 312.000
52.64660 307.000
52.66655 311.000
52.68650 296.000
52.70645 327.000
52.72639 299.000
52.74634 300.000
52.76629 323.000
52.78623 256.000
52.80618 313.000
52.82613 291.000
52.84607 285.000
52.86602 298.000
52.88597 305.000
52.90591 301.000
52.92586 272.000
52.94581 288.000
52.96576 306.000
52.98570 343.000
53.00565 300.000
53.02560 295.000
53.04554 301.000
53.06549 319.000
53.08544 309.000
53.10538 328.000
53.12533 281.000
53.14528 283.000
53.16523 274.000
53.18517 322.000
53.20512 300.000
53.22507 287.000
53.24501 325.000
53.26496 328.000
53.28491 320.000
53.30485 286.000
53.32480 311.000
53.34475 306.000
53.36469 330.000
53.38464 313.000
53.40459 301.000
53.42454 295.000
53.44448 299.000
53.46443 303.000
53.48438 309.000
53.50432 357.000
53.52427 312.000
53.54422 295.000
53.56416 324.000
53.58411 310.000
53.60406 295.000
53.62401 326.000
53.64395 314.000
53.66390 290.000
53.68385 334.000
53.70379 336.000
53.72374 390.000
53.74369 348.000
53.76363 349.000
53.78358 376.000
53.80353 391.000
53.82348 379.000
53.84342 371.000
53.86337 354.000
53.88332 357.000
53.90326 342.000
53.92321 385.000
53.94316 379.000
53.96310 373.000
53.98305 369.000
54.00300 330.000
54.02294 322.000
54.04289 307.000
54.06284 299.000
54.08279 330.000
54.10273 282.000
54.12268 328.000
54.14263 309.000
54.16257 334.000
54.18252 332.000
54.20247 304.000
54.22241 307.000
54.24236 284.000
54.26231 309.000
54.28226 322.000
54.30220 307.000
54.32215 348.000
54.34210 316.000
54.36204 296.000
54.38199 300.000
54.40194 293.000
54.42188 316.000
54.44183 339.000
54.46178 312.000
54.48172 330.000
54.50167 290.000
54.52162 294.000
54.54157 313.000
54.56151 321.000
54.58146 335.000
54.60141 345.000
54.62135 301.000
54.64130 320.000
54.66125 291.000
54.68119 307.000
54.70114 332.000
54.72109 303.000
54.74104 316.000
54.76098 314.000
54.78093 301.000
54.80088 300.000
54.82082 302.000
54.84077 298.000
54.86072 356.000
54.88066 317.000
54.90061 325.000
54.92056 279.000
54.94050 290.000
54.96045 283.000
54.98040 326.000
55.00035 294.000
55.02029 305.000
55.04024 321.000
55.06019 302.000
55.08013 294.000
55.10008 313.000
55.12003 300.000
55.13997 279.000
55.15992 314.000
55.17987 309.000
55.19982 325.000
55.21976 285.000
55.23971 291.000
55.25966 316.000
55.27960 301.000
55.29955 299.000
55.31950 292.000
55.33944 301.000
55.35939 292.000
55.37934 284.000
55.39929 290.000
55.41923 322.000
55.43918 311.000
55.45913 319.000
55.47907 337.000
55.49902 293.000
55.51897 279.000
55.53891 309.000
55.55886 304.000
55.57881 314.000
55.59875 300.000
55.61870 269.000
55.63865 302.000
55.65860 307.000
55.67854 294.000
55.69849 263.000
55.71844 284.000
55.73838 318.000
55.75833 290.000
55.77828 309.000
55.79822 315.000
55.81817 313.000
55.83812 292.000
55.85807 292.000
55.87801 312.000
55.89796 298.000
55.91791 293.000
55.93785 306.000
55.95780 308.000
55.97775 319.000
55.99769 299.000
56.01764 301.000
56.03759 318.000
56.05753 334.000
56.07748 302.000
56.09743 320.000
56.11738 308.000
56.13732 312.000
56.15727 299.000
56.17722 297.000
56.19716 330.000
56.21711 314.000
56.23706 338.000
56.25700 282.000
56.27695 318.000
56.29690 314.000
56.31685 310.000
56.33679 299.000
56.35674 270.000
56.37669 335.000
56.39663 330.000
56.41658 330.000
56.43653 306.000
56.45647 317.000
56.47642 329.000
56.49637 310.000
56.51631 335.000
56.53626 304.000
56.55621 319.000
56.57616 330.000
56.59610 301.000
56.61605 306.000
56.63600 298.000
56.65594 289.000
56.67589 324.000
56.69584 312.000
56.71578 309.000
56.73573 318.000
56.75568 323.000
56.77563 316.000
56.79557 305.000
56.81552 299.000
56.83547 344.000
56.85541 292.000
56.87536 311.000
56.89531 351.000
56.91525 355.000
56.93520 357.000
56.95515 362.000
56.97510 328.000
56.99504 351.000
57.01499 314.000
57.03494 354.000
57.05488 321.000
57.07483 339.000
57.09478 324.000
57.11472 385.000
57.13467 380.000
57.15462 361.000
57.17456 351.000
57.19451 368.000
57.21446 397.000
57.23441 364.000
57.25435 382.000
57.27430 362.000
57.29425 443.000
57.31419 485.000
57.33414 511.000
57.35409 553.000
57.37403 580.000
57.39398 542.000
57.41393 514.000
57.43388 466.000
57.45382 447.000
57.47377 426.000
57.49372 474.000
57.51366 445.000
57.53361 437.000
57.55356 406.000
57.57350 398.000
57.59345 366.000
57.61340 357.000
57.63334 357.000
57.65329 317.000
57.67324 324.000
57.69319 365.000
57.71313 356.000
57.73308 332.000
57.75303 334.000
57.77297 329.000
57.79292 302.000
57.81287 278.000
57.83281 277.000
57.85276 348.000
57.87271 295.000
57.89266 306.000
57.91260 294.000
57.93255 297.000
57.95250 330.000
57.97244 336.000
57.99239 294.000
58.01234 291.000
58.03228 291.000
58.05223 301.000
58.07218 328.000
58.09212 314.000
58.11207 326.000
58.13202 303.000
58.15197 325.000
58.17191 300.000
58.19186 312.000
58.21181 284.000
58.23175 282.000
58.25170 322.000
58.27165 293.000
58.29159 294.000
58.31154 302.000
58.33149 305.000
58.35144 276.000
58.37138 317.000
58.39133 321.000
58.41128 320.000
58.43122 338.000
58.45117 324.000
58.47112 310.000
58.49106 305.000
58.51101 319.000
58.53096 299.000
58.55090 304.000
58.57085 282.000
58.59080 305.000
58.61075 320.000
58.63069 295.000
58.65064 302.000
58.67059 304.000
58.69053 304.000
58.71048 316.000
58.73043 306.000
58.75037 309.000
58.77032 343.000
58.79027 312.000
58.81022 320.000
58.83016 278.000
58.85011 320.000
58.87006 313.000
58.89000 303.000
58.90995 264.000
58.92990 323.000
58.94984 320.000
58.96979 270.000
58.98974 312.000
59.00969 323.000
59.02963 278.000
59.04958 307.000
59.06953 329.000
59.08947 319.000
59.10942 316.000
59.12937 332.000
59.14931 276.000
59.16926 301.000
59.18921 298.000
59.20915 312.000
59.22910 302.000
59.24905 303.000
59.26900 296.000
59.28894 287.000
59.30889 325.000
59.32884 321.000
59.34878 295.000
59.36873 289.000
59.38868 292.000
59.40862 324.000
59.42857 309.000
59.44852 286.000
59.46847 296.000
59.48841 315.000
59.50836 298.000
59.52831 317.000
59.54825 287.000
59.56820 301.000
59.58815 312.000
59.60809 305.000
59.62804 339.000
59.64799 339.000
59.66793 325.000
59.68788 316.000
59.70783 319.000
59.72778 302.000
59.74772 319.000
59.76767 311.000
59.78762 328.000
59.80756 294.000
59.82751 307.000
59.84746 320.000
59.86740 315.000
59.88735 296.000
59.90730 304.000
59.92725 329.000
59.94719 327.000
59.96714 328.000
59.98709 298.000
60.00703 284.000
60.02698 341.000
60.04693 308.000
60.06687 326.000
60.08682 294.000
60.10677 303.000
60.12671 315.000
60.14666 284.000
60.16661 312.000
60.18656 307.000
60.20650 276.000
60.22645 303.000
60.24640 302.000
60.26634 305.000
60.28629 296.000
60.30624 314.000
60.32618 327.000
60.34613 310.000
60.36608 302.000
60.38603 344.000
60.40597 292.000
60.42592 301.000
60.44587 332.000
60.46581 329.000
60.48576 309.000
60.50571 291.000
60.52565 301.000
60.54560 278.000
60.56555 318.000
60.58550 312.000
60.60544 304.000
60.62539 307.000
60.64534 319.000
60.66528 298.000
60.68523 332.000
60.70518 318.000
60.72512 324.000
60.74507 316.000
60.76502 308.000
60.78496 323.000
60.80491 302.000
60.82486 313.000
60.84481 319.000
60.86475 343.000
60.88470 289.000
60.90465 312.000
60.92459 293.000
60.94454 274.000
60.96449 317.000
60.98443 314.000
61.00438 340.000
61.02433 304.000
61.04428 332.000
61.06422 318.000
61.08417 319.000
61.10412 310.000
61.12406 311.000
61.14401 319.000
61.16396 329.000
61.18390 300.000
61.20385 309.000
61.22380 300.000
61.24374 321.000
61.26369 295.000
61.28364 288.000
61.30359 307.000
61.32353 334.000
61.34348 329.000
61.36343 313.000
61.38337 311.000
61.40332 320.000
61.42327 347.000
61.44321 308.000
61.46316 313.000
61.48311 334.000
61.50306 341.000
61.52300 377.000
61.54295 337.000
61.56290 333.000
61.58284 343.000
61.60279 337.000
61.62274 349.000
61.64268 344.000
61.66263 367.000
61.68258 338.000
61.70252 361.000
61.72247 376.000
61.74242 364.000
61.76237 360.000
61.78231 375.000
61.80226 379.000
61.82221 406.000
61.84215 400.000
61.86210 418.000
61.88205 398.000
61.90199 422.000
61.92194 428.000
61.94189 425.000
61.96184 410.000
61.98178 406.000
62.00173 433.000
62.02168 469.000
62.04162 459.000
62.06157 493.000
62.08152 461.000
62.10146 524.000
62.12141 512.000
62.14136 534.000
62.16131 591.000
62.18125 567.000
62.20120 632.000
62.22115 629.000
62.24109 645.000
62.26104 618.000
62.28099 701.000
62.30093 713.000
62.32088 755.000
62.34083 733.000
62.36077 768.000
62.38072 807.000
62.40067 815.000
62.42062 900.000
62.44056 930.000
62.46051 1052.000
62.48046 1073.000
62.50040 1114.000
62.52035 1340.000
62.54030 1388.000
62.56024 1672.000
62.58019 1770.000
62.60014 1936.000
62.62009 2051.000
62.64003 2245.000
62.65998 2351.000
62.67993 2403.000
62.69987 2266.000
62.71982 2289.000
62.73977 2175.000
62.75971 2093.000
62.77966 2033.000
62.79961 1907.000
62.81955 1827.000
62.83950 1733.000
62.85945 1635.000
62.87940 1480.000
62.89934 1393.000
62.91929 1234.000
62.93924 1183.000
62.95918 1058.000
62.97913 991.000
62.99908 1039.000
63.01902 870.000
63.03897 841.000
63.05892 683.000
63.07887 626.000
63.09881 612.000
63.11876 593.000
63.13871 582.000
63.15865 531.000
63.17860 503.000
63.19855 541.000
63.21849 540.000
63.23844 446.000
63.25839 448.000
63.27833 433.000
63.29828 375.000
63.31823 391.000
63.33818 363.000
63.35812 349.000
63.37807 364.000
63.39802 299.000
63.41796 389.000
63.43791 340.000
63.45786 340.000
63.47780 345.000
63.49775 336.000
63.51770 377.000
63.53765 328.000
63.55759 342.000
63.57754 329.000
63.59749 343.000
63.61743 306.000
63.63738 333.000
63.65733 341.000
63.67727 331.000
63.69722 330.000
63.71717 297.000
63.73712 307.000
63.75706 280.000
63.77701 329.000
63.79696 313.000
63.81690 350.000
63.83685 360.000
63.85680 295.000
63.87674 370.000
63.89669 300.000
63.91664 307.000
63.93658 311.000
63.95653 295.000
63.97648 317.000
63.99643 306.000
64.01637 283.000
64.03632 294.000
64.05627 315.000
64.07621 311.000
64.09616 309.000
64.11611 310.000
64.13605 326.000
64.15600 284.000
64.17595 322.000
64.19590 323.000
64.21584 304.000
64.23579 304.000
64.25574 319.000
64.27568 313.000
64.29563 316.000
64.31558 284.000
64.33552 314.000
64.35547 329.000
64.37542 330.000
64.39536 310.000
64.41531 305.000
64.43526 312.000
64.45521 300.000
64.47515 274.000
64.49510 312.000
64.51505 290.000
64.53499 285.000
64.55494 305.000
64.57489 274.000
64.59483 314.000
64.61478 338.000
64.63473 300.000
64.65468 263.000
64.67462 317.000
64.69457 319.000
64.71452 306.000
64.73446 303.000
64.75441 314.000
64.77436 305.000
64.79430 338.000
64.81425 260.000
64.83420 301.000
64.85414 289.000
64.87409 297.000
64.89404 295.000
64.91399 331.000
64.93393 334.000
64.95388 327.000
64.97383 265.000
64.99377 317.000
65.01372 327.000
65.03367 344.000
65.05361 303.000
65.07356 293.000
65.09351 298.000
65.11346 296.000
65.13340 310.000
65.15335 306.000
65.17330 285.000
65.19324 329.000
65.21319 320.000
65.23314 287.000
65.25308 299.000
65.27303 290.000
65.29298 302.000
65.31293 294.000
65.33287 319.000
65.35282 283.000
65.37277 289.000
65.39271 313.000
65.41266 288.000
65.43261 343.000
65.45255 291.000
65.47250 284.000
65.49245 302.000
65.51239 343.000
65.53234 339.000
65.55229 330.000
65.57224 316.000
65.59218 335.000
65.61213 298.000
65.63208 307.000
65.65202 310.000
65.67197 300.000
65.69192 300.000
65.71186 324.000
65.73181 323.000
65.75176 327.000
65.77171 292.000
65.79165 320.000
65.81160 302.000
65.83155 309.000
65.85149 291.000
65.87144 338.000
65.89139 342.000
65.91133 278.000
65.93128 309.000
65.95123 339.000
65.97117 346.000
65.99112 307.000
66.01107 317.000
66.03102 301.000
66.05096 287.000
66.07091 290.000
66.09086 311.000
66.11080 284.000
66.13075 278.000
66.15070 288.000
66.17064 305.000
66.19059 304.000
66.21054 321.000
66.23049 301.000
66.25043 326.000
66.27038 313.000
66.29033 300.000
66.31027 335.000
66.33022 330.000
66.35017 305.000
66.37011 297.000
66.39006 313.000
66.41001 321.000
66.42995 288.000
66.44990 299.000
66.46985 305.000
66.48980 312.000
66.50974 318.000
66.52969 303.000
66.54964 334.000
66.56958 307.000
66.58953 292.000
66.60948 316.000
66.62942 314.000
66.64937 308.000
66.66932 287.000
66.68927 308.000
66.70921 316.000
66.72916 314.000
66.74911 290.000
66.76905 309.000
66.78900 278.000
66.80895 302.000
66.82889 296.000
66.84884 323.000
66.86879 305.000
66.88874 281.000
66.90868 314.000
66.92863 267.000
66.94858 290.000
66.96852 259.000
66.98847 292.000
67.00842 345.000
67.02836 282.000
67.04831 302.000
67.06826 290.000
67.08820 295.000
67.10815 285.000
67.12810 287.000
67.14805 301.000
67.16799 325.000
67.18794 312.000
67.20789 297.000
67.22783 310.000
67.24778 288.000
67.26773 305.000
67.28767 286.000
67.30762 308.000
67.32757 294.000
67.34752 316.000
67.36746 320.000
67.38741 306.000
67.40736 325.000
67.42730 290.000
67.44725 287.000
67.46720 299.000
67.48714 308.000
67.50709 290.000
67.52704 304.000
67.54698 290.000
67.56693 275.000
67.58688 292.000
67.60683 300.000
67.62677 292.000
67.64672 299.000
67.66667 299.000
67.68661 297.000
67.70656 290.000
67.72651 306.000
67.74645 298.000
67.76640 290.000
67.78635 313.000
67.80630 284.000
67.82624 310.000
67.84619 290.000
67.86614 292.000
67.88608 285.000
67.90603 288.000
67.92598 284.000
67.94592 306.000
67.96587 317.000
67.98582 290.000
68.00576 284.000
68.02571 288.000
68.04566 302.000
68.06561 307.000
68.08555 265.000
68.10550 274.000
68.12545 313.000
68.14539 284.000
68.16534 309.000
68.18529 268.000
68.20523 315.000
68.22518 309.000
68.24513 282.000
68.26508 289.000
68.28502 287.000
68.30497 280.000
68.32492 270.000
68.34486 278.000
68.36481 270.000
68.38476 310.000
68.40470 270.000
68.42465 283.000
68.44460 268.000
68.46455 296.000
68.48449 316.000
68.50444 290.000
68.52439 278.000
68.54433 322.000
68.56428 290.000
68.58423 299.000
68.60417 298.000
68.62412 336.000
68.64407 312.000
68.66401 308.000
68.68396 287.000
68.70391 313.000
68.72386 319.000
68.74380 294.000
68.76375 294.000
68.78370 262.000
68.80364 265.000
68.82359 272.000
68.84354 301.000
68.86348 287.000
68.88343 293.000
68.90338 336.000
68.92333 288.000
68.94327 289.000
68.96322 315.000
68.98317 320.000
69.00311 328.000
69.02306 289.000
69.04301 287.000
69.06295 271.000
69.08290 273.000
69.10285 306.000
69.12279 320.000
69.14274 336.000
69.16269 274.000
69.18264 321.000
69.20258 270.000
69.22253 288.000
69.24248 284.000
69.26242 297.000
69.28237 257.000
69.30232 280.000
69.32226 268.000
69.34221 277.000
69.36216 301.000
69.38211 297.000
69.40205 292.000
69.42200 251.000
69.44195 330.000
69.46189 290.000
69.48184 315.000
69.50179 290.000
69.52173 288.000
69.54168 277.000
69.56163 295.000
69.58157 285.000
69.60152 275.000
69.62147 293.000
69.64142 282.000
69.66136 290.000
69.68131 312.000
69.70126 303.000
69.72120 294.000
69.74115 315.000
69.76110 286.000
69.78104 282.000
69.80099 289.000
69.82094 342.000
69.84089 307.000
69.86083 296.000
69.88078 281.000
69.90073 317.000
69.92067 284.000
69.94062 278.000
69.96057 313.000
69.98051 290.000
70.00046 277.000
70.02041 332.000
70.04035 286.000
70.06030 288.000
70.08025 290.000
70.10020 282.000
70.12014 314.000
70.14009 321.000
70.16004 321.000
70.17998 286.000
70.19993 285.000
70.21988 297.000
70.23982 274.000
70.25977 307.000
70.27972 314.000
70.29967 313.000
70.31961 281.000
70.33956 276.000
70.35951 290.000
70.37945 298.000
70.39940 312.000
70.41935 284.000
70.43929 291.000
70.45924 286.000
70.47919 269.000
70.49914 278.000
70.51908 298.000
70.53903 295.000
70.55898 285.000
70.57892 277.000
70.59887 286.000
70.61882 282.000
70.63876 269.000
70.65871 316.000
70.67866 307.000
70.69860 304.000
70.71855 277.000
70.73850 293.000
70.75845 311.000
70.77839 300.000
70.79834 250.000
70.81829 306.000
70.83823 281.000
70.85818 313.000
70.87813 312.000
70.89807 308.000
70.91802 292.000
70.93797 304.000
70.95792 279.000
70.97786 256.000
70.99781 284.000
71.01776 318.000
71.03770 292.000
71.05765 286.000
71.07760 275.000
71.09754 281.000
71.11749 281.000
71.13744 304.000
71.15738 299.000
71.17733 283.000
71.19728 287.000
71.21723 275.000
71.23717 287.000
71.25712 294.000
71.27707 312.000
71.29701 279.000
71.31696 287.000
71.33691 301.000
71.35685 342.000
71.37680 333.000
71.39675 313.000
71.41670 313.000
71.43664 302.000
71.45659 306.000
71.47654 319.000
71.49648 295.000
71.51643 277.000
71.53638 296.000
71.55632 307.000
71.57627 351.000
71.59622 293.000
71.61616 301.000
71.63611 305.000
71.65606 330.000
71.67601 330.000
71.69595 332.000
71.71590 308.000
71.73585 301.000
71.75579 286.000
71.77574 318.000
71.79569 263.000
71.81563 277.000
71.83558 247.000
71.85553 271.000
71.87548 304.000
71.89542 278.000
71.91537 297.000
71.93532 266.000
71.95526 280.000
71.97521 268.000
71.99516 270.000
72.01510 265.000
72.03505 268.000
72.05500 317.000
72.07495 314.000
72.09489 315.000
72.11484 291.000
72.13479 288.000
72.15473 267.000
72.17468 298.000
72.19463 286.000
72.21457 287.000
72.23452 294.000
72.25447 275.000
72.27441 263.000
72.29436 307.000
72.31431 316.000
72.33426 293.000
72.35420 267.000
72.37415 287.000
72.39410 268.000
72.41404 302.000
72.43399 298.000
72.45394 297.000
72.47388 296.000
72.49383 304.000
72.51378 268.000
72.53373 277.000
72.55367 285.000
72.57362 302.000
72.59357 283.000
72.61351 310.000
72.63346 300.000
72.65341 299.000
72.67335 282.000
72.69330 291.000
72.71325 289.000
72.73319 283.000
72.75314 332.000
72.77309 323.000
72.79304 309.000
72.81298 292.000
72.83293 307.000
72.85288 323.000
72.87282 282.000
72.89277 276.000
72.91272 305.000
72.93266 333.000
72.95261 290.000
72.97256 285.000
72.99251 292.000
73.01245 342.000
73.03240 313.000
73.05235 299.000
73.07229 298.000
73.09224 267.000
73.11219 296.000
73.13213 322.000
73.15208 308.000
73.17203 302.000
73.19197 293.000
73.21192 315.000
73.23187 293.000
73.25182 340.000
73.27176 287.000
73.29171 306.000
73.31166 298.000
73.33160 312.000
73.35155 342.000
73.37150 306.000
73.39144 297.000
73.41139 289.000
73.43134 315.000
73.45129 307.000
73.47123 285.000
73.49118 314.000
73.51113 299.000
73.53107 303.000
73.55102 273.000
73.57097 313.000
73.59091 298.000
73.61086 280.000
73.63081 293.000
73.65076 326.000
73.67070 285.000
73.69065 296.000
73.71060 309.000
73.73054 289.000
73.75049 332.000
73.77044 292.000
73.79038 304.000
73.81033 296.000
73.83028 280.000
73.85022 320.000
73.87017 319.000
73.89012 275.000
73.91007 316.000
73.93001 321.000
73.94996 294.000
73.96991 317.000
73.98985 290.000
74.00980 284.000
74.02975 319.000
74.04969 279.000
74.06964 313.000
74.08959 301.000
74.10954 299.000
74.12948 287.000
74.14943 305.000
74.16938 319.000
74.18932 317.000
74.20927 292.000
74.22922 317.000
74.24916 355.000
74.26911 300.000
74.28906 309.000
74.30900 331.000
74.32895 305.000
74.34890 322.000
74.36885 311.000
74.38879 322.000
74.40874 363.000
74.42869 333.000
74.44863 346.000
74.46858 367.000
74.48853 361.000
74.50847 371.000
74.52842 373.000
74.54837 400.000
74.56832 408.000
74.58826 391.000
74.60821 399.000
74.62816 375.000
74.64810 398.000
74.66805 386.000
74.68800 407.000
74.70794 410.000
74.72789 433.000
74.74784 450.000
74.76778 458.000
74.78773 463.000
74.80768 511.000
74.82763 511.000
74.84757 493.000
74.86752 516.000
74.88747 530.000
74.90741 518.000
74.92736 557.000
74.94731 571.000
74.96725 629.000
74.98720 658.000
75.00715 689.000
75.02710 719.000
75.04704 743.000
75.06699 734.000
75.08694 811.000
75.10688 836.000
75.12683 871.000
75.14678 899.000
75.16672 898.000
75.18667 892.000
75.20662 902.000
75.22657 878.000
75.24651 850.000
75.26646 859.000
75.28641 819.000
75.30635 775.000
75.32630 723.000
75.34625 713.000
75.36619 716.000
75.38614 681.000
75.40609 655.000
75.42603 625.000
75.44598 640.000
75.46593 527.000
75.48588 564.000
75.50582 489.000
75.52577 536.000
75.54572 461.000
75.56566 446.000
75.58561 439.000
75.60556 400.000
75.62550 375.000
75.64545 362.000
75.66540 365.000
75.68535 347.000
75.70529 357.000
75.72524 359.000
75.74519 366.000
75.76513 337.000
75.78508 308.000
75.80503 305.000
75.82497 339.000
75.84492 297.000
75.86487 328.000
75.88481 328.000
75.90476 304.000
75.92471 334.000
75.94466 274.000
75.96460 324.000
75.98455 333.000
76.00450 282.000
76.02444 272.000
76.04439 302.000
76.06434 292.000
76.08428 313.000
76.10423 322.000
76.12418 314.000
76.14413 287.000
76.16407 321.000
76.18402 304.000
76.20397 279.000
76.22391 309.000
76.24386 275.000
76.26381 296.000
76.28375 272.000
76.30370 295.000
76.32365 264.000
76.34359 281.000
76.36354 291.000
76.38349 283.000
76.40344 281.000
76.42338 318.000
76.44333 340.000
76.46328 309.000
76.48322 311.000
76.50317 306.000
76.52312 290.000
76.54306 307.000
76.56301 325.000
76.58296 301.000
76.60291 285.000
76.62285 303.000
76.64280 289.000
76.66275 319.000
76.68269 308.000
76.70264 306.000
76.72259 297.000
76.74253 283.000
76.76248 298.000
76.78243 329.000
76.80238 292.000
76.82232 295.000
76.84227 300.000
76.86222 269.000
76.88216 272.000
76.90211 323.000
76.92206 291.000
76.94200 293.000
76.96195 319.000
76.98190 302.000
77.00184 269.000
77.02179 324.000
77.04174 266.000
77.06169 303.000
77.08163 297.000
77.10158 301.000
77.12153 276.000
77.14147 312.000
77.16142 289.000
77.18137 302.000
77.20131 265.000
77.22126 281.000
77.24121 322.000
77.26116 304.000
77.28110 285.000
77.30105 278.000
77.32100 304.000
77.34094 272.000
77.36089 312.000
77.38084 290.000
77.40078 302.000
77.42073 301.000
77.44068 289.000
77.46062 292.000
77.48057 275.000
77.50052 302.000
77.52047 311.000
77.54041 332.000
77.56036 292.000
77.58031 312.000
77.60025 294.000
77.62020 303.000
77.64015 307.000
77.66009 282.000
77.68004 325.000
77.69999 239.000
77.71994 271.000
77.73988 304.000
77.75983 258.000
77.77978 294.000
77.79972 299.000
77.81967 295.000
77.83962 286.000
77.85956 304.000
77.87951 282.000
77.89946 292.000
77.91940 266.000
77.93935 310.000
77.95930 283.000
77.97925 283.000
77.99919 299.000
78.01914 282.000
78.03909 328.000
78.05903 301.000
78.07898 265.000
78.09893 296.000
78.11887 282.000
78.13882 317.000
78.15877 313.000
78.17872 293.000
78.19866 289.000
78.21861 282.000
78.23856 288.000
78.25850 289.000
78.27845 288.000
78.29840 302.000
78.31834 291.000
78.33829 292.000
78.35824 290.000
78.37819 351.000
78.39813 324.000
78.41808 307.000
78.43803 314.000
78.45797 294.000
78.47792 322.000
78.49787 324.000
78.51781 339.000
78.53776 334.000
78.55771 301.000
78.57765 317.000
78.59760 298.000
78.61755 342.000
78.63750 354.000
78.65744 343.000
78.67739 353.000
78.69734 335.000
78.71728 391.000
78.73723 377.000
78.75718 380.000
78.77712 436.000
78.79707 393.000
78.81702 377.000
78.83697 395.000
78.85691 447.000
78.87686 411.000
78.89681 473.000
78.91675 493.000
78.93670 566.000
78.95665 547.000
78.97659 559.000
78.99654 603.000
79.01649 579.000
79.03643 665.000
79.05638 686.000
79.07633 686.000
79.09628 691.000
79.11622 741.000
79.13617 753.000
79.15612 742.000
79.17606 747.000
79.19601 727.000
79.21596 722.000
79.23590 691.000
79.25585 681.000
79.27580 633.000
79.29575 610.000
79.31569 619.000
79.33564 591.000
79.35559 562.000
79.37553 514.000
79.39548 564.000
79.41543 538.000
79.43537 495.000
79.45532 474.000
79.47527 429.000
79.49521 419.000
79.51516 439.000
79.53511 388.000
79.55506 387.000
79.57500 352.000
79.59495 366.000
79.61490 339.000
79.63484 336.000
79.65479 361.000
79.67474 313.000
79.69468 323.000
79.71463 309.000
79.73458 286.000
79.75453 296.000
79.77447 327.000
79.79442 322.000
79.81437 309.000
79.83431 279.000
79.85426 289.000
79.87421 312.000
79.89415 299.000
79.91410 303.000
79.93405 284.000
79.95399 312.000
79.97394 292.000
79.99389 289.000
80.01384 304.000
80.03378 274.000
80.05373 309.000
80.07368 269.000
80.09362 265.000
80.11357 309.000
80.13352 303.000
80.15346 299.000
80.17341 271.000
80.19336 289.000
80.21331 272.000
80.23325 265.000
80.25320 293.000
80.27315 268.000
80.29309 298.000
80.31304 287.000
80.33299 260.000
80.35293 293.000
80.37288 328.000
80.39283 282.000
80.41278 288.000
80.43272 289.000
80.45267 293.000
80.47262 283.000
80.49256 279.000
80.51251 302.000
80.53246 287.000
80.55240 266.000
80.57235 291.000
80.59230 282.000
80.61224 306.000
80.63219 264.000
80.65214 290.000
80.67209 308.000
80.69203 274.000
80.71198 280.000
80.73193 308.000
80.75187 280.000
80.77182 290.000
80.79177 312.000
80.81171 297.000
80.83166 291.000
80.85161 293.000
80.87156 253.000
80.89150 293.000
80.91145 289.000
80.93140 275.000
80.95134 300.000
80.97129 280.000
80.99124 253.000
81.01118 264.000
81.03113 289.000
81.05108 298.000
81.07102 256.000
81.09097 301.000
81.11092 304.000
81.13087 290.000
81.15081 275.000
81.17076 322.000
81.19071 281.000
81.21065 260.000
81.23060 267.000
81.25055 265.000
81.27049 269.000
81.29044 289.000
81.31039 239.000
81.33034 291.000
81.35028 270.000
81.37023 293.000
81.39018 302.000
81.41012 284.000
81.43007 299.000
81.45002 284.000
81.46996 268.000
81.48991 283.000
81.50986 293.000
81.52980 292.000
81.54975 315.000
81.56970 257.000
81.58965 276.000
81.60959 283.000
81.62954 269.000
81.64949 298.000
81.66943 300.000
81.68938 281.000
81.70933 311.000
81.72927 273.000
81.74922 278.000
81.76917 274.000
81.78912 272.000
81.80906 289.000
81.82901 273.000
81.84896 268.000
81.86890 284.000
81.88885 279.000
81.90880 302.000
81.92874 283.000
81.94869 289.000
81.96864 281.000
81.98859 271.000
82.00853 291.000
82.02848 284.000
82.04843 305.000
82.06837 298.000
82.08832 263.000
82.10827 285.000
82.12821 279.000
82.14816 291.000
82.16811 286.000
82.18805 291.000
82.20800 288.000
82.22795 288.000
82.24790 256.000
82.26784 285.000
82.28779 284.000
82.30774 286.000
82.32768 325.000
82.34763 284.000
82.36758 285.000
82.38752 288.000
82.40747 261.000
82.42742 281.000
82.44737 318.000
82.46731 277.000
82.48726 297.000
82.50721 263.000
82.52715 262.000
82.54710 291.000
82.56705 289.000
82.58699 337.000
82.60694 294.000
82.62689 292.000
82.64683 275.000
82.66678 318.000
82.68673 280.000
82.70668 281.000
82.72662 304.000
82.74657 264.000
82.76652 304.000
82.78646 268.000
82.80641 274.000
82.82636 273.000
82.84630 295.000
82.86625 292.000
82.88620 283.000
82.90615 296.000
82.92609 274.000
82.94604 308.000
82.96599 273.000
82.98593 298.000
83.00588 276.000
83.02583 302.000
83.04577 305.000
83.06572 295.000
83.08567 274.000
83.10561 287.000
83.12556 294.000
83.14551 288.000
83.16546 275.000
83.18540 273.000
83.20535 293.000
83.22530 273.000
83.24524 279.000
83.26519 294.000
83.28514 297.000
83.30508 295.000
83.32503 268.000
83.34498 310.000
83.36493 269.000
83.38487 286.000
83.40482 300.000
83.42477 304.000
83.44471 279.000
83.46466 303.000
83.48461 309.000
83.50455 275.000
83.52450 262.000
83.54445 274.000
83.56440 290.000
83.58434 276.000
83.60429 257.000
83.62424 285.000
83.64418 290.000
83.66413 305.000
83.68408 279.000
83.70402 283.000
83.72397 310.000
83.74392 300.000
83.76386 322.000
83.78381 256.000
83.80376 291.000
83.82371 292.000
83.84365 309.000
83.86360 298.000
83.88355 284.000
83.90349 303.000
83.92344 322.000
83.94339 263.000
83.96333 297.000
83.98328 295.000
84.00323 297.000
84.02318 287.000
84.04312 313.000
84.06307 309.000
84.08302 271.000
84.10296 279.000
84.12291 287.000
84.14286 300.000
84.16280 285.000
84.18275 292.000
84.20270 309.000
84.22264 281.000
84.24259 292.000
84.26254 276.000
84.28249 291.000
84.30243 269.000
84.32238 310.000
84.34233 305.000
84.36227 276.000
84.38222 286.000
84.40217 309.000
84.42211 282.000
84.44206 310.000
84.46201 281.000
84.48196 284.000
84.50190 294.000
84.52185 300.000
84.54180 262.000
84.56174 265.000
84.58169 303.000
84.60164 294.000
84.62158 280.000
84.64153 280.000
84.66148 285.000
84.68142 276.000
84.70137 256.000
84.72132 322.000
84.74127 287.000
84.76121 289.000
84.78116 276.000
84.80111 246.000
84.82105 274.000
84.84100 287.000
84.86095 313.000
84.88089 286.000
84.90084 286.000
84.92079 269.000
84.94074 259.000
84.96068 293.000
84.98063 281.000
85.00058 278.000
85.02052 275.000
85.04047 281.000
85.06042 292.000
85.08036 245.000
85.10031 282.000
85.12026 267.000
85.14021 263.000
85.16015 309.000
85.18010 273.000
85.20005 326.000
85.21999 286.000
85.23994 288.000
85.25989 271.000
85.27983 266.000
85.29978 243.000
85.31973 260.000
85.33967 284.000
85.35962 231.000
85.37957 266.000
85.39952 270.000
85.41946 281.000
85.43941 295.000
85.45936 261.000
85.47930 309.000
85.49925 253.000
85.51920 257.000
85.53914 261.000
85.55909 288.000
85.57904 280.000
85.59899 294.000
85.61893 258.000
85.63888 282.000
85.65883 283.000
85.67877 310.000
85.69872 312.000
85.71867 274.000
85.73861 254.000
85.75856 285.000
85.77851 312.000
85.79845 252.000
85.81840 307.000
85.83835 313.000
85.85830 286.000
85.87824 329.000
85.89819 280.000
85.91814 291.000
85.93808 302.000
85.95803 309.000
85.97798 289.000
85.99792 298.000
86.01787 251.000
86.03782 280.000
86.05777 272.000
86.07771 271.000
86.09766 273.000
86.11761 294.000
86.13755 255.000
86.15750 285.000
86.17745 280.000
86.19739 273.000
86.21734 263.000
86.23729 282.000
86.25723 252.000
86.27718 274.000
86.29713 251.000
86.31708 260.000
86.33702 262.000
86.35697 279.000
86.37692 291.000
86.39686 273.000
86.41681 292.000
86.43676 264.000
86.45670 294.000
86.47665 283.000
86.49660 273.000
86.51655 244.000
86.53649 250.000
86.55644 295.000
86.57639 283.000
86.59633 280.000
86.61628 266.000
86.63623 289.000
86.65617 281.000
86.67612 285.000
86.69607 249.000
86.71602 249.000
86.73596 275.000
86.75591 276.000
86.77586 283.000
86.79580 284.000
86.81575 303.000
86.83570 286.000
86.85564 289.000
86.87559 283.000
86.89554 313.000
86.91548 294.000
86.93543 308.000
86.95538 291.000
86.97533 291.000
86.99527 251.000
87.01522 278.000
87.03517 275.000
87.05511 283.000
87.07506 292.000
87.09501 273.000
87.11495 319.000
87.13490 299.000
87.15485 235.000
87.17480 288.000
87.19474 266.000
87.21469 271.000
87.23464 293.000
87.25458 299.000
87.27453 262.000
87.29448 300.000
87.31442 321.000
87.33437 267.000
87.35432 303.000
87.37426 290.000
87.39421 329.000
87.41416 301.000
87.43411 290.000
87.45405 300.000
87.47400 291.000
87.49395 289.000
87.51389 292.000
87.53384 280.000
87.55379 324.000
87.57373 278.000
87.59368 298.000
87.61363 293.000
87.63358 272.000
87.65352 318.000
87.67347 315.000
87.69342 286.000
87.71336 291.000
87.73331 263.000
87.75326 276.000
87.77320 264.000
87.79315 311.000
87.81310 298.000
87.83304 303.000
87.85299 276.000
87.87294 283.000
87.89289 286.000
87.91283 291.000
87.93278 288.000
87.95273 278.000
87.97267 258.000
87.99262 266.000
88.01257 267.000
88.03251 283.000
88.05246 267.000
88.07241 273.000
88.09236 281.000
88.11230 269.000
88.13225 262.000
88.15220 293.000
88.17214 269.000
88.19209 254.000
88.21204 285.000
88.23198 273.000
88.25193 288.000
88.27188 279.000
88.29183 265.000
88.31177 285.000
88.33172 238.000
88.35167 284.000
88.37161 301.000
88.39156 270.000
88.41151 268.000
88.43145 317.000
88.45140 269.000
88.47135 274.000
88.49129 297.000
88.51124 289.000
88.53119 285.000
88.55114 287.000
88.57108 258.000
88.59103 241.000
88.61098 268.000
88.63092 281.000
88.65087 297.000
88.67082 248.000
88.69076 278.000
88.71071 265.000
88.73066 263.000
88.75061 315.000
88.77055 284.000
88.79050 311.000
88.81045 278.000
88.83039 281.000
88.85034 267.000
88.87029 279.000
88.89023 267.000
88.91018 287.000
88.93013 285.000
88.95007 258.000
88.97002 263.000
88.98997 299.000
89.00992 289.000
89.02986 303.000
89.04981 279.000
89.06976 304.000
89.08970 275.000
89.10965 305.000
89.12960 293.000
89.14954 286.000
89.16949 259.000
89.18944 278.000
89.20939 296.000
89.22933 277.000
89.24928 291.000
89.26923 275.000
89.28917 276.000
89.30912 276.000
89.32907 285.000
89.34901 296.000
89.36896 283.000
89.38891 264.000
89.40885 267.000
89.42880 311.000
89.44875 277.000
89.46870 272.000
89.48864 306.000
89.50859 277.000
89.52854 294.000
89.54848 259.000
89.56843 262.000
89.58838 285.000
89.60832 287.000
89.62827 284.000
89.64822 309.000
89.66817 279.000
89.68811 299.000
89.70806 286.000
89.72801 280.000
89.74795 282.000
89.76790 265.000
89.78785 290.000
89.80779 279.000
89.82774 262.000
89.84769 298.000
89.86764 279.000
89.88758 258.000
89.90753 309.000
89.92748 290.000
89.94742 280.000
89.96737 299.000
89.98732 287.000
90.00726 298.000
