10.00000 62.000
10.01995 50.000
10.03989 50.000
10.05984 41.000
10.07979 72.000
10.09973 55.000
10.11968 46.000
10.13963 45.000
10.15958 57.000
10.17952 49.000
10.19947 49.000
10.21942 52.000
10.23936 52.000
10.25931 49.000
10.27926 58.000
10.29920 53.000
10.31915 58.000
10.33910 56.000
10.35905 43.000
10.37899 52.000
10.39894 58.000
10.41889 66.000
10.43883 57.000
10.45878 56.000
10.47873 59.000
10.49867 57.000
10.51862 62.000
10.53857 65.000
10.55851 62.000
10.57846 41.000
10.59841 62.000
10.61836 55.000
10.63830 46.000
10.65825 50.000
10.67820 55.000
10.69814 49.000
10.71809 65.000
10.73804 42.000
10.75798 45.000
10.77793 57.000
10.79788 43.000
10.81783 51.000
10.83777 57.000
10.85772 64.000
10.87767 64.000
10.89761 49.000
10.91756 60.000
10.93751 45.000
10.95745 63.000
10.97740 57.000
10.99735 51.000
11.01730 55.000
11.03724 58.000
11.05719 53.000
11.07714 54.000
11.09708 56.000
11.11703 59.000
11.13698 40.000
11.15692 56.000
11.17687 58.000
11.19682 52.000
11.21676 44.000
11.23671 53.000
11.25666 53.000
11.27661 54.000
11.29655 63.000
11.31650 57.000
11.33645 53.000
11.35639 68.000
11.37634 50.000
11.39629 56.000
11.41623 48.000
11.43618 53.000
11.45613 50.000
11.47608 59.000
11.49602 49.000
11.51597 47.000
11.53592 55.000
11.55586 56.000
11.57581 59.000
11.59576 63.000
11.61570 63.000
11.63565 53.000
11.65560 58.000
11.67554 65.000
11.69549 68.000
11.71544 68.000
11.73539 58.000
11.75533 58.000
11.77528 60.000
11.79523 63.000
11.81517 58.000
11.83512 62.000
11.85507 57.000
11.87501 62.000
11.89496 71.000
11.91491 68.000
11.93486 73.000
11.95480 64.000
11.97475 73.000
11.99470 54.000
12.01464 50.000
12.03459 82.000
12.05454 70.000
12.07448 63.000
12.09443 67.000
12.11438 83.000
12.13432 62.000
12.15427 96.000
12.17422 77.000
12.19417 57.000
12.21411 84.000
12.23406 64.000
12.25401 73.000
12.27395 80.000
12.29390 76.000
12.31385 93.000
12.33379 96.000
12.35374 95.000
12.37369 114.000
12.39364 100.000
12.41358 133.000
12.43353 128.000
12.45348 167.000
12.47342 175.000
12.49337 220.000
12.51332 267.000
12.53326 356.000
12.55321 458.000
12.57316 631.000
12.59311 699.000
12.61305 711.000
12.63300 775.000
12.65295 646.000
12.67289 540.000
12.69284 411.000
12.71279 381.000
12.73273 307.000
12.75268 254.000
12.77263 260.000
12.79257 231.000
12.81252 230.000
12.83247 214.000
12.85242 201.000
12.87236 215.000
12.89231 186.000
12.91226 170.000
12.93220 174.000
12.95215 199.000
12.97210 164.000
12.99204 168.000
13.01199 177.000
13.03194 171.000
13.05189 167.000
13.07183 160.000
13.09178 156.000
13.11173 170.000
13.13167 157.000
13.15162 155.000
13.17157 144.000
13.19151 170.000
13.21146 151.000
13.23141 174.000
13.25135 167.000
13.27130 136.000
13.29125 184.000
13.31120 146.000
13.33114 161.000
13.35109 143.000
13.37104 169.000
13.39098 165.000
13.41093 205.000
13.43088 177.000
13.45082 193.000
13.47077 151.000
13.49072 194.000
13.51067 176.000
13.53061 186.000
13.55056 184.000
13.57051 191.000
13.59045 155.000
13.61040 191.000
13.63035 195.000
13.65029 201.000
13.67024 189.000
13.69019 194.000
13.71013 196.000
13.73008 203.000
13.75003 196.000
13.76998 233.000
13.78992 190.000
13.80987 243.000
13.82982 213.000
13.84976 223.000
13.86971 239.000
13.88966 240.000
13.90960 228.000
13.92955 260.000
13.94950 240.000
13.96945 272.000
13.98939 259.000
14.00934 227.000
14.02929 276.000
14.04923 232.000
14.06918 228.000
14.08913 240.000
14.10907 231.000
14.12902 213.000
14.14897 214.000
14.16892 226.000
14.18886 219.000
14.20881 207.000
14.22876 198.000
14.24870 199.000
14.26865 202.000
14.28860 191.000
14.30854 191.000
14.32849 196.000
14.34844 175.000
14.36838 191.000
14.38833 177.000
14.40828 170.000
14.42823 165.000
14.44817 183.000
14.46812 174.000
14.48807 160.000
14.50801 148.000
14.52796 160.000
14.54791 145.000
14.56785 146.000
14.58780 182.000
14.60775 166.000
14.62770 153.000
14.64764 148.000
14.66759 148.000
14.68754 165.000
14.70748 142.000
14.72743 138.000
14.74738 139.000
14.76732 139.000
14.78727 167.000
14.80722 125.000
14.82716 152.000
14.84711 156.000
14.86706 141.000
14.88701 126.000
14.90695 130.000
14.92690 120.000
14.94685 131.000
14.96679 162.000
14.98674 154.000
15.00669 162.000
15.02663 154.000
15.04658 174.000
15.06653 162.000
15.08648 172.000
15.10642 166.000
15.12637 157.000
15.14632 177.000
15.16626 174.000
15.18621 145.000
15.20616 151.000
15.22610 170.000
15.24605 175.000
15.26600 183.000
15.28594 183.000
15.30589 187.000
15.32584 187.000
15.34579 208.000
15.36573 240.000
15.38568 229.000
15.40563 264.000
15.42557 238.000
15.44552 303.000
15.46547 303.000
15.48541 361.000
15.50536 450.000
15.52531 481.000
15.54526 605.000
15.56520 820.000
15.58515 1140.000
15.60510 1675.000
15.62504 2200.000
15.64499 2314.000
15.66494 1874.000
15.68488 1294.000
15.70483 707.000
15.72478 441.000
15.74472 310.000
15.76467 227.000
15.78462 198.000
15.80457 162.000
15.82451 152.000
15.84446 141.000
15.86441 145.000
15.88435 106.000
15.90430 135.000
15.92425 114.000
15.94419 111.000
15.96414 91.000
15.98409 66.000
16.00404 86.000
16.02398 81.000
16.04393 91.000
16.06388 102.000
16.08382 79.000
16.10377 92.000
16.12372 78.000
16.14366 60.000
16.16361 68.000
16.18356 81.000
16.20351 55.000
16.22345 65.000
16.24340 79.000
16.26335 62.000
16.28329 67.000
16.30324 79.000
16.32319 61.000
16.34313 76.000
16.36308 67.000
16.38303 70.000
16.40297 42.000
16.42292 62.000
16.44287 58.000
16.46282 48.000
16.48276 61.000
16.50271 51.000
16.52266 46.000
16.54260 65.000
16.56255 54.000
16.58250 57.000
16.60244 48.000
16.62239 52.000
16.64234 59.000
16.66229 49.000
16.68223 57.000
16.70218 58.000
16.72213 46.000
16.74207 58.000
16.76202 54.000
16.78197 57.000
16.80191 60.000
16.82186 50.000
16.84181 45.000
16.86175 60.000
16.88170 47.000
16.90165 53.000
16.92160 65.000
16.94154 53.000
16.96149 55.000
16.98144 57.000
17.00138 58.000
17.02133 49.000
17.04128 50.000
17.06122 48.000
17.08117 55.000
17.10112 53.000
17.12107 46.000
17.14101 52.000
17.16096 49.000
17.18091 56.000
17.20085 56.000
17.22080 53.000
17.24075 47.000
17.26069 40.000
17.28064 44.000
17.30059 62.000
17.32053 47.000
17.34048 45.000
17.36043 46.000
17.38038 42.000
17.40032 46.000
17.42027 47.000
17.44022 45.000
17.46016 52.000
17.48011 63.000
17.50006 48.000
17.52000 51.000
17.53995 59.000
17.55990 56.000
17.57985 46.000
17.59979 51.000
17.61974 46.000
17.63969 46.000
17.65963 43.000
17.67958 42.000
17.69953 51.000
17.71947 45.000
17.73942 44.000
17.75937 55.000
17.77932 59.000
17.79926 41.000
17.81921 53.000
17.83916 68.000
17.85910 49.000
17.87905 51.000
17.89900 48.000
17.91894 52.000
17.93889 51.000
17.95884 45.000
17.97878 71.000
17.99873 54.000
18.01868 57.000
18.03863 68.000
18.05857 77.000
18.07852 87.000
18.09847 106.000
18.11841 133.000
18.13836 194.000
18.15831 279.000
18.17825 431.000
18.19820 589.000
18.21815 688.000
18.23810 724.000
18.25804 619.000
18.27799 461.000
18.29794 313.000
18.31788 215.000
18.33783 134.000
18.35778 78.000
18.37772 74.000
18.39767 74.000
18.41762 57.000
18.43756 61.000
18.45751 49.000
18.47746 58.000
18.49741 50.000
18.51735 66.000
18.53730 59.000
18.55725 52.000
18.57719 56.000
18.59714 44.000
18.61709 45.000
18.63703 56.000
18.65698 57.000
18.67693 52.000
18.69688 46.000
18.71682 62.000
18.73677 32.000
18.75672 52.000
18.77666 44.000
18.79661 64.000
18.81656 52.000
18.83650 65.000
18.85645 50.000
18.87640 61.000
18.89634 44.000
18.91629 49.000
18.93624 47.000
18.95619 55.000
18.97613 38.000
18.99608 54.000
19.01603 46.000
19.03597 48.000
19.05592 52.000
19.07587 64.000
19.09581 33.000
19.11576 33.000
19.13571 55.000
19.15566 47.000
19.17560 48.000
19.19555 45.000
19.21550 56.000
19.23544 45.000
19.25539 50.000
19.27534 45.000
19.29528 52.000
19.31523 50.000
19.33518 59.000
19.35513 58.000
19.37507 35.000
19.39502 57.000
19.41497 52.000
19.43491 37.000
19.45486 49.000
19.47481 49.000
19.49475 53.000
19.51470 46.000
19.53465 42.000
19.55459 40.000
19.57454 44.000
19.59449 34.000
19.61444 41.000
19.63438 51.000
19.65433 45.000
19.67428 52.000
19.69422 42.000
19.71417 57.000
19.73412 42.000
19.75406 33.000
19.77401 51.000
19.79396 44.000
19.81391 45.000
19.83385 52.000
19.85380 46.000
19.87375 54.000
19.89369 39.000
19.91364 59.000
19.93359 44.000
19.95353 47.000
19.97348 50.000
19.99343 52.000
20.01337 64.000
20.03332 33.000
20.05327 48.000
20.07322 50.000
20.09316 61.000
20.11311 44.000
20.13306 53.000
20.15300 38.000
20.17295 42.000
20.19290 57.000
20.21284 53.000
20.23279 39.000
20.25274 36.000
20.27269 53.000
20.29263 59.000
20.31258 61.000
20.33253 43.000
20.35247 57.000
20.37242 42.000
20.39237 53.000
20.41231 55.000
20.43226 47.000
20.45221 45.000
20.47215 50.000
20.49210 54.000
20.51205 59.000
20.53200 53.000
20.55194 55.000
20.57189 56.000
20.59184 56.000
20.61178 49.000
20.63173 62.000
20.65168 42.000
20.67162 44.000
20.69157 46.000
20.71152 57.000
20.73147 45.000
20.75141 39.000
20.77136 47.000
20.79131 46.000
20.81125 44.000
20.83120 44.000
20.85115 74.000
20.87109 45.000
20.89104 60.000
20.91099 52.000
20.93094 52.000
20.95088 45.000
20.97083 47.000
20.99078 55.000
21.01072 60.000
21.03067 63.000
21.05062 62.000
21.07056 66.000
21.09051 53.000
21.11046 52.000
21.13040 53.000
21.15035 51.000
21.17030 52.000
21.19025 38.000
21.21019 49.000
21.23014 46.000
21.25009 46.000
21.27003 52.000
21.28998 55.000
21.30993 54.000
21.32987 54.000
21.34982 55.000
21.36977 61.000
21.38972 46.000
21.40966 60.000
21.42961 63.000
21.44956 50.000
21.46950 62.000
21.48945 58.000
21.50940 54.000
21.52934 54.000
21.54929 47.000
21.56924 30.000
21.58918 46.000
21.60913 57.000
21.62908 42.000
21.64903 44.000
21.66897 56.000
21.68892 44.000
21.70887 54.000
21.72881 48.000
21.74876 49.000
21.76871 45.000
21.78865 44.000
21.80860 39.000
21.82855 46.000
21.84850 41.000
21.86844 55.000
21.88839 43.000
21.90834 42.000
21.92828 53.000
21.94823 47.000
21.96818 55.000
21.98812 49.000
22.00807 54.000
22.02802 52.000
22.04796 53.000
22.06791 42.000
22.08786 50.000
22.10781 48.000
22.12775 61.000
22.14770 47.000
22.16765 58.000
22.18759 51.000
22.20754 46.000
22.22749 40.000
22.24743 47.000
22.26738 47.000
22.28733 39.000
22.30728 44.000
22.32722 44.000
22.34717 52.000
22.36712 47.000
22.38706 42.000
22.40701 46.000
22.42696 47.000
22.44690 39.000
22.46685 52.000
22.48680 43.000
22.50675 66.000
22.52669 51.000
22.54664 51.000
22.56659 43.000
22.58653 58.000
22.60648 41.000
22.62643 54.000
22.64637 53.000
22.66632 57.000
22.68627 48.000
22.70621 47.000
22.72616 37.000
22.74611 58.000
22.76606 35.000
22.78600 51.000
22.80595 57.000
22.82590 44.000
22.84584 40.000
22.86579 48.000
22.88574 50.000
22.90568 44.000
22.92563 49.000
22.94558 50.000
22.96553 66.000
22.98547 43.000
23.00542 43.000
23.02537 42.000
23.04531 46.000
23.06526 58.000
23.08521 41.000
23.10515 47.000
23.12510 49.000
23.14505 41.000
23.16499 47.000
23.18494 43.000
23.20489 45.000
23.22484 50.000
23.24478 38.000
23.26473 48.000
23.28468 51.000
23.30462 45.000
23.32457 48.000
23.34452 51.000
23.36446 50.000
23.38441 40.000
23.40436 45.000
23.42431 56.000
23.44425 51.000
23.46420 43.000
23.48415 53.000
23.50409 37.000
23.52404 44.000
23.54399 28.000
23.56393 51.000
23.58388 50.000
23.60383 60.000
23.62377 42.000
23.64372 61.000
23.66367 55.000
23.68362 45.000
23.70356 47.000
23.72351 57.000
23.74346 60.000
23.76340 54.000
23.78335 55.000
23.80330 59.000
23.82324 45.000
23.84319 49.000
23.86314 51.000
23.88309 47.000
23.90303 40.000
23.92298 53.000
23.94293 42.000
23.96287 59.000
23.98282 40.000
24.00277 44.000
24.02271 39.000
24.04266 47.000
24.06261 56.000
24.08256 54.000
24.10250 39.000
24.12245 45.000
24.14240 52.000
24.16234 51.000
24.18229 50.000
24.20224 38.000
24.22218 41.000
24.24213 50.000
24.26208 51.000
24.28202 44.000
24.30197 57.000
24.32192 38.000
24.34187 40.000
24.36181 38.000
24.38176 62.000
24.40171 37.000
24.42165 53.000
24.44160 48.000
24.46155 56.000
24.48149 58.000
24.50144 51.000
24.52139 54.000
24.54134 43.000
24.56128 52.000
24.58123 46.000
24.60118 53.000
24.62112 55.000
24.64107 48.000
24.66102 47.000
24.68096 40.000
24.70091 65.000
24.72086 57.000
24.74080 42.000
24.76075 54.000
24.78070 61.000
24.80065 63.000
24.82059 56.000
24.84054 49.000
24.86049 57.000
24.88043 50.000
24.90038 47.000
24.92033 58.000
24.94027 44.000
24.96022 65.000
24.98017 58.000
25.00012 48.000
25.02006 55.000
25.04001 56.000
25.05996 57.000
25.07990 62.000
25.09985 62.000
25.11980 74.000
25.13974 56.000
25.15969 75.000
25.17964 77.000
25.19958 72.000
25.21953 81.000
25.23948 94.000
25.25943 103.000
25.27937 120.000
25.29932 119.000
25.31927 126.000
25.33921 146.000
25.35916 166.000
25.37911 162.000
25.39905 173.000
25.41900 165.000
25.43895 160.000
25.45890 137.000
25.47884 141.000
25.49879 117.000
25.51874 98.000
25.53868 89.000
25.55863 101.000
25.57858 84.000
25.59852 86.000
25.61847 86.000
25.63842 61.000
25.65837 63.000
25.67831 81.000
25.69826 65.000
25.71821 71.000
25.73815 62.000
25.75810 74.000
25.77805 59.000
25.79799 67.000
25.81794 59.000
25.83789 68.000
25.85783 61.000
25.87778 49.000
25.89773 73.000
25.91768 56.000
25.93762 48.000
25.95757 47.000
25.97752 67.000
25.99746 62.000
26.01741 48.000
26.03736 44.000
26.05730 63.000
26.07725 66.000
26.09720 49.000
26.11715 61.000
26.13709 46.000
26.15704 52.000
26.17699 51.000
26.19693 54.000
26.21688 55.000
26.23683 59.000
26.25677 50.000
26.27672 42.000
26.29667 53.000
26.31661 43.000
26.33656 56.000
26.35651 59.000
26.37646 47.000
26.39640 53.000
26.41635 45.000
26.43630 51.000
26.45624 52.000
26.47619 57.000
26.49614 58.000
26.51608 58.000
26.53603 49.000
26.55598 49.000
26.57593 39.000
26.59587 46.000
26.61582 55.000
26.63577 51.000
26.65571 65.000
26.67566 57.000
26.69561 53.000
26.71555 45.000
26.73550 44.000
26.75545 60.000
26.77539 48.000
26.79534 37.000
26.81529 62.000
26.83524 53.000
26.85518 51.000
26.87513 48.000
26.89508 54.000
26.91502 47.000
26.93497 47.000
26.95492 59.000
26.97486 65.000
26.99481 53.000
27.01476 53.000
27.03471 52.000
27.05465 45.000
27.07460 60.000
27.09455 57.000
27.11449 72.000
27.13444 67.000
27.15439 54.000
27.17433 58.000
27.19428 64.000
27.21423 63.000
27.23417 68.000
27.25412 63.000
27.27407 57.000
27.29402 44.000
27.31396 59.000
27.33391 50.000
27.35386 71.000
27.37380 45.000
27.39375 65.000
27.41370 54.000
27.43364 64.000
27.45359 58.000
27.47354 65.000
27.49349 56.000
27.51343 66.000
27.53338 46.000
27.55333 54.000
27.57327 59.000
27.59322 67.000
27.61317 50.000
27.63311 59.000
27.65306 57.000
27.67301 59.000
27.69296 64.000
27.71290 49.000
27.73285 63.000
27.75280 53.000
27.77274 55.000
27.79269 68.000
27.81264 52.000
27.83258 74.000
27.85253 60.000
27.87248 60.000
27.89242 62.000
27.91237 66.000
27.93232 56.000
27.95227 68.000
27.97221 69.000
27.99216 60.000
28.01211 56.000
28.03205 75.000
28.05200 55.000
28.07195 59.000
28.09189 64.000
28.11184 52.000
28.13179 65.000
28.15174 73.000
28.17168 54.000
28.19163 63.000
28.21158 69.000
28.23152 60.000
28.25147 73.000
28.27142 61.000
28.29136 69.000
28.31131 65.000
28.33126 52.000
28.35120 65.000
28.37115 60.000
28.39110 52.000
28.41105 55.000
28.43099 46.000
28.45094 54.000
28.47089 71.000
28.49083 55.000
28.51078 59.000
28.53073 66.000
28.55067 66.000
28.57062 45.000
28.59057 60.000
28.61052 59.000
28.63046 61.000
28.65041 60.000
28.67036 57.000
28.69030 56.000
28.71025 53.000
28.73020 47.000
28.75014 54.000
28.77009 70.000
28.79004 52.000
28.80998 57.000
28.82993 60.000
28.84988 56.000
28.86983 48.000
28.88977 58.000
28.90972 62.000
28.92967 50.000
28.94961 58.000
28.96956 57.000
28.98951 53.000
29.00945 50.000
29.02940 54.000
29.04935 67.000
29.06930 58.000
29.08924 66.000
29.10919 66.000
29.12914 55.000
29.14908 52.000
29.16903 44.000
29.18898 51.000
29.20892 67.000
29.22887 48.000
29.24882 55.000
29.26877 60.000
29.28871 55.000
29.30866 58.000
29.32861 55.000
29.34855 55.000
29.36850 63.000
29.38845 71.000
29.40839 55.000
29.42834 69.000
29.44829 77.000
29.46823 56.000
29.48818 56.000
29.50813 65.000
29.52808 67.000
29.54802 95.000
29.56797 70.000
29.58792 99.000
29.60786 80.000
29.62781 69.000
29.64776 70.000
29.66770 82.000
29.68765 69.000
29.70760 83.000
29.72755 80.000
29.74749 70.000
29.76744 112.000
29.78739 115.000
29.80733 128.000
29.82728 138.000
29.84723 170.000
29.86717 219.000
29.88712 274.000
29.90707 412.000
29.92701 513.000
29.94696 631.000
29.96691 740.000
29.98686 778.000
30.00680 728.000
30.02675 686.000
30.04670 578.000
30.06664 467.000
30.08659 374.000
30.10654 301.000
30.12648 213.000
30.14643 160.000
30.16638 137.000
30.18633 110.000
30.20627 91.000
30.22622 83.000
30.24617 84.000
30.26611 80.000
30.28606 74.000
30.30601 84.000
30.32595 75.000
30.34590 71.000
30.36585 75.000
30.38579 79.000
30.40574 91.000
30.42569 72.000
30.44564 72.000
30.46558 84.000
30.48553 82.000
30.50548 59.000
30.52542 70.000
30.54537 69.000
30.56532 54.000
30.58526 69.000
30.60521 64.000
30.62516 56.000
30.64511 68.000
30.66505 61.000
30.68500 74.000
30.70495 63.000
30.72489 57.000
30.74484 58.000
30.76479 64.000
30.78473 68.000
30.80468 65.000
30.82463 57.000
30.84458 56.000
30.86452 51.000
30.88447 63.000
30.90442 61.000
30.92436 53.000
30.94431 47.000
30.96426 55.000
30.98420 64.000
31.00415 64.000
31.02410 49.000
31.04404 56.000
31.06399 53.000
31.08394 63.000
31.10389 49.000
31.12383 62.000
31.14378 66.000
31.16373 47.000
31.18367 63.000
31.20362 68.000
31.22357 59.000
31.24351 57.000
31.26346 61.000
31.28341 50.000
31.30336 52.000
31.32330 81.000
31.34325 64.000
31.36320 64.000
31.38314 69.000
31.40309 52.000
31.42304 72.000
31.44298 85.000
31.46293 75.000
31.48288 105.000
31.50282 112.000
31.52277 146.000
31.54272 176.000
31.56267 207.000
31.58261 170.000
31.60256 149.000
31.62251 153.000
31.64245 153.000
31.66240 143.000
31.68235 104.000
31.70229 89.000
31.72224 86.000
31.74219 87.000
31.76214 80.000
31.78208 68.000
31.80203 67.000
31.82198 73.000
31.84192 79.000
31.86187 51.000
31.88182 65.000
31.90176 78.000
31.92171 57.000
31.94166 52.000
31.96160 67.000
31.98155 47.000
32.00150 53.000
32.02145 72.000
32.04139 46.000
32.06134 50.000
32.08129 43.000
32.10123 60.000
32.12118 53.000
32.14113 53.000
32.16107 42.000
32.18102 51.000
32.20097 57.000
32.22092 45.000
32.24086 50.000
32.26081 52.000
32.28076 62.000
32.30070 66.000
32.32065 54.000
32.34060 65.000
32.36054 48.000
32.38049 58.000
32.40044 48.000
32.42039 37.000
32.44033 64.000
32.46028 48.000
32.48023 42.000
32.50017 46.000
32.52012 47.000
32.54007 37.000
32.56001 56.000
32.57996 55.000
32.59991 50.000
32.61985 50.000
32.63980 41.000
32.65975 51.000
32.67970 38.000
32.69964 49.000
32.71959 52.000
32.73954 64.000
32.75948 53.000
32.77943 46.000
32.79938 46.000
32.81932 34.000
32.83927 50.000
32.85922 49.000
32.87917 42.000
32.89911 53.000
32.91906 59.000
32.93901 41.000
32.95895 52.000
32.97890 47.000
32.99885 54.000
33.01879 45.000
33.03874 43.000
33.05869 47.000
33.07863 48.000
33.09858 51.000
33.11853 51.000
33.13848 54.000
33.15842 57.000
33.17837 46.000
33.19832 54.000
33.21826 50.000
33.23821 51.000
33.25816 57.000
33.27810 52.000
33.29805 51.000
33.31800 69.000
33.33795 49.000
33.35789 45.000
33.37784 40.000
33.39779 47.000
33.41773 51.000
33.43768 58.000
33.45763 70.000
33.47757 63.000
33.49752 71.000
33.51747 70.000
33.53741 64.000
33.55736 54.000
33.57731 58.000
33.59726 50.000
33.61720 51.000
33.63715 55.000
33.65710 69.000
33.67704 62.000
33.69699 55.000
33.71694 66.000
33.73688 60.000
33.75683 51.000
33.77678 60.000
33.79673 61.000
33.81667 62.000
33.83662 72.000
33.85657 62.000
33.87651 69.000
33.89646 62.000
33.91641 74.000
33.93635 58.000
33.95630 63.000
33.97625 62.000
33.99620 68.000
34.01614 70.000
34.03609 80.000
34.05604 71.000
34.07598 75.000
34.09593 76.000
34.11588 72.000
34.13582 65.000
34.15577 70.000
34.17572 60.000
34.19566 62.000
34.21561 93.000
34.23556 90.000
34.25551 84.000
34.27545 73.000
34.29540 64.000
34.31535 76.000
34.33529 59.000
34.35524 63.000
34.37519 63.000
34.39513 67.000
34.41508 81.000
34.43503 82.000
34.45498 83.000
34.47492 72.000
34.49487 74.000
34.51482 68.000
34.53476 75.000
34.55471 67.000
34.57466 80.000
34.59460 84.000
34.61455 80.000
34.63450 75.000
34.65444 84.000
34.67439 72.000
34.69434 68.000
34.71429 77.000
34.73423 75.000
34.75418 74.000
34.77413 75.000
34.79407 88.000
34.81402 58.000
34.83397 93.000
34.85391 80.000
34.87386 86.000
34.89381 79.000
34.91376 81.000
34.93370 96.000
34.95365 92.000
34.97360 116.000
34.99354 110.000
35.01349 125.000
35.03344 156.000
35.05338 171.000
35.07333 175.000
35.09328 231.000
35.11322 255.000
35.13317 366.000
35.15312 430.000
35.17307 566.000
35.19301 708.000
35.21296 1044.000
35.23291 1233.000
35.25285 1600.000
35.27280 1854.000
35.29275 2100.000
35.31269 2158.000
35.33264 2094.000
35.35259 1964.000
35.37254 1766.000
35.39248 1609.000
35.41243 1337.000
35.43238 1082.000
35.45232 918.000
35.47227 674.000
35.49222 564.000
35.51216 421.000
35.53211 323.000
35.55206 257.000
35.57201 216.000
35.59195 209.000
35.61190 180.000
35.63185 173.000
35.65179 148.000
35.67174 159.000
35.69169 147.000
35.71163 184.000
35.73158 179.000
35.75153 191.000
35.77147 204.000
35.79142 233.000
35.81137 274.000
35.83132 314.000
35.85126 319.000
35.87121 435.000
35.89116 423.000
35.91110 537.000
35.93105 566.000
35.95100 503.000
35.97094 401.000
35.99089 414.000
36.01084 351.000
36.03079 321.000
36.05073 255.000
36.07068 192.000
36.09063 157.000
36.11057 156.000
36.13052 136.000
36.15047 107.000
36.17041 122.000
36.19036 93.000
36.21031 85.000
36.23025 94.000
36.25020 89.000
36.27015 84.000
36.29010 100.000
36.31004 82.000
36.32999 93.000
36.34994 94.000
36.36988 104.000
36.38983 84.000
36.40978 105.000
36.42972 100.000
36.44967 110.000
36.46962 111.000
36.48957 110.000
36.50951 110.000
36.52946 105.000
36.54941 106.000
36.56935 90.000
36.58930 106.000
36.60925 109.000
36.62919 114.000
36.64914 126.000
36.66909 102.000
36.68903 111.000
36.70898 114.000
36.72893 116.000
36.74888 150.000
36.76882 140.000
36.78877 155.000
36.80872 170.000
36.82866 179.000
36.84861 212.000
36.86856 231.000
36.88850 259.000
36.90845 254.000
36.92840 256.000
36.94835 273.000
36.96829 290.000
36.98824 224.000
37.00819 220.000
37.02813 209.000
37.04808 180.000
37.06803 158.000
37.08797 124.000
37.10792 108.000
37.12787 104.000
37.14781 73.000
37.16776 83.000
37.18771 84.000
37.20766 72.000
37.22760 76.000
37.24755 88.000
37.26750 79.000
37.28744 71.000
37.30739 80.000
37.32734 59.000
37.34728 78.000
37.36723 59.000
37.38718 69.000
37.40713 83.000
37.42707 76.000
37.44702 72.000
37.46697 62.000
37.48691 71.000
37.50686 77.000
37.52681 78.000
37.54675 60.000
37.56670 67.000
37.58665 87.000
37.60660 67.000
37.62654 67.000
37.64649 59.000
37.66644 70.000
37.68638 73.000
37.70633 75.000
37.72628 85.000
37.74622 74.000
37.76617 76.000
37.78612 74.000
37.80606 77.000
37.82601 77.000
37.84596 86.000
37.86591 86.000
37.88585 90.000
37.90580 90.000
37.92575 90.000
37.94569 101.000
37.96564 117.000
37.98559 83.000
38.00553 122.000
38.02548 97.000
38.04543 130.000
38.06538 124.000
38.08532 143.000
38.10527 137.000
38.12522 127.000
38.14516 131.000
38.16511 132.000
38.18506 143.000
38.20500 154.000
38.22495 140.000
38.24490 140.000
38.26484 130.000
38.28479 132.000
38.30474 121.000
38.32469 114.000
38.34463 133.000
38.36458 119.000
38.38453 127.000
38.40447 120.000
38.42442 125.000
38.44437 123.000
38.46431 121.000
38.48426 111.000
38.50421 131.000
38.52416 127.000
38.54410 145.000
38.56405 144.000
38.58400 138.000
38.60394 149.000
38.62389 152.000
38.64384 167.000
38.66378 163.000
38.68373 142.000
38.70368 133.000
38.72362 161.000
38.74357 155.000
38.76352 148.000
38.78347 137.000
38.80341 130.000
38.82336 163.000
38.84331 146.000
38.86325 125.000
38.88320 113.000
38.90315 152.000
38.92309 131.000
38.94304 129.000
38.96299 124.000
38.98294 127.000
39.00288 148.000
39.02283 129.000
39.04278 139.000
39.06272 137.000
39.08267 126.000
39.10262 173.000
39.12256 140.000
39.14251 150.000
39.16246 139.000
39.18241 166.000
39.20235 164.000
39.22230 175.000
39.24225 190.000
39.26219 192.000
39.28214 267.000
39.30209 259.000
39.32203 347.000
39.34198 375.000
39.36193 410.000
39.38187 446.000
39.40182 416.000
39.42177 418.000
39.44172 390.000
39.46166 380.000
39.48161 350.000
39.50156 304.000
39.52150 269.000
39.54145 245.000
39.56140 183.000
39.58134 166.000
39.60129 154.000
39.62124 105.000
39.64119 132.000
39.66113 108.000
39.68108 96.000
39.70103 74.000
39.72097 80.000
39.74092 98.000
39.76087 67.000
39.78081 69.000
39.80076 64.000
39.82071 66.000
39.84065 56.000
39.86060 75.000
39.88055 75.000
39.90050 73.000
39.92044 50.000
39.94039 60.000
39.96034 64.000
39.98028 57.000
40.00023 49.000
40.02018 81.000
40.04012 51.000
40.06007 56.000
40.08002 58.000
40.09997 60.000
40.11991 60.000
40.13986 64.000
40.15981 56.000
40.17975 60.000
40.19970 67.000
40.21965 56.000
40.23959 69.000
40.25954 52.000
40.27949 55.000
40.29943 61.000
40.31938 62.000
40.33933 56.000
40.35928 54.000
40.37922 66.000
40.39917 56.000
40.41912 46.000
40.43906 59.000
40.45901 52.000
40.47896 61.000
40.49890 57.000
40.51885 53.000
40.53880 55.000
40.55875 48.000
40.57869 63.000
40.59864 65.000
40.61859 56.000
40.63853 64.000
40.65848 70.000
40.67843 61.000
40.69837 53.000
40.71832 56.000
40.73827 59.000
40.75822 67.000
40.77816 58.000
40.79811 72.000
40.81806 64.000
40.83800 66.000
40.85795 63.000
40.87790 58.000
40.89784 61.000
40.91779 60.000
40.93774 67.000
40.95768 57.000
40.97763 58.000
40.99758 59.000
41.01753 65.000
41.03747 53.000
41.05742 80.000
41.07737 54.000
41.09731 62.000
41.11726 55.000
41.13721 57.000
41.15715 61.000
41.17710 62.000
41.19705 60.000
41.21700 61.000
41.23694 49.000
41.25689 56.000
41.27684 62.000
41.29678 65.000
41.31673 54.000
41.33668 58.000
41.35662 67.000
41.37657 43.000
41.39652 66.000
41.41646 59.000
41.43641 52.000
41.45636 50.000
41.47631 65.000
41.49625 66.000
41.51620 52.000
41.53615 56.000
41.55609 84.000
41.57604 54.000
41.59599 68.000
41.61593 56.000
41.63588 54.000
41.65583 54.000
41.67578 67.000
41.69572 60.000
41.71567 60.000
41.73562 71.000
41.75556 67.000
41.77551 72.000
41.79546 61.000
41.81540 67.000
41.83535 78.000
41.85530 70.000
41.87524 63.000
41.89519 53.000
41.91514 63.000
41.93509 60.000
41.95503 69.000
41.97498 63.000
41.99493 75.000
42.01487 70.000
42.03482 68.000
42.05477 80.000
42.07471 59.000
42.09466 78.000
42.11461 83.000
42.13456 67.000
42.15450 74.000
42.17445 69.000
42.19440 86.000
42.21434 68.000
42.23429 73.000
42.25424 87.000
42.27418 64.000
42.29413 76.000
42.31408 76.000
42.33403 52.000
42.35397 79.000
42.37392 69.000
42.39387 69.000
42.41381 68.000
42.43376 85.000
42.45371 80.000
42.47365 68.000
42.49360 58.000
42.51355 83.000
42.53349 86.000
42.55344 80.000
42.57339 77.000
42.59334 88.000
42.61328 86.000
42.63323 102.000
42.65318 111.000
42.67312 135.000
42.69307 127.000
42.71302 163.000
42.73296 151.000
42.75291 190.000
42.77286 214.000
42.79281 253.000
42.81275 319.000
42.83270 339.000
42.85265 408.000
42.87259 452.000
42.89254 469.000
42.91249 456.000
42.93243 449.000
42.95238 463.000
42.97233 377.000
42.99227 378.000
43.01222 341.000
43.03217 331.000
43.05212 289.000
43.07206 254.000
43.09201 238.000
43.11196 212.000
43.13190 169.000
43.15185 162.000
43.17180 158.000
43.19174 151.000
43.21169 151.000
43.23164 112.000
43.25159 122.000
43.27153 128.000
43.29148 142.000
43.31143 161.000
43.33137 151.000
43.35132 184.000
43.37127 195.000
43.39121 190.000
43.41116 185.000
43.43111 197.000
43.45105 209.000
43.47100 176.000
43.49095 148.000
43.51090 169.000
43.53084 174.000
43.55079 118.000
43.57074 140.000
43.59068 106.000
43.61063 119.000
43.63058 104.000
43.65052 82.000
43.67047 105.000
43.69042 99.000
43.71037 89.000
43.73031 98.000
43.75026 95.000
43.77021 78.000
43.79015 67.000
43.81010 83.000
43.83005 74.000
43.84999 72.000
43.86994 80.000
43.88989 64.000
43.90984 70.000
43.92978 92.000
43.94973 68.000
43.96968 78.000
43.98962 65.000
44.00957 69.000
44.02952 65.000
44.04946 80.000
44.06941 66.000
44.08936 75.000
44.10930 71.000
44.12925 84.000
44.14920 90.000
44.16915 75.000
44.18909 68.000
44.20904 84.000
44.22899 72.000
44.24893 87.000
44.26888 94.000
44.28883 88.000
44.30877 78.000
44.32872 85.000
44.34867 91.000
44.36862 87.000
44.38856 100.000
44.40851 87.000
44.42846 73.000
44.44840 82.000
44.46835 97.000
44.48830 94.000
44.50824 102.000
44.52819 59.000
44.54814 91.000
44.56808 71.000
44.58803 79.000
44.60798 85.000
44.62793 80.000
44.64787 92.000
44.66782 73.000
44.68777 78.000
44.70771 81.000
44.72766 72.000
44.74761 66.000
44.76755 64.000
44.78750 82.000
44.80745 71.000
44.82740 70.000
44.84734 65.000
44.86729 66.000
44.88724 66.000
44.90718 69.000
44.92713 63.000
44.94708 69.000
44.96702 67.000
44.98697 69.000
45.00692 75.000
45.02686 61.000
45.04681 54.000
45.06676 64.000
45.08671 62.000
45.10665 56.000
45.12660 60.000
45.14655 68.000
45.16649 64.000
45.18644 71.000
45.20639 61.000
45.22633 61.000
45.24628 65.000
45.26623 63.000
45.28618 70.000
45.30612 68.000
45.32607 68.000
45.34602 72.000
45.36596 61.000
45.38591 67.000
45.40586 62.000
45.42580 47.000
45.44575 57.000
45.46570 64.000
45.48565 73.000
45.50559 62.000
45.52554 60.000
45.54549 66.000
45.56543 61.000
45.58538 64.000
45.60533 63.000
45.62527 60.000
45.64522 54.000
45.66517 69.000
45.68511 87.000
45.70506 57.000
45.72501 66.000
45.74496 56.000
45.76490 54.000
45.78485 62.000
45.80480 62.000
45.82474 66.000
45.84469 64.000
45.86464 58.000
45.88458 69.000
45.90453 76.000
45.92448 65.000
45.94443 73.000
45.96437 55.000
45.98432 63.000
46.00427 65.000
46.02421 77.000
46.04416 62.000
46.06411 67.000
46.08405 72.000
46.10400 81.000
46.12395 87.000
46.14389 65.000
46.16384 67.000
46.18379 65.000
46.20374 60.000
46.22368 80.000
46.24363 72.000
46.26358 70.000
46.28352 63.000
46.30347 76.000
46.32342 75.000
46.34336 84.000
46.36331 76.000
46.38326 86.000
46.40321 66.000
46.42315 79.000
46.44310 55.000
46.46305 68.000
46.48299 78.000
46.50294 73.000
46.52289 54.000
46.54283 72.000
46.56278 74.000
46.58273 65.000
46.60267 55.000
46.62262 55.000
46.64257 57.000
46.66252 64.000
46.68246 53.000
46.70241 68.000
46.72236 72.000
46.74230 66.000
46.76225 62.000
46.78220 66.000
46.80214 72.000
46.82209 67.000
46.84204 71.000
46.86199 81.000
46.88193 83.000
46.90188 69.000
46.92183 74.000
46.94177 63.000
46.96172 76.000
46.98167 58.000
47.00161 76.000
47.02156 62.000
47.04151 69.000
47.06146 75.000
47.08140 77.000
47.10135 57.000
47.12130 88.000
47.14124 48.000
47.16119 71.000
47.18114 59.000
47.20108 60.000
47.22103 68.000
47.24098 75.000
47.26092 65.000
47.28087 63.000
47.30082 50.000
47.32077 55.000
47.34071 56.000
47.36066 66.000
47.38061 77.000
47.40055 56.000
47.42050 52.000
47.44045 61.000
47.46039 61.000
47.48034 66.000
47.50029 61.000
47.52024 68.000
47.54018 45.000
47.56013 51.000
47.58008 56.000
47.60002 82.000
47.61997 71.000
47.63992 60.000
47.65986 65.000
47.67981 55.000
47.69976 63.000
47.71970 68.000
47.73965 66.000
47.75960 63.000
47.77955 84.000
47.79949 62.000
47.81944 73.000
47.83939 65.000
47.85933 65.000
47.87928 82.000
47.89923 70.000
47.91917 64.000
47.93912 63.000
47.95907 84.000
47.97902 73.000
47.99896 49.000
48.01891 77.000
48.03886 73.000
48.05880 82.000
48.07875 85.000
48.09870 58.000
48.11864 80.000
48.13859 67.000
48.15854 80.000
48.17848 63.000
48.19843 92.000
48.21838 83.000
48.23833 88.000
48.25827 87.000
48.27822 76.000
48.29817 90.000
48.31811 90.000
48.33806 96.000
48.35801 95.000
48.37795 145.000
48.39790 160.000
48.41785 158.000
48.43780 187.000
48.45774 220.000
48.47769 222.000
48.49764 280.000
48.51758 302.000
48.53753 290.000
48.55748 284.000
48.57742 293.000
48.59737 295.000
48.61732 309.000
48.63726 285.000
48.65721 255.000
48.67716 250.000
48.69711 216.000
48.71705 206.000
48.73700 192.000
48.75695 175.000
48.77689 157.000
48.79684 138.000
48.81679 120.000
48.83673 114.000
48.85668 108.000
48.87663 113.000
48.89658 97.000
48.91652 110.000
48.93647 113.000
48.95642 82.000
48.97636 93.000
48.99631 81.000
49.01626 70.000
49.03620 75.000
49.05615 72.000
49.07610 88.000
49.09605 69.000
49.11599 70.000
49.13594 71.000
49.15589 68.000
49.17583 76.000
49.19578 64.000
49.21573 61.000
49.23567 64.000
49.25562 58.000
49.27557 68.000
49.29551 73.000
49.31546 74.000
49.33541 69.000
49.35536 66.000
49.37530 59.000
49.39525 50.000
49.41520 65.000
49.43514 66.000
49.45509 62.000
49.47504 62.000
49.49498 59.000
49.51493 63.000
49.53488 69.000
49.55483 56.000
49.57477 66.000
49.59472 54.000
49.61467 67.000
49.63461 64.000
49.65456 49.000
49.67451 57.000
49.69445 56.000
49.71440 69.000
49.73435 55.000
49.75429 54.000
49.77424 66.000
49.79419 66.000
49.81414 60.000
49.83408 57.000
49.85403 55.000
49.87398 58.000
49.89392 54.000
49.91387 59.000
49.93382 61.000
49.95376 60.000
49.97371 66.000
49.99366 74.000
50.01361 61.000
50.03355 69.000
50.05350 64.000
50.07345 48.000
50.09339 72.000
50.11334 68.000
50.13329 60.000
50.15323 54.000
50.17318 73.000
50.19313 71.000
50.21307 56.000
50.23302 58.000
50.25297 55.000
50.27292 66.000
50.29286 59.000
50.31281 54.000
50.33276 66.000
50.35270 49.000
50.37265 60.000
50.39260 63.000
50.41254 62.000
50.43249 62.000
50.45244 52.000
50.47239 56.000
50.49233 52.000
50.51228 50.000
50.53223 57.000
50.55217 73.000
50.57212 47.000
50.59207 45.000
50.61201 60.000
50.63196 74.000
50.65191 72.000
50.67186 54.000
50.69180 59.000
50.71175 57.000
50.73170 59.000
50.75164 56.000
50.77159 54.000
50.79154 58.000
50.81148 55.000
50.83143 53.000
50.85138 69.000
50.87132 61.000
50.89127 55.000
50.91122 67.000
50.93117 59.000
50.95111 55.000
50.97106 63.000
50.99101 53.000
51.01095 51.000
51.03090 52.000
51.05085 62.000
51.07079 60.000
51.09074 61.000
51.11069 76.000
51.13064 59.000
51.15058 69.000
51.17053 57.000
51.19048 66.000
51.21042 77.000
51.23037 61.000
51.25032 86.000
51.27026 74.000
51.29021 64.000
51.31016 44.000
51.33010 65.000
51.35005 78.000
51.37000 70.000
51.38995 76.000
51.40989 69.000
51.42984 61.000
51.44979 62.000
51.46973 57.000
51.48968 62.000
51.50963 63.000
51.52957 73.000
51.54952 63.000
51.56947 59.000
51.58942 62.000
51.60936 68.000
51.62931 56.000
51.64926 70.000
51.66920 52.000
51.68915 61.000
51.70910 62.000
51.72904 62.000
51.74899 38.000
51.76894 74.000
51.78888 65.000
51.80883 48.000
51.82878 57.000
51.84873 51.000
51.86867 55.000
51.88862 48.000
51.90857 61.000
51.92851 63.000
51.94846 54.000
51.96841 63.000
51.98835 69.000
52.00830 67.000
52.02825 71.000
52.04820 67.000
52.06814 58.000
52.08809 56.000
52.10804 60.000
52.12798 53.000
52.14793 58.000
52.16788 56.000
52.18782 54.000
52.20777 54.000
52.22772 62.000
52.24767 59.000
52.26761 62.000
52.28756 63.000
52.30751 68.000
52.32745 68.000
52.34740 44.000
52.36735 47.000
52.38729 46.000
52.40724 59.000
52.42719 54.000
52.44713 73.000
52.46708 66.000
52.48703 62.000
52.50698 52.000
52.52692 64.000
52.54687 77.000
52.56682 45.000
52.58676 55.000
52.60671 53.000
52.62666 60.000
52.64660 63.000
52.66655 70.000
52.68650 46.000
52.70645 60.000
52.72639 58.000
52.74634 47.000
52.76629 58.000
52.78623 55.000
52.80618 67.000
52.82613 64.000
52.84607 61.000
52.86602 77.000
52.88597 70.000
52.90591 50.000
52.92586 62.000
52.94581 77.000
52.96576 70.000
52.98570 77.000
53.00565 87.000
53.02560 89.000
53.04554 91.000
53.06549 93.000
53.08544 119.000
53.10538 140.000
53.12533 147.000
53.14528 134.000
53.16523 136.000
53.18517 177.000
53.20512 173.000
53.22507 156.000
53.24501 172.000
53.26496 166.000
53.28491 165.000
53.30485 169.000
53.32480 164.000
53.34475 177.000
53.36469 147.000
53.38464 144.000
53.40459 144.000
53.42454 117.000
53.44448 113.000
53.46443 104.000
53.48438 99.000
53.50432 104.000
53.52427 92.000
53.54422 67.000
53.56416 89.000
53.58411 91.000
53.60406 92.000
53.62401 94.000
53.64395 82.000
53.66390 78.000
53.68385 94.000
53.70379 66.000
53.72374 79.000
53.74369 60.000
53.76363 66.000
53.78358 67.000
53.80353 88.000
53.82348 61.000
53.84342 70.000
53.86337 71.000
53.88332 59.000
53.90326 68.000
53.92321 71.000
53.94316 71.000
53.96310 78.000
53.98305 67.000
54.00300 63.000
54.02294 52.000
54.04289 65.000
54.06284 61.000
54.08279 65.000
54.10273 62.000
54.12268 55.000
54.14263 60.000
54.16257 52.000
54.18252 52.000
54.20247 55.000
54.22241 59.000
54.24236 68.000
54.26231 49.000
54.28226 52.000
54.30220 57.000
54.32215 53.000
54.34210 65.000
54.36204 49.000
54.38199 62.000
54.40194 45.000
54.42188 49.000
54.44183 57.000
54.46178 61.000
54.48172 72.000
54.50167 69.000
54.52162 52.000
54.54157 49.000
54.56151 66.000
54.58146 48.000
54.60141 49.000
54.62135 56.000
54.64130 52.000
54.66125 53.000
54.68119 48.000
54.70114 50.000
54.72109 51.000
54.74104 57.000
54.76098 51.000
54.78093 40.000
54.80088 57.000
54.82082 62.000
54.84077 58.000
54.86072 45.000
54.88066 56.000
54.90061 56.000
54.92056 55.000
54.94050 50.000
54.96045 45.000
54.98040 54.000
55.00035 41.000
55.02029 44.000
55.04024 60.000
55.06019 63.000
55.08013 40.000
55.10008 50.000
55.12003 59.000
55.13997 46.000
55.15992 41.000
55.17987 50.000
55.19982 46.000
55.21976 45.000
55.23971 56.000
55.25966 55.000
55.27960 48.000
55.29955 49.000
55.31950 64.000
55.33944 48.000
55.35939 58.000
55.37934 56.000
55.39929 49.000
55.41923 41.000
55.43918 47.000
55.45913 53.000
55.47907 48.000
55.49902 52.000
55.51897 64.000
55.53891 66.000
55.55886 64.000
55.57881 57.000
55.59875 44.000
55.61870 46.000
55.63865 52.000
55.65860 51.000
55.67854 47.000
55.69849 53.000
55.71844 51.000
55.73838 60.000
55.75833 49.000
55.77828 65.000
55.79822 66.000
55.81817 48.000
55.83812 61.000
55.85807 65.000
55.87801 39.000
55.89796 48.000
55.91791 58.000
55.93785 63.000
55.95780 51.000
55.97775 53.000
55.99769 52.000
56.01764 61.000
56.03759 55.000
56.05753 52.000
56.07748 67.000
56.09743 55.000
56.11738 53.000
56.13732 68.000
56.15727 53.000
56.17722 65.000
56.19716 55.000
56.21711 61.000
56.23706 61.000
56.25700 73.000
56.27695 65.000
56.29690 65.000
56.31685 79.000
56.33679 79.000
56.35674 72.000
56.37669 79.000
56.39663 90.000
56.41658 104.000
56.43653 91.000
56.45647 101.000
56.47642 135.000
56.49637 162.000
56.51631 192.000
56.53626 198.000
56.55621 212.000
56.57616 235.000
56.59610 270.000
56.61605 307.000
56.63600 368.000
56.65594 390.000
56.67589 424.000
56.69584 449.000
56.71578 451.000
56.73573 449.000
56.75568 480.000
56.77563 411.000
56.79557 446.000
56.81552 431.000
56.83547 423.000
56.85541 393.000
56.87536 344.000
56.89531 332.000
56.91525 279.000
56.93520 258.000
56.95515 220.000
56.97510 214.000
56.99504 190.000
57.01499 172.000
57.03494 163.000
57.05488 105.000
57.07483 120.000
57.09478 109.000
57.11472 83.000
57.13467 96.000
57.15462 90.000
57.17456 84.000
57.19451 84.000
57.21446 90.000
57.23441 87.000
57.25435 70.000
57.27430 69.000
57.29425 58.000
57.31419 64.000
57.33414 79.000
57.35409 66.000
57.37403 67.000
57.39398 51.000
57.41393 84.000
57.43388 53.000
57.45382 66.000
57.47377 77.000
57.49372 49.000
57.51366 55.000
57.53361 56.000
57.55356 58.000
57.57350 71.000
57.59345 75.000
57.61340 58.000
57.63334 64.000
57.65329 53.000
57.67324 51.000
57.69319 61.000
57.71313 60.000
57.73308 68.000
57.75303 55.000
57.77297 67.000
57.79292 57.000
57.81287 66.000
57.83281 70.000
57.85276 71.000
57.87271 61.000
57.89266 58.000
57.91260 61.000
57.93255 52.000
57.95250 73.000
57.97244 62.000
57.99239 64.000
58.01234 60.000
58.03228 55.000
58.05223 62.000
58.07218 54.000
58.09212 40.000
58.11207 42.000
58.13202 45.000
58.15197 46.000
58.17191 55.000
58.19186 42.000
58.21181 53.000
58.23175 54.000
58.25170 57.000
58.27165 48.000
58.29159 48.000
58.31154 53.000
58.33149 56.000
58.35144 47.000
58.37138 50.000
58.39133 44.000
58.41128 48.000
58.43122 47.000
58.45117 53.000
58.47112 54.000
58.49106 35.000
58.51101 43.000
58.53096 55.000
58.55090 51.000
58.57085 61.000
58.59080 38.000
58.61075 52.000
58.63069 45.000
58.65064 53.000
58.67059 46.000
58.69053 52.000
58.71048 44.000
58.73043 47.000
58.75037 51.000
58.77032 58.000
58.79027 45.000
58.81022 53.000
58.83016 41.000
58.85011 47.000
58.87006 56.000
58.89000 64.000
58.90995 45.000
58.92990 51.000
58.94984 50.000
58.96979 53.000
58.98974 40.000
59.00969 65.000
59.02963 55.000
59.04958 46.000
59.06953 45.000
59.08947 58.000
59.10942 43.000
59.12937 43.000
59.14931 42.000
59.16926 49.000
59.18921 46.000
59.20915 45.000
59.22910 50.000
59.24905 52.000
59.26900 60.000
59.28894 45.000
59.30889 38.000
59.32884 58.000
59.34878 42.000
59.36873 56.000
59.38868 57.000
59.40862 52.000
59.42857 43.000
59.44852 56.000
59.46847 54.000
59.48841 45.000
59.50836 39.000
59.52831 53.000
59.54825 49.000
59.56820 44.000
59.58815 63.000
59.60809 45.000
59.62804 57.000
59.64799 44.000
59.66793 49.000
59.68788 45.000
59.70783 66.000
59.72778 52.000
59.74772 59.000
59.76767 52.000
59.78762 49.000
59.80756 53.000
59.82751 50.000
59.84746 56.000
59.86740 62.000
59.88735 53.000
59.90730 57.000
59.92725 49.000
59.94719 43.000
59.96714 58.000
59.98709 48.000
60.00703 55.000
60.02698 44.000
60.04693 49.000
60.06687 45.000
60.08682 46.000
60.10677 41.000
60.12671 52.000
60.14666 54.000
60.16661 45.000
60.18656 54.000
60.20650 53.000
60.22645 56.000
60.24640 61.000
60.26634 42.000
60.28629 57.000
60.30624 53.000
60.32618 59.000
60.34613 62.000
60.36608 49.000
60.38603 40.000
60.40597 48.000
60.42592 55.000
60.44587 57.000
60.46581 50.000
60.48576 45.000
60.50571 54.000
60.52565 48.000
60.54560 45.000
60.56555 41.000
60.58550 59.000
60.60544 51.000
60.62539 55.000
60.64534 41.000
60.66528 50.000
60.68523 51.000
60.70518 38.000
60.72512 59.000
60.74507 50.000
60.76502 58.000
60.78496 51.000
60.80491 55.000
60.82486 48.000
60.84481 56.000
60.86475 60.000
60.88470 46.000
60.90465 63.000
60.92459 54.000
60.94454 71.000
60.96449 62.000
60.98443 66.000
61.00438 56.000
61.02433 71.000
61.04428 64.000
61.06422 72.000
61.08417 69.000
61.10412 62.000
61.12406 70.000
61.14401 68.000
61.16396 69.000
61.18390 91.000
61.20385 70.000
61.22380 90.000
61.24374 74.000
61.26369 87.000
61.28364 72.000
61.30359 87.000
61.32353 102.000
61.34348 110.000
61.36343 100.000
61.38337 135.000
61.40332 123.000
61.42327 121.000
61.44321 165.000
61.46316 163.000
61.48311 142.000
61.50306 150.000
61.52300 155.000
61.54295 171.000
61.56290 180.000
61.58284 167.000
61.60279 184.000
61.62274 161.000
61.64268 178.000
61.66263 162.000
61.68258 133.000
61.70252 119.000
61.72247 152.000
61.74242 132.000
61.76237 124.000
61.78231 146.000
61.80226 122.000
61.82221 96.000
61.84215 104.000
61.86210 101.000
61.88205 108.000
61.90199 116.000
61.92194 115.000
61.94189 109.000
61.96184 137.000
61.98178 132.000
62.00173 153.000
62.02168 165.000
62.04162 203.000
62.06157 209.000
62.08152 237.000
62.10146 252.000
62.12141 269.000
62.14136 307.000
62.16131 387.000
62.18125 430.000
62.20120 453.000
62.22115 448.000
62.24109 541.000
62.26104 536.000
62.28099 553.000
62.30093 569.000
62.32088 501.000
62.34083 545.000
62.36077 539.000
62.38072 522.000
62.40067 509.000
62.42062 482.000
62.44056 402.000
62.46051 407.000
62.48046 377.000
62.50040 342.000
62.52035 318.000
62.54030 282.000
62.56024 227.000
62.58019 202.000
62.60014 195.000
62.62009 153.000
62.64003 162.000
62.65998 119.000
62.67993 104.000
62.69987 113.000
62.71982 96.000
62.73977 111.000
62.75971 87.000
62.77966 88.000
62.79961 68.000
62.81955 73.000
62.83950 78.000
62.85945 76.000
62.87940 68.000
62.89934 63.000
62.91929 66.000
62.93924 75.000
62.95918 76.000
62.97913 66.000
62.99908 69.000
63.01902 70.000
63.03897 72.000
63.05892 72.000
63.07887 82.000
63.09881 62.000
63.11876 97.000
63.13871 58.000
63.15865 78.000
63.17860 69.000
63.19855 75.000
63.21849 89.000
63.23844 66.000
63.25839 71.000
63.27833 70.000
63.29828 74.000
63.31823 83.000
63.33818 72.000
63.35812 81.000
63.37807 75.000
63.39802 53.000
63.41796 74.000
63.43791 72.000
63.45786 84.000
63.47780 74.000
63.49775 80.000
63.51770 56.000
63.53765 81.000
63.55759 67.000
63.57754 68.000
63.59749 77.000
63.61743 65.000
63.63738 61.000
63.65733 66.000
63.67727 57.000
63.69722 76.000
63.71717 62.000
63.73712 66.000
63.75706 67.000
63.77701 49.000
63.79696 59.000
63.81690 77.000
63.83685 63.000
63.85680 67.000
63.87674 68.000
63.89669 77.000
63.91664 52.000
63.93658 61.000
63.95653 68.000
63.97648 67.000
63.99643 59.000
64.01637 74.000
64.03632 72.000
64.05627 65.000
64.07621 63.000
64.09616 68.000
64.11611 77.000
64.13605 70.000
64.15600 64.000
64.17595 68.000
64.19590 86.000
64.21584 73.000
64.23579 78.000
64.25574 76.000
64.27568 90.000
64.29563 97.000
64.31558 98.000
64.33552 102.000
64.35547 110.000
64.37542 98.000
64.39536 124.000
64.41531 144.000
64.43526 181.000
64.45521 182.000
64.47515 222.000
64.49510 235.000
64.51505 261.000
64.53499 284.000
64.55494 213.000
64.57489 251.000
64.59483 242.000
64.61478 219.000
64.63473 241.000
64.65468 216.000
64.67462 183.000
64.69457 211.000
64.71452 177.000
64.73446 173.000
64.75441 191.000
64.77436 144.000
64.79430 129.000
64.81425 107.000
64.83420 98.000
64.85414 105.000
64.87409 84.000
64.89404 105.000
64.91399 80.000
64.93393 82.000
64.95388 84.000
64.97383 73.000
64.99377 61.000
65.01372 74.000
65.03367 60.000
65.05361 64.000
65.07356 60.000
65.09351 87.000
65.11346 63.000
65.13340 66.000
65.15335 57.000
65.17330 68.000
65.19324 58.000
65.21319 73.000
65.23314 65.000
65.25308 72.000
65.27303 57.000
65.29298 77.000
65.31293 62.000
65.33287 46.000
65.35282 69.000
65.37277 72.000
65.39271 76.000
65.41266 80.000
65.43261 84.000
65.45255 87.000
65.47250 80.000
65.49245 85.000
65.51239 76.000
65.53234 68.000
65.55229 78.000
65.57224 87.000
65.59218 75.000
65.61213 73.000
65.63208 74.000
65.65202 84.000
65.67197 51.000
65.69192 82.000
65.71186 66.000
65.73181 58.000
65.75176 81.000
65.77171 77.000
65.79165 63.000
65.81160 75.000
65.83155 100.000
65.85149 82.000
65.87144 93.000
65.89139 95.000
65.91133 102.000
65.93128 83.000
65.95123 81.000
65.97117 79.000
65.99112 92.000
66.01107 100.000
66.03102 83.000
66.05096 94.000
66.07091 87.000
66.09086 84.000
66.11080 66.000
66.13075 86.000
66.15070 83.000
66.17064 71.000
66.19059 85.000
66.21054 94.000
66.23049 81.000
66.25043 90.000
66.27038 97.000
66.29033 84.000
66.31027 89.000
66.33022 87.000
66.35017 82.000
66.37011 95.000
66.39006 90.000
66.41001 87.000
66.42995 90.000
66.44990 87.000
66.46985 89.000
66.48980 86.000
66.50974 85.000
66.52969 92.000
66.54964 93.000
66.56958 98.000
66.58953 90.000
66.60948 83.000
66.62942 86.000
66.64937 98.000
66.66932 97.000
66.68927 98.000
66.70921 87.000
66.72916 104.000
66.74911 115.000
66.76905 117.000
66.78900 124.000
66.80895 139.000
66.82889 137.000
66.84884 131.000
66.86879 152.000
66.88874 136.000
66.90868 132.000
66.92863 131.000
66.94858 110.000
66.96852 126.000
66.98847 123.000
67.00842 124.000
67.02836 119.000
67.04831 102.000
67.06826 105.000
67.08820 82.000
67.10815 87.000
67.12810 78.000
67.14805 75.000
67.16799 66.000
67.18794 60.000
67.20789 76.000
67.22783 53.000
67.24778 76.000
67.26773 76.000
67.28767 63.000
67.30762 63.000
67.32757 55.000
67.34752 45.000
67.36746 47.000
67.38741 56.000
67.40736 58.000
67.42730 72.000
67.44725 56.000
67.46720 49.000
67.48714 50.000
67.50709 50.000
67.52704 50.000
67.54698 48.000
67.56693 37.000
67.58688 49.000
67.60683 63.000
67.62677 57.000
67.64672 37.000
67.66667 50.000
67.68661 51.000
67.70656 43.000
67.72651 56.000
67.74645 61.000
67.76640 51.000
67.78635 51.000
67.80630 46.000
67.82624 42.000
67.84619 46.000
67.86614 45.000
67.88608 49.000
67.90603 37.000
67.92598 44.000
67.94592 61.000
67.96587 40.000
67.98582 45.000
68.00576 47.000
68.02571 53.000
68.04566 49.000
68.06561 43.000
68.08555 40.000
68.10550 35.000
68.12545 44.000
68.14539 50.000
68.16534 35.000
68.18529 46.000
68.20523 58.000
68.22518 46.000
68.24513 46.000
68.26508 41.000
68.28502 47.000
68.30497 48.000
68.32492 40.000
68.34486 51.000
68.36481 44.000
68.38476 48.000
68.40470 55.000
68.42465 45.000
68.44460 41.000
68.46455 41.000
68.48449 44.000
68.50444 32.000
68.52439 44.000
68.54433 34.000
68.56428 47.000
68.58423 53.000
68.60417 32.000
68.62412 50.000
68.64407 48.000
68.66401 51.000
68.68396 30.000
68.70391 45.000
68.72386 42.000
68.74380 43.000
68.76375 49.000
68.78370 52.000
68.80364 42.000
68.82359 53.000
68.84354 54.000
68.86348 46.000
68.88343 53.000
68.90338 46.000
68.92333 38.000
68.94327 50.000
68.96322 48.000
68.98317 37.000
69.00311 56.000
69.02306 32.000
69.04301 50.000
69.06295 55.000
69.08290 37.000
69.10285 37.000
69.12279 49.000
69.14274 40.000
69.16269 54.000
69.18264 42.000
69.20258 56.000
69.22253 41.000
69.24248 47.000
69.26242 49.000
69.28237 42.000
69.30232 39.000
69.32226 41.000
69.34221 46.000
69.36216 45.000
69.38211 45.000
69.40205 44.000
69.42200 53.000
69.44195 39.000
69.46189 51.000
69.48184 48.000
69.50179 52.000
69.52173 46.000
69.54168 41.000
69.56163 47.000
69.58157 45.000
69.60152 38.000
69.62147 48.000
69.64142 46.000
69.66136 40.000
69.68131 37.000
69.70126 33.000
69.72120 39.000
69.74115 44.000
69.76110 59.000
69.78104 38.000
69.80099 40.000
69.82094 51.000
69.84089 43.000
69.86083 49.000
69.88078 38.000
69.90073 47.000
69.92067 41.000
69.94062 40.000
69.96057 50.000
69.98051 46.000
70.00046 38.000
70.02041 39.000
70.04035 50.000
70.06030 47.000
70.08025 42.000
70.10020 46.000
70.12014 47.000
70.14009 39.000
70.16004 48.000
70.17998 49.000
70.19993 40.000
70.21988 56.000
70.23982 45.000
70.25977 58.000
70.27972 45.000
70.29967 59.000
70.31961 56.000
70.33956 62.000
70.35951 74.000
70.37945 70.000
70.39940 64.000
70.41935 74.000
70.43929 63.000
70.45924 57.000
70.47919 67.000
70.49914 67.000
70.51908 61.000
70.53903 80.000
70.55898 75.000
70.57892 73.000
70.59887 77.000
70.61882 74.000
70.63876 81.000
70.65871 73.000
70.67866 53.000
70.69860 82.000
70.71855 69.000
70.73850 68.000
70.75845 74.000
70.77839 77.000
70.79834 64.000
70.81829 67.000
70.83823 62.000
70.85818 52.000
70.87813 67.000
70.89807 70.000
70.91802 62.000
70.93797 66.000
70.95792 49.000
70.97786 51.000
70.99781 51.000
71.01776 50.000
71.03770 55.000
71.05765 57.000
71.07760 65.000
71.09754 37.000
71.11749 60.000
71.13744 53.000
71.15738 56.000
71.17733 50.000
71.19728 46.000
71.21723 43.000
71.23717 50.000
71.25712 33.000
71.27707 39.000
71.29701 39.000
71.31696 37.000
71.33691 41.000
71.35685 46.000
71.37680 50.000
71.39675 44.000
71.41670 44.000
71.43664 38.000
71.45659 45.000
71.47654 45.000
71.49648 48.000
71.51643 66.000
71.53638 55.000
71.55632 46.000
71.57627 38.000
71.59622 48.000
71.61616 60.000
71.63611 51.000
71.65606 37.000
71.67601 43.000
71.69595 42.000
71.71590 52.000
71.73585 57.000
71.75579 48.000
71.77574 55.000
71.79569 55.000
71.81563 40.000
71.83558 46.000
71.85553 54.000
71.87548 41.000
71.89542 48.000
71.91537 50.000
71.93532 46.000
71.95526 45.000
71.97521 51.000
71.99516 50.000
72.01510 38.000
72.03505 48.000
72.05500 50.000
72.07495 57.000
72.09489 49.000
72.11484 38.000
72.13479 48.000
72.15473 44.000
72.17468 34.000
72.19463 52.000
72.21457 53.000
72.23452 63.000
72.25447 37.000
72.27441 39.000
72.29436 31.000
72.31431 54.000
72.33426 45.000
72.35420 42.000
72.37415 49.000
72.39410 52.000
72.41404 35.000
72.43399 54.000
72.45394 34.000
72.47388 43.000
72.49383 41.000
72.51378 44.000
72.53373 51.000
72.55367 41.000
72.57362 46.000
72.59357 52.000
72.61351 42.000
72.63346 38.000
72.65341 45.000
72.67335 31.000
72.69330 46.000
72.71325 59.000
72.73319 33.000
72.75314 56.000
72.77309 40.000
72.79304 33.000
72.81298 53.000
72.83293 51.000
72.85288 47.000
72.87282 39.000
72.89277 48.000
72.91272 43.000
72.93266 46.000
72.95261 44.000
72.97256 52.000
72.99251 48.000
73.01245 48.000
73.03240 47.000
73.05235 39.000
73.07229 55.000
73.09224 44.000
73.11219 47.000
73.13213 42.000
73.15208 50.000
73.17203 47.000
73.19197 62.000
73.21192 50.000
73.23187 53.000
73.25182 64.000
73.27176 57.000
73.29171 62.000
73.31166 62.000
73.33160 56.000
73.35155 57.000
73.37150 58.000
73.39144 77.000
73.41139 61.000
73.43134 80.000
73.45129 84.000
73.47123 99.000
73.49118 95.000
73.51113 112.000
73.53107 109.000
73.55102 121.000
73.57097 139.000
73.59091 150.000
73.61086 144.000
73.63081 149.000
73.65076 175.000
73.67070 168.000
73.69065 157.000
73.71060 164.000
73.73054 140.000
73.75049 157.000
73.77044 160.000
73.79038 160.000
73.81033 136.000
73.83028 115.000
73.85022 137.000
73.87017 143.000
73.89012 130.000
73.91007 119.000
73.93001 117.000
73.94996 103.000
73.96991 110.000
73.98985 87.000
74.00980 86.000
74.02975 82.000
74.04969 72.000
74.06964 60.000
74.08959 68.000
74.10954 71.000
74.12948 62.000
74.14943 67.000
74.16938 65.000
74.18932 61.000
74.20927 46.000
74.22922 64.000
74.24916 49.000
74.26911 61.000
74.28906 66.000
74.30900 55.000
74.32895 55.000
74.34890 69.000
74.36885 51.000
74.38879 68.000
74.40874 76.000
74.42869 70.000
74.44863 64.000
74.46858 74.000
74.48853 68.000
74.50847 73.000
74.52842 71.000
74.54837 76.000
74.56832 86.000
74.58826 84.000
74.60821 99.000
74.62816 63.000
74.64810 78.000
74.66805 98.000
74.68800 103.000
74.70794 76.000
74.72789 75.000
74.74784 91.000
74.76778 81.000
74.78773 91.000
74.80768 70.000
74.82763 79.000
74.84757 86.000
74.86752 78.000
74.88747 64.000
74.90741 67.000
74.92736 58.000
74.94731 62.000
74.96725 81.000
74.98720 67.000
75.00715 68.000
75.02710 58.000
75.04704 57.000
75.06699 48.000
75.08694 56.000
75.10688 56.000
75.12683 45.000
75.14678 43.000
75.16672 53.000
75.18667 44.000
75.20662 47.000
75.22657 57.000
75.24651 52.000
75.26646 59.000
75.28641 46.000
75.30635 40.000
75.32630 39.000
75.34625 46.000
75.36619 34.000
75.38614 50.000
75.40609 49.000
75.42603 48.000
75.44598 40.000
75.46593 49.000
75.48588 34.000
75.50582 53.000
75.52577 48.000
75.54572 39.000
75.56566 46.000
75.58561 44.000
75.60556 36.000
75.62550 45.000
75.64545 39.000
75.66540 40.000
75.68535 50.000
75.70529 55.000
75.72524 54.000
75.74519 64.000
75.76513 38.000
75.78508 43.000
75.80503 45.000
75.82497 43.000
75.84492 52.000
75.86487 47.000
75.88481 54.000
75.90476 47.000
75.92471 65.000
75.94466 59.000
75.96460 44.000
75.98455 55.000
76.00450 73.000
76.02444 58.000
76.04439 69.000
76.06434 61.000
76.08428 58.000
76.10423 60.000
76.12418 55.000
76.14413 64.000
76.16407 70.000
76.18402 71.000
76.20397 54.000
76.22391 67.000
76.24386 84.000
76.26381 42.000
76.28375 55.000
76.30370 68.000
76.32365 63.000
76.34359 52.000
76.36354 68.000
76.38349 63.000
76.40344 60.000
76.42338 51.000
76.44333 50.000
76.46328 49.000
76.48322 58.000
76.50317 45.000
76.52312 55.000
76.54306 56.000
76.56301 56.000
76.58296 53.000
76.60291 54.000
76.62285 41.000
76.64280 37.000
76.66275 39.000
76.68269 51.000
76.70264 49.000
76.72259 47.000
76.74253 52.000
76.76248 41.000
76.78243 48.000
76.80238 55.000
76.82232 41.000
76.84227 47.000
76.86222 43.000
76.88216 60.000
76.90211 41.000
76.92206 40.000
76.94200 50.000
76.96195 43.000
76.98190 43.000
77.00184 64.000
77.02179 57.000
77.04174 54.000
77.06169 41.000
77.08163 44.000
77.10158 46.000
77.12153 61.000
77.14147 66.000
77.16142 63.000
77.18137 73.000
77.20131 65.000
77.22126 50.000
77.24121 55.000
77.26116 69.000
77.28110 59.000
77.30105 72.000
77.32100 55.000
77.34094 72.000
77.36089 83.000
77.38084 96.000
77.40078 91.000
77.42073 100.000
77.44068 90.000
77.46062 93.000
77.48057 89.000
77.50052 89.000
77.52047 87.000
77.54041 91.000
77.56036 89.000
77.58031 79.000
77.60025 88.000
77.62020 96.000
77.64015 73.000
77.66009 83.000
77.68004 71.000
77.69999 86.000
77.71994 91.000
77.73988 80.000
77.75983 74.000
77.77978 70.000
77.79972 80.000
77.81967 83.000
77.83962 79.000
77.85956 85.000
77.87951 81.000
77.89946 83.000
77.91940 73.000
77.93935 71.000
77.95930 84.000
77.97925 73.000
77.99919 65.000
78.01914 82.000
78.03909 79.000
78.05903 67.000
78.07898 64.000
78.09893 74.000
78.11887 88.000
78.13882 71.000
78.15877 92.000
78.17872 77.000
78.19866 76.000
78.21861 88.000
78.23856 112.000
78.25850 86.000
78.27845 87.000
78.29840 88.000
78.31834 77.000
78.33829 86.000
78.35824 76.000
78.37819 86.000
78.39813 87.000
78.41808 99.000
78.43803 76.000
78.45797 86.000
78.47792 92.000
78.49787 94.000
78.51781 90.000
78.53776 89.000
78.55771 96.000
78.57765 74.000
78.59760 85.000
78.61755 87.000
78.63750 74.000
78.65744 88.000
78.67739 98.000
78.69734 92.000
78.71728 95.000
78.73723 80.000
78.75718 87.000
78.77712 74.000
78.79707 74.000
78.81702 65.000
78.83697 69.000
78.85691 54.000
78.87686 79.000
78.89681 53.000
78.91675 73.000
78.93670 62.000
78.95665 57.000
78.97659 52.000
78.99654 55.000
79.01649 55.000
79.03643 44.000
79.05638 46.000
79.07633 42.000
79.09628 51.000
79.11622 44.000
79.13617 62.000
79.15612 45.000
79.17606 43.000
79.19601 46.000
79.21596 44.000
79.23590 39.000
79.25585 47.000
79.27580 45.000
79.29575 49.000
79.31569 45.000
79.33564 37.000
79.35559 50.000
79.37553 42.000
79.39548 45.000
79.41543 44.000
79.43537 37.000
79.45532 42.000
79.47527 52.000
79.49521 50.000
79.51516 41.000
79.53511 37.000
79.55506 36.000
79.57500 58.000
79.59495 47.000
79.61490 51.000
79.63484 46.000
79.65479 42.000
79.67474 49.000
79.69468 50.000
79.71463 49.000
79.73458 39.000
79.75453 35.000
79.77447 36.000
79.79442 38.000
79.81437 36.000
79.83431 49.000
79.85426 39.000
79.87421 52.000
79.89415 45.000
79.91410 43.000
79.93405 47.000
79.95399 49.000
79.97394 44.000
79.99389 39.000
80.01384 47.000
80.03378 53.000
80.05373 51.000
80.07368 33.000
80.09362 48.000
80.11357 44.000
80.13352 67.000
80.15346 36.000
80.17341 42.000
80.19336 45.000
80.21331 47.000
80.23325 31.000
80.25320 43.000
80.27315 41.000
80.29309 30.000
80.31304 55.000
80.33299 48.000
80.35293 40.000
80.37288 52.000
80.39283 54.000
80.41278 38.000
80.43272 45.000
80.45267 44.000
80.47262 40.000
80.49256 37.000
80.51251 46.000
80.53246 55.000
80.55240 51.000
80.57235 48.000
80.59230 45.000
80.61224 52.000
80.63219 42.000
80.65214 47.000
80.67209 43.000
80.69203 61.000
80.71198 55.000
80.73193 45.000
80.75187 49.000
80.77182 41.000
80.79177 41.000
80.81171 36.000
80.83166 62.000
80.85161 54.000
80.87156 43.000
80.89150 50.000
80.91145 43.000
80.93140 49.000
80.95134 47.000
80.97129 61.000
80.99124 47.000
81.01118 43.000
81.03113 51.000
81.05108 59.000
81.07102 49.000
81.09097 47.000
81.11092 46.000
81.13087 53.000
81.15081 50.000
81.17076 48.000
81.19071 56.000
81.21065 41.000
81.23060 60.000
81.25055 40.000
81.27049 44.000
81.29044 45.000
81.31039 45.000
81.33034 54.000
81.35028 58.000
81.37023 47.000
81.39018 51.000
81.41012 40.000
81.43007 43.000
81.45002 52.000
81.46996 59.000
81.48991 53.000
81.50986 67.000
81.52980 53.000
81.54975 45.000
81.56970 66.000
81.58965 51.000
81.60959 59.000
81.62954 56.000
81.64949 53.000
81.66943 44.000
81.68938 44.000
81.70933 43.000
81.72927 50.000
81.74922 48.000
81.76917 48.000
81.78912 53.000
81.80906 51.000
81.82901 59.000
81.84896 47.000
81.86890 46.000
81.88885 40.000
81.90880 51.000
81.92874 50.000
81.94869 48.000
81.96864 48.000
81.98859 54.000
82.00853 42.000
82.02848 54.000
82.04843 43.000
82.06837 41.000
82.08832 47.000
82.10827 53.000
82.12821 43.000
82.14816 41.000
82.16811 45.000
82.18805 53.000
82.20800 42.000
82.22795 66.000
82.24790 42.000
82.26784 45.000
82.28779 39.000
82.30774 46.000
82.32768 49.000
82.34763 34.000
82.36758 31.000
82.38752 46.000
82.40747 43.000
82.42742 41.000
82.44737 39.000
82.46731 53.000
82.48726 43.000
82.50721 36.000
82.52715 51.000
82.54710 33.000
82.56705 50.000
82.58699 45.000
82.60694 43.000
82.62689 53.000
82.64683 50.000
82.66678 56.000
82.68673 53.000
82.70668 48.000
82.72662 53.000
82.74657 30.000
82.76652 43.000
82.78646 38.000
82.80641 41.000
82.82636 47.000
82.84630 44.000
82.86625 42.000
82.88620 35.000
82.90615 36.000
82.92609 59.000
82.94604 58.000
82.96599 42.000
82.98593 36.000
83.00588 35.000
83.02583 37.000
83.04577 46.000
83.06572 47.000
83.08567 43.000
83.10561 42.000
83.12556 42.000
83.14551 56.000
83.16546 53.000
83.18540 35.000
83.20535 43.000
83.22530 48.000
83.24524 40.000
83.26519 56.000
83.28514 45.000
83.30508 53.000
83.32503 55.000
83.34498 41.000
83.36493 43.000
83.38487 38.000
83.40482 50.000
83.42477 42.000
83.44471 54.000
83.46466 44.000
83.48461 42.000
83.50455 46.000
83.52450 48.000
83.54445 39.000
83.56440 49.000
83.58434 55.000
83.60429 41.000
83.62424 40.000
83.64418 37.000
83.66413 35.000
83.68408 51.000
83.70402 39.000
83.72397 46.000
83.74392 38.000
83.76386 48.000
83.78381 45.000
83.80376 44.000
83.82371 43.000
83.84365 56.000
83.86360 38.000
83.88355 41.000
83.90349 42.000
83.92344 53.000
83.94339 52.000
83.96333 53.000
83.98328 50.000
84.00323 55.000
84.02318 49.000
84.04312 52.000
84.06307 49.000
84.08302 46.000
84.10296 56.000
84.12291 58.000
84.14286 61.000
84.16280 41.000
84.18275 32.000
84.20270 52.000
84.22264 53.000
84.24259 55.000
84.26254 42.000
84.28249 55.000
84.30243 44.000
84.32238 53.000
84.34233 41.000
84.36227 46.000
84.38222 41.000
84.40217 57.000
84.42211 53.000
84.44206 52.000
84.46201 64.000
84.48196 52.000
84.50190 73.000
84.52185 61.000
84.54180 66.000
84.56174 65.000
84.58169 50.000
84.60164 70.000
84.62158 66.000
84.64153 73.000
84.66148 55.000
84.68142 66.000
84.70137 76.000
84.72132 68.000
84.74127 59.000
84.76121 69.000
84.78116 70.000
84.80111 62.000
84.82105 77.000
84.84100 72.000
84.86095 77.000
84.88089 60.000
84.90084 77.000
84.92079 62.000
84.94074 77.000
84.96068 52.000
84.98063 76.000
85.00058 74.000
85.02052 66.000
85.04047 55.000
85.06042 49.000
85.08036 58.000
85.10031 53.000
85.12026 72.000
85.14021 59.000
85.16015 57.000
85.18010 58.000
85.20005 55.000
85.21999 41.000
85.23994 61.000
85.25989 46.000
85.27983 47.000
85.29978 43.000
85.31973 69.000
85.33967 58.000
85.35962 46.000
85.37957 45.000
85.39952 43.000
85.41946 47.000
85.43941 44.000
85.45936 38.000
85.47930 50.000
85.49925 55.000
85.51920 32.000
85.53914 55.000
85.55909 57.000
85.57904 61.000
85.59899 58.000
85.61893 54.000
85.63888 47.000
85.65883 39.000
85.67877 47.000
85.69872 51.000
85.71867 45.000
85.73861 49.000
85.75856 52.000
85.77851 61.000
85.79845 63.000
85.81840 50.000
85.83835 41.000
85.85830 65.000
85.87824 58.000
85.89819 56.000
85.91814 56.000
85.93808 41.000
85.95803 55.000
85.97798 46.000
85.99792 63.000
86.01787 67.000
86.03782 77.000
86.05777 58.000
86.07771 43.000
86.09766 62.000
86.11761 58.000
86.13755 58.000
86.15750 68.000
86.17745 76.000
86.19739 62.000
86.21734 68.000
86.23729 71.000
86.25723 86.000
86.27718 77.000
86.29713 64.000
86.31708 77.000
86.33702 80.000
86.35697 82.000
86.37692 64.000
86.39686 75.000
86.41681 75.000
86.43676 95.000
86.45670 74.000
86.47665 94.000
86.49660 92.000
86.51655 68.000
86.53649 71.000
86.55644 71.000
86.57639 74.000
86.59633 71.000
86.61628 70.000
86.63623 68.000
86.65617 68.000
86.67612 66.000
86.69607 50.000
86.71602 58.000
86.73596 70.000
86.75591 60.000
86.77586 58.000
86.79580 70.000
86.81575 57.000
86.83570 48.000
86.85564 47.000
86.87559 44.000
86.89554 43.000
86.91548 59.000
86.93543 48.000
86.95538 58.000
86.97533 47.000
86.99527 45.000
87.01522 42.000
87.03517 50.000
87.05511 55.000
87.07506 41.000
87.09501 63.000
87.11495 52.000
87.13490 47.000
87.15485 33.000
87.17480 48.000
87.19474 42.000
87.21469 46.000
87.23464 43.000
87.25458 55.000
87.27453 49.000
87.29448 48.000
87.31442 44.000
87.33437 43.000
87.35432 54.000
87.37426 43.000
87.39421 46.000
87.41416 43.000
87.43411 43.000
87.45405 45.000
87.47400 55.000
87.49395 45.000
87.51389 35.000
87.53384 55.000
87.55379 43.000
87.57373 48.000
87.59368 47.000
87.61363 44.000
87.63358 55.000
87.65352 42.000
87.67347 46.000
87.69342 48.000
87.71336 33.000
87.73331 46.000
87.75326 36.000
87.77320 45.000
87.79315 50.000
87.81310 43.000
87.83304 38.000
87.85299 43.000
87.87294 44.000
87.89289 51.000
87.91283 53.000
87.93278 48.000
87.95273 45.000
87.97267 49.000
87.99262 57.000
88.01257 47.000
88.03251 50.000
88.05246 56.000
88.07241 48.000
88.09236 44.000
88.11230 59.000
88.13225 46.000
88.15220 66.000
88.17214 33.000
88.19209 44.000
88.21204 48.000
88.23198 40.000
88.25193 46.000
88.27188 44.000
88.29183 51.000
88.31177 41.000
88.33172 46.000
88.35167 43.000
88.37161 48.000
88.39156 52.000
88.41151 52.000
88.43145 45.000
88.45140 48.000
88.47135 58.000
88.49129 47.000
88.51124 56.000
88.53119 55.000
88.55114 48.000
88.57108 50.000
88.59103 62.000
88.61098 57.000
88.63092 45.000
88.65087 66.000
88.67082 55.000
88.69076 50.000
88.71071 63.000
88.73066 57.000
88.75061 61.000
88.77055 63.000
88.79050 73.000
88.81045 73.000
88.83039 56.000
88.85034 75.000
88.87029 72.000
88.89023 62.000
88.91018 85.000
88.93013 88.000
88.95007 83.000
88.97002 80.000
88.98997 103.000
89.00992 88.000
89.02986 111.000
89.04981 105.000
89.06976 134.000
89.08970 111.000
89.10965 118.000
89.12960 121.000
89.14954 144.000
89.16949 143.000
89.18944 127.000
89.20939 128.000
89.22933 132.000
89.24928 157.000
89.26923 144.000
89.28917 126.000
89.30912 157.000
89.32907 149.000
89.34901 142.000
89.36896 130.000
89.38891 140.000
89.40885 136.000
89.42880 104.000
89.44875 109.000
89.46870 100.000
89.48864 141.000
89.50859 118.000
89.52854 104.000
89.54848 82.000
89.56843 95.000
89.58838 85.000
89.60832 80.000
89.62827 71.000
89.64822 84.000
89.66817 89.000
89.68811 68.000
89.70806 72.000
89.72801 75.000
89.74795 60.000
89.76790 69.000
89.78785 45.000
89.80779 50.000
89.82774 54.000
89.84769 58.000
89.86764 61.000
89.88758 50.000
89.90753 44.000
89.92748 57.000
89.94742 57.000
89.96737 51.000
89.98732 51.000
90.00726 40.000
