10.00000 354.000
10.01995 389.000
10.03989 376.000
10.05984 378.000
10.07979 422.000
10.09973 372.000
10.11968 388.000
10.13963 378.000
10.15958 382.000
10.17952 380.000
10.19947 405.000
10.21942 401.000
10.23936 389.000
10.25931 413.000
10.27926 377.000
10.29920 394.000
10.31915 392.000
10.33910 393.000
10.35905 347.000
10.37899 405.000
10.39894 403.000
10.41889 415.000
10.43883 372.000
10.45878 382.000
10.47873 350.000
10.49867 375.000
10.51862 419.000
10.53857 387.000
10.55851 384.000
10.57846 413.000
10.59841 420.000
10.61836 379.000
10.63830 377.000
10.65825 407.000
10.67820 421.000
10.69814 404.000
10.71809 403.000
10.73804 373.000
10.75798 385.000
10.77793 405.000
10.79788 378.000
10.81783 422.000
10.83777 381.000
10.85772 343.000
10.87767 392.000
10.89761 364.000
10.91756 393.000
10.93751 399.000
10.95745 383.000
10.97740 398.000
10.99735 389.000
11.01730 384.000
11.03724 398.000
11.05719 404.000
11.07714 424.000
11.09708 421.000
11.11703 373.000
11.13698 381.000
11.15692 399.000
11.17687 389.000
11.19682 395.000
11.21676 372.000
11.23671 404.000
11.25666 360.000
11.27661 428.000
11.29655 388.000
11.31650 408.000
11.33645 389.000
11.35639 389.000
11.37634 393.000
11.39629 383.000
11.41623 383.000
11.43618 389.000
11.45613 373.000
11.47608 342.000
11.49602 383.000
11.51597 394.000
11.53592 399.000
11.55586 415.000
11.57581 407.000
11.59576 380.000
11.61570 347.000
11.63565 425.000
11.65560 421.000
11.67554 397.000
11.69549 405.000
11.71544 413.000
11.73539 388.000
11.75533 408.000
11.77528 372.000
11.79523 409.000
11.81517 381.000
11.83512 397.000
11.85507 375.000
11.87501 424.000
11.89496 385.000
11.91491 388.000
11.93486 361.000
11.95480 411.000
11.97475 366.000
11.99470 402.000
12.01464 381.000
12.03459 356.000
12.05454 368.000
12.07448 387.000
12.09443 380.000
12.11438 396.000
12.13432 401.000
12.15427 393.000
12.17422 412.000
12.19417 387.000
12.21411 408.000
12.23406 407.000
12.25401 398.000
12.27395 332.000
12.29390 388.000
12.31385 389.000
12.33379 345.000
12.35374 381.000
12.37369 383.000
12.39364 399.000
12.41358 388.000
12.43353 383.000
12.45348 395.000
12.47342 371.000
12.49337 383.000
12.51332 408.000
12.53326 411.000
12.55321 394.000
12.57316 428.000
12.59311 390.000
12.61305 385.000
12.63300 399.000
12.65295 425.000
12.67289 393.000
12.69284 395.000
12.71279 376.000
12.73273 407.000
12.75268 399.000
12.77263 400.000
12.79257 379.000
12.81252 381.000
12.83247 382.000
12.85242 406.000
12.87236 406.000
12.89231 381.000
12.91226 384.000
12.93220 376.000
12.95215 384.000
12.97210 392.000
12.99204 407.000
13.01199 387.000
13.03194 398.000
13.05189 370.000
13.07183 386.000
13.09178 360.000
13.11173 390.000
13.13167 410.000
13.15162 399.000
13.17157 400.000
13.19151 418.000
13.21146 388.000
13.23141 354.000
13.25135 368.000
13.27130 384.000
13.29125 348.000
13.31120 366.000
13.33114 392.000
13.35109 419.000
13.37104 394.000
13.39098 381.000
13.41093 387.000
13.43088 398.000
13.45082 360.000
13.47077 371.000
13.49072 394.000
13.51067 390.000
13.53061 385.000
13.55056 390.000
13.57051 388.000
13.59045 365.000
13.61040 401.000
13.63035 405.000
13.65029 385.000
13.67024 404.000
13.69019 403.000
13.71013 379.000
13.73008 429.000
13.75003 403.000
13.76998 380.000
13.78992 407.000
13.80987 368.000
13.82982 412.000
13.84976 418.000
13.86971 427.000
13.88966 371.000
13.90960 405.000
13.92955 422.000
13.94950 361.000
13.96945 382.000
13.98939 429.000
14.00934 383.000
14.02929 429.000
14.04923 379.000
14.06918 410.000
14.08913 415.000
14.10907 400.000
14.12902 385.000
14.14897 404.000
14.16892 385.000
14.18886 376.000
14.20881 389.000
14.22876 389.000
14.24870 370.000
14.26865 395.000
14.28860 375.000
14.30854 383.000
14.32849 421.000
14.34844 397.000
14.36838 416.000
14.38833 380.000
14.40828 415.000
14.42823 396.000
14.44817 438.000
14.46812 378.000
14.48807 418.000
14.50801 412.000
14.52796 431.000
14.54791 389.000
14.56785 389.000
14.58780 444.000
14.60775 414.000
14.62770 412.000
14.64764 388.000
14.66759 397.000
14.68754 403.000
14.70748 455.000
14.72743 374.000
14.74738 385.000
14.76732 391.000
14.78727 448.000
14.80722 434.000
14.82716 404.000
14.84711 415.000
14.86706 390.000
14.88701 409.000
14.90695 439.000
14.92690 377.000
14.94685 458.000
14.96679 404.000
14.98674 433.000
15.00669 363.000
15.02663 414.000
15.04658 459.000
15.06653 439.000
15.08648 474.000
15.10642 490.000
15.12637 441.000
15.14632 418.000
15.16626 402.000
15.18621 436.000
15.20616 408.000
15.22610 466.000
15.24605 396.000
15.26600 490.000
15.28594 447.000
15.30589 462.000
15.32584 448.000
15.34579 448.000
15.36573 463.000
15.38568 455.000
15.40563 455.000
15.42557 468.000
15.44552 506.000
15.46547 517.000
15.48541 472.000
15.50536 531.000
15.52531 538.000
15.54526 560.000
15.56520 604.000
15.58515 665.000
15.60510 753.000
15.62504 803.000
15.64499 1016.000
15.66494 1364.000
15.68488 1740.000
15.70483 2699.000
15.72478 4340.000
15.74472 6010.000
15.76467 7017.000
15.78462 7253.000
15.80457 5964.000
15.82451 4010.000
15.84446 2574.000
15.86441 1519.000
15.88435 1048.000
15.90430 983.000
15.92425 981.000
15.94419 1015.000
15.96414 1068.000
15.98409 1261.000
16.00404 1417.000
16.02398 1318.000
16.04393 1307.000
16.06388 1065.000
16.08382 995.000
16.10377 868.000
16.12372 740.000
16.14366 715.000
16.16361 643.000
16.18356 609.000
16.20351 534.000
16.22345 476.000
16.24340 484.000
16.26335 461.000
16.28329 440.000
16.30324 427.000
16.32319 454.000
16.34313 467.000
16.36308 454.000
16.38303 445.000
16.40297 426.000
16.42292 471.000
16.44287 431.000
16.46282 380.000
16.48276 473.000
16.50271 433.000
16.52266 393.000
16.54260 413.000
16.56255 426.000
16.58250 400.000
16.60244 459.000
16.62239 411.000
16.64234 457.000
16.66229 430.000
16.68223 423.000
16.70218 400.000
16.72213 447.000
16.74207 400.000
16.76202 439.000
16.78197 404.000
16.80191 438.000
16.82186 441.000
16.84181 465.000
16.86175 491.000
16.88170 452.000
16.90165 433.000
16.92160 406.000
16.94154 432.000
16.96149 415.000
16.98144 365.000
17.00138 379.000
17.02133 386.000
17.04128 407.000
17.06122 384.000
17.08117 390.000
17.10112 409.000
17.12107 409.000
17.14101 391.000
17.16096 396.000
17.18091 380.000
17.20085 428.000
17.22080 387.000
17.24075 385.000
17.26069 403.000
17.28064 400.000
17.30059 421.000
17.32053 350.000
17.34048 372.000
17.36043 379.000
17.38038 368.000
17.40032 398.000
17.42027 371.000
17.44022 409.000
17.46016 412.000
17.48011 398.000
17.50006 413.000
17.52000 387.000
17.53995 371.000
17.55990 379.000
17.57985 409.000
17.59979 428.000
17.61974 392.000
17.63969 389.000
17.65963 442.000
17.67958 380.000
17.69953 404.000
17.71947 398.000
17.73942 402.000
17.75937 323.000
17.77932 393.000
17.79926 403.000
17.81921 422.000
17.83916 336.000
17.85910 381.000
17.87905 369.000
17.89900 395.000
17.91894 383.000
17.93889 435.000
17.95884 390.000
17.97878 400.000
17.99873 382.000
18.01868 395.000
18.03863 383.000
18.05857 388.000
18.07852 405.000
18.09847 387.000
18.11841 409.000
18.13836 407.000
18.15831 406.000
18.17825 420.000
18.19820 456.000
18.21815 457.000
18.23810 460.000
18.25804 459.000
18.27799 438.000
18.29794 415.000
18.31788 431.000
18.33783 358.000
18.35778 380.000
18.37772 399.000
18.39767 415.000
18.41762 362.000
18.43756 375.000
18.45751 366.000
18.47746 386.000
18.49741 399.000
18.51735 349.000
18.53730 414.000
18.55725 443.000
18.57719 418.000
18.59714 393.000
18.61709 403.000
18.63703 422.000
18.65698 399.000
18.67693 392.000
18.69688 403.000
18.71682 400.000
18.73677 385.000
18.75672 364.000
18.77666 409.000
18.79661 405.000
18.81656 379.000
18.83650 372.000
18.85645 416.000
18.87640 377.000
18.89634 404.000
18.91629 404.000
18.93624 370.000
18.95619 386.000
18.97613 418.000
18.99608 472.000
19.01603 392.000
19.03597 385.000
19.05592 375.000
19.07587 388.000
19.09581 413.000
19.11576 400.000
19.13571 378.000
19.15566 389.000
19.17560 394.000
19.19555 422.000
19.21550 370.000
19.23544 396.000
19.25539 409.000
19.27534 367.000
19.29528 402.000
19.31523 412.000
19.33518 406.000
19.35513 378.000
19.37507 392.000
19.39502 401.000
19.41497 382.000
19.43491 394.000
19.45486 405.000
19.47481 399.000
19.49475 381.000
19.51470 379.000
19.53465 395.000
19.55459 396.000
19.57454 388.000
19.59449 388.000
19.61444 372.000
19.63438 389.000
19.65433 416.000
19.67428 408.000
19.69422 350.000
19.71417 393.000
19.73412 361.000
19.75406 380.000
19.77401 403.000
19.79396 436.000
19.81391 405.000
19.83385 392.000
19.85380 407.000
19.87375 415.000
19.89369 407.000
19.91364 370.000
19.93359 399.000
19.95353 403.000
19.97348 416.000
19.99343 363.000
20.01337 402.000
20.03332 380.000
20.05327 391.000
20.07322 386.000
20.09316 393.000
20.11311 419.000
20.13306 374.000
20.15300 387.000
20.17295 402.000
20.19290 399.000
20.21284 401.000
20.23279 392.000
20.25274 382.000
20.27269 404.000
20.29263 413.000
20.31258 403.000
20.33253 397.000
20.35247 394.000
20.37242 440.000
20.39237 420.000
20.41231 396.000
20.43226 425.000
20.45221 405.000
20.47215 425.000
20.49210 422.000
20.51205 396.000
20.53200 437.000
20.55194 406.000
20.57189 376.000
20.59184 417.000
20.61178 412.000
20.63173 422.000
20.65168 447.000
20.67162 444.000
20.69157 420.000
20.71152 454.000
20.73147 493.000
20.75141 485.000
20.77136 521.000
20.79131 609.000
20.81125 695.000
20.83120 842.000
20.85115 904.000
20.87109 1023.000
20.89104 1080.000
20.91099 1024.000
20.93094 989.000
20.95088 895.000
20.97083 803.000
20.99078 784.000
21.01072 698.000
21.03067 737.000
21.05062 643.000
21.07056 640.000
21.09051 536.000
21.11046 512.000
21.13040 470.000
21.15035 469.000
21.17030 494.000
21.19025 412.000
21.21019 426.000
21.23014 409.000
21.25009 370.000
21.27003 399.000
21.28998 383.000
21.30993 361.000
21.32987 363.000
21.34982 381.000
21.36977 417.000
21.38972 398.000
21.40966 410.000
21.42961 407.000
21.44956 374.000
21.46950 402.000
21.48945 410.000
21.50940 398.000
21.52934 402.000
21.54929 412.000
21.56924 387.000
21.58918 391.000
21.60913 402.000
21.62908 415.000
21.64903 392.000
21.66897 438.000
21.68892 381.000
21.70887 360.000
21.72881 367.000
21.74876 404.000
21.76871 400.000
21.78865 398.000
21.80860 358.000
21.82855 399.000
21.84850 402.000
21.86844 404.000
21.88839 404.000
21.90834 429.000
21.92828 440.000
21.94823 401.000
21.96818 407.000
21.98812 420.000
22.00807 408.000
22.02802 392.000
22.04796 428.000
22.06791 392.000
22.08786 402.000
22.10781 386.000
22.12775 365.000
22.14770 415.000
22.16765 357.000
22.18759 407.000
22.20754 376.000
22.22749 411.000
22.24743 400.000
22.26738 403.000
22.28733 359.000
22.30728 393.000
22.32722 430.000
22.34717 389.000
22.36712 380.000
22.38706 429.000
22.40701 378.000
22.42696 385.000
22.44690 395.000
22.46685 365.000
22.48680 379.000
22.50675 369.000
22.52669 388.000
22.54664 388.000
22.56659 377.000
22.58653 418.000
22.60648 389.000
22.62643 425.000
22.64637 399.000
22.66632 425.000
22.68627 438.000
22.70621 405.000
22.72616 370.000
22.74611 404.000
22.76606 410.000
22.78600 381.000
22.80595 388.000
22.82590 405.000
22.84584 403.000
22.86579 426.000
22.88574 356.000
22.90568 413.000
22.92563 428.000
22.94558 363.000
22.96553 378.000
22.98547 403.000
23.00542 410.000
23.02537 388.000
23.04531 421.000
23.06526 394.000
23.08521 382.000
23.10515 427.000
23.12510 401.000
23.14505 419.000
23.16499 390.000
23.18494 369.000
23.20489 360.000
23.22484 398.000
23.24478 375.000
23.26473 381.000
23.28468 424.000
23.30462 382.000
23.32457 417.000
23.34452 350.000
23.36446 411.000
23.38441 376.000
23.40436 438.000
23.42431 429.000
23.44425 406.000
23.46420 391.000
23.48415 440.000
23.50409 354.000
23.52404 381.000
23.54399 351.000
23.56393 354.000
23.58388 391.000
23.60383 401.000
23.62377 417.000
23.64372 430.000
23.66367 399.000
23.68362 392.000
23.70356 390.000
23.72351 404.000
23.74346 389.000
23.76340 365.000
23.78335 427.000
23.80330 385.000
23.82324 402.000
23.84319 383.000
23.86314 398.000
23.88309 402.000
23.90303 387.000
23.92298 407.000
23.94293 427.000
23.96287 425.000
23.98282 404.000
24.00277 379.000
24.02271 395.000
24.04266 411.000
24.06261 430.000
24.08256 389.000
24.10250 417.000
24.12245 370.000
24.14240 438.000
24.16234 418.000
24.18229 404.000
24.20224 403.000
24.22218 395.000
24.24213 389.000
24.26208 419.000
24.28202 418.000
24.30197 411.000
24.32192 416.000
24.34187 373.000
24.36181 401.000
24.38176 379.000
24.40171 426.000
24.42165 402.000
24.44160 428.000
24.46155 399.000
24.48149 383.000
24.50144 381.000
24.52139 398.000
24.54134 376.000
24.56128 410.000
24.58123 402.000
24.60118 420.000
24.62112 399.000
24.64107 382.000
24.66102 389.000
24.68096 407.000
24.70091 399.000
24.72086 419.000
24.74080 392.000
24.76075 387.000
24.78070 406.000
24.80065 406.000
24.82059 369.000
24.84054 398.000
24.86049 414.000
24.88043 466.000
24.90038 418.000
24.92033 429.000
24.94027 424.000
24.96022 399.000
24.98017 465.000
25.00012 426.000
25.02006 432.000
25.04001 434.000
25.05996 425.000
25.07990 412.000
25.09985 433.000
25.11980 362.000
25.13974 434.000
25.15969 423.000
25.17964 411.000
25.19958 435.000
25.21953 389.000
25.23948 403.000
25.25943 392.000
25.27937 379.000
25.29932 401.000
25.31927 374.000
25.33921 433.000
25.35916 401.000
25.37911 399.000
25.39905 418.000
25.41900 413.000
25.43895 386.000
25.45890 451.000
25.47884 403.000
25.49879 435.000
25.51874 421.000
25.53868 384.000
25.55863 367.000
25.57858 389.000
25.59852 381.000
25.61847 413.000
25.63842 368.000
25.65837 389.000
25.67831 416.000
25.69826 421.000
25.71821 414.000
25.73815 385.000
25.75810 376.000
25.77805 391.000
25.79799 380.000
25.81794 403.000
25.83789 386.000
25.85783 409.000
25.87778 468.000
25.89773 425.000
25.91768 447.000
25.93762 399.000
25.95757 390.000
25.97752 424.000
25.99746 411.000
26.01741 394.000
26.03736 422.000
26.05730 419.000
26.07725 433.000
26.09720 416.000
26.11715 404.000
26.13709 470.000
26.15704 429.000
26.17699 453.000
26.19693 403.000
26.21688 438.000
26.23683 427.000
26.25677 448.000
26.27672 376.000
26.29667 362.000
26.31661 394.000
26.33656 392.000
26.35651 411.000
26.37646 440.000
26.39640 463.000
26.41635 433.000
26.43630 409.000
26.45624 413.000
26.47619 403.000
26.49614 404.000
26.51608 387.000
26.53603 430.000
26.55598 408.000
26.57593 404.000
26.59587 393.000
26.61582 398.000
26.63577 419.000
26.65571 412.000
26.67566 425.000
26.69561 381.000
26.71555 423.000
26.73550 404.000
26.75545 456.000
26.77539 425.000
26.79534 420.000
26.81529 437.000
26.83524 402.000
26.85518 405.000
26.87513 437.000
26.89508 401.000
26.91502 420.000
26.93497 432.000
26.95492 435.000
26.97486 447.000
26.99481 433.000
27.01476 421.000
27.03471 421.000
27.05465 393.000
27.07460 426.000
27.09455 443.000
27.11449 429.000
27.13444 412.000
27.15439 433.000
27.17433 403.000
27.19428 413.000
27.21423 390.000
27.23417 401.000
27.25412 382.000
27.27407 422.000
27.29402 415.000
27.31396 432.000
27.33391 425.000
27.35386 406.000
27.37380 405.000
27.39375 385.000
27.41370 441.000
27.43364 404.000
27.45359 412.000
27.47354 393.000
27.49349 404.000
27.51343 403.000
27.53338 424.000
27.55333 431.000
27.57327 461.000
27.59322 425.000
27.61317 382.000
27.63311 405.000
27.65306 388.000
27.67301 402.000
27.69296 422.000
27.71290 404.000
27.73285 418.000
27.75280 384.000
27.77274 433.000
27.79269 423.000
27.81264 426.000
27.83258 425.000
27.85253 382.000
27.87248 399.000
27.89242 429.000
27.91237 419.000
27.93232 426.000
27.95227 374.000
27.97221 404.000
27.99216 427.000
28.01211 437.000
28.03205 414.000
28.05200 425.000
28.07195 420.000
28.09189 405.000
28.11184 440.000
28.13179 404.000
28.15174 421.000
28.17168 404.000
28.19163 416.000
28.21158 408.000
28.23152 409.000
28.25147 382.000
28.27142 415.000
28.29136 429.000
28.31131 414.000
28.33126 404.000
28.35120 399.000
28.37115 411.000
28.39110 410.000
28.41105 436.000
28.43099 433.000
28.45094 416.000
28.47089 406.000
28.49083 396.000
28.51078 394.000
28.53073 389.000
28.55067 382.000
28.57062 406.000
28.59057 428.000
28.61052 428.000
28.63046 413.000
28.65041 398.000
28.67036 423.000
28.69030 394.000
28.71025 414.000
28.73020 394.000
28.75014 408.000
28.77009 402.000
28.79004 441.000
28.80998 402.000
28.82993 426.000
28.84988 408.000
28.86983 423.000
28.88977 410.000
28.90972 449.000
28.92967 436.000
28.94961 381.000
28.96956 429.000
28.98951 427.000
29.00945 429.000
29.02940 404.000
29.04935 388.000
29.06930 414.000
29.08924 392.000
29.10919 426.000
29.12914 439.000
29.14908 444.000
29.16903 429.000
29.18898 404.000
29.20892 402.000
29.22887 491.000
29.24882 438.000
29.26877 444.000
29.28871 493.000
29.30866 479.000
29.32861 534.000
29.34855 501.000
29.36850 517.000
29.38845 525.000
29.40839 542.000
29.42834 531.000
29.44829 506.000
29.46823 500.000
29.48818 475.000
29.50813 475.000
29.52808 494.000
29.54802 432.000
29.56797 429.000
29.58792 426.000
29.60786 466.000
29.62781 401.000
29.64776 433.000
29.66770 452.000
29.68765 442.000
29.70760 422.000
29.72755 428.000
29.74749 450.000
29.76744 418.000
29.78739 412.000
29.80733 411.000
29.82728 414.000
29.84723 411.000
29.86717 445.000
29.88712 419.000
29.90707 479.000
29.92701 463.000
29.94696 509.000
29.96691 458.000
29.98686 501.000
30.00680 501.000
30.02675 473.000
30.04670 493.000
30.06664 474.000
30.08659 452.000
30.10654 487.000
30.12648 440.000
30.14643 452.000
30.16638 425.000
30.18633 424.000
30.20627 405.000
30.22622 417.000
30.24617 437.000
30.26611 414.000
30.28606 409.000
30.30601 452.000
30.32595 401.000
30.34590 437.000
30.36585 451.000
30.38579 414.000
30.40574 465.000
30.42569 421.000
30.44564 444.000
30.46558 447.000
30.48553 422.000
30.50548 421.000
30.52542 406.000
30.54537 426.000
30.56532 462.000
30.58526 433.000
30.60521 444.000
30.62516 421.000
30.64511 460.000
30.66505 444.000
30.68500 436.000
30.70495 436.000
30.72489 415.000
30.74484 430.000
30.76479 412.000
30.78473 438.000
30.80468 417.000
30.82463 432.000
30.84458 455.000
30.86452 435.000
30.88447 446.000
30.90442 437.000
30.92436 443.000
30.94431 420.000
30.96426 433.000
30.98420 417.000
31.00415 420.000
31.02410 424.000
31.04404 456.000
31.06399 425.000
31.08394 386.000
31.10389 443.000
31.12383 405.000
31.14378 440.000
31.16373 431.000
31.18367 450.000
31.20362 398.000
31.22357 369.000
31.24351 422.000
31.26346 409.000
31.28341 454.000
31.30336 423.000
31.32330 440.000
31.34325 442.000
31.36320 452.000
31.38314 452.000
31.40309 473.000
31.42304 457.000
31.44298 436.000
31.46293 454.000
31.48288 417.000
31.50282 473.000
31.52277 450.000
31.54272 435.000
31.56267 410.000
31.58261 418.000
31.60256 443.000
31.62251 438.000
31.64245 476.000
31.66240 458.000
31.68235 441.000
31.70229 452.000
31.72224 504.000
31.74219 535.000
31.76214 607.000
31.78208 701.000
31.80203 721.000
31.82198 783.000
31.84192 795.000
31.86187 927.000
31.88182 982.000
31.90176 886.000
31.92171 779.000
31.94166 762.000
31.96160 722.000
31.98155 631.000
32.00150 567.000
32.02145 499.000
32.04139 491.000
32.06134 474.000
32.08129 478.000
32.10123 480.000
32.12118 461.000
32.14113 452.000
32.16107 462.000
32.18102 484.000
32.20097 454.000
32.22092 497.000
32.24086 487.000
32.26081 481.000
32.28076 503.000
32.30070 545.000
32.32065 493.000
32.34060 505.000
32.36054 557.000
32.38049 519.000
32.40044 553.000
32.42039 524.000
32.44033 642.000
32.46028 650.000
32.48023 668.000
32.50017 778.000
32.52012 820.000
32.54007 858.000
32.56001 774.000
32.57996 730.000
32.59991 788.000
32.61985 701.000
32.63980 591.000
32.65975 527.000
32.67970 509.000
32.69964 519.000
32.71959 480.000
32.73954 445.000
32.75948 455.000
32.77943 429.000
32.79938 479.000
32.81932 447.000
32.83927 413.000
32.85922 430.000
32.87917 459.000
32.89911 456.000
32.91906 440.000
32.93901 469.000
32.95895 435.000
32.97890 409.000
32.99885 435.000
33.01879 480.000
33.03874 406.000
33.05869 418.000
33.07863 400.000
33.09858 436.000
33.11853 413.000
33.13848 471.000
33.15842 427.000
33.17837 435.000
33.19832 455.000
33.21826 444.000
33.23821 449.000
33.25816 391.000
33.27810 433.000
33.29805 476.000
33.31800 441.000
33.33795 444.000
33.35789 460.000
33.37784 437.000
33.39779 432.000
33.41773 435.000
33.43768 439.000
33.45763 472.000
33.47757 453.000
33.49752 471.000
33.51747 422.000
33.53741 433.000
33.55736 440.000
33.57731 425.000
33.59726 449.000
33.61720 395.000
33.63715 457.000
33.65710 456.000
33.67704 430.000
33.69699 470.000
33.71694 465.000
33.73688 431.000
33.75683 427.000
33.77678 485.000
33.79673 457.000
33.81667 469.000
33.83662 459.000
33.85657 432.000
33.87651 423.000
33.89646 454.000
33.91641 442.000
33.93635 414.000
33.95630 436.000
33.97625 479.000
33.99620 502.000
34.01614 445.000
34.03609 460.000
34.05604 485.000
34.07598 493.000
34.09593 451.000
34.11588 513.000
34.13582 470.000
34.15577 534.000
34.17572 561.000
34.19566 536.000
34.21561 550.000
34.23556 548.000
34.25551 576.000
34.27545 639.000
34.29540 685.000
34.31535 698.000
34.33529 822.000
34.35524 876.000
34.37519 1027.000
34.39513 1064.000
34.41508 1088.000
34.43503 1028.000
34.45498 1073.000
34.47492 1014.000
34.49487 920.000
34.51482 863.000
34.53476 782.000
34.55471 808.000
34.57466 758.000
34.59460 713.000
34.61455 720.000
34.63450 805.000
34.65444 717.000
34.67439 725.000
34.69434 663.000
34.71429 635.000
34.73423 711.000
34.75418 618.000
34.77413 672.000
34.79407 668.000
34.81402 643.000
34.83397 641.000
34.85391 617.000
34.87386 637.000
34.89381 585.000
34.91376 634.000
34.93370 563.000
34.95365 584.000
34.97360 523.000
34.99354 523.000
35.01349 590.000
35.03344 541.000
35.05338 577.000
35.07333 514.000
35.09328 561.000
35.11322 576.000
35.13317 601.000
35.15312 594.000
35.17307 668.000
35.19301 676.000
35.21296 707.000
35.23291 780.000
35.25285 896.000
35.27280 933.000
35.29275 1073.000
35.31269 1113.000
35.33264 1188.000
35.35259 1388.000
35.37254 1542.000
35.39248 1811.000
35.41243 2238.000
35.43238 2685.000
35.45232 3038.000
35.47227 3081.000
35.49222 3360.000
35.51216 4110.000
35.53211 5142.000
35.55206 5238.000
35.57201 4141.000
35.59195 3515.000
35.61190 3211.000
35.63185 3238.000
35.65179 2796.000
35.67174 2086.000
35.69169 1618.000
35.71163 1342.000
35.73158 1120.000
35.75153 992.000
35.77147 903.000
35.79142 862.000
35.81137 772.000
35.83132 806.000
35.85126 735.000
35.87121 673.000
35.89116 704.000
35.91110 671.000
35.93105 619.000
35.95100 593.000
35.97094 610.000
35.99089 588.000
36.01084 611.000
36.03079 599.000
36.05073 615.000
36.07068 593.000
36.09063 593.000
36.11057 573.000
36.13052 587.000
36.15047 538.000
36.17041 570.000
36.19036 529.000
36.21031 538.000
36.23025 509.000
36.25020 518.000
36.27015 517.000
36.29010 502.000
36.31004 500.000
36.32999 510.000
36.34994 502.000
36.36988 464.000
36.38983 497.000
36.40978 513.000
36.42972 520.000
36.44967 474.000
36.46962 487.000
36.48957 509.000
36.50951 482.000
36.52946 507.000
36.54941 493.000
36.56935 480.000
36.58930 523.000
36.60925 472.000
36.62919 482.000
36.64914 539.000
36.66909 522.000
36.68903 514.000
36.70898 515.000
36.72893 494.000
36.74888 517.000
36.76882 499.000
36.78877 540.000
36.80872 522.000
36.82866 540.000
36.84861 508.000
36.86856 522.000
36.88850 537.000
36.90845 528.000
36.92840 562.000
36.94835 503.000
36.96829 555.000
36.98824 529.000
37.00819 558.000
37.02813 559.000
37.04808 580.000
37.06803 613.000
37.08797 572.000
37.10792 591.000
37.12787 525.000
37.14781 559.000
37.16776 528.000
37.18771 534.000
37.20766 552.000
37.22760 541.000
37.24755 515.000
37.26750 525.000
37.28744 529.000
37.30739 506.000
37.32734 487.000
37.34728 497.000
37.36723 529.000
37.38718 474.000
37.40713 496.000
37.42707 507.000
37.44702 483.000
37.46697 500.000
37.48691 484.000
37.50686 470.000
37.52681 444.000
37.54675 485.000
37.56670 464.000
37.58665 483.000
37.60660 469.000
37.62654 467.000
37.64649 475.000
37.66644 475.000
37.68638 458.000
37.70633 486.000
37.72628 476.000
37.74622 490.000
37.76617 443.000
37.78612 490.000
37.80606 482.000
37.82601 430.000
37.84596 483.000
37.86591 432.000
37.88585 507.000
37.90580 511.000
37.92575 505.000
37.94569 502.000
37.96564 512.000
37.98559 517.000
38.00553 546.000
38.02548 490.000
38.04543 521.000
38.06538 542.000
38.08532 548.000
38.10527 533.000
38.12522 540.000
38.14516 539.000
38.16511 585.000
38.18506 550.000
38.20500 581.000
38.22495 571.000
38.24490 579.000
38.26484 581.000
38.28479 560.000
38.30474 631.000
38.32469 629.000
38.34463 614.000
38.36458 670.000
38.38453 691.000
38.40447 691.000
38.42442 675.000
38.44437 757.000
38.46431 761.000
38.48426 822.000
38.50421 898.000
38.52416 871.000
38.54410 1025.000
38.56405 1062.000
38.58400 1185.000
38.60394 1312.000
38.62389 1505.000
38.64384 1766.000
38.66378 2125.000
38.68373 2490.000
38.70368 3308.000
38.72362 4034.000
38.74357 4455.000
38.76352 4404.000
38.78347 3816.000
38.80341 3547.000
38.82336 3506.000
38.84331 3541.000
38.86325 3253.000
38.88320 2954.000
38.90315 2735.000
38.92309 2526.000
38.94304 2086.000
38.96299 1843.000
38.98294 1649.000
39.00288 1657.000
39.02283 1569.000
39.04278 1448.000
39.06272 1208.000
39.08267 1135.000
39.10262 1120.000
39.12256 985.000
39.14251 948.000
39.16246 917.000
39.18241 859.000
39.20235 813.000
39.22230 858.000
39.24225 750.000
39.26219 729.000
39.28214 754.000
39.30209 697.000
39.32203 702.000
39.34198 674.000
39.36193 647.000
39.38187 624.000
39.40182 548.000
39.42177 570.000
39.44172 570.000
39.46166 558.000
39.48161 558.000
39.50156 519.000
39.52150 549.000
39.54145 514.000
39.56140 463.000
39.58134 498.000
39.60129 498.000
39.62124 486.000
39.64119 426.000
39.66113 532.000
39.68108 425.000
39.70103 398.000
39.72097 481.000
39.74092 508.000
39.76087 497.000
39.78081 489.000
39.80076 463.000
39.82071 438.000
39.84065 463.000
39.86060 471.000
39.88055 451.000
39.90050 446.000
39.92044 425.000
39.94039 448.000
39.96034 474.000
39.98028 473.000
40.00023 438.000
40.02018 450.000
40.04012 445.000
40.06007 446.000
40.08002 464.000
40.09997 456.000
40.11991 456.000
40.13986 425.000
40.15981 439.000
40.17975 438.000
40.19970 468.000
40.21965 425.000
40.23959 410.000
40.25954 423.000
40.27949 433.000
40.29943 441.000
40.31938 399.000
40.33933 423.000
40.35928 396.000
40.37922 418.000
40.39917 438.000
40.41912 414.000
40.43906 463.000
40.45901 436.000
40.47896 443.000
40.49890 458.000
40.51885 470.000
40.53880 420.000
40.55875 410.000
40.57869 471.000
40.59864 462.000
40.61859 433.000
40.63853 418.000
40.65848 460.000
40.67843 452.000
40.69837 425.000
40.71832 472.000
40.73827 428.000
40.75822 419.000
40.77816 427.000
40.79811 452.000
40.81806 415.000
40.83800 453.000
40.85795 415.000
40.87790 426.000
40.89784 402.000
40.91779 446.000
40.93774 466.000
40.95768 404.000
40.97763 467.000
40.99758 447.000
41.01753 432.000
41.03747 478.000
41.05742 438.000
41.07737 489.000
41.09731 466.000
41.11726 447.000
41.13721 449.000
41.15715 426.000
41.17710 423.000
41.19705 458.000
41.21700 458.000
41.23694 477.000
41.25689 481.000
41.27684 443.000
41.29678 476.000
41.31673 480.000
41.33668 460.000
41.35662 479.000
41.37657 508.000
41.39652 515.000
41.41646 553.000
41.43641 564.000
41.45636 595.000
41.47631 662.000
41.49625 692.000
41.51620 734.000
41.53615 742.000
41.55609 748.000
41.57604 716.000
41.59599 676.000
41.61593 701.000
41.63588 657.000
41.65583 572.000
41.67578 616.000
41.69572 543.000
41.71567 503.000
41.73562 475.000
41.75556 491.000
41.77551 503.000
41.79546 477.000
41.81540 481.000
41.83535 444.000
41.85530 445.000
41.87524 462.000
41.89519 423.000
41.91514 464.000
41.93509 454.000
41.95503 429.000
41.97498 417.000
41.99493 409.000
42.01487 433.000
42.03482 410.000
42.05477 460.000
42.07471 415.000
42.09466 422.000
42.11461 402.000
42.13456 455.000
42.15450 472.000
42.17445 430.000
42.19440 434.000
42.21434 420.000
42.23429 461.000
42.25424 398.000
42.27418 409.000
42.29413 456.000
42.31408 462.000
42.33403 429.000
42.35397 453.000
42.37392 469.000
42.39387 419.000
42.41381 434.000
42.43376 453.000
42.45371 449.000
42.47365 430.000
42.49360 455.000
42.51355 459.000
42.53349 427.000
42.55344 421.000
42.57339 475.000
42.59334 445.000
42.61328 503.000
42.63323 482.000
42.65318 461.000
42.67312 456.000
42.69307 438.000
42.71302 439.000
42.73296 434.000
42.75291 435.000
42.77286 486.000
42.79281 417.000
42.81275 466.000
42.83270 511.000
42.85265 472.000
42.87259 488.000
42.89254 460.000
42.91249 523.000
42.93243 468.000
42.95238 491.000
42.97233 503.000
42.99227 543.000
43.01222 493.000
43.03217 476.000
43.05212 479.000
43.07206 496.000
43.09201 519.000
43.11196 514.000
43.13190 547.000
43.15185 494.000
43.17180 550.000
43.19174 567.000
43.21169 548.000
43.23164 554.000
43.25159 536.000
43.27153 578.000
43.29148 573.000
43.31143 578.000
43.33137 480.000
43.35132 528.000
43.37127 509.000
43.39121 525.000
43.41116 552.000
43.43111 470.000
43.45105 516.000
43.47100 466.000
43.49095 479.000
43.51090 474.000
43.53084 463.000
43.55079 448.000
43.57074 465.000
43.59068 397.000
43.61063 432.000
43.63058 457.000
43.65052 437.000
43.67047 430.000
43.69042 395.000
43.71037 470.000
43.73031 423.000
43.75026 439.000
43.77021 445.000
43.79015 425.000
43.81010 471.000
43.83005 422.000
43.84999 437.000
43.86994 440.000
43.88989 450.000
43.90984 438.000
43.92978 423.000
43.94973 402.000
43.96968 415.000
43.98962 417.000
44.00957 443.000
44.02952 413.000
44.04946 409.000
44.06941 402.000
44.08936 454.000
44.10930 396.000
44.12925 448.000
44.14920 426.000
44.16915 399.000
44.18909 392.000
44.20904 431.000
44.22899 432.000
44.24893 437.000
44.26888 428.000
44.28883 417.000
44.30877 426.000
44.32872 405.000
44.34867 433.000
44.36862 409.000
44.38856 446.000
44.40851 457.000
44.42846 437.000
44.44840 422.000
44.46835 413.000
44.48830 427.000
44.50824 423.000
44.52819 485.000
44.54814 485.000
44.56808 436.000
44.58803 431.000
44.60798 482.000
44.62793 429.000
44.64787 480.000
44.66782 478.000
44.68777 460.000
44.70771 478.000
44.72766 477.000
44.74761 506.000
44.76755 515.000
44.78750 478.000
44.80745 554.000
44.82740 523.000
44.84734 526.000
44.86729 519.000
44.88724 500.000
44.90718 444.000
44.92713 455.000
44.94708 500.000
44.96702 451.000
44.98697 470.000
45.00692 444.000
45.02686 431.000
45.04681 428.000
45.06676 431.000
45.08671 465.000
45.10665 414.000
45.12660 415.000
45.14655 416.000
45.16649 427.000
45.18644 427.000
45.20639 430.000
45.22633 409.000
45.24628 425.000
45.26623 443.000
45.28618 448.000
45.30612 427.000
45.32607 485.000
45.34602 420.000
45.36596 417.000
45.38591 431.000
45.40586 430.000
45.42580 422.000
45.44575 426.000
45.46570 433.000
45.48565 449.000
45.50559 454.000
45.52554 472.000
45.54549 420.000
45.56543 442.000
45.58538 436.000
45.60533 420.000
45.62527 436.000
45.64522 405.000
45.66517 436.000
45.68511 408.000
45.70506 451.000
45.72501 391.000
45.74496 414.000
45.76490 452.000
45.78485 410.000
45.80480 447.000
45.82474 442.000
45.84469 467.000
45.86464 435.000
45.88458 419.000
45.90453 395.000
45.92448 407.000
45.94443 416.000
45.96437 439.000
45.98432 418.000
46.00427 459.000
46.02421 441.000
46.04416 405.000
46.06411 399.000
46.08405 473.000
46.10400 419.000
46.12395 423.000
46.14389 437.000
46.16384 411.000
46.18379 429.000
46.20374 467.000
46.22368 490.000
46.24363 443.000
46.26358 518.000
46.28352 504.000
46.30347 423.000
46.32342 471.000
46.34336 497.000
46.36331 471.000
46.38326 457.000
46.40321 447.000
46.42315 442.000
46.44310 433.000
46.46305 433.000
46.48299 418.000
46.50294 462.000
46.52289 475.000
46.54283 436.000
46.56278 448.000
46.58273 460.000
46.60267 457.000
46.62262 425.000
46.64257 445.000
46.66252 420.000
46.68246 456.000
46.70241 431.000
46.72236 404.000
46.74230 425.000
46.76225 417.000
46.78220 427.000
46.80214 421.000
46.82209 404.000
46.84204 444.000
46.86199 418.000
46.88193 471.000
46.90188 395.000
46.92183 405.000
46.94177 453.000
46.96172 412.000
46.98167 444.000
47.00161 441.000
47.02156 387.000
47.04151 402.000
47.06146 407.000
47.08140 414.000
47.10135 417.000
47.12130 450.000
47.14124 429.000
47.16119 440.000
47.18114 417.000
47.20108 424.000
47.22103 412.000
47.24098 416.000
47.26092 416.000
47.28087 449.000
47.30082 387.000
47.32077 437.000
47.34071 463.000
47.36066 395.000
47.38061 400.000
47.40055 409.000
47.42050 422.000
47.44045 444.000
47.46039 438.000
47.48034 414.000
47.50029 413.000
47.52024 449.000
47.54018 428.000
47.56013 420.000
47.58008 409.000
47.60002 415.000
47.61997 448.000
47.63992 425.000
47.65986 425.000
47.67981 444.000
47.69976 415.000
47.71970 441.000
47.73965 399.000
47.75960 440.000
47.77955 397.000
47.79949 398.000
47.81944 439.000
47.83939 414.000
47.85933 414.000
47.87928 450.000
47.89923 460.000
47.91917 448.000
47.93912 448.000
47.95907 500.000
47.97902 460.000
47.99896 486.000
48.01891 492.000
48.03886 482.000
48.05880 462.000
48.07875 499.000
48.09870 496.000
48.11864 476.000
48.13859 488.000
48.15854 483.000
48.17848 494.000
48.19843 517.000
48.21838 486.000
48.23833 496.000
48.25827 569.000
48.27822 546.000
48.29817 534.000
48.31811 610.000
48.33806 592.000
48.35801 647.000
48.37795 725.000
48.39790 713.000
48.41785 769.000
48.43780 785.000
48.45774 841.000
48.47769 776.000
48.49764 838.000
48.51758 834.000
48.53753 900.000
48.55748 972.000
48.57742 992.000
48.59737 1074.000
48.61732 1153.000
48.63726 1399.000
48.65721 1481.000
48.67716 1662.000
48.69711 1653.000
48.71705 1530.000
48.73700 1355.000
48.75695 1282.000
48.77689 1266.000
48.79684 1242.000
48.81679 1135.000
48.83673 1152.000
48.85668 979.000
48.87663 868.000
48.89658 766.000
48.91652 688.000
48.93647 677.000
48.95642 577.000
48.97636 591.000
48.99631 557.000
49.01626 569.000
49.03620 504.000
49.05615 521.000
49.07610 509.000
49.09605 481.000
49.11599 490.000
49.13594 547.000
49.15589 498.000
49.17583 478.000
49.19578 496.000
49.21573 452.000
49.23567 479.000
49.25562 464.000
49.27557 516.000
49.29551 467.000
49.31546 463.000
49.33541 425.000
49.35536 468.000
49.37530 463.000
49.39525 530.000
49.41520 470.000
49.43514 452.000
49.45509 476.000
49.47504 525.000
49.49498 480.000
49.51493 504.000
49.53488 507.000
49.55483 488.000
49.57477 447.000
49.59472 463.000
49.61467 486.000
49.63461 502.000
49.65456 452.000
49.67451 490.000
49.69445 469.000
49.71440 436.000
49.73435 423.000
49.75429 481.000
49.77424 467.000
49.79419 442.000
49.81414 429.000
49.83408 421.000
49.85403 464.000
49.87398 430.000
49.89392 426.000
49.91387 446.000
49.93382 412.000
49.95376 471.000
49.97371 429.000
49.99366 439.000
50.01361 444.000
50.03355 447.000
50.05350 411.000
50.07345 406.000
50.09339 437.000
50.11334 427.000
50.13329 436.000
50.15323 437.000
50.17318 422.000
50.19313 419.000
50.21307 455.000
50.23302 438.000
50.25297 438.000
50.27292 410.000
50.29286 406.000
50.31281 397.000
50.33276 408.000
50.35270 395.000
50.37265 433.000
50.39260 392.000
50.41254 383.000
50.43249 422.000
50.45244 387.000
50.47239 422.000
50.49233 422.000
50.51228 435.000
50.53223 402.000
50.55217 423.000
50.57212 445.000
50.59207 432.000
50.61201 417.000
50.63196 438.000
50.65191 435.000
50.67186 405.000
50.69180 413.000
50.71175 441.000
50.73170 442.000
50.75164 389.000
50.77159 412.000
50.79154 450.000
50.81148 430.000
50.83143 425.000
50.85138 396.000
50.87132 424.000
50.89127 406.000
50.91122 430.000
50.93117 376.000
50.95111 412.000
50.97106 430.000
50.99101 405.000
51.01095 425.000
51.03090 418.000
51.05085 419.000
51.07079 445.000
51.09074 421.000
51.11069 452.000
51.13064 442.000
51.15058 433.000
51.17053 450.000
51.19048 432.000
51.21042 396.000
51.23037 435.000
51.25032 410.000
51.27026 427.000
51.29021 442.000
51.31016 459.000
51.33010 424.000
51.35005 500.000
51.37000 471.000
51.38995 461.000
51.40989 447.000
51.42984 429.000
51.44979 440.000
51.46973 417.000
51.48968 476.000
51.50963 422.000
51.52957 414.000
51.54952 430.000
51.56947 435.000
51.58942 474.000
51.60936 448.000
51.62931 442.000
51.64926 404.000
51.66920 396.000
51.68915 433.000
51.70910 442.000
51.72904 407.000
51.74899 407.000
51.76894 412.000
51.78888 411.000
51.80883 433.000
51.82878 424.000
51.84873 455.000
51.86867 425.000
51.88862 443.000
51.90857 426.000
51.92851 445.000
51.94846 418.000
51.96841 466.000
51.98835 451.000
52.00830 457.000
52.02825 491.000
52.04820 456.000
52.06814 439.000
52.08809 462.000
52.10804 433.000
52.12798 510.000
52.14793 495.000
52.16788 479.000
52.18782 434.000
52.20777 454.000
52.22772 433.000
52.24767 469.000
52.26761 437.000
52.28756 422.000
52.30751 493.000
52.32745 412.000
52.34740 429.000
52.36735 423.000
52.38729 506.000
52.40724 449.000
52.42719 482.000
52.44713 466.000
52.46708 449.000
52.48703 463.000
52.50698 452.000
52.52692 454.000
52.54687 433.000
52.56682 467.000
52.58676 411.000
52.60671 440.000
52.62666 458.000
52.64660 461.000
52.66655 456.000
52.68650 487.000
52.70645 475.000
52.72639 505.000
52.74634 482.000
52.76629 517.000
52.78623 476.000
52.80618 486.000
52.82613 437.000
52.84607 488.000
52.86602 427.000
52.88597 413.000
52.90591 461.000
52.92586 435.000
52.94581 452.000
52.96576 438.000
52.98570 462.000
53.00565 460.000
53.02560 388.000
53.04554 435.000
53.06549 480.000
53.08544 440.000
53.10538 435.000
53.12533 475.000
53.14528 467.000
53.16523 436.000
53.18517 465.000
53.20512 491.000
53.22507 505.000
53.24501 455.000
53.26496 485.000
53.28491 508.000
53.30485 468.000
53.32480 512.000
53.34475 510.000
53.36469 541.000
53.38464 551.000
53.40459 538.000
53.42454 533.000
53.44448 548.000
53.46443 589.000
53.48438 623.000
53.50432 635.000
53.52427 667.000
53.54422 615.000
53.56416 639.000
53.58411 641.000
53.60406 625.000
53.62401 591.000
53.64395 633.000
53.66390 569.000
53.68385 592.000
53.70379 567.000
53.72374 579.000
53.74369 520.000
53.76363 490.000
53.78358 494.000
53.80353 480.000
53.82348 474.000
53.84342 472.000
53.86337 478.000
53.88332 445.000
53.90326 471.000
53.92321 428.000
53.94316 452.000
53.96310 445.000
53.98305 479.000
54.00300 407.000
54.02294 427.000
54.04289 424.000
54.06284 441.000
54.08279 436.000
54.10273 459.000
54.12268 435.000
54.14263 458.000
54.16257 431.000
54.18252 474.000
54.20247 429.000
54.22241 396.000
54.24236 416.000
54.26231 474.000
54.28226 429.000
54.30220 446.000
54.32215 421.000
54.34210 456.000
54.36204 454.000
54.38199 472.000
54.40194 437.000
54.42188 411.000
54.44183 386.000
54.46178 471.000
54.48172 471.000
54.50167 412.000
54.52162 419.000
54.54157 426.000
54.56151 437.000
54.58146 381.000
54.60141 485.000
54.62135 415.000
54.64130 471.000
54.66125 445.000
54.68119 423.000
54.70114 420.000
54.72109 424.000
54.74104 434.000
54.76098 468.000
54.78093 444.000
54.80088 408.000
54.82082 404.000
54.84077 441.000
54.86072 431.000
54.88066 428.000
54.90061 455.000
54.92056 398.000
54.94050 449.000
54.96045 432.000
54.98040 398.000
55.00035 420.000
55.02029 399.000
55.04024 385.000
55.06019 428.000
55.08013 425.000
55.10008 404.000
55.12003 478.000
55.13997 438.000
55.15992 436.000
55.17987 449.000
55.19982 405.000
55.21976 414.000
55.23971 426.000
55.25966 427.000
55.27960 402.000
55.29955 393.000
55.31950 446.000
55.33944 417.000
55.35939 424.000
55.37934 406.000
55.39929 446.000
55.41923 413.000
55.43918 413.000
55.45913 413.000
55.47907 429.000
55.49902 424.000
55.51897 426.000
55.53891 408.000
55.55886 384.000
55.57881 412.000
55.59875 424.000
55.61870 454.000
55.63865 451.000
55.65860 433.000
55.67854 430.000
55.69849 421.000
55.71844 419.000
55.73838 415.000
55.75833 407.000
55.77828 474.000
55.79822 421.000
55.81817 402.000
55.83812 448.000
55.85807 425.000
55.87801 436.000
55.89796 405.000
55.91791 448.000
55.93785 429.000
55.95780 417.000
55.97775 435.000
55.99769 380.000
56.01764 430.000
56.03759 454.000
56.05753 437.000
56.07748 423.000
56.09743 415.000
56.11738 439.000
56.13732 422.000
56.15727 449.000
56.17722 429.000
56.19716 423.000
56.21711 465.000
56.23706 407.000
56.25700 445.000
56.27695 422.000
56.29690 386.000
56.31685 435.000
56.33679 406.000
56.35674 433.000
56.37669 417.000
56.39663 454.000
56.41658 453.000
56.43653 429.000
56.45647 434.000
56.47642 413.000
56.49637 441.000
56.51631 435.000
56.53626 394.000
56.55621 440.000
56.57616 443.000
56.59610 460.000
56.61605 446.000
56.63600 446.000
56.65594 495.000
56.67589 473.000
56.69584 520.000
56.71578 495.000
56.73573 504.000
56.75568 501.000
56.77563 498.000
56.79557 481.000
56.81552 457.000
56.83547 438.000
56.85541 527.000
56.87536 498.000
56.89531 501.000
56.91525 475.000
56.93520 490.000
56.95515 487.000
56.97510 437.000
56.99504 464.000
57.01499 453.000
57.03494 451.000
57.05488 447.000
57.07483 455.000
57.09478 477.000
57.11472 425.000
57.13467 423.000
57.15462 444.000
57.17456 457.000
57.19451 457.000
57.21446 481.000
57.23441 468.000
57.25435 487.000
57.27430 510.000
57.29425 499.000
57.31419 437.000
57.33414 457.000
57.35409 466.000
57.37403 480.000
57.39398 458.000
57.41393 500.000
57.43388 493.000
57.45382 487.000
57.47377 437.000
57.49372 441.000
57.51366 456.000
57.53361 426.000
57.55356 463.000
57.57350 441.000
57.59345 424.000
57.61340 460.000
57.63334 433.000
57.65329 432.000
57.67324 467.000
57.69319 409.000
57.71313 457.000
57.73308 462.000
57.75303 420.000
57.77297 486.000
57.79292 409.000
57.81287 465.000
57.83281 472.000
57.85276 462.000
57.87271 474.000
57.89266 446.000
57.91260 475.000
57.93255 413.000
57.95250 455.000
57.97244 452.000
57.99239 445.000
58.01234 474.000
58.03228 439.000
58.05223 470.000
58.07218 457.000
58.09212 464.000
58.11207 471.000
58.13202 505.000
58.15197 531.000
58.17191 554.000
58.19186 572.000
58.21181 594.000
58.23175 632.000
58.25170 736.000
58.27165 756.000
58.29159 805.000
58.31154 827.000
58.33149 805.000
58.35144 772.000
58.37138 722.000
58.39133 667.000
58.41128 648.000
58.43122 695.000
58.45117 725.000
58.47112 668.000
58.49106 653.000
58.51101 608.000
58.53096 638.000
58.55090 610.000
58.57085 560.000
58.59080 501.000
58.61075 527.000
58.63069 473.000
58.65064 464.000
58.67059 508.000
58.69053 465.000
58.71048 463.000
58.73043 464.000
58.75037 428.000
58.77032 441.000
58.79027 432.000
58.81022 457.000
58.83016 466.000
58.85011 425.000
58.87006 435.000
58.89000 455.000
58.90995 464.000
58.92990 471.000
58.94984 451.000
58.96979 455.000
58.98974 454.000
59.00969 405.000
59.02963 441.000
59.04958 450.000
59.06953 446.000
59.08947 458.000
59.10942 433.000
59.12937 438.000
59.14931 430.000
59.16926 450.000
59.18921 426.000
59.20915 420.000
59.22910 417.000
59.24905 382.000
59.26900 397.000
59.28894 410.000
59.30889 404.000
59.32884 450.000
59.34878 429.000
59.36873 470.000
59.38868 444.000
59.40862 408.000
59.42857 402.000
59.44852 405.000
59.46847 401.000
59.48841 429.000
59.50836 422.000
59.52831 406.000
59.54825 461.000
59.56820 430.000
59.58815 437.000
59.60809 420.000
59.62804 427.000
59.64799 418.000
59.66793 439.000
59.68788 426.000
59.70783 435.000
59.72778 427.000
59.74772 423.000
59.76767 403.000
59.78762 418.000
59.80756 444.000
59.82751 394.000
59.84746 426.000
59.86740 417.000
59.88735 466.000
59.90730 461.000
59.92725 475.000
59.94719 402.000
59.96714 441.000
59.98709 378.000
60.00703 437.000
60.02698 429.000
60.04693 413.000
60.06687 411.000
60.08682 427.000
60.10677 379.000
60.12671 433.000
60.14666 436.000
60.16661 412.000
60.18656 454.000
60.20650 442.000
60.22645 414.000
60.24640 451.000
60.26634 445.000
60.28629 411.000
60.30624 444.000
60.32618 419.000
60.34613 418.000
60.36608 428.000
60.38603 443.000
60.40597 478.000
60.42592 446.000
60.44587 472.000
60.46581 467.000
60.48576 451.000
60.50571 441.000
60.52565 455.000
60.54560 430.000
60.56555 446.000
60.58550 446.000
60.60544 417.000
60.62539 449.000
60.64534 442.000
60.66528 455.000
60.68523 466.000
60.70518 459.000
60.72512 432.000
60.74507 452.000
60.76502 437.000
60.78496 433.000
60.80491 446.000
60.82486 430.000
60.84481 450.000
60.86475 433.000
60.88470 474.000
60.90465 450.000
60.92459 428.000
60.94454 478.000
60.96449 393.000
60.98443 435.000
61.00438 467.000
61.02433 450.000
61.04428 474.000
61.06422 483.000
61.08417 493.000
61.10412 463.000
61.12406 478.000
61.14401 506.000
61.16396 510.000
61.18390 463.000
61.20385 516.000
61.22380 498.000
61.24374 483.000
61.26369 506.000
61.28364 549.000
61.30359 511.000
61.32353 563.000
61.34348 581.000
61.36343 636.000
61.38337 635.000
61.40332 666.000
61.42327 626.000
61.44321 731.000
61.46316 835.000
61.48311 922.000
61.50306 1080.000
61.52300 1121.000
61.54295 1150.000
61.56290 1135.000
61.58284 1046.000
61.60279 1057.000
61.62274 1056.000
61.64268 951.000
61.66263 975.000
61.68258 1035.000
61.70252 1008.000
61.72247 940.000
61.74242 916.000
61.76237 828.000
61.78231 809.000
61.80226 767.000
61.82221 748.000
61.84215 658.000
61.86210 645.000
61.88205 645.000
61.90199 639.000
61.92194 616.000
61.94189 541.000
61.96184 552.000
61.98178 567.000
62.00173 549.000
62.02168 523.000
62.04162 547.000
62.06157 518.000
62.08152 518.000
62.10146 516.000
62.12141 491.000
62.14136 550.000
62.16131 529.000
62.18125 513.000
62.20120 569.000
62.22115 549.000
62.24109 526.000
62.26104 522.000
62.28099 534.000
62.30093 568.000
62.32088 565.000
62.34083 540.000
62.36077 508.000
62.38072 521.000
62.40067 494.000
62.42062 486.000
62.44056 488.000
62.46051 468.000
62.48046 516.000
62.50040 473.000
62.52035 466.000
62.54030 434.000
62.56024 493.000
62.58019 465.000
62.60014 472.000
62.62009 451.000
62.64003 489.000
62.65998 456.000
62.67993 490.000
62.69987 455.000
62.71982 466.000
62.73977 452.000
62.75971 447.000
62.77966 451.000
62.79961 526.000
62.81955 452.000
62.83950 417.000
62.85945 436.000
62.87940 439.000
62.89934 495.000
62.91929 474.000
62.93924 431.000
62.95918 461.000
62.97913 461.000
62.99908 474.000
63.01902 464.000
63.03897 428.000
63.05892 469.000
63.07887 452.000
63.09881 491.000
63.11876 480.000
63.13871 453.000
63.15865 472.000
63.17860 449.000
63.19855 486.000
63.21849 450.000
63.23844 476.000
63.25839 447.000
63.27833 446.000
63.29828 463.000
63.31823 417.000
63.33818 452.000
63.35812 469.000
63.37807 463.000
63.39802 463.000
63.41796 472.000
63.43791 492.000
63.45786 431.000
63.47780 470.000
63.49775 488.000
63.51770 450.000
63.53765 467.000
63.55759 438.000
63.57754 483.000
63.59749 451.000
63.61743 498.000
63.63738 469.000
63.65733 509.000
63.67727 538.000
63.69722 504.000
63.71717 480.000
63.73712 486.000
63.75706 467.000
63.77701 503.000
63.79696 512.000
63.81690 510.000
63.83685 484.000
63.85680 483.000
63.87674 490.000
63.89669 493.000
63.91664 488.000
63.93658 522.000
63.95653 494.000
63.97648 534.000
63.99643 436.000
64.01637 477.000
64.03632 490.000
64.05627 489.000
64.07621 492.000
64.09616 470.000
64.11611 487.000
64.13605 474.000
64.15600 464.000
64.17595 494.000
64.19590 493.000
64.21584 492.000
64.23579 462.000
64.25574 447.000
64.27568 503.000
64.29563 461.000
64.31558 473.000
64.33552 470.000
64.35547 516.000
64.37542 463.000
64.39536 452.000
64.41531 459.000
64.43526 443.000
64.45521 455.000
64.47515 445.000
64.49510 475.000
64.51505 471.000
64.53499 416.000
64.55494 487.000
64.57489 459.000
64.59483 476.000
64.61478 443.000
64.63473 439.000
64.65468 454.000
64.67462 446.000
64.69457 437.000
64.71452 445.000
64.73446 452.000
64.75441 435.000
64.77436 442.000
64.79430 440.000
64.81425 415.000
64.83420 437.000
64.85414 463.000
64.87409 414.000
64.89404 457.000
64.91399 434.000
64.93393 428.000
64.95388 436.000
64.97383 457.000
64.99377 457.000
65.01372 439.000
65.03367 417.000
65.05361 445.000
65.07356 448.000
65.09351 419.000
65.11346 450.000
65.13340 460.000
65.15335 472.000
65.17330 503.000
65.19324 484.000
65.21319 447.000
65.23314 488.000
65.25308 451.000
65.27303 456.000
65.29298 506.000
65.31293 470.000
65.33287 479.000
65.35282 457.000
65.37277 507.000
65.39271 480.000
65.41266 479.000
65.43261 471.000
65.45255 511.000
65.47250 533.000
65.49245 544.000
65.51239 556.000
65.53234 541.000
65.55229 544.000
65.57224 603.000
65.59218 533.000
65.61213 565.000
65.63208 581.000
65.65202 578.000
65.67197 629.000
65.69192 636.000
65.71186 581.000
65.73181 649.000
65.75176 680.000
65.77171 740.000
65.79165 695.000
65.81160 733.000
65.83155 738.000
65.85149 735.000
65.87144 795.000
65.89139 761.000
65.91133 778.000
65.93128 768.000
65.95123 766.000
65.97117 761.000
65.99112 759.000
66.01107 753.000
66.03102 747.000
66.05096 751.000
66.07091 741.000
66.09086 819.000
66.11080 850.000
66.13075 885.000
66.15070 952.000
66.17064 992.000
66.19059 1089.000
66.21054 985.000
66.23049 1019.000
66.25043 835.000
66.27038 947.000
66.29033 834.000
66.31027 778.000
66.33022 808.000
66.35017 799.000
66.37011 777.000
66.39006 845.000
66.41001 754.000
66.42995 762.000
66.44990 757.000
66.46985 660.000
66.48980 626.000
66.50974 656.000
66.52969 588.000
66.54964 577.000
66.56958 570.000
66.58953 591.000
66.60948 589.000
66.62942 567.000
66.64937 577.000
66.66932 552.000
66.68927 578.000
66.70921 570.000
66.72916 541.000
66.74911 482.000
66.76905 504.000
66.78900 517.000
66.80895 507.000
66.82889 508.000
66.84884 475.000
66.86879 486.000
66.88874 501.000
66.90868 512.000
66.92863 491.000
66.94858 473.000
66.96852 468.000
66.98847 515.000
67.00842 431.000
67.02836 478.000
67.04831 472.000
67.06826 460.000
67.08820 474.000
67.10815 443.000
67.12810 466.000
67.14805 419.000
67.16799 465.000
67.18794 427.000
67.20789 450.000
67.22783 454.000
67.24778 477.000
67.26773 455.000
67.28767 476.000
67.30762 434.000
67.32757 468.000
67.34752 471.000
67.36746 463.000
67.38741 462.000
67.40736 456.000
67.42730 467.000
67.44725 487.000
67.46720 503.000
67.48714 510.000
67.50709 464.000
67.52704 484.000
67.54698 450.000
67.56693 477.000
67.58688 514.000
67.60683 502.000
67.62677 499.000
67.64672 486.000
67.66667 457.000
67.68661 527.000
67.70656 501.000
67.72651 497.000
67.74645 524.000
67.76640 546.000
67.78635 548.000
67.80630 551.000
67.82624 555.000
67.84619 559.000
67.86614 630.000
67.88608 651.000
67.90603 696.000
67.92598 661.000
67.94592 748.000
67.96587 688.000
67.98582 723.000
68.00576 689.000
68.02571 766.000
68.04566 765.000
68.06561 807.000
68.08555 878.000
68.10550 870.000
68.12545 925.000
68.14539 936.000
68.16534 863.000
68.18529 847.000
68.20523 792.000
68.22518 800.000
68.24513 662.000
68.26508 691.000
68.28502 712.000
68.30497 693.000
68.32492 724.000
68.34486 674.000
68.36481 601.000
68.38476 614.000
68.40470 586.000
68.42465 537.000
68.44460 518.000
68.46455 516.000
68.48449 492.000
68.50444 522.000
68.52439 491.000
68.54433 470.000
68.56428 424.000
68.58423 450.000
68.60417 433.000
68.62412 417.000
68.64407 514.000
68.66401 445.000
68.68396 460.000
68.70391 423.000
68.72386 461.000
68.74380 481.000
68.76375 477.000
68.78370 472.000
68.80364 431.000
68.82359 436.000
68.84354 447.000
68.86348 436.000
68.88343 436.000
68.90338 463.000
68.92333 418.000
68.94327 431.000
68.96322 422.000
68.98317 429.000
69.00311 464.000
69.02306 420.000
69.04301 434.000
69.06295 431.000
69.08290 452.000
69.10285 426.000
69.12279 439.000
69.14274 430.000
69.16269 421.000
69.18264 417.000
69.20258 409.000
69.22253 435.000
69.24248 451.000
69.26242 444.000
69.28237 431.000
69.30232 419.000
69.32226 394.000
69.34221 433.000
69.36216 411.000
69.38211 427.000
69.40205 442.000
69.42200 418.000
69.44195 403.000
69.46189 386.000
69.48184 438.000
69.50179 395.000
69.52173 415.000
69.54168 459.000
69.56163 457.000
69.58157 387.000
69.60152 428.000
69.62147 429.000
69.64142 422.000
69.66136 450.000
69.68131 404.000
69.70126 401.000
69.72120 404.000
69.74115 428.000
69.76110 425.000
69.78104 396.000
69.80099 392.000
69.82094 399.000
69.84089 436.000
69.86083 424.000
69.88078 394.000
69.90073 480.000
69.92067 416.000
69.94062 410.000
69.96057 397.000
69.98051 431.000
70.00046 394.000
70.02041 430.000
70.04035 437.000
70.06030 421.000
70.08025 424.000
70.10020 416.000
70.12014 385.000
70.14009 426.000
70.16004 404.000
70.17998 384.000
70.19993 427.000
70.21988 422.000
70.23982 413.000
70.25977 400.000
70.27972 433.000
70.29967 457.000
70.31961 415.000
70.33956 421.000
70.35951 395.000
70.37945 408.000
70.39940 382.000
70.41935 402.000
70.43929 413.000
70.45924 433.000
70.47919 394.000
70.49914 411.000
70.51908 399.000
70.53903 439.000
70.55898 417.000
70.57892 424.000
70.59887 404.000
70.61882 414.000
70.63876 446.000
70.65871 413.000
70.67866 403.000
70.69860 388.000
70.71855 408.000
70.73850 413.000
70.75845 450.000
70.77839 410.000
70.79834 450.000
70.81829 401.000
70.83823 418.000
70.85818 424.000
70.87813 425.000
70.89807 441.000
70.91802 430.000
70.93797 406.000
70.95792 407.000
70.97786 438.000
70.99781 437.000
71.01776 432.000
71.03770 415.000
71.05765 380.000
71.07760 408.000
71.09754 409.000
71.11749 419.000
71.13744 410.000
71.15738 400.000
71.17733 433.000
71.19728 389.000
71.21723 414.000
71.23717 447.000
71.25712 403.000
71.27707 422.000
71.29701 436.000
71.31696 411.000
71.33691 440.000
71.35685 448.000
71.37680 447.000
71.39675 411.000
71.41670 445.000
71.43664 397.000
71.45659 408.000
71.47654 410.000
71.49648 413.000
71.51643 445.000
71.53638 393.000
71.55632 425.000
71.57627 437.000
71.59622 432.000
71.61616 452.000
71.63611 391.000
71.65606 419.000
71.67601 443.000
71.69595 433.000
71.71590 431.000
71.73585 445.000
71.75579 424.000
71.77574 419.000
71.79569 427.000
71.81563 407.000
71.83558 418.000
71.85553 466.000
71.87548 439.000
71.89542 457.000
71.91537 446.000
71.93532 490.000
71.95526 424.000
71.97521 446.000
71.99516 451.000
72.01510 444.000
72.03505 442.000
72.05500 454.000
72.07495 410.000
72.09489 432.000
72.11484 464.000
72.13479 458.000
72.15473 441.000
72.17468 450.000
72.19463 442.000
72.21457 468.000
72.23452 432.000
72.25447 488.000
72.27441 496.000
72.29436 521.000
72.31431 495.000
72.33426 576.000
72.35420 589.000
72.37415 599.000
72.39410 625.000
72.41404 581.000
72.43399 591.000
72.45394 586.000
72.47388 553.000
72.49383 562.000
72.51378 545.000
72.53373 562.000
72.55367 554.000
72.57362 542.000
72.59357 561.000
72.61351 569.000
72.63346 560.000
72.65341 535.000
72.67335 505.000
72.69330 523.000
72.71325 509.000
72.73319 495.000
72.75314 520.000
72.77309 483.000
72.79304 484.000
72.81298 463.000
72.83293 482.000
72.85288 459.000
72.87282 496.000
72.89277 482.000
72.91272 477.000
72.93266 424.000
72.95261 489.000
72.97256 470.000
72.99251 485.000
73.01245 480.000
73.03240 441.000
73.05235 473.000
73.07229 508.000
73.09224 469.000
73.11219 455.000
73.13213 482.000
73.15208 438.000
73.17203 495.000
73.19197 477.000
73.21192 465.000
73.23187 443.000
73.25182 436.000
73.27176 463.000
73.29171 471.000
73.31166 417.000
73.33160 442.000
73.35155 420.000
73.37150 466.000
73.39144 450.000
73.41139 421.000
73.43134 421.000
73.45129 451.000
73.47123 514.000
73.49118 426.000
73.51113 460.000
73.53107 444.000
73.55102 448.000
73.57097 451.000
73.59091 432.000
73.61086 468.000
73.63081 443.000
73.65076 425.000
73.67070 449.000
73.69065 435.000
73.71060 394.000
73.73054 480.000
73.75049 450.000
73.77044 424.000
73.79038 396.000
73.81033 419.000
73.83028 446.000
73.85022 422.000
73.87017 456.000
73.89012 417.000
73.91007 444.000
73.93001 438.000
73.94996 396.000
73.96991 417.000
73.98985 398.000
74.00980 442.000
74.02975 461.000
74.04969 427.000
74.06964 426.000
74.08959 426.000
74.10954 400.000
74.12948 452.000
74.14943 398.000
74.16938 403.000
74.18932 385.000
74.20927 409.000
74.22922 418.000
74.24916 420.000
74.26911 417.000
74.28906 418.000
74.30900 448.000
74.32895 418.000
74.34890 457.000
74.36885 414.000
74.38879 452.000
74.40874 408.000
74.42869 433.000
74.44863 404.000
74.46858 398.000
74.48853 481.000
74.50847 465.000
74.52842 428.000
74.54837 446.000
74.56832 439.000
74.58826 462.000
74.60821 450.000
74.62816 437.000
74.64810 474.000
74.66805 488.000
74.68800 441.000
74.70794 409.000
74.72789 461.000
74.74784 472.000
74.76778 496.000
74.78773 457.000
74.80768 477.000
74.82763 448.000
74.84757 485.000
74.86752 469.000
74.88747 465.000
74.90741 473.000
74.92736 520.000
74.94731 555.000
74.96725 547.000
74.98720 639.000
75.00715 589.000
75.02710 633.000
75.04704 615.000
75.06699 598.000
75.08694 598.000
75.10688 572.000
75.12683 550.000
75.14678 629.000
75.16672 601.000
75.18667 599.000
75.20662 636.000
75.22657 693.000
75.24651 691.000
75.26646 679.000
75.28641 573.000
75.30635 595.000
75.32630 572.000
75.34625 637.000
75.36619 572.000
75.38614 483.000
75.40609 528.000
75.42603 564.000
75.44598 522.000
75.46593 535.000
75.48588 508.000
75.50582 498.000
75.52577 513.000
75.54572 477.000
75.56566 499.000
75.58561 485.000
75.60556 448.000
75.62550 464.000
75.64545 510.000
75.66540 477.000
75.68535 425.000
75.70529 483.000
75.72524 453.000
75.74519 448.000
75.76513 407.000
75.78508 473.000
75.80503 440.000
75.82497 401.000
75.84492 433.000
75.86487 419.000
75.88481 438.000
75.90476 445.000
75.92471 432.000
75.94466 423.000
75.96460 428.000
75.98455 432.000
76.00450 433.000
76.02444 425.000
76.04439 436.000
76.06434 442.000
76.08428 406.000
76.10423 426.000
76.12418 460.000
76.14413 404.000
76.16407 440.000
76.18402 432.000
76.20397 417.000
76.22391 435.000
76.24386 457.000
76.26381 467.000
76.28375 409.000
76.30370 415.000
76.32365 445.000
76.34359 412.000
76.36354 461.000
76.38349 408.000
76.40344 434.000
76.42338 431.000
76.44333 419.000
76.46328 454.000
76.48322 405.000
76.50317 450.000
76.52312 407.000
76.54306 419.000
76.56301 449.000
76.58296 418.000
76.60291 420.000
76.62285 434.000
76.64280 414.000
76.66275 395.000
76.68269 408.000
76.70264 423.000
76.72259 445.000
76.74253 404.000
76.76248 439.000
76.78243 443.000
76.80238 430.000
76.82232 443.000
76.84227 449.000
76.86222 418.000
76.88216 436.000
76.90211 415.000
76.92206 387.000
76.94200 401.000
76.96195 406.000
76.98190 424.000
77.00184 437.000
77.02179 449.000
77.04174 432.000
77.06169 439.000
77.08163 436.000
77.10158 442.000
77.12153 392.000
77.14147 442.000
77.16142 379.000
77.18137 400.000
77.20131 394.000
77.22126 449.000
77.24121 413.000
77.26116 457.000
77.28110 426.000
77.30105 450.000
77.32100 445.000
77.34094 419.000
77.36089 444.000
77.38084 425.000
77.40078 423.000
77.42073 452.000
77.44068 432.000
77.46062 442.000
77.48057 432.000
77.50052 440.000
77.52047 448.000
77.54041 467.000
77.56036 434.000
77.58031 462.000
77.60025 468.000
77.62020 463.000
77.64015 470.000
77.66009 401.000
77.68004 437.000
77.69999 427.000
77.71994 464.000
77.73988 459.000
77.75983 476.000
77.77978 459.000
77.79972 483.000
77.81967 436.000
77.83962 488.000
77.85956 461.000
77.87951 462.000
77.89946 461.000
77.91940 460.000
77.93935 439.000
77.95930 475.000
77.97925 465.000
77.99919 464.000
78.01914 434.000
78.03909 447.000
78.05903 432.000
78.07898 482.000
78.09893 420.000
78.11887 463.000
78.13882 427.000
78.15877 414.000
78.17872 390.000
78.19866 429.000
78.21861 455.000
78.23856 422.000
78.25850 435.000
78.27845 439.000
78.29840 453.000
78.31834 430.000
78.33829 471.000
78.35824 408.000
78.37819 450.000
78.39813 415.000
78.41808 461.000
78.43803 402.000
78.45797 404.000
78.47792 417.000
78.49787 433.000
78.51781 433.000
78.53776 430.000
78.55771 430.000
78.57765 445.000
78.59760 417.000
78.61755 387.000
78.63750 466.000
78.65744 414.000
78.67739 456.000
78.69734 437.000
78.71728 426.000
78.73723 395.000
78.75718 428.000
78.77712 413.000
78.79707 420.000
78.81702 433.000
78.83697 410.000
78.85691 394.000
78.87686 439.000
78.89681 416.000
78.91675 397.000
78.93670 431.000
78.95665 446.000
78.97659 392.000
78.99654 441.000
79.01649 371.000
79.03643 403.000
79.05638 444.000
79.07633 451.000
79.09628 405.000
79.11622 437.000
79.13617 445.000
79.15612 414.000
79.17606 431.000
79.19601 411.000
79.21596 473.000
79.23590 434.000
79.25585 383.000
79.27580 435.000
79.29575 438.000
79.31569 369.000
79.33564 406.000
79.35559 392.000
79.37553 438.000
79.39548 443.000
79.41543 385.000
79.43537 405.000
79.45532 399.000
79.47527 432.000
79.49521 427.000
79.51516 418.000
79.53511 461.000
79.55506 428.000
79.57500 422.000
79.59495 400.000
79.61490 433.000
79.63484 373.000
79.65479 423.000
79.67474 399.000
79.69468 398.000
79.71463 405.000
79.73458 418.000
79.75453 401.000
79.77447 428.000
79.79442 432.000
79.81437 392.000
79.83431 424.000
79.85426 410.000
79.87421 415.000
79.89415 397.000
79.91410 444.000
79.93405 444.000
79.95399 409.000
79.97394 429.000
79.99389 456.000
80.01384 442.000
80.03378 453.000
80.05373 467.000
80.07368 453.000
80.09362 484.000
80.11357 450.000
80.13352 471.000
80.15346 454.000
80.17341 444.000
80.19336 447.000
80.21331 423.000
80.23325 446.000
80.25320 432.000
80.27315 432.000
80.29309 471.000
80.31304 449.000
80.33299 394.000
80.35293 466.000
80.37288 448.000
80.39283 461.000
80.41278 428.000
80.43272 452.000
80.45267 445.000
80.47262 454.000
80.49256 406.000
80.51251 450.000
80.53246 414.000
80.55240 415.000
80.57235 415.000
80.59230 432.000
80.61224 447.000
80.63219 457.000
80.65214 403.000
80.67209 413.000
80.69203 405.000
80.71198 407.000
80.73193 450.000
80.75187 440.000
80.77182 416.000
80.79177 393.000
80.81171 416.000
80.83166 361.000
80.85161 425.000
80.87156 419.000
80.89150 416.000
80.91145 394.000
80.93140 431.000
80.95134 412.000
80.97129 395.000
80.99124 425.000
81.01118 377.000
81.03113 403.000
81.05108 406.000
81.07102 411.000
81.09097 412.000
81.11092 412.000
81.13087 433.000
81.15081 381.000
81.17076 398.000
81.19071 430.000
81.21065 454.000
81.23060 404.000
81.25055 466.000
81.27049 396.000
81.29044 449.000
81.31039 425.000
81.33034 401.000
81.35028 424.000
81.37023 465.000
81.39018 435.000
81.41012 411.000
81.43007 419.000
81.45002 452.000
81.46996 429.000
81.48991 437.000
81.50986 416.000
81.52980 431.000
81.54975 425.000
81.56970 453.000
81.58965 409.000
81.60959 407.000
81.62954 432.000
81.64949 411.000
81.66943 449.000
81.68938 391.000
81.70933 424.000
81.72927 392.000
81.74922 412.000
81.76917 434.000
81.78912 381.000
81.80906 413.000
81.82901 432.000
81.84896 451.000
81.86890 436.000
81.88885 457.000
81.90880 448.000
81.92874 433.000
81.94869 443.000
81.96864 438.000
81.98859 423.000
82.00853 424.000
82.02848 408.000
82.04843 430.000
82.06837 439.000
82.08832 445.000
82.10827 459.000
82.12821 436.000
82.14816 402.000
82.16811 477.000
82.18805 444.000
82.20800 493.000
82.22795 469.000
82.24790 497.000
82.26784 481.000
82.28779 539.000
82.30774 571.000
82.32768 531.000
82.34763 482.000
82.36758 544.000
82.38752 523.000
82.40747 504.000
82.42742 459.000
82.44737 450.000
82.46731 523.000
82.48726 464.000
82.50721 488.000
82.52715 495.000
82.54710 479.000
82.56705 505.000
82.58699 481.000
82.60694 488.000
82.62689 457.000
82.64683 501.000
82.66678 469.000
82.68673 407.000
82.70668 474.000
82.72662 449.000
82.74657 455.000
82.76652 466.000
82.78646 434.000
82.80641 431.000
82.82636 488.000
82.84630 476.000
82.86625 424.000
82.88620 466.000
82.90615 449.000
82.92609 476.000
82.94604 494.000
82.96599 485.000
82.98593 475.000
83.00588 492.000
83.02583 466.000
83.04577 537.000
83.06572 509.000
83.08567 504.000
83.10561 499.000
83.12556 486.000
83.14551 546.000
83.16546 487.000
83.18540 512.000
83.20535 534.000
83.22530 491.000
83.24524 475.000
83.26519 505.000
83.28514 498.000
83.30508 521.000
83.32503 503.000
83.34498 515.000
83.36493 499.000
83.38487 513.000
83.40482 541.000
83.42477 535.000
83.44471 489.000
83.46466 539.000
83.48461 535.000
83.50455 532.000
83.52450 511.000
83.54445 533.000
83.56440 523.000
83.58434 516.000
83.60429 513.000
83.62424 487.000
83.64418 530.000
83.66413 531.000
83.68408 466.000
83.70402 526.000
83.72397 482.000
83.74392 513.000
83.76386 468.000
83.78381 468.000
83.80376 485.000
83.82371 470.000
83.84365 483.000
83.86360 426.000
83.88355 539.000
83.90349 487.000
83.92344 489.000
83.94339 434.000
83.96333 427.000
83.98328 473.000
84.00323 416.000
84.02318 497.000
84.04312 473.000
84.06307 474.000
84.08302 460.000
84.10296 496.000
84.12291 447.000
84.14286 427.000
84.16280 450.000
84.18275 456.000
84.20270 454.000
84.22264 446.000
84.24259 480.000
84.26254 416.000
84.28249 475.000
84.30243 422.000
84.32238 475.000
84.34233 440.000
84.36227 457.000
84.38222 430.000
84.40217 457.000
84.42211 440.000
84.44206 447.000
84.46201 432.000
84.48196 456.000
84.50190 447.000
84.52185 463.000
84.54180 430.000
84.56174 455.000
84.58169 426.000
84.60164 439.000
84.62158 418.000
84.64153 412.000
84.66148 425.000
84.68142 440.000
84.70137 463.000
84.72132 457.000
84.74127 443.000
84.76121 416.000
84.78116 428.000
84.80111 446.000
84.82105 410.000
84.84100 465.000
84.86095 452.000
84.88089 430.000
84.90084 436.000
84.92079 382.000
84.94074 402.000
84.96068 378.000
84.98063 405.000
85.00058 422.000
85.02052 414.000
85.04047 396.000
85.06042 445.000
85.08036 364.000
85.10031 451.000
85.12026 427.000
85.14021 405.000
85.16015 398.000
85.18010 424.000
85.20005 405.000
85.21999 396.000
85.23994 393.000
85.25989 404.000
85.27983 426.000
85.29978 374.000
85.31973 399.000
85.33967 405.000
85.35962 440.000
85.37957 458.000
85.39952 399.000
85.41946 413.000
85.43941 443.000
85.45936 408.000
85.47930 442.000
85.49925 415.000
85.51920 421.000
85.53914 397.000
85.55909 422.000
85.57904 388.000
85.59899 430.000
85.61893 441.000
85.63888 433.000
85.65883 461.000
85.67877 415.000
85.69872 416.000
85.71867 401.000
85.73861 420.000
85.75856 401.000
85.77851 433.000
85.79845 441.000
85.81840 434.000
85.83835 429.000
85.85830 431.000
85.87824 428.000
85.89819 424.000
85.91814 435.000
85.93808 401.000
85.95803 452.000
85.97798 399.000
85.99792 395.000
86.01787 456.000
86.03782 389.000
86.05777 419.000
86.07771 398.000
86.09766 423.000
86.11761 432.000
86.13755 452.000
86.15750 442.000
86.17745 441.000
86.19739 438.000
86.21734 420.000
86.23729 409.000
86.25723 447.000
86.27718 412.000
86.29713 462.000
86.31708 472.000
86.33702 415.000
86.35697 466.000
86.37692 418.000
86.39686 459.000
86.41681 433.000
86.43676 424.000
86.45670 470.000
86.47665 401.000
86.49660 427.000
86.51655 491.000
86.53649 500.000
86.55644 424.000
86.57639 423.000
86.59633 487.000
86.61628 465.000
86.63623 431.000
86.65617 421.000
86.67612 459.000
86.69607 440.000
86.71602 447.000
86.73596 484.000
86.75591 437.000
86.77586 430.000
86.79580 441.000
86.81575 436.000
86.83570 436.000
86.85564 426.000
86.87559 452.000
86.89554 420.000
86.91548 467.000
86.93543 473.000
86.95538 441.000
86.97533 401.000
86.99527 452.000
87.01522 427.000
87.03517 430.000
87.05511 414.000
87.07506 454.000
87.09501 428.000
87.11495 433.000
87.13490 434.000
87.15485 443.000
87.17480 431.000
87.19474 406.000
87.21469 419.000
87.23464 455.000
87.25458 460.000
87.27453 435.000
87.29448 441.000
87.31442 425.000
87.33437 417.000
87.35432 441.000
87.37426 390.000
87.39421 436.000
87.41416 399.000
87.43411 408.000
87.45405 402.000
87.47400 451.000
87.49395 422.000
87.51389 410.000
87.53384 437.000
87.55379 446.000
87.57373 408.000
87.59368 416.000
87.61363 434.000
87.63358 398.000
87.65352 400.000
87.67347 410.000
87.69342 404.000
87.71336 443.000
87.73331 419.000
87.75326 417.000
87.77320 441.000
87.79315 416.000
87.81310 399.000
87.83304 401.000
87.85299 393.000
87.87294 418.000
87.89289 408.000
87.91283 411.000
87.93278 405.000
87.95273 434.000
87.97267 420.000
87.99262 426.000
88.01257 436.000
88.03251 393.000
88.05246 450.000
88.07241 403.000
88.09236 421.000
88.11230 425.000
88.13225 414.000
88.15220 393.000
88.17214 433.000
88.19209 418.000
88.21204 387.000
88.23198 435.000
88.25193 435.000
88.27188 418.000
88.29183 429.000
88.31177 428.000
88.33172 437.000
88.35167 441.000
88.37161 403.000
88.39156 415.000
88.41151 396.000
88.43145 419.000
88.45140 397.000
88.47135 416.000
88.49129 418.000
88.51124 423.000
88.53119 435.000
88.55114 450.000
88.57108 437.000
88.59103 417.000
88.61098 463.000
88.63092 379.000
88.65087 428.000
88.67082 458.000
88.69076 415.000
88.71071 433.000
88.73066 450.000
88.75061 411.000
88.77055 446.000
88.79050 435.000
88.81045 423.000
88.83039 422.000
88.85034 414.000
88.87029 444.000
88.89023 428.000
88.91018 447.000
88.93013 413.000
88.95007 412.000
88.97002 403.000
88.98997 402.000
89.00992 431.000
89.02986 445.000
89.04981 438.000
89.06976 436.000
89.08970 404.000
89.10965 411.000
89.12960 402.000
89.14954 458.000
89.16949 438.000
89.18944 409.000
89.20939 430.000
89.22933 410.000
89.24928 445.000
89.26923 422.000
89.28917 432.000
89.30912 432.000
89.32907 437.000
89.34901 452.000
89.36896 435.000
89.38891 406.000
89.40885 462.000
89.42880 464.000
89.44875 476.000
89.46870 419.000
89.48864 438.000
89.50859 433.000
89.52854 452.000
89.54848 415.000
89.56843 435.000
89.58838 448.000
89.60832 419.000
89.62827 436.000
89.64822 473.000
89.66817 447.000
89.68811 468.000
89.70806 455.000
89.72801 464.000
89.74795 436.000
89.76790 486.000
89.78785 518.000
89.80779 474.000
89.82774 502.000
89.84769 536.000
89.86764 527.000
89.88758 490.000
89.90753 499.000
89.92748 527.000
89.94742 495.000
89.96737 500.000
89.98732 463.000
90.00726 490.000
