10.00000 173.000
10.01995 176.000
10.03989 184.000
10.05984 179.000
10.07979 157.000
10.09973 171.000
10.11968 175.000
10.13963 166.000
10.15958 173.000
10.17952 168.000
10.19947 166.000
10.21942 148.000
10.23936 164.000
10.25931 161.000
10.27926 155.000
10.29920 161.000
10.31915 170.000
10.33910 176.000
10.35905 174.000
10.37899 167.000
10.39894 160.000
10.41889 157.000
10.43883 149.000
10.45878 148.000
10.47873 162.000
10.49867 151.000
10.51862 147.000
10.53857 170.000
10.55851 164.000
10.57846 154.000
10.59841 170.000
10.61836 146.000
10.63830 156.000
10.65825 156.000
10.67820 160.000
10.69814 169.000
10.71809 151.000
10.73804 171.000
10.75798 144.000
10.77793 182.000
10.79788 165.000
10.81783 171.000
10.83777 176.000
10.85772 191.000
10.87767 160.000
10.89761 153.000
10.91756 186.000
10.93751 168.000
10.95745 164.000
10.97740 161.000
10.99735 151.000
11.01730 165.000
11.03724 150.000
11.05719 154.000
11.07714 161.000
11.09708 150.000
11.11703 153.000
11.13698 173.000
11.15692 151.000
11.17687 178.000
11.19682 174.000
11.21676 161.000
11.23671 181.000
11.25666 153.000
11.27661 175.000
11.29655 170.000
11.31650 183.000
11.33645 153.000
11.35639 173.000
11.37634 149.000
11.39629 151.000
11.41623 152.000
11.43618 159.000
11.45613 162.000
11.47608 175.000
11.49602 166.000
11.51597 153.000
11.53592 140.000
11.55586 167.000
11.57581 161.000
11.59576 168.000
11.61570 146.000
11.63565 172.000
11.65560 160.000
11.67554 171.000
11.69549 151.000
11.71544 148.000
11.73539 167.000
11.75533 166.000
11.77528 170.000
11.79523 186.000
11.81517 163.000
11.83512 162.000
11.85507 161.000
11.87501 149.000
11.89496 167.000
11.91491 180.000
11.93486 166.000
11.95480 167.000
11.97475 160.000
11.99470 159.000
12.01464 162.000
12.03459 179.000
12.05454 184.000
12.07448 136.000
12.09443 177.000
12.11438 166.000
12.13432 139.000
12.15427 163.000
12.17422 178.000
12.19417 157.000
12.21411 175.000
12.23406 176.000
12.25401 175.000
12.27395 172.000
12.29390 177.000
12.31385 171.000
12.33379 202.000
12.35374 176.000
12.37369 171.000
12.39364 178.000
12.41358 175.000
12.43353 201.000
12.45348 177.000
12.47342 208.000
12.49337 176.000
12.51332 222.000
12.53326 224.000
12.55321 240.000
12.57316 270.000
12.59311 312.000
12.61305 271.000
12.63300 282.000
12.65295 303.000
12.67289 297.000
12.69284 324.000
12.71279 311.000
12.73273 260.000
12.75268 255.000
12.77263 256.000
12.79257 212.000
12.81252 213.000
12.83247 224.000
12.85242 200.000
12.87236 210.000
12.89231 200.000
12.91226 203.000
12.93220 208.000
12.95215 204.000
12.97210 212.000
12.99204 219.000
13.01199 219.000
13.03194 186.000
13.05189 204.000
13.07183 192.000
13.09178 215.000
13.11173 208.000
13.13167 205.000
13.15162 229.000
13.17157 194.000
13.19151 200.000
13.21146 206.000
13.23141 206.000
13.25135 206.000
13.27130 191.000
13.29125 206.000
13.31120 190.000
13.33114 197.000
13.35109 214.000
13.37104 201.000
13.39098 202.000
13.41093 201.000
13.43088 214.000
13.45082 180.000
13.47077 224.000
13.49072 175.000
13.51067 233.000
13.53061 234.000
13.55056 223.000
13.57051 231.000
13.59045 214.000
13.61040 238.000
13.63035 211.000
13.65029 234.000
13.67024 216.000
13.69019 241.000
13.71013 253.000
13.73008 246.000
13.75003 260.000
13.76998 261.000
13.78992 285.000
13.80987 280.000
13.82982 282.000
13.84976 261.000
13.86971 294.000
13.88966 267.000
13.90960 327.000
13.92955 245.000
13.94950 272.000
13.96945 271.000
13.98939 271.000
14.00934 280.000
14.02929 296.000
14.04923 295.000
14.06918 272.000
14.08913 284.000
14.10907 281.000
14.12902 275.000
14.14897 275.000
14.16892 300.000
14.18886 279.000
14.20881 282.000
14.22876 305.000
14.24870 279.000
14.26865 266.000
14.28860 246.000
14.30854 284.000
14.32849 250.000
14.34844 231.000
14.36838 260.000
14.38833 280.000
14.40828 245.000
14.42823 255.000
14.44817 243.000
14.46812 239.000
14.48807 243.000
14.50801 258.000
14.52796 228.000
14.54791 227.000
14.56785 220.000
14.58780 245.000
14.60775 224.000
14.62770 206.000
14.64764 229.000
14.66759 250.000
14.68754 213.000
14.70748 219.000
14.72743 244.000
14.74738 223.000
14.76732 225.000
14.78727 210.000
14.80722 238.000
14.82716 202.000
14.84711 259.000
14.86706 247.000
14.88701 236.000
14.90695 223.000
14.92690 215.000
14.94685 223.000
14.96679 240.000
14.98674 221.000
15.00669 240.000
15.02663 248.000
15.04658 234.000
15.06653 240.000
15.08648 248.000
15.10642 226.000
15.12637 240.000
15.14632 254.000
15.16626 258.000
15.18621 234.000
15.20616 272.000
15.22610 251.000
15.24605 235.000
15.26600 263.000
15.28594 255.000
15.30589 268.000
15.32584 263.000
15.34579 279.000
15.36573 283.000
15.38568 273.000
15.40563 313.000
15.42557 335.000
15.44552 363.000
15.46547 378.000
15.48541 431.000
15.50536 476.000
15.52531 522.000
15.54526 740.000
15.56520 988.000
15.58515 1378.000
15.60510 2102.000
15.62504 3161.000
15.64499 4619.000
15.66494 5517.000
15.68488 4712.000
15.70483 3318.000
15.72478 1866.000
15.74472 905.000
15.76467 532.000
15.78462 377.000
15.80457 330.000
15.82451 278.000
15.84446 291.000
15.86441 249.000
15.88435 234.000
15.90430 250.000
15.92425 230.000
15.94419 238.000
15.96414 234.000
15.98409 204.000
16.00404 193.000
16.02398 174.000
16.04393 200.000
16.06388 222.000
16.08382 183.000
16.10377 168.000
16.12372 173.000
16.14366 187.000
16.16361 187.000
16.18356 184.000
16.20351 178.000
16.22345 192.000
16.24340 176.000
16.26335 174.000
16.28329 153.000
16.30324 159.000
16.32319 148.000
16.34313 179.000
16.36308 189.000
16.38303 166.000
16.40297 167.000
16.42292 185.000
16.44287 166.000
16.46282 172.000
16.48276 178.000
16.50271 173.000
16.52266 175.000
16.54260 182.000
16.56255 167.000
16.58250 174.000
16.60244 141.000
16.62239 149.000
16.64234 187.000
16.66229 152.000
16.68223 145.000
16.70218 150.000
16.72213 186.000
16.74207 171.000
16.76202 177.000
16.78197 133.000
16.80191 150.000
16.82186 163.000
16.84181 161.000
16.86175 165.000
16.88170 167.000
16.90165 180.000
16.92160 148.000
16.94154 166.000
16.96149 154.000
16.98144 169.000
17.00138 167.000
17.02133 168.000
17.04128 165.000
17.06122 169.000
17.08117 159.000
17.10112 161.000
17.12107 177.000
17.14101 174.000
17.16096 177.000
17.18091 152.000
17.20085 155.000
17.22080 164.000
17.24075 139.000
17.26069 157.000
17.28064 153.000
17.30059 151.000
17.32053 164.000
17.34048 166.000
17.36043 153.000
17.38038 163.000
17.40032 167.000
17.42027 173.000
17.44022 146.000
17.46016 165.000
17.48011 144.000
17.50006 196.000
17.52000 143.000
17.53995 145.000
17.55990 161.000
17.57985 160.000
17.59979 151.000
17.61974 153.000
17.63969 157.000
17.65963 175.000
17.67958 158.000
17.69953 159.000
17.71947 147.000
17.73942 163.000
17.75937 169.000
17.77932 170.000
17.79926 175.000
17.81921 162.000
17.83916 158.000
17.85910 160.000
17.87905 147.000
17.89900 161.000
17.91894 191.000
17.93889 171.000
17.95884 157.000
17.97878 163.000
17.99873 154.000
18.01868 153.000
18.03863 182.000
18.05857 161.000
18.07852 171.000
18.09847 169.000
18.11841 167.000
18.13836 178.000
18.15831 184.000
18.17825 181.000
18.19820 185.000
18.21815 159.000
18.23810 198.000
18.25804 187.000
18.27799 168.000
18.29794 172.000
18.31788 216.000
18.33783 209.000
18.35778 254.000
18.37772 344.000
18.39767 384.000
18.41762 486.000
18.43756 563.000
18.45751 576.000
18.47746 601.000
18.49741 597.000
18.51735 631.000
18.53730 621.000
18.55725 510.000
18.57719 401.000
18.59714 294.000
18.61709 215.000
18.63703 196.000
18.65698 178.000
18.67693 173.000
18.69688 179.000
18.71682 173.000
18.73677 162.000
18.75672 156.000
18.77666 157.000
18.79661 175.000
18.81656 158.000
18.83650 173.000
18.85645 162.000
18.87640 174.000
18.89634 177.000
18.91629 178.000
18.93624 153.000
18.95619 163.000
18.97613 174.000
18.99608 166.000
19.01603 156.000
19.03597 149.000
19.05592 153.000
19.07587 182.000
19.09581 163.000
19.11576 148.000
19.13571 146.000
19.15566 162.000
19.17560 157.000
19.19555 153.000
19.21550 146.000
19.23544 164.000
19.25539 149.000
19.27534 183.000
19.29528 175.000
19.31523 150.000
19.33518 181.000
19.35513 160.000
19.37507 166.000
19.39502 152.000
19.41497 189.000
19.43491 154.000
19.45486 173.000
19.47481 164.000
19.49475 160.000
19.51470 155.000
19.53465 161.000
19.55459 141.000
19.57454 165.000
19.59449 173.000
19.61444 150.000
19.63438 171.000
19.65433 149.000
19.67428 153.000
19.69422 154.000
19.71417 158.000
19.73412 176.000
19.75406 153.000
19.77401 159.000
19.79396 190.000
19.81391 162.000
19.83385 172.000
19.85380 170.000
19.87375 143.000
19.89369 144.000
19.91364 173.000
19.93359 143.000
19.95353 169.000
19.97348 179.000
19.99343 163.000
20.01337 166.000
20.03332 167.000
20.05327 170.000
20.07322 171.000
20.09316 154.000
20.11311 164.000
20.13306 167.000
20.15300 173.000
20.17295 163.000
20.19290 172.000
20.21284 146.000
20.23279 164.000
20.25274 164.000
20.27269 152.000
20.29263 182.000
20.31258 185.000
20.33253 148.000
20.35247 174.000
20.37242 155.000
20.39237 175.000
20.41231 163.000
20.43226 144.000
20.45221 170.000
20.47215 167.000
20.49210 170.000
20.51205 168.000
20.53200 193.000
20.55194 131.000
20.57189 182.000
20.59184 154.000
20.61178 183.000
20.63173 167.000
20.65168 177.000
20.67162 159.000
20.69157 143.000
20.71152 173.000
20.73147 176.000
20.75141 163.000
20.77136 153.000
20.79131 159.000
20.81125 140.000
20.83120 146.000
20.85115 154.000
20.87109 165.000
20.89104 172.000
20.91099 168.000
20.93094 171.000
20.95088 180.000
20.97083 183.000
20.99078 160.000
21.01072 174.000
21.03067 150.000
21.05062 181.000
21.07056 153.000
21.09051 144.000
21.11046 187.000
21.13040 197.000
21.15035 167.000
21.17030 172.000
21.19025 167.000
21.21019 187.000
21.23014 155.000
21.25009 169.000
21.27003 146.000
21.28998 177.000
21.30993 176.000
21.32987 171.000
21.34982 168.000
21.36977 163.000
21.38972 167.000
21.40966 165.000
21.42961 162.000
21.44956 145.000
21.46950 170.000
21.48945 181.000
21.50940 161.000
21.52934 169.000
21.54929 167.000
21.56924 177.000
21.58918 175.000
21.60913 171.000
21.62908 148.000
21.64903 161.000
21.66897 155.000
21.68892 167.000
21.70887 182.000
21.72881 185.000
21.74876 168.000
21.76871 158.000
21.78865 158.000
21.80860 140.000
21.82855 130.000
21.84850 161.000
21.86844 151.000
21.88839 158.000
21.90834 156.000
21.92828 156.000
21.94823 181.000
21.96818 188.000
21.98812 174.000
22.00807 161.000
22.02802 152.000
22.04796 191.000
22.06791 158.000
22.08786 144.000
22.10781 156.000
22.12775 144.000
22.14770 184.000
22.16765 165.000
22.18759 164.000
22.20754 157.000
22.22749 161.000
22.24743 162.000
22.26738 174.000
22.28733 180.000
22.30728 190.000
22.32722 184.000
22.34717 176.000
22.36712 180.000
22.38706 167.000
22.40701 190.000
22.42696 168.000
22.44690 163.000
22.46685 174.000
22.48680 167.000
22.50675 158.000
22.52669 172.000
22.54664 147.000
22.56659 156.000
22.58653 151.000
22.60648 166.000
22.62643 168.000
22.64637 168.000
22.66632 146.000
22.68627 173.000
22.70621 182.000
22.72616 154.000
22.74611 192.000
22.76606 157.000
22.78600 163.000
22.80595 173.000
22.82590 170.000
22.84584 161.000
22.86579 159.000
22.88574 171.000
22.90568 173.000
22.92563 158.000
22.94558 149.000
22.96553 148.000
22.98547 159.000
23.00542 165.000
23.02537 179.000
23.04531 188.000
23.06526 173.000
23.08521 159.000
23.10515 141.000
23.12510 164.000
23.14505 173.000
23.16499 161.000
23.18494 171.000
23.20489 165.000
23.22484 157.000
23.24478 159.000
23.26473 165.000
23.28468 160.000
23.30462 141.000
23.32457 190.000
23.34452 169.000
23.36446 149.000
23.38441 160.000
23.40436 166.000
23.42431 175.000
23.44425 180.000
23.46420 160.000
23.48415 192.000
23.50409 173.000
23.52404 169.000
23.54399 165.000
23.56393 186.000
23.58388 163.000
23.60383 148.000
23.62377 169.000
23.64372 166.000
23.66367 179.000
23.68362 146.000
23.70356 166.000
23.72351 139.000
23.74346 155.000
23.76340 181.000
23.78335 131.000
23.80330 180.000
23.82324 163.000
23.84319 175.000
23.86314 151.000
23.88309 186.000
23.90303 174.000
23.92298 148.000
23.94293 176.000
23.96287 193.000
23.98282 177.000
24.00277 117.000
24.02271 172.000
24.04266 156.000
24.06261 173.000
24.08256 180.000
24.10250 162.000
24.12245 189.000
24.14240 180.000
24.16234 174.000
24.18229 175.000
24.20224 193.000
24.22218 160.000
24.24213 152.000
24.26208 162.000
24.28202 150.000
24.30197 170.000
24.32192 170.000
24.34187 186.000
24.36181 184.000
24.38176 157.000
24.40171 187.000
24.42165 165.000
24.44160 189.000
24.46155 167.000
24.48149 161.000
24.50144 171.000
24.52139 173.000
24.54134 189.000
24.56128 177.000
24.58123 169.000
24.60118 176.000
24.62112 166.000
24.64107 171.000
24.66102 163.000
24.68096 208.000
24.70091 154.000
24.72086 169.000
24.74080 176.000
24.76075 168.000
24.78070 151.000
24.80065 162.000
24.82059 165.000
24.84054 176.000
24.86049 180.000
24.88043 181.000
24.90038 189.000
24.92033 195.000
24.94027 144.000
24.96022 198.000
24.98017 154.000
25.00012 191.000
25.02006 179.000
25.04001 188.000
25.05996 172.000
25.07990 197.000
25.09985 169.000
25.11980 179.000
25.13974 189.000
25.15969 198.000
25.17964 183.000
25.19958 206.000
25.21953 174.000
25.23948 186.000
25.25943 193.000
25.27937 193.000
25.29932 180.000
25.31927 155.000
25.33921 178.000
25.35916 176.000
25.37911 186.000
25.39905 221.000
25.41900 209.000
25.43895 197.000
25.45890 199.000
25.47884 182.000
25.49879 191.000
25.51874 206.000
25.53868 217.000
25.55863 176.000
25.57858 199.000
25.59852 183.000
25.61847 159.000
25.63842 198.000
25.65837 168.000
25.67831 201.000
25.69826 186.000
25.71821 193.000
25.73815 173.000
25.75810 168.000
25.77805 181.000
25.79799 201.000
25.81794 177.000
25.83789 197.000
25.85783 186.000
25.87778 171.000
25.89773 180.000
25.91768 180.000
25.93762 185.000
25.95757 184.000
25.97752 162.000
25.99746 194.000
26.01741 178.000
26.03736 183.000
26.05730 197.000
26.07725 190.000
26.09720 157.000
26.11715 195.000
26.13709 195.000
26.15704 162.000
26.17699 204.000
26.19693 188.000
26.21688 160.000
26.23683 200.000
26.25677 203.000
26.27672 195.000
26.29667 184.000
26.31661 190.000
26.33656 182.000
26.35651 192.000
26.37646 199.000
26.39640 183.000
26.41635 226.000
26.43630 191.000
26.45624 168.000
26.47619 178.000
26.49614 201.000
26.51608 163.000
26.53603 176.000
26.55598 186.000
26.57593 187.000
26.59587 177.000
26.61582 186.000
26.63577 195.000
26.65571 168.000
26.67566 178.000
26.69561 173.000
26.71555 182.000
26.73550 176.000
26.75545 199.000
26.77539 169.000
26.79534 192.000
26.81529 179.000
26.83524 185.000
26.85518 158.000
26.87513 182.000
26.89508 170.000
26.91502 156.000
26.93497 174.000
26.95492 194.000
26.97486 158.000
26.99481 180.000
27.01476 187.000
27.03471 187.000
27.05465 164.000
27.07460 199.000
27.09455 166.000
27.11449 175.000
27.13444 192.000
27.15439 189.000
27.17433 188.000
27.19428 167.000
27.21423 153.000
27.23417 194.000
27.25412 193.000
27.27407 176.000
27.29402 182.000
27.31396 199.000
27.33391 161.000
27.35386 188.000
27.37380 186.000
27.39375 194.000
27.41370 186.000
27.43364 181.000
27.45359 182.000
27.47354 195.000
27.49349 214.000
27.51343 184.000
27.53338 200.000
27.55333 207.000
27.57327 215.000
27.59322 194.000
27.61317 207.000
27.63311 198.000
27.65306 180.000
27.67301 199.000
27.69296 185.000
27.71290 196.000
27.73285 184.000
27.75280 180.000
27.77274 198.000
27.79269 189.000
27.81264 198.000
27.83258 214.000
27.85253 191.000
27.87248 170.000
27.89242 196.000
27.91237 183.000
27.93232 207.000
27.95227 183.000
27.97221 218.000
27.99216 224.000
28.01211 172.000
28.03205 200.000
28.05200 189.000
28.07195 194.000
28.09189 207.000
28.11184 168.000
28.13179 203.000
28.15174 168.000
28.17168 206.000
28.19163 200.000
28.21158 197.000
28.23152 177.000
28.25147 181.000
28.27142 202.000
28.29136 185.000
28.31131 201.000
28.33126 216.000
28.35120 196.000
28.37115 190.000
28.39110 198.000
28.41105 175.000
28.43099 187.000
28.45094 187.000
28.47089 170.000
28.49083 189.000
28.51078 184.000
28.53073 217.000
28.55067 165.000
28.57062 202.000
28.59057 211.000
28.61052 207.000
28.63046 195.000
28.65041 200.000
28.67036 183.000
28.69030 200.000
28.71025 202.000
28.73020 193.000
28.75014 207.000
28.77009 184.000
28.79004 202.000
28.80998 196.000
28.82993 190.000
28.84988 188.000
28.86983 180.000
28.88977 174.000
28.90972 206.000
28.92967 210.000
28.94961 173.000
28.96956 190.000
28.98951 196.000
29.00945 197.000
29.02940 179.000
29.04935 202.000
29.06930 197.000
29.08924 200.000
29.10919 175.000
29.12914 222.000
29.14908 201.000
29.16903 185.000
29.18898 199.000
29.20892 169.000
29.22887 185.000
29.24882 184.000
29.26877 211.000
29.28871 210.000
29.30866 213.000
29.32861 189.000
29.34855 185.000
29.36850 222.000
29.38845 190.000
29.40839 200.000
29.42834 184.000
29.44829 178.000
29.46823 185.000
29.48818 203.000
29.50813 188.000
29.52808 162.000
29.54802 189.000
29.56797 200.000
29.58792 187.000
29.60786 206.000
29.62781 169.000
29.64776 186.000
29.66770 187.000
29.68765 203.000
29.70760 198.000
29.72755 220.000
29.74749 183.000
29.76744 215.000
29.78739 188.000
29.80733 190.000
29.82728 203.000
29.84723 202.000
29.86717 173.000
29.88712 201.000
29.90707 203.000
29.92701 203.000
29.94696 198.000
29.96691 219.000
29.98686 201.000
30.00680 175.000
30.02675 207.000
30.04670 219.000
30.06664 209.000
30.08659 206.000
30.10654 192.000
30.12648 228.000
30.14643 229.000
30.16638 211.000
30.18633 239.000
30.20627 297.000
30.22622 331.000
30.24617 383.000
30.26611 468.000
30.28606 584.000
30.30601 728.000
30.32595 687.000
30.34590 731.000
30.36585 747.000
30.38579 801.000
30.40574 820.000
30.42569 846.000
30.44564 1000.000
30.46558 1069.000
30.48553 1226.000
30.50548 1278.000
30.52542 952.000
30.54537 801.000
30.56532 749.000
30.58526 633.000
30.60521 489.000
30.62516 337.000
30.64511 262.000
30.66505 249.000
30.68500 270.000
30.70495 221.000
30.72489 240.000
30.74484 209.000
30.76479 206.000
30.78473 216.000
30.80468 210.000
30.82463 174.000
30.84458 185.000
30.86452 226.000
30.88447 212.000
30.90442 194.000
30.92436 196.000
30.94431 216.000
30.96426 188.000
30.98420 230.000
31.00415 205.000
31.02410 190.000
31.04404 215.000
31.06399 207.000
31.08394 192.000
31.10389 200.000
31.12383 190.000
31.14378 203.000
31.16373 205.000
31.18367 200.000
31.20362 204.000
31.22357 210.000
31.24351 215.000
31.26346 202.000
31.28341 194.000
31.30336 196.000
31.32330 209.000
31.34325 212.000
31.36320 208.000
31.38314 202.000
31.40309 211.000
31.42304 209.000
31.44298 228.000
31.46293 240.000
31.48288 220.000
31.50282 204.000
31.52277 265.000
31.54272 269.000
31.56267 264.000
31.58261 381.000
31.60256 436.000
31.62251 478.000
31.64245 579.000
31.66240 523.000
31.68235 455.000
31.70229 420.000
31.72224 409.000
31.74219 331.000
31.76214 327.000
31.78208 239.000
31.80203 227.000
31.82198 226.000
31.84192 213.000
31.86187 228.000
31.88182 228.000
31.90176 203.000
31.92171 224.000
31.94166 198.000
31.96160 201.000
31.98155 198.000
32.00150 189.000
32.02145 171.000
32.04139 181.000
32.06134 176.000
32.08129 181.000
32.10123 193.000
32.12118 192.000
32.14113 177.000
32.16107 194.000
32.18102 203.000
32.20097 183.000
32.22092 212.000
32.24086 212.000
32.26081 199.000
32.28076 198.000
32.30070 214.000
32.32065 228.000
32.34060 157.000
32.36054 162.000
32.38049 195.000
32.40044 188.000
32.42039 195.000
32.44033 215.000
32.46028 205.000
32.48023 194.000
32.50017 201.000
32.52012 229.000
32.54007 206.000
32.56001 209.000
32.57996 209.000
32.59991 192.000
32.61985 191.000
32.63980 197.000
32.65975 186.000
32.67970 167.000
32.69964 176.000
32.71959 198.000
32.73954 184.000
32.75948 184.000
32.77943 202.000
32.79938 196.000
32.81932 199.000
32.83927 180.000
32.85922 198.000
32.87917 198.000
32.89911 201.000
32.91906 202.000
32.93901 189.000
32.95895 176.000
32.97890 208.000
32.99885 189.000
33.01879 180.000
33.03874 186.000
33.05869 189.000
33.07863 190.000
33.09858 185.000
33.11853 184.000
33.13848 201.000
33.15842 184.000
33.17837 202.000
33.19832 213.000
33.21826 188.000
33.23821 201.000
33.25816 207.000
33.27810 187.000
33.29805 180.000
33.31800 200.000
33.33795 186.000
33.35789 189.000
33.37784 199.000
33.39779 195.000
33.41773 198.000
33.43768 191.000
33.45763 212.000
33.47757 175.000
33.49752 186.000
33.51747 197.000
33.53741 165.000
33.55736 189.000
33.57731 202.000
33.59726 194.000
33.61720 192.000
33.63715 193.000
33.65710 193.000
33.67704 184.000
33.69699 165.000
33.71694 218.000
33.73688 180.000
33.75683 166.000
33.77678 164.000
33.79673 208.000
33.81667 180.000
33.83662 194.000
33.85657 198.000
33.87651 174.000
33.89646 193.000
33.91641 194.000
33.93635 196.000
33.95630 192.000
33.97625 186.000
33.99620 206.000
34.01614 158.000
34.03609 162.000
34.05604 176.000
34.07598 194.000
34.09593 157.000
34.11588 190.000
34.13582 214.000
34.15577 192.000
34.17572 203.000
34.19566 176.000
34.21561 209.000
34.23556 173.000
34.25551 188.000
34.27545 191.000
34.29540 182.000
34.31535 198.000
34.33529 182.000
34.35524 194.000
34.37519 182.000
34.39513 213.000
34.41508 181.000
34.43503 207.000
34.45498 182.000
34.47492 194.000
34.49487 180.000
34.51482 191.000
34.53476 198.000
34.55471 218.000
34.57466 186.000
34.59460 185.000
34.61455 201.000
34.63450 207.000
34.65444 201.000
34.67439 210.000
34.69434 211.000
34.71429 201.000
34.73423 188.000
34.75418 189.000
34.77413 214.000
34.79407 200.000
34.81402 200.000
34.83397 216.000
34.85391 199.000
34.87386 184.000
34.89381 189.000
34.91376 193.000
34.93370 198.000
34.95365 198.000
34.97360 204.000
34.99354 205.000
35.01349 221.000
35.03344 195.000
35.05338 218.000
35.07333 215.000
35.09328 237.000
35.11322 215.000
35.13317 194.000
35.15312 202.000
35.17307 227.000
35.19301 234.000
35.21296 237.000
35.23291 254.000
35.25285 203.000
35.27280 230.000
35.29275 213.000
35.31269 267.000
35.33264 229.000
35.35259 283.000
35.37254 258.000
35.39248 298.000
35.41243 314.000
35.43238 382.000
35.45232 382.000
35.47227 381.000
35.49222 429.000
35.51216 430.000
35.53211 447.000
35.55206 546.000
35.57201 525.000
35.59195 594.000
35.61190 689.000
35.63185 831.000
35.65179 1011.000
35.67174 1172.000
35.69169 1402.000
35.71163 1613.000
35.73158 1771.000
35.75153 1793.000
35.77147 1880.000
35.79142 1915.000
35.81137 1979.000
35.83132 1980.000
35.85126 2046.000
35.87121 2223.000
35.89116 2398.000
35.91110 3038.000
35.93105 3047.000
35.95100 2616.000
35.97094 2086.000
35.99089 1957.000
36.01084 2082.000
36.03079 1997.000
36.05073 1463.000
36.07068 951.000
36.09063 762.000
36.11057 691.000
36.13052 628.000
36.15047 499.000
36.17041 375.000
36.19036 298.000
36.21031 278.000
36.23025 286.000
36.25020 266.000
36.27015 257.000
36.29010 247.000
36.31004 250.000
36.32999 241.000
36.34994 255.000
36.36988 234.000
36.38983 249.000
36.40978 250.000
36.42972 246.000
36.44967 255.000
36.46962 247.000
36.48957 249.000
36.50951 226.000
36.52946 225.000
36.54941 239.000
36.56935 222.000
36.58930 188.000
36.60925 251.000
36.62919 228.000
36.64914 250.000
36.66909 232.000
36.68903 243.000
36.70898 194.000
36.72893 241.000
36.74888 215.000
36.76882 233.000
36.78877 241.000
36.80872 248.000
36.82866 227.000
36.84861 247.000
36.86856 248.000
36.88850 301.000
36.90845 268.000
36.92840 283.000
36.94835 297.000
36.96829 254.000
36.98824 248.000
37.00819 256.000
37.02813 236.000
37.04808 253.000
37.06803 251.000
37.08797 244.000
37.10792 239.000
37.12787 217.000
37.14781 226.000
37.16776 252.000
37.18771 212.000
37.20766 230.000
37.22760 236.000
37.24755 262.000
37.26750 248.000
37.28744 257.000
37.30739 293.000
37.32734 294.000
37.34728 301.000
37.36723 313.000
37.38718 323.000
37.40713 329.000
37.42707 366.000
37.44702 335.000
37.46697 399.000
37.48691 367.000
37.50686 334.000
37.52681 388.000
37.54675 398.000
37.56670 454.000
37.58665 455.000
37.60660 386.000
37.62654 376.000
37.64649 343.000
37.66644 349.000
37.68638 353.000
37.70633 292.000
37.72628 281.000
37.74622 268.000
37.76617 261.000
37.78612 258.000
37.80606 212.000
37.82601 225.000
37.84596 206.000
37.86591 222.000
37.88585 224.000
37.90580 209.000
37.92575 194.000
37.94569 213.000
37.96564 190.000
37.98559 250.000
38.00553 224.000
38.02548 195.000
38.04543 188.000
38.06538 208.000
38.08532 200.000
38.10527 241.000
38.12522 212.000
38.14516 223.000
38.16511 206.000
38.18506 213.000
38.20500 183.000
38.22495 215.000
38.24490 209.000
38.26484 219.000
38.28479 227.000
38.30474 206.000
38.32469 231.000
38.34463 237.000
38.36458 212.000
38.38453 234.000
38.40447 220.000
38.42442 239.000
38.44437 247.000
38.46431 229.000
38.48426 238.000
38.50421 224.000
38.52416 242.000
38.54410 229.000
38.56405 287.000
38.58400 296.000
38.60394 321.000
38.62389 340.000
38.64384 354.000
38.66378 389.000
38.68373 360.000
38.70368 379.000
38.72362 368.000
38.74357 356.000
38.76352 345.000
38.78347 347.000
38.80341 354.000
38.82336 318.000
38.84331 289.000
38.86325 324.000
38.88320 315.000
38.90315 300.000
38.92309 274.000
38.94304 281.000
38.96299 324.000
38.98294 284.000
39.00288 284.000
39.02283 275.000
39.04278 258.000
39.06272 251.000
39.08267 261.000
39.10262 265.000
39.12256 258.000
39.14251 230.000
39.16246 212.000
39.18241 252.000
39.20235 263.000
39.22230 269.000
39.24225 242.000
39.26219 239.000
39.28214 270.000
39.30209 278.000
39.32203 264.000
39.34198 303.000
39.36193 303.000
39.38187 353.000
39.40182 378.000
39.42177 452.000
39.44172 533.000
39.46166 630.000
39.48161 842.000
39.50156 922.000
39.52150 930.000
39.54145 756.000
39.56140 634.000
39.58134 631.000
39.60129 628.000
39.62124 549.000
39.64119 522.000
39.66113 362.000
39.68108 301.000
39.70103 274.000
39.72097 256.000
39.74092 221.000
39.76087 240.000
39.78081 239.000
39.80076 233.000
39.82071 195.000
39.84065 214.000
39.86060 208.000
39.88055 208.000
39.90050 190.000
39.92044 187.000
39.94039 204.000
39.96034 197.000
39.98028 192.000
40.00023 191.000
40.02018 194.000
40.04012 200.000
40.06007 206.000
40.08002 212.000
40.09997 190.000
40.11991 187.000
40.13986 208.000
40.15981 205.000
40.17975 181.000
40.19970 188.000
40.21965 201.000
40.23959 216.000
40.25954 199.000
40.27949 178.000
40.29943 194.000
40.31938 195.000
40.33933 175.000
40.35928 171.000
40.37922 203.000
40.39917 191.000
40.41912 205.000
40.43906 198.000
40.45901 188.000
40.47896 202.000
40.49890 206.000
40.51885 202.000
40.53880 178.000
40.55875 177.000
40.57869 200.000
40.59864 199.000
40.61859 182.000
40.63853 178.000
40.65848 218.000
40.67843 194.000
40.69837 202.000
40.71832 174.000
40.73827 191.000
40.75822 205.000
40.77816 182.000
40.79811 229.000
40.81806 199.000
40.83800 191.000
40.85795 197.000
40.87790 186.000
40.89784 183.000
40.91779 174.000
40.93774 197.000
40.95768 196.000
40.97763 215.000
40.99758 187.000
41.01753 171.000
41.03747 189.000
41.05742 171.000
41.07737 229.000
41.09731 199.000
41.11726 221.000
41.13721 182.000
41.15715 194.000
41.17710 193.000
41.19705 187.000
41.21700 200.000
41.23694 175.000
41.25689 185.000
41.27684 203.000
41.29678 205.000
41.31673 183.000
41.33668 188.000
41.35662 196.000
41.37657 179.000
41.39652 179.000
41.41646 154.000
41.43641 194.000
41.45636 181.000
41.47631 190.000
41.49625 178.000
41.51620 183.000
41.53615 179.000
41.55609 194.000
41.57604 192.000
41.59599 183.000
41.61593 202.000
41.63588 204.000
41.65583 186.000
41.67578 194.000
41.69572 194.000
41.71567 187.000
41.73562 181.000
41.75556 192.000
41.77551 186.000
41.79546 186.000
41.81540 194.000
41.83535 195.000
41.85530 206.000
41.87524 195.000
41.89519 199.000
41.91514 187.000
41.93509 202.000
41.95503 194.000
41.97498 195.000
41.99493 211.000
42.01487 192.000
42.03482 212.000
42.05477 196.000
42.07471 197.000
42.09466 188.000
42.11461 182.000
42.13456 192.000
42.15450 182.000
42.17445 198.000
42.19440 213.000
42.21434 193.000
42.23429 194.000
42.25424 203.000
42.27418 186.000
42.29413 207.000
42.31408 228.000
42.33403 191.000
42.35397 178.000
42.37392 212.000
42.39387 199.000
42.41381 203.000
42.43376 182.000
42.45371 216.000
42.47365 196.000
42.49360 202.000
42.51355 195.000
42.53349 201.000
42.55344 182.000
42.57339 198.000
42.59334 195.000
42.61328 181.000
42.63323 201.000
42.65318 203.000
42.67312 211.000
42.69307 205.000
42.71302 198.000
42.73296 216.000
42.75291 176.000
42.77286 200.000
42.79281 189.000
42.81275 207.000
42.83270 215.000
42.85265 240.000
42.87259 221.000
42.89254 256.000
42.91249 209.000
42.93243 214.000
42.95238 206.000
42.97233 232.000
42.99227 196.000
43.01222 198.000
43.03217 246.000
43.05212 222.000
43.07206 224.000
43.09201 220.000
43.11196 248.000
43.13190 209.000
43.15185 242.000
43.17180 259.000
43.19174 241.000
43.21169 241.000
43.23164 249.000
43.25159 289.000
43.27153 249.000
43.29148 278.000
43.31143 299.000
43.33137 329.000
43.35132 329.000
43.37127 362.000
43.39121 487.000
43.41116 477.000
43.43111 518.000
43.45105 554.000
43.47100 639.000
43.49095 660.000
43.51090 649.000
43.53084 733.000
43.55079 689.000
43.57074 630.000
43.59068 670.000
43.61063 669.000
43.63058 645.000
43.65052 656.000
43.67047 672.000
43.69042 636.000
43.71037 574.000
43.73031 474.000
43.75026 446.000
43.77021 422.000
43.79015 417.000
43.81010 360.000
43.83005 309.000
43.84999 287.000
43.86994 236.000
43.88989 252.000
43.90984 207.000
43.92978 214.000
43.94973 213.000
43.96968 219.000
43.98962 224.000
44.00957 213.000
44.02952 190.000
44.04946 195.000
44.06941 188.000
44.08936 186.000
44.10930 174.000
44.12925 182.000
44.14920 206.000
44.16915 202.000
44.18909 170.000
44.20904 176.000
44.22899 189.000
44.24893 205.000
44.26888 220.000
44.28883 186.000
44.30877 201.000
44.32872 179.000
44.34867 181.000
44.36862 195.000
44.38856 208.000
44.40851 219.000
44.42846 182.000
44.44840 191.000
44.46835 182.000
44.48830 208.000
44.50824 217.000
44.52819 178.000
44.54814 195.000
44.56808 219.000
44.58803 215.000
44.60798 212.000
44.62793 214.000
44.64787 194.000
44.66782 218.000
44.68777 178.000
44.70771 183.000
44.72766 191.000
44.74761 198.000
44.76755 207.000
44.78750 204.000
44.80745 229.000
44.82740 194.000
44.84734 214.000
44.86729 224.000
44.88724 212.000
44.90718 210.000
44.92713 208.000
44.94708 204.000
44.96702 215.000
44.98697 238.000
45.00692 225.000
45.02686 239.000
45.04681 177.000
45.06676 233.000
45.08671 218.000
45.10665 208.000
45.12660 215.000
45.14655 209.000
45.16649 209.000
45.18644 251.000
45.20639 212.000
45.22633 254.000
45.24628 225.000
45.26623 221.000
45.28618 198.000
45.30612 234.000
45.32607 224.000
45.34602 230.000
45.36596 183.000
45.38591 218.000
45.40586 210.000
45.42580 237.000
45.44575 212.000
45.46570 185.000
45.48565 222.000
45.50559 199.000
45.52554 227.000
45.54549 201.000
45.56543 223.000
45.58538 179.000
45.60533 183.000
45.62527 192.000
45.64522 195.000
45.66517 164.000
45.68511 186.000
45.70506 156.000
45.72501 194.000
45.74496 193.000
45.76490 188.000
45.78485 220.000
45.80480 204.000
45.82474 179.000
45.84469 177.000
45.86464 196.000
45.88458 211.000
45.90453 195.000
45.92448 177.000
45.94443 190.000
45.96437 193.000
45.98432 193.000
46.00427 176.000
46.02421 197.000
46.04416 170.000
46.06411 203.000
46.08405 194.000
46.10400 178.000
46.12395 181.000
46.14389 172.000
46.16384 188.000
46.18379 168.000
46.20374 209.000
46.22368 203.000
46.24363 182.000
46.26358 200.000
46.28352 194.000
46.30347 179.000
46.32342 175.000
46.34336 201.000
46.36331 178.000
46.38326 216.000
46.40321 162.000
46.42315 216.000
46.44310 200.000
46.46305 202.000
46.48299 177.000
46.50294 178.000
46.52289 193.000
46.54283 190.000
46.56278 157.000
46.58273 184.000
46.60267 185.000
46.62262 209.000
46.64257 201.000
46.66252 192.000
46.68246 183.000
46.70241 179.000
46.72236 177.000
46.74230 184.000
46.76225 213.000
46.78220 181.000
46.80214 176.000
46.82209 183.000
46.84204 162.000
46.86199 183.000
46.88193 174.000
46.90188 176.000
46.92183 186.000
46.94177 200.000
46.96172 182.000
46.98167 204.000
47.00161 172.000
47.02156 160.000
47.04151 181.000
47.06146 180.000
47.08140 181.000
47.10135 175.000
47.12130 155.000
47.14124 181.000
47.16119 196.000
47.18114 191.000
47.20108 170.000
47.22103 206.000
47.24098 189.000
47.26092 185.000
47.28087 185.000
47.30082 176.000
47.32077 178.000
47.34071 183.000
47.36066 169.000
47.38061 185.000
47.40055 190.000
47.42050 190.000
47.44045 177.000
47.46039 167.000
47.48034 198.000
47.50029 195.000
47.52024 170.000
47.54018 183.000
47.56013 198.000
47.58008 186.000
47.60002 191.000
47.61997 180.000
47.63992 186.000
47.65986 196.000
47.67981 180.000
47.69976 209.000
47.71970 211.000
47.73965 197.000
47.75960 202.000
47.77955 180.000
47.79949 186.000
47.81944 178.000
47.83939 206.000
47.85933 178.000
47.87928 188.000
47.89923 179.000
47.91917 198.000
47.93912 192.000
47.95907 185.000
47.97902 195.000
47.99896 187.000
48.01891 190.000
48.03886 176.000
48.05880 207.000
48.07875 186.000
48.09870 179.000
48.11864 191.000
48.13859 193.000
48.15854 214.000
48.17848 195.000
48.19843 208.000
48.21838 211.000
48.23833 208.000
48.25827 226.000
48.27822 234.000
48.29817 240.000
48.31811 216.000
48.33806 225.000
48.35801 207.000
48.37795 209.000
48.39790 223.000
48.41785 231.000
48.43780 249.000
48.45774 237.000
48.47769 275.000
48.49764 240.000
48.51758 261.000
48.53753 296.000
48.55748 301.000
48.57742 333.000
48.59737 392.000
48.61732 444.000
48.63726 537.000
48.65721 670.000
48.67716 735.000
48.69711 812.000
48.71705 755.000
48.73700 712.000
48.75695 578.000
48.77689 554.000
48.79684 573.000
48.81679 570.000
48.83673 548.000
48.85668 516.000
48.87663 406.000
48.89658 356.000
48.91652 332.000
48.93647 294.000
48.95642 278.000
48.97636 269.000
48.99631 238.000
49.01626 215.000
49.03620 224.000
49.05615 236.000
49.07610 249.000
49.09605 216.000
49.11599 211.000
49.13594 206.000
49.15589 248.000
49.17583 230.000
49.19578 195.000
49.21573 186.000
49.23567 181.000
49.25562 177.000
49.27557 191.000
49.29551 202.000
49.31546 188.000
49.33541 201.000
49.35536 185.000
49.37530 219.000
49.39525 204.000
49.41520 192.000
49.43514 184.000
49.45509 174.000
49.47504 193.000
49.49498 186.000
49.51493 187.000
49.53488 176.000
49.55483 181.000
49.57477 191.000
49.59472 197.000
49.61467 174.000
49.63461 196.000
49.65456 196.000
49.67451 188.000
49.69445 172.000
49.71440 178.000
49.73435 181.000
49.75429 193.000
49.77424 178.000
49.79419 186.000
49.81414 164.000
49.83408 169.000
49.85403 164.000
49.87398 200.000
49.89392 160.000
49.91387 195.000
49.93382 148.000
49.95376 131.000
49.97371 187.000
49.99366 192.000
50.01361 209.000
50.03355 174.000
50.05350 190.000
50.07345 194.000
50.09339 200.000
50.11334 182.000
50.13329 180.000
50.15323 179.000
50.17318 191.000
50.19313 198.000
50.21307 169.000
50.23302 166.000
50.25297 202.000
50.27292 194.000
50.29286 190.000
50.31281 189.000
50.33276 183.000
50.35270 202.000
50.37265 202.000
50.39260 161.000
50.41254 179.000
50.43249 186.000
50.45244 172.000
50.47239 180.000
50.49233 185.000
50.51228 189.000
50.53223 185.000
50.55217 196.000
50.57212 169.000
50.59207 171.000
50.61201 205.000
50.63196 173.000
50.65191 175.000
50.67186 183.000
50.69180 212.000
50.71175 200.000
50.73170 175.000
50.75164 177.000
50.77159 185.000
50.79154 181.000
50.81148 188.000
50.83143 158.000
50.85138 168.000
50.87132 174.000
50.89127 176.000
50.91122 200.000
50.93117 156.000
50.95111 182.000
50.97106 166.000
50.99101 180.000
51.01095 191.000
51.03090 174.000
51.05085 173.000
51.07079 181.000
51.09074 188.000
51.11069 176.000
51.13064 177.000
51.15058 177.000
51.17053 199.000
51.19048 186.000
51.21042 189.000
51.23037 211.000
51.25032 209.000
51.27026 188.000
51.29021 186.000
51.31016 160.000
51.33010 175.000
51.35005 191.000
51.37000 197.000
51.38995 199.000
51.40989 177.000
51.42984 174.000
51.44979 203.000
51.46973 199.000
51.48968 160.000
51.50963 169.000
51.52957 179.000
51.54952 187.000
51.56947 181.000
51.58942 183.000
51.60936 195.000
51.62931 197.000
51.64926 155.000
51.66920 180.000
51.68915 156.000
51.70910 181.000
51.72904 187.000
51.74899 175.000
51.76894 175.000
51.78888 180.000
51.80883 190.000
51.82878 170.000
51.84873 177.000
51.86867 188.000
51.88862 167.000
51.90857 158.000
51.92851 160.000
51.94846 190.000
51.96841 199.000
51.98835 171.000
52.00830 168.000
52.02825 177.000
52.04820 174.000
52.06814 172.000
52.08809 191.000
52.10804 181.000
52.12798 175.000
52.14793 172.000
52.16788 205.000
52.18782 160.000
52.20777 166.000
52.22772 191.000
52.24767 186.000
52.26761 168.000
52.28756 171.000
52.30751 187.000
52.32745 204.000
52.34740 176.000
52.36735 171.000
52.38729 183.000
52.40724 215.000
52.42719 177.000
52.44713 180.000
52.46708 189.000
52.48703 174.000
52.50698 198.000
52.52692 202.000
52.54687 175.000
52.56682 210.000
52.58676 180.000
52.60671 194.000
52.62666 192.000
52.64660 198.000
52.66655 173.000
52.68650 200.000
52.70645 162.000
52.72639 204.000
52.74634 172.000
52.76629 195.000
52.78623 165.000
52.80618 186.000
52.82613 197.000
52.84607 194.000
52.86602 180.000
52.88597 175.000
52.90591 197.000
52.92586 207.000
52.94581 178.000
52.96576 190.000
52.98570 176.000
53.00565 158.000
53.02560 197.000
53.04554 188.000
53.06549 179.000
53.08544 191.000
53.10538 169.000
53.12533 173.000
53.14528 229.000
53.16523 191.000
53.18517 211.000
53.20512 185.000
53.22507 178.000
53.24501 198.000
53.26496 203.000
53.28491 213.000
53.30485 187.000
53.32480 191.000
53.34475 191.000
53.36469 185.000
53.38464 181.000
53.40459 201.000
53.42454 186.000
53.44448 183.000
53.46443 180.000
53.48438 166.000
53.50432 179.000
53.52427 174.000
53.54422 172.000
53.56416 193.000
53.58411 184.000
53.60406 205.000
53.62401 185.000
53.64395 174.000
53.66390 192.000
53.68385 190.000
53.70379 215.000
53.72374 212.000
53.74369 229.000
53.76363 205.000
53.78358 254.000
53.80353 222.000
53.82348 260.000
53.84342 236.000
53.86337 259.000
53.88332 268.000
53.90326 260.000
53.92321 305.000
53.94316 290.000
53.96310 298.000
53.98305 304.000
54.00300 286.000
54.02294 283.000
54.04289 282.000
54.06284 274.000
54.08279 283.000
54.10273 282.000
54.12268 275.000
54.14263 325.000
54.16257 319.000
54.18252 369.000
54.20247 374.000
54.22241 404.000
54.24236 340.000
54.26231 321.000
54.28226 278.000
54.30220 281.000
54.32215 284.000
54.34210 276.000
54.36204 280.000
54.38199 243.000
54.40194 206.000
54.42188 219.000
54.44183 209.000
54.46178 169.000
54.48172 203.000
54.50167 164.000
54.52162 185.000
54.54157 191.000
54.56151 190.000
54.58146 184.000
54.60141 168.000
54.62135 184.000
54.64130 184.000
54.66125 186.000
54.68119 174.000
54.70114 176.000
54.72109 183.000
54.74104 160.000
54.76098 178.000
54.78093 211.000
54.80088 173.000
54.82082 165.000
54.84077 188.000
54.86072 177.000
54.88066 184.000
54.90061 196.000
54.92056 152.000
54.94050 185.000
54.96045 184.000
54.98040 179.000
55.00035 166.000
55.02029 187.000
55.04024 173.000
55.06019 182.000
55.08013 177.000
55.10008 171.000
55.12003 176.000
55.13997 169.000
55.15992 146.000
55.17987 185.000
55.19982 160.000
55.21976 186.000
55.23971 166.000
55.25966 166.000
55.27960 166.000
55.29955 164.000
55.31950 190.000
55.33944 157.000
55.35939 167.000
55.37934 189.000
55.39929 176.000
55.41923 160.000
55.43918 172.000
55.45913 178.000
55.47907 163.000
55.49902 201.000
55.51897 177.000
55.53891 159.000
55.55886 182.000
55.57881 195.000
55.59875 190.000
55.61870 167.000
55.63865 175.000
55.65860 167.000
55.67854 152.000
55.69849 167.000
55.71844 168.000
55.73838 187.000
55.75833 177.000
55.77828 176.000
55.79822 188.000
55.81817 181.000
55.83812 205.000
55.85807 171.000
55.87801 198.000
55.89796 169.000
55.91791 168.000
55.93785 182.000
55.95780 187.000
55.97775 193.000
55.99769 180.000
56.01764 176.000
56.03759 178.000
56.05753 164.000
56.07748 188.000
56.09743 161.000
56.11738 179.000
56.13732 171.000
56.15727 166.000
56.17722 184.000
56.19716 159.000
56.21711 193.000
56.23706 175.000
56.25700 168.000
56.27695 165.000
56.29690 165.000
56.31685 193.000
56.33679 181.000
56.35674 211.000
56.37669 170.000
56.39663 190.000
56.41658 197.000
56.43653 216.000
56.45647 196.000
56.47642 188.000
56.49637 164.000
56.51631 193.000
56.53626 201.000
56.55621 199.000
56.57616 173.000
56.59610 171.000
56.61605 195.000
56.63600 214.000
56.65594 205.000
56.67589 176.000
56.69584 195.000
56.71578 166.000
56.73573 182.000
56.75568 182.000
56.77563 211.000
56.79557 207.000
56.81552 186.000
56.83547 201.000
56.85541 193.000
56.87536 173.000
56.89531 192.000
56.91525 210.000
56.93520 225.000
56.95515 207.000
56.97510 190.000
56.99504 200.000
57.01499 220.000
57.03494 198.000
57.05488 207.000
57.07483 184.000
57.09478 200.000
57.11472 210.000
57.13467 211.000
57.15462 223.000
57.17456 227.000
57.19451 227.000
57.21446 244.000
57.23441 259.000
57.25435 252.000
57.27430 287.000
57.29425 324.000
57.31419 326.000
57.33414 360.000
57.35409 386.000
57.37403 428.000
57.39398 431.000
57.41393 436.000
57.43388 484.000
57.45382 500.000
57.47377 540.000
57.49372 517.000
57.51366 519.000
57.53361 528.000
57.55356 521.000
57.57350 562.000
57.59345 547.000
57.61340 554.000
57.63334 581.000
57.65329 534.000
57.67324 537.000
57.69319 567.000
57.71313 642.000
57.73308 632.000
57.75303 683.000
57.77297 776.000
57.79292 864.000
57.81287 768.000
57.83281 609.000
57.85276 568.000
57.87271 536.000
57.89266 471.000
57.91260 497.000
57.93255 485.000
57.95250 499.000
57.97244 446.000
57.99239 414.000
58.01234 328.000
58.03228 271.000
58.05223 280.000
58.07218 253.000
58.09212 227.000
58.11207 207.000
58.13202 191.000
58.15197 221.000
58.17191 218.000
58.19186 230.000
58.21181 237.000
58.23175 206.000
58.25170 221.000
58.27165 194.000
58.29159 208.000
58.31154 198.000
58.33149 202.000
58.35144 186.000
58.37138 214.000
58.39133 175.000
58.41128 188.000
58.43122 188.000
58.45117 180.000
58.47112 189.000
58.49106 202.000
58.51101 181.000
58.53096 199.000
58.55090 151.000
58.57085 172.000
58.59080 182.000
58.61075 176.000
58.63069 203.000
58.65064 196.000
58.67059 187.000
58.69053 187.000
58.71048 182.000
58.73043 196.000
58.75037 191.000
58.77032 185.000
58.79027 179.000
58.81022 176.000
58.83016 175.000
58.85011 212.000
58.87006 180.000
58.89000 190.000
58.90995 184.000
58.92990 205.000
58.94984 202.000
58.96979 178.000
58.98974 203.000
59.00969 175.000
59.02963 160.000
59.04958 192.000
59.06953 192.000
59.08947 182.000
59.10942 172.000
59.12937 186.000
59.14931 173.000
59.16926 162.000
59.18921 192.000
59.20915 160.000
59.22910 184.000
59.24905 175.000
59.26900 168.000
59.28894 173.000
59.30889 198.000
59.32884 185.000
59.34878 158.000
59.36873 154.000
59.38868 161.000
59.40862 174.000
59.42857 170.000
59.44852 171.000
59.46847 160.000
59.48841 170.000
59.50836 171.000
59.52831 184.000
59.54825 201.000
59.56820 189.000
59.58815 180.000
59.60809 172.000
59.62804 189.000
59.64799 168.000
59.66793 189.000
59.68788 181.000
59.70783 159.000
59.72778 159.000
59.74772 177.000
59.76767 208.000
59.78762 171.000
59.80756 167.000
59.82751 196.000
59.84746 189.000
59.86740 163.000
59.88735 181.000
59.90730 152.000
59.92725 188.000
59.94719 168.000
59.96714 181.000
59.98709 170.000
60.00703 169.000
60.02698 180.000
60.04693 198.000
60.06687 216.000
60.08682 152.000
60.10677 165.000
60.12671 168.000
60.14666 185.000
60.16661 186.000
60.18656 172.000
60.20650 172.000
60.22645 169.000
60.24640 178.000
60.26634 178.000
60.28629 178.000
60.30624 172.000
60.32618 187.000
60.34613 192.000
60.36608 205.000
60.38603 178.000
60.40597 165.000
60.42592 174.000
60.44587 215.000
60.46581 199.000
60.48576 168.000
60.50571 168.000
60.52565 194.000
60.54560 181.000
60.56555 179.000
60.58550 174.000
60.60544 178.000
60.62539 203.000
60.64534 207.000
60.66528 201.000
60.68523 171.000
60.70518 169.000
60.72512 173.000
60.74507 159.000
60.76502 149.000
60.78496 190.000
60.80491 186.000
60.82486 157.000
60.84481 196.000
60.86475 183.000
60.88470 197.000
60.90465 162.000
60.92459 176.000
60.94454 179.000
60.96449 179.000
60.98443 158.000
61.00438 175.000
61.02433 178.000
61.04428 197.000
61.06422 186.000
61.08417 177.000
61.10412 181.000
61.12406 194.000
61.14401 164.000
61.16396 176.000
61.18390 174.000
61.20385 181.000
61.22380 192.000
61.24374 202.000
61.26369 187.000
61.28364 183.000
61.30359 179.000
61.32353 196.000
61.34348 202.000
61.36343 196.000
61.38337 206.000
61.40332 229.000
61.42327 200.000
61.44321 244.000
61.46316 246.000
61.48311 235.000
61.50306 220.000
61.52300 235.000
61.54295 277.000
61.56290 269.000
61.58284 285.000
61.60279 295.000
61.62274 326.000
61.64268 380.000
61.66263 400.000
61.68258 362.000
61.70252 382.000
61.72247 373.000
61.74242 349.000
61.76237 331.000
61.78231 328.000
61.80226 303.000
61.82221 305.000
61.84215 348.000
61.86210 313.000
61.88205 292.000
61.90199 310.000
61.92194 266.000
61.94189 236.000
61.96184 243.000
61.98178 224.000
62.00173 234.000
62.02168 219.000
62.04162 207.000
62.06157 210.000
62.08152 229.000
62.10146 198.000
62.12141 187.000
62.14136 191.000
62.16131 209.000
62.18125 181.000
62.20120 180.000
62.22115 203.000
62.24109 183.000
62.26104 185.000
62.28099 186.000
62.30093 194.000
62.32088 154.000
62.34083 212.000
62.36077 193.000
62.38072 185.000
62.40067 195.000
62.42062 200.000
62.44056 224.000
62.46051 212.000
62.48046 180.000
62.50040 192.000
62.52035 195.000
62.54030 205.000
62.56024 180.000
62.58019 192.000
62.60014 200.000
62.62009 211.000
62.64003 216.000
62.65998 190.000
62.67993 208.000
62.69987 195.000
62.71982 215.000
62.73977 207.000
62.75971 214.000
62.77966 221.000
62.79961 231.000
62.81955 247.000
62.83950 239.000
62.85945 285.000
62.87940 267.000
62.89934 279.000
62.91929 309.000
62.93924 316.000
62.95918 346.000
62.97913 369.000
62.99908 359.000
63.01902 378.000
63.03897 415.000
63.05892 473.000
63.07887 513.000
63.09881 499.000
63.11876 526.000
63.13871 501.000
63.15865 535.000
63.17860 500.000
63.19855 504.000
63.21849 515.000
63.23844 534.000
63.25839 555.000
63.27833 617.000
63.29828 558.000
63.31823 593.000
63.33818 549.000
63.35812 553.000
63.37807 586.000
63.39802 625.000
63.41796 674.000
63.43791 777.000
63.45786 828.000
63.47780 873.000
63.49775 860.000
63.51770 696.000
63.53765 705.000
63.55759 582.000
63.57754 474.000
63.59749 446.000
63.61743 488.000
63.63738 501.000
63.65733 492.000
63.67727 456.000
63.69722 366.000
63.71717 330.000
63.73712 291.000
63.75706 269.000
63.77701 286.000
63.79696 237.000
63.81690 230.000
63.83685 222.000
63.85680 196.000
63.87674 199.000
63.89669 205.000
63.91664 202.000
63.93658 229.000
63.95653 188.000
63.97648 199.000
63.99643 197.000
64.01637 191.000
64.03632 202.000
64.05627 193.000
64.07621 205.000
64.09616 176.000
64.11611 210.000
64.13605 165.000
64.15600 205.000
64.17595 207.000
64.19590 168.000
64.21584 177.000
64.23579 204.000
64.25574 184.000
64.27568 177.000
64.29563 211.000
64.31558 204.000
64.33552 209.000
64.35547 196.000
64.37542 194.000
64.39536 205.000
64.41531 192.000
64.43526 204.000
64.45521 217.000
64.47515 211.000
64.49510 216.000
64.51505 218.000
64.53499 195.000
64.55494 220.000
64.57489 225.000
64.59483 222.000
64.61478 232.000
64.63473 230.000
64.65468 283.000
64.67462 314.000
64.69457 308.000
64.71452 304.000
64.73446 356.000
64.75441 437.000
64.77436 468.000
64.79430 428.000
64.81425 385.000
64.83420 345.000
64.85414 334.000
64.87409 347.000
64.89404 292.000
64.91399 319.000
64.93393 292.000
64.95388 317.000
64.97383 317.000
64.99377 309.000
65.01372 285.000
65.03367 235.000
65.05361 255.000
65.07356 219.000
65.09351 222.000
65.11346 203.000
65.13340 185.000
65.15335 194.000
65.17330 205.000
65.19324 178.000
65.21319 200.000
65.23314 182.000
65.25308 191.000
65.27303 207.000
65.29298 190.000
65.31293 215.000
65.33287 166.000
65.35282 180.000
65.37277 174.000
65.39271 164.000
65.41266 181.000
65.43261 189.000
65.45255 166.000
65.47250 186.000
65.49245 196.000
65.51239 202.000
65.53234 165.000
65.55229 210.000
65.57224 206.000
65.59218 200.000
65.61213 193.000
65.63208 191.000
65.65202 178.000
65.67197 190.000
65.69192 216.000
65.71186 203.000
65.73181 187.000
65.75176 202.000
65.77171 182.000
65.79165 169.000
65.81160 185.000
65.83155 210.000
65.85149 197.000
65.87144 164.000
65.89139 225.000
65.91133 201.000
65.93128 177.000
65.95123 211.000
65.97117 209.000
65.99112 194.000
66.01107 211.000
66.03102 222.000
66.05096 208.000
66.07091 225.000
66.09086 241.000
66.11080 236.000
66.13075 254.000
66.15070 239.000
66.17064 238.000
66.19059 236.000
66.21054 234.000
66.23049 228.000
66.25043 241.000
66.27038 244.000
66.29033 227.000
66.31027 248.000
66.33022 256.000
66.35017 237.000
66.37011 226.000
66.39006 233.000
66.41001 233.000
66.42995 249.000
66.44990 219.000
66.46985 215.000
66.48980 227.000
66.50974 223.000
66.52969 233.000
66.54964 219.000
66.56958 226.000
66.58953 247.000
66.60948 214.000
66.62942 226.000
66.64937 218.000
66.66932 232.000
66.68927 208.000
66.70921 235.000
66.72916 212.000
66.74911 243.000
66.76905 229.000
66.78900 229.000
66.80895 229.000
66.82889 226.000
66.84884 217.000
66.86879 222.000
66.88874 227.000
66.90868 268.000
66.92863 237.000
66.94858 233.000
66.96852 232.000
66.98847 258.000
67.00842 225.000
67.02836 254.000
67.04831 291.000
67.06826 285.000
67.08820 307.000
67.10815 344.000
67.12810 341.000
67.14805 320.000
67.16799 281.000
67.18794 263.000
67.20789 270.000
67.22783 285.000
67.24778 263.000
67.26773 280.000
67.28767 268.000
67.30762 262.000
67.32757 270.000
67.34752 263.000
67.36746 237.000
67.38741 214.000
67.40736 189.000
67.42730 214.000
67.44725 204.000
67.46720 209.000
67.48714 188.000
67.50709 187.000
67.52704 179.000
67.54698 194.000
67.56693 192.000
67.58688 194.000
67.60683 193.000
67.62677 162.000
67.64672 183.000
67.66667 175.000
67.68661 171.000
67.70656 169.000
67.72651 204.000
67.74645 201.000
67.76640 189.000
67.78635 187.000
67.80630 180.000
67.82624 172.000
67.84619 177.000
67.86614 190.000
67.88608 223.000
67.90603 199.000
67.92598 179.000
67.94592 189.000
67.96587 197.000
67.98582 162.000
68.00576 203.000
68.02571 211.000
68.04566 186.000
68.06561 199.000
68.08555 182.000
68.10550 188.000
68.12545 181.000
68.14539 199.000
68.16534 189.000
68.18529 183.000
68.20523 196.000
68.22518 213.000
68.24513 205.000
68.26508 207.000
68.28502 172.000
68.30497 159.000
68.32492 183.000
68.34486 192.000
68.36481 176.000
68.38476 183.000
68.40470 165.000
68.42465 169.000
68.44460 193.000
68.46455 174.000
68.48449 168.000
68.50444 157.000
68.52439 165.000
68.54433 163.000
68.56428 181.000
68.58423 177.000
68.60417 167.000
68.62412 148.000
68.64407 170.000
68.66401 152.000
68.68396 177.000
68.70391 186.000
68.72386 163.000
68.74380 174.000
68.76375 183.000
68.78370 162.000
68.80364 164.000
68.82359 189.000
68.84354 162.000
68.86348 156.000
68.88343 164.000
68.90338 171.000
68.92333 140.000
68.94327 169.000
68.96322 153.000
68.98317 194.000
69.00311 153.000
69.02306 188.000
69.04301 162.000
69.06295 179.000
69.08290 150.000
69.10285 176.000
69.12279 180.000
69.14274 196.000
69.16269 203.000
69.18264 166.000
69.20258 180.000
69.22253 187.000
69.24248 184.000
69.26242 179.000
69.28237 180.000
69.30232 161.000
69.32226 161.000
69.34221 172.000
69.36216 191.000
69.38211 187.000
69.40205 164.000
69.42200 181.000
69.44195 178.000
69.46189 156.000
69.48184 197.000
69.50179 200.000
69.52173 167.000
69.54168 151.000
69.56163 197.000
69.58157 177.000
69.60152 169.000
69.62147 184.000
69.64142 183.000
69.66136 148.000
69.68131 164.000
69.70126 159.000
69.72120 160.000
69.74115 169.000
69.76110 158.000
69.78104 175.000
69.80099 160.000
69.82094 193.000
69.84089 185.000
69.86083 189.000
69.88078 158.000
69.90073 158.000
69.92067 192.000
69.94062 164.000
69.96057 160.000
69.98051 191.000
70.00046 180.000
70.02041 173.000
70.04035 165.000
70.06030 164.000
70.08025 165.000
70.10020 185.000
70.12014 159.000
70.14009 171.000
70.16004 175.000
70.17998 173.000
70.19993 178.000
70.21988 167.000
70.23982 172.000
70.25977 186.000
70.27972 177.000
70.29967 161.000
70.31961 167.000
70.33956 149.000
70.35951 164.000
70.37945 172.000
70.39940 163.000
70.41935 180.000
70.43929 165.000
70.45924 183.000
70.47919 159.000
70.49914 190.000
70.51908 158.000
70.53903 169.000
70.55898 178.000
70.57892 174.000
70.59887 147.000
70.61882 159.000
70.63876 165.000
70.65871 171.000
70.67866 164.000
70.69860 192.000
70.71855 160.000
70.73850 206.000
70.75845 176.000
70.77839 163.000
70.79834 181.000
70.81829 179.000
70.83823 165.000
70.85818 160.000
70.87813 175.000
70.89807 180.000
70.91802 150.000
70.93797 165.000
70.95792 179.000
70.97786 165.000
70.99781 174.000
71.01776 150.000
71.03770 154.000
71.05765 159.000
71.07760 159.000
71.09754 169.000
71.11749 185.000
71.13744 169.000
71.15738 177.000
71.17733 152.000
71.19728 181.000
71.21723 149.000
71.23717 170.000
71.25712 189.000
71.27707 179.000
71.29701 196.000
71.31696 168.000
71.33691 178.000
71.35685 159.000
71.37680 183.000
71.39675 183.000
71.41670 194.000
71.43664 187.000
71.45659 167.000
71.47654 195.000
71.49648 196.000
71.51643 196.000
71.53638 184.000
71.55632 195.000
71.57627 200.000
71.59622 188.000
71.61616 201.000
71.63611 178.000
71.65606 188.000
71.67601 197.000
71.69595 199.000
71.71590 210.000
71.73585 206.000
71.75579 220.000
71.77574 187.000
71.79569 203.000
71.81563 183.000
71.83558 210.000
71.85553 192.000
71.87548 216.000
71.89542 180.000
71.91537 207.000
71.93532 199.000
71.95526 191.000
71.97521 213.000
71.99516 228.000
72.01510 211.000
72.03505 255.000
72.05500 204.000
72.07495 219.000
72.09489 211.000
72.11484 227.000
72.13479 212.000
72.15473 185.000
72.17468 175.000
72.19463 182.000
72.21457 212.000
72.23452 193.000
72.25447 197.000
72.27441 188.000
72.29436 181.000
72.31431 214.000
72.33426 184.000
72.35420 182.000
72.37415 193.000
72.39410 168.000
72.41404 204.000
72.43399 203.000
72.45394 171.000
72.47388 168.000
72.49383 175.000
72.51378 167.000
72.53373 170.000
72.55367 170.000
72.57362 159.000
72.59357 188.000
72.61351 186.000
72.63346 169.000
72.65341 175.000
72.67335 166.000
72.69330 155.000
72.71325 153.000
72.73319 186.000
72.75314 206.000
72.77309 167.000
72.79304 182.000
72.81298 182.000
72.83293 161.000
72.85288 168.000
72.87282 196.000
72.89277 155.000
72.91272 154.000
72.93266 163.000
72.95261 172.000
72.97256 168.000
72.99251 184.000
73.01245 163.000
73.03240 168.000
73.05235 160.000
73.07229 159.000
73.09224 159.000
73.11219 173.000
73.13213 198.000
73.15208 179.000
73.17203 167.000
73.19197 166.000
73.21192 186.000
73.23187 187.000
73.25182 175.000
73.27176 152.000
73.29171 161.000
73.31166 176.000
73.33160 174.000
73.35155 182.000
73.37150 179.000
73.39144 156.000
73.41139 168.000
73.43134 173.000
73.45129 173.000
73.47123 166.000
73.49118 166.000
73.51113 164.000
73.53107 153.000
73.55102 169.000
73.57097 154.000
73.59091 173.000
73.61086 163.000
73.63081 206.000
73.65076 189.000
73.67070 198.000
73.69065 176.000
73.71060 199.000
73.73054 174.000
73.75049 173.000
73.77044 196.000
73.79038 190.000
73.81033 213.000
73.83028 197.000
73.85022 241.000
73.87017 216.000
73.89012 201.000
73.91007 209.000
73.93001 235.000
73.94996 217.000
73.96991 203.000
73.98985 207.000
74.00980 194.000
74.02975 207.000
74.04969 196.000
74.06964 211.000
74.08959 212.000
74.10954 191.000
74.12948 205.000
74.14943 207.000
74.16938 198.000
74.18932 188.000
74.20927 207.000
74.22922 194.000
74.24916 179.000
74.26911 195.000
74.28906 193.000
74.30900 173.000
74.32895 173.000
74.34890 202.000
74.36885 182.000
74.38879 182.000
74.40874 201.000
74.42869 192.000
74.44863 192.000
74.46858 184.000
74.48853 209.000
74.50847 206.000
74.52842 195.000
74.54837 223.000
74.56832 234.000
74.58826 203.000
74.60821 223.000
74.62816 235.000
74.64810 219.000
74.66805 250.000
74.68800 231.000
74.70794 226.000
74.72789 237.000
74.74784 221.000
74.76778 223.000
74.78773 237.000
74.80768 222.000
74.82763 235.000
74.84757 259.000
74.86752 188.000
74.88747 254.000
74.90741 236.000
74.92736 235.000
74.94731 255.000
74.96725 263.000
74.98720 221.000
75.00715 263.000
75.02710 240.000
75.04704 259.000
75.06699 274.000
75.08694 272.000
75.10688 282.000
75.12683 302.000
75.14678 300.000
75.16672 282.000
75.18667 319.000
75.20662 283.000
75.22657 265.000
75.24651 268.000
75.26646 220.000
75.28641 241.000
75.30635 227.000
75.32630 243.000
75.34625 232.000
75.36619 238.000
75.38614 230.000
75.40609 204.000
75.42603 253.000
75.44598 212.000
75.46593 205.000
75.48588 231.000
75.50582 222.000
75.52577 222.000
75.54572 205.000
75.56566 193.000
75.58561 201.000
75.60556 204.000
75.62550 169.000
75.64545 224.000
75.66540 206.000
75.68535 211.000
75.70529 194.000
75.72524 196.000
75.74519 198.000
75.76513 218.000
75.78508 215.000
75.80503 244.000
75.82497 185.000
75.84492 210.000
75.86487 202.000
75.88481 183.000
75.90476 192.000
75.92471 190.000
75.94466 187.000
75.96460 196.000
75.98455 213.000
76.00450 221.000
76.02444 204.000
76.04439 196.000
76.06434 221.000
76.08428 235.000
76.10423 235.000
76.12418 228.000
76.14413 225.000
76.16407 250.000
76.18402 211.000
76.20397 238.000
76.22391 220.000
76.24386 205.000
76.26381 204.000
76.28375 210.000
76.30370 217.000
76.32365 204.000
76.34359 216.000
76.36354 219.000
76.38349 222.000
76.40344 200.000
76.42338 229.000
76.44333 245.000
76.46328 225.000
76.48322 202.000
76.50317 208.000
76.52312 179.000
76.54306 195.000
76.56301 182.000
76.58296 188.000
76.60291 191.000
76.62285 164.000
76.64280 194.000
76.66275 212.000
76.68269 189.000
76.70264 193.000
76.72259 189.000
76.74253 174.000
76.76248 183.000
76.78243 165.000
76.80238 199.000
76.82232 188.000
76.84227 171.000
76.86222 174.000
76.88216 177.000
76.90211 171.000
76.92206 177.000
76.94200 172.000
76.96195 189.000
76.98190 174.000
77.00184 194.000
77.02179 163.000
77.04174 160.000
77.06169 182.000
77.08163 175.000
77.10158 156.000
77.12153 188.000
77.14147 162.000
77.16142 186.000
77.18137 182.000
77.20131 195.000
77.22126 178.000
77.24121 179.000
77.26116 182.000
77.28110 192.000
77.30105 168.000
77.32100 190.000
77.34094 194.000
77.36089 219.000
77.38084 191.000
77.40078 174.000
77.42073 188.000
77.44068 224.000
77.46062 190.000
77.48057 193.000
77.50052 195.000
77.52047 221.000
77.54041 208.000
77.56036 217.000
77.58031 210.000
77.60025 263.000
77.62020 241.000
77.64015 248.000
77.66009 252.000
77.68004 245.000
77.69999 221.000
77.71994 227.000
77.73988 267.000
77.75983 208.000
77.77978 208.000
77.79972 217.000
77.81967 206.000
77.83962 233.000
77.85956 190.000
77.87951 214.000
77.89946 242.000
77.91940 212.000
77.93935 204.000
77.95930 217.000
77.97925 180.000
77.99919 176.000
78.01914 205.000
78.03909 205.000
78.05903 193.000
78.07898 203.000
78.09893 190.000
78.11887 167.000
78.13882 187.000
78.15877 166.000
78.17872 204.000
78.19866 180.000
78.21861 194.000
78.23856 184.000
78.25850 152.000
78.27845 201.000
78.29840 187.000
78.31834 197.000
78.33829 213.000
78.35824 178.000
78.37819 182.000
78.39813 182.000
78.41808 165.000
78.43803 183.000
78.45797 201.000
78.47792 194.000
78.49787 218.000
78.51781 230.000
78.53776 223.000
78.55771 229.000
78.57765 226.000
78.59760 204.000
78.61755 209.000
78.63750 228.000
78.65744 229.000
78.67739 202.000
78.69734 186.000
78.71728 183.000
78.73723 205.000
78.75718 222.000
78.77712 194.000
78.79707 197.000
78.81702 224.000
78.83697 186.000
78.85691 217.000
78.87686 188.000
78.89681 188.000
78.91675 195.000
78.93670 184.000
78.95665 192.000
78.97659 208.000
78.99654 166.000
79.01649 170.000
79.03643 173.000
79.05638 196.000
79.07633 170.000
79.09628 180.000
79.11622 177.000
79.13617 176.000
79.15612 177.000
79.17606 159.000
79.19601 165.000
79.21596 156.000
79.23590 161.000
79.25585 179.000
79.27580 159.000
79.29575 183.000
79.31569 177.000
79.33564 171.000
79.35559 154.000
79.37553 176.000
79.39548 187.000
79.41543 175.000
79.43537 166.000
79.45532 163.000
79.47527 184.000
79.49521 180.000
79.51516 186.000
79.53511 179.000
79.55506 189.000
79.57500 179.000
79.59495 159.000
79.61490 178.000
79.63484 204.000
79.65479 194.000
79.67474 201.000
79.69468 151.000
79.71463 196.000
79.73458 193.000
79.75453 202.000
79.77447 199.000
79.79442 179.000
79.81437 193.000
79.83431 176.000
79.85426 195.000
79.87421 171.000
79.89415 194.000
79.91410 189.000
79.93405 180.000
79.95399 191.000
79.97394 187.000
79.99389 182.000
80.01384 184.000
80.03378 186.000
80.05373 182.000
80.07368 186.000
80.09362 208.000
80.11357 193.000
80.13352 188.000
80.15346 197.000
80.17341 180.000
80.19336 189.000
80.21331 200.000
80.23325 207.000
80.25320 187.000
80.27315 206.000
80.29309 185.000
80.31304 200.000
80.33299 198.000
80.35293 192.000
80.37288 207.000
80.39283 182.000
80.41278 176.000
80.43272 191.000
80.45267 165.000
80.47262 180.000
80.49256 199.000
80.51251 172.000
80.53246 164.000
80.55240 172.000
80.57235 178.000
80.59230 191.000
80.61224 179.000
80.63219 163.000
80.65214 140.000
80.67209 179.000
80.69203 161.000
80.71198 172.000
80.73193 188.000
80.75187 155.000
80.77182 172.000
80.79177 175.000
80.81171 167.000
80.83166 173.000
80.85161 167.000
80.87156 151.000
80.89150 195.000
80.91145 137.000
80.93140 158.000
80.95134 157.000
80.97129 169.000
80.99124 179.000
81.01118 169.000
81.03113 162.000
81.05108 136.000
81.07102 169.000
81.09097 170.000
81.11092 164.000
81.13087 195.000
81.15081 166.000
81.17076 184.000
81.19071 173.000
81.21065 172.000
81.23060 187.000
81.25055 165.000
81.27049 161.000
81.29044 170.000
81.31039 175.000
81.33034 170.000
81.35028 182.000
81.37023 193.000
81.39018 190.000
81.41012 190.000
81.43007 162.000
81.45002 196.000
81.46996 163.000
81.48991 161.000
81.50986 168.000
81.52980 166.000
81.54975 190.000
81.56970 181.000
81.58965 192.000
81.60959 163.000
81.62954 182.000
81.64949 173.000
81.66943 163.000
81.68938 189.000
81.70933 191.000
81.72927 183.000
81.74922 182.000
81.76917 172.000
81.78912 166.000
81.80906 147.000
81.82901 185.000
81.84896 166.000
81.86890 163.000
81.88885 179.000
81.90880 163.000
81.92874 166.000
81.94869 150.000
81.96864 168.000
81.98859 182.000
82.00853 168.000
82.02848 182.000
82.04843 175.000
82.06837 179.000
82.08832 145.000
82.10827 197.000
82.12821 150.000
82.14816 191.000
82.16811 200.000
82.18805 164.000
82.20800 191.000
82.22795 191.000
82.24790 186.000
82.26784 139.000
82.28779 168.000
82.30774 185.000
82.32768 183.000
82.34763 187.000
82.36758 182.000
82.38752 191.000
82.40747 179.000
82.42742 185.000
82.44737 189.000
82.46731 195.000
82.48726 174.000
82.50721 160.000
82.52715 193.000
82.54710 160.000
82.56705 194.000
82.58699 174.000
82.60694 182.000
82.62689 178.000
82.64683 164.000
82.66678 174.000
82.68673 185.000
82.70668 174.000
82.72662 185.000
82.74657 183.000
82.76652 197.000
82.78646 145.000
82.80641 185.000
82.82636 198.000
82.84630 175.000
82.86625 211.000
82.88620 190.000
82.90615 189.000
82.92609 177.000
82.94604 183.000
82.96599 193.000
82.98593 165.000
83.00588 181.000
83.02583 182.000
83.04577 191.000
83.06572 185.000
83.08567 184.000
83.10561 189.000
83.12556 156.000
83.14551 181.000
83.16546 176.000
83.18540 180.000
83.20535 195.000
83.22530 174.000
83.24524 205.000
83.26519 200.000
83.28514 208.000
83.30508 208.000
83.32503 174.000
83.34498 198.000
83.36493 184.000
83.38487 164.000
83.40482 181.000
83.42477 194.000
83.44471 185.000
83.46466 218.000
83.48461 175.000
83.50455 171.000
83.52450 166.000
83.54445 155.000
83.56440 170.000
83.58434 182.000
83.60429 193.000
83.62424 177.000
83.64418 197.000
83.66413 183.000
83.68408 172.000
83.70402 202.000
83.72397 162.000
83.74392 162.000
83.76386 166.000
83.78381 187.000
83.80376 167.000
83.82371 202.000
83.84365 157.000
83.86360 173.000
83.88355 155.000
83.90349 180.000
83.92344 167.000
83.94339 161.000
83.96333 208.000
83.98328 171.000
84.00323 181.000
84.02318 172.000
84.04312 184.000
84.06307 178.000
84.08302 155.000
84.10296 191.000
84.12291 154.000
84.14286 168.000
84.16280 193.000
84.18275 153.000
84.20270 194.000
84.22264 181.000
84.24259 153.000
84.26254 174.000
84.28249 164.000
84.30243 161.000
84.32238 185.000
84.34233 176.000
84.36227 192.000
84.38222 162.000
84.40217 171.000
84.42211 182.000
84.44206 164.000
84.46201 152.000
84.48196 165.000
84.50190 169.000
84.52185 215.000
84.54180 174.000
84.56174 194.000
84.58169 165.000
84.60164 188.000
84.62158 208.000
84.64153 170.000
84.66148 180.000
84.68142 182.000
84.70137 174.000
84.72132 201.000
84.74127 175.000
84.76121 175.000
84.78116 208.000
84.80111 177.000
84.82105 194.000
84.84100 181.000
84.86095 205.000
84.88089 189.000
84.90084 213.000
84.92079 184.000
84.94074 210.000
84.96068 197.000
84.98063 204.000
85.00058 231.000
85.02052 208.000
85.04047 223.000
85.06042 221.000
85.08036 208.000
85.10031 244.000
85.12026 236.000
85.14021 214.000
85.16015 186.000
85.18010 198.000
85.20005 208.000
85.21999 172.000
85.23994 175.000
85.25989 207.000
85.27983 197.000
85.29978 197.000
85.31973 217.000
85.33967 183.000
85.35962 216.000
85.37957 212.000
85.39952 187.000
85.41946 205.000
85.43941 200.000
85.45936 184.000
85.47930 180.000
85.49925 173.000
85.51920 169.000
85.53914 181.000
85.55909 182.000
85.57904 160.000
85.59899 200.000
85.61893 184.000
85.63888 189.000
85.65883 169.000
85.67877 162.000
85.69872 164.000
85.71867 187.000
85.73861 187.000
85.75856 148.000
85.77851 183.000
85.79845 194.000
85.81840 189.000
85.83835 161.000
85.85830 172.000
85.87824 189.000
85.89819 190.000
85.91814 171.000
85.93808 181.000
85.95803 179.000
85.97798 171.000
85.99792 150.000
86.01787 150.000
86.03782 171.000
86.05777 168.000
86.07771 164.000
86.09766 212.000
86.11761 188.000
86.13755 185.000
86.15750 195.000
86.17745 184.000
86.19739 189.000
86.21734 167.000
86.23729 155.000
86.25723 163.000
86.27718 177.000
86.29713 192.000
86.31708 171.000
86.33702 171.000
86.35697 166.000
86.37692 160.000
86.39686 183.000
86.41681 183.000
86.43676 184.000
86.45670 187.000
86.47665 166.000
86.49660 169.000
86.51655 170.000
86.53649 171.000
86.55644 160.000
86.57639 188.000
86.59633 176.000
86.61628 175.000
86.63623 178.000
86.65617 192.000
86.67612 186.000
86.69607 162.000
86.71602 167.000
86.73596 164.000
86.75591 211.000
86.77586 181.000
86.79580 186.000
86.81575 154.000
86.83570 204.000
86.85564 167.000
86.87559 171.000
86.89554 174.000
86.91548 163.000
86.93543 174.000
86.95538 177.000
86.97533 187.000
86.99527 158.000
87.01522 196.000
87.03517 171.000
87.05511 157.000
87.07506 170.000
87.09501 179.000
87.11495 171.000
87.13490 175.000
87.15485 156.000
87.17480 179.000
87.19474 179.000
87.21469 160.000
87.23464 184.000
87.25458 187.000
87.27453 185.000
87.29448 170.000
87.31442 175.000
87.33437 188.000
87.35432 188.000
87.37426 168.000
87.39421 154.000
87.41416 175.000
87.43411 178.000
87.45405 170.000
87.47400 175.000
87.49395 176.000
87.51389 162.000
87.53384 193.000
87.55379 198.000
87.57373 198.000
87.59368 187.000
87.61363 196.000
87.63358 196.000
87.65352 187.000
87.67347 202.000
87.69342 204.000
87.71336 165.000
87.73331 162.000
87.75326 208.000
87.77320 227.000
87.79315 197.000
87.81310 183.000
87.83304 196.000
87.85299 187.000
87.87294 180.000
87.89289 219.000
87.91283 190.000
87.93278 194.000
87.95273 195.000
87.97267 199.000
87.99262 204.000
88.01257 209.000
88.03251 201.000
88.05246 210.000
88.07241 194.000
88.09236 199.000
88.11230 194.000
88.13225 222.000
88.15220 206.000
88.17214 203.000
88.19209 242.000
88.21204 204.000
88.23198 206.000
88.25193 215.000
88.27188 240.000
88.29183 215.000
88.31177 172.000
88.33172 208.000
88.35167 179.000
88.37161 197.000
88.39156 179.000
88.41151 193.000
88.43145 186.000
88.45140 194.000
88.47135 189.000
88.49129 182.000
88.51124 184.000
88.53119 189.000
88.55114 183.000
88.57108 175.000
88.59103 186.000
88.61098 173.000
88.63092 177.000
88.65087 184.000
88.67082 155.000
88.69076 180.000
88.71071 184.000
88.73066 193.000
88.75061 151.000
88.77055 165.000
88.79050 170.000
88.81045 187.000
88.83039 172.000
88.85034 164.000
88.87029 177.000
88.89023 170.000
88.91018 169.000
88.93013 163.000
88.95007 161.000
88.97002 171.000
88.98997 180.000
89.00992 155.000
89.02986 217.000
89.04981 168.000
89.06976 186.000
89.08970 153.000
89.10965 139.000
89.12960 197.000
89.14954 176.000
89.16949 165.000
89.18944 166.000
89.20939 173.000
89.22933 169.000
89.24928 160.000
89.26923 176.000
89.28917 162.000
89.30912 157.000
89.32907 175.000
89.34901 196.000
89.36896 148.000
89.38891 193.000
89.40885 174.000
89.42880 182.000
89.44875 186.000
89.46870 166.000
89.48864 161.000
89.50859 167.000
89.52854 160.000
89.54848 188.000
89.56843 180.000
89.58838 186.000
89.60832 179.000
89.62827 160.000
89.64822 167.000
89.66817 176.000
89.68811 179.000
89.70806 164.000
89.72801 181.000
89.74795 178.000
89.76790 168.000
89.78785 157.000
89.80779 190.000
89.82774 181.000
89.84769 170.000
89.86764 173.000
89.88758 181.000
89.90753 164.000
89.92748 184.000
89.94742 167.000
89.96737 197.000
89.98732 187.000
90.00726 183.000
