10.00000 179.000
10.01995 181.000
10.03989 159.000
10.05984 176.000
10.07979 158.000
10.09973 146.000
10.11968 152.000
10.13963 170.000
10.15958 159.000
10.17952 159.000
10.19947 167.000
10.21942 145.000
10.23936 158.000
10.25931 146.000
10.27926 155.000
10.29920 172.000
10.31915 176.000
10.33910 150.000
10.35905 136.000
10.37899 145.000
10.39894 138.000
10.41889 164.000
10.43883 147.000
10.45878 140.000
10.47873 138.000
10.49867 169.000
10.51862 150.000
10.53857 146.000
10.55851 169.000
10.57846 152.000
10.59841 156.000
10.61836 158.000
10.63830 151.000
10.65825 149.000
10.67820 151.000
10.69814 146.000
10.71809 129.000
10.73804 149.000
10.75798 149.000
10.77793 154.000
10.79788 146.000
10.81783 166.000
10.83777 138.000
10.85772 151.000
10.87767 124.000
10.89761 155.000
10.91756 165.000
10.93751 169.000
10.95745 143.000
10.97740 160.000
10.99735 145.000
11.01730 174.000
11.03724 167.000
11.05719 153.000
11.07714 171.000
11.09708 168.000
11.11703 155.000
11.13698 146.000
11.15692 156.000
11.17687 139.000
11.19682 159.000
11.21676 159.000
11.23671 138.000
11.25666 147.000
11.27661 155.000
11.29655 154.000
11.31650 159.000
11.33645 136.000
11.35639 161.000
11.37634 126.000
11.39629 149.000
11.41623 139.000
11.43618 137.000
11.45613 156.000
11.47608 148.000
11.49602 157.000
11.51597 151.000
11.53592 128.000
11.55586 163.000
11.57581 169.000
11.59576 152.000
11.61570 145.000
11.63565 158.000
11.65560 153.000
11.67554 140.000
11.69549 161.000
11.71544 159.000
11.73539 140.000
11.75533 149.000
11.77528 147.000
11.79523 126.000
11.81517 160.000
11.83512 171.000
11.85507 149.000
11.87501 140.000
11.89496 143.000
11.91491 135.000
11.93486 142.000
11.95480 147.000
11.97475 155.000
11.99470 172.000
12.01464 159.000
12.03459 151.000
12.05454 156.000
12.07448 157.000
12.09443 140.000
12.11438 171.000
12.13432 148.000
12.15427 161.000
12.17422 167.000
12.19417 172.000
12.21411 160.000
12.23406 170.000
12.25401 127.000
12.27395 149.000
12.29390 140.000
12.31385 152.000
12.33379 134.000
12.35374 172.000
12.37369 154.000
12.39364 159.000
12.41358 152.000
12.43353 135.000
12.45348 152.000
12.47342 136.000
12.49337 137.000
12.51332 160.000
12.53326 143.000
12.55321 146.000
12.57316 185.000
12.59311 142.000
12.61305 149.000
12.63300 144.000
12.65295 155.000
12.67289 178.000
12.69284 142.000
12.71279 159.000
12.73273 156.000
12.75268 157.000
12.77263 157.000
12.79257 150.000
12.81252 169.000
12.83247 189.000
12.85242 148.000
12.87236 143.000
12.89231 171.000
12.91226 170.000
12.93220 159.000
12.95215 140.000
12.97210 155.000
12.99204 139.000
13.01199 150.000
13.03194 131.000
13.05189 157.000
13.07183 171.000
13.09178 151.000
13.11173 156.000
13.13167 163.000
13.15162 147.000
13.17157 157.000
13.19151 135.000
13.21146 153.000
13.23141 137.000
13.25135 143.000
13.27130 144.000
13.29125 150.000
13.31120 164.000
13.33114 167.000
13.35109 185.000
13.37104 152.000
13.39098 158.000
13.41093 157.000
13.43088 159.000
13.45082 168.000
13.47077 152.000
13.49072 155.000
13.51067 148.000
13.53061 163.000
13.55056 161.000
13.57051 179.000
13.59045 150.000
13.61040 165.000
13.63035 165.000
13.65029 147.000
13.67024 156.000
13.69019 130.000
13.71013 166.000
13.73008 141.000
13.75003 151.000
13.76998 160.000
13.78992 157.000
13.80987 166.000
13.82982 146.000
13.84976 146.000
13.86971 154.000
13.88966 152.000
13.90960 174.000
13.92955 143.000
13.94950 170.000
13.96945 157.000
13.98939 165.000
14.00934 153.000
14.02929 165.000
14.04923 153.000
14.06918 176.000
14.08913 159.000
14.10907 144.000
14.12902 139.000
14.14897 150.000
14.16892 177.000
14.18886 171.000
14.20881 169.000
14.22876 173.000
14.24870 170.000
14.26865 186.000
14.28860 144.000
14.30854 157.000
14.32849 159.000
14.34844 161.000
14.36838 170.000
14.38833 167.000
14.40828 149.000
14.42823 145.000
14.44817 165.000
14.46812 165.000
14.48807 145.000
14.50801 158.000
14.52796 162.000
14.54791 159.000
14.56785 141.000
14.58780 150.000
14.60775 132.000
14.62770 171.000
14.64764 137.000
14.66759 161.000
14.68754 136.000
14.70748 164.000
14.72743 162.000
14.74738 176.000
14.76732 169.000
14.78727 164.000
14.80722 165.000
14.82716 156.000
14.84711 159.000
14.86706 169.000
14.88701 177.000
14.90695 167.000
14.92690 177.000
14.94685 166.000
14.96679 145.000
14.98674 160.000
15.00669 166.000
15.02663 195.000
15.04658 165.000
15.06653 194.000
15.08648 201.000
15.10642 199.000
15.12637 228.000
15.14632 209.000
15.16626 214.000
15.18621 160.000
15.20616 198.000
15.22610 200.000
15.24605 216.000
15.26600 223.000
15.28594 204.000
15.30589 216.000
15.32584 210.000
15.34579 202.000
15.36573 225.000
15.38568 223.000
15.40563 228.000
15.42557 221.000
15.44552 243.000
15.46547 217.000
15.48541 264.000
15.50536 275.000
15.52531 277.000
15.54526 280.000
15.56520 295.000
15.58515 319.000
15.60510 374.000
15.62504 436.000
15.64499 535.000
15.66494 659.000
15.68488 846.000
15.70483 1180.000
15.72478 1791.000
15.74472 2781.000
15.76467 4342.000
15.78462 6050.000
15.80457 7208.000
15.82451 6847.000
15.84446 5284.000
15.86441 3526.000
15.88435 2003.000
15.90430 1077.000
15.92425 745.000
15.94419 573.000
15.96414 397.000
15.98409 394.000
16.00404 379.000
16.02398 317.000
16.04393 302.000
16.06388 265.000
16.08382 270.000
16.10377 249.000
16.12372 228.000
16.14366 228.000
16.16361 228.000
16.18356 199.000
16.20351 237.000
16.22345 237.000
16.24340 195.000
16.26335 220.000
16.28329 190.000
16.30324 188.000
16.32319 217.000
16.34313 221.000
16.36308 208.000
16.38303 193.000
16.40297 185.000
16.42292 199.000
16.44287 177.000
16.46282 203.000
16.48276 162.000
16.50271 185.000
16.52266 205.000
16.54260 168.000
16.56255 177.000
16.58250 176.000
16.60244 193.000
16.62239 175.000
16.64234 168.000
16.66229 173.000
16.68223 176.000
16.70218 161.000
16.72213 182.000
16.74207 160.000
16.76202 169.000
16.78197 174.000
16.80191 175.000
16.82186 148.000
16.84181 167.000
16.86175 189.000
16.88170 154.000
16.90165 174.000
16.92160 168.000
16.94154 170.000
16.96149 182.000
16.98144 176.000
17.00138 162.000
17.02133 156.000
17.04128 155.000
17.06122 171.000
17.08117 181.000
17.10112 166.000
17.12107 141.000
17.14101 149.000
17.16096 165.000
17.18091 169.000
17.20085 132.000
17.22080 135.000
17.24075 171.000
17.26069 161.000
17.28064 179.000
17.30059 185.000
17.32053 159.000
17.34048 164.000
17.36043 173.000
17.38038 179.000
17.40032 153.000
17.42027 144.000
17.44022 155.000
17.46016 167.000
17.48011 148.000
17.50006 170.000
17.52000 190.000
17.53995 159.000
17.55990 137.000
17.57985 156.000
17.59979 175.000
17.61974 153.000
17.63969 154.000
17.65963 163.000
17.67958 138.000
17.69953 163.000
17.71947 147.000
17.73942 155.000
17.75937 133.000
17.77932 180.000
17.79926 174.000
17.81921 166.000
17.83916 164.000
17.85910 143.000
17.87905 156.000
17.89900 164.000
17.91894 168.000
17.93889 153.000
17.95884 151.000
17.97878 149.000
17.99873 168.000
18.01868 186.000
18.03863 168.000
18.05857 174.000
18.07852 160.000
18.09847 182.000
18.11841 149.000
18.13836 161.000
18.15831 150.000
18.17825 170.000
18.19820 167.000
18.21815 158.000
18.23810 159.000
18.25804 161.000
18.27799 179.000
18.29794 183.000
18.31788 194.000
18.33783 224.000
18.35778 322.000
18.37772 473.000
18.39767 556.000
18.41762 585.000
18.43756 623.000
18.45751 498.000
18.47746 438.000
18.49741 376.000
18.51735 310.000
18.53730 239.000
18.55725 203.000
18.57719 171.000
18.59714 158.000
18.61709 189.000
18.63703 166.000
18.65698 174.000
18.67693 161.000
18.69688 156.000
18.71682 164.000
18.73677 189.000
18.75672 177.000
18.77666 144.000
18.79661 170.000
18.81656 161.000
18.83650 161.000
18.85645 154.000
18.87640 149.000
18.89634 156.000
18.91629 148.000
18.93624 166.000
18.95619 166.000
18.97613 176.000
18.99608 156.000
19.01603 155.000
19.03597 145.000
19.05592 164.000
19.07587 167.000
19.09581 151.000
19.11576 181.000
19.13571 170.000
19.15566 134.000
19.17560 173.000
19.19555 163.000
19.21550 154.000
19.23544 143.000
19.25539 151.000
19.27534 152.000
19.29528 173.000
19.31523 156.000
19.33518 169.000
19.35513 155.000
19.37507 156.000
19.39502 130.000
19.41497 147.000
19.43491 133.000
19.45486 174.000
19.47481 163.000
19.49475 156.000
19.51470 135.000
19.53465 149.000
19.55459 169.000
19.57454 149.000
19.59449 152.000
19.61444 174.000
19.63438 148.000
19.65433 159.000
19.67428 164.000
19.69422 166.000
19.71417 180.000
19.73412 152.000
19.75406 147.000
19.77401 156.000
19.79396 138.000
19.81391 176.000
19.83385 171.000
19.85380 150.000
19.87375 144.000
19.89369 147.000
19.91364 136.000
19.93359 151.000
19.95353 167.000
19.97348 163.000
19.99343 161.000
20.01337 149.000
20.03332 156.000
20.05327 170.000
20.07322 158.000
20.09316 150.000
20.11311 149.000
20.13306 120.000
20.15300 154.000
20.17295 180.000
20.19290 150.000
20.21284 181.000
20.23279 170.000
20.25274 153.000
20.27269 145.000
20.29263 171.000
20.31258 147.000
20.33253 157.000
20.35247 149.000
20.37242 160.000
20.39237 146.000
20.41231 150.000
20.43226 172.000
20.45221 138.000
20.47215 147.000
20.49210 184.000
20.51205 149.000
20.53200 158.000
20.55194 162.000
20.57189 164.000
20.59184 171.000
20.61178 140.000
20.63173 177.000
20.65168 151.000
20.67162 157.000
20.69157 169.000
20.71152 173.000
20.73147 178.000
20.75141 146.000
20.77136 165.000
20.79131 141.000
20.81125 149.000
20.83120 159.000
20.85115 155.000
20.87109 157.000
20.89104 150.000
20.91099 154.000
20.93094 160.000
20.95088 162.000
20.97083 160.000
20.99078 149.000
21.01072 156.000
21.03067 146.000
21.05062 176.000
21.07056 168.000
21.09051 168.000
21.11046 172.000
21.13040 210.000
21.15035 192.000
21.17030 200.000
21.19025 173.000
21.21019 161.000
21.23014 152.000
21.25009 168.000
21.27003 169.000
21.28998 150.000
21.30993 165.000
21.32987 160.000
21.34982 145.000
21.36977 161.000
21.38972 157.000
21.40966 162.000
21.42961 161.000
21.44956 174.000
21.46950 177.000
21.48945 180.000
21.50940 170.000
21.52934 153.000
21.54929 167.000
21.56924 170.000
21.58918 160.000
21.60913 144.000
21.62908 145.000
21.64903 150.000
21.66897 164.000
21.68892 138.000
21.70887 167.000
21.72881 139.000
21.74876 138.000
21.76871 152.000
21.78865 170.000
21.80860 131.000
21.82855 172.000
21.84850 186.000
21.86844 152.000
21.88839 158.000
21.90834 157.000
21.92828 176.000
21.94823 166.000
21.96818 160.000
21.98812 159.000
22.00807 163.000
22.02802 156.000
22.04796 149.000
22.06791 156.000
22.08786 161.000
22.10781 167.000
22.12775 162.000
22.14770 173.000
22.16765 124.000
22.18759 168.000
22.20754 136.000
22.22749 153.000
22.24743 157.000
22.26738 152.000
22.28733 157.000
22.30728 160.000
22.32722 148.000
22.34717 178.000
22.36712 172.000
22.38706 165.000
22.40701 150.000
22.42696 165.000
22.44690 147.000
22.46685 151.000
22.48680 150.000
22.50675 131.000
22.52669 162.000
22.54664 157.000
22.56659 134.000
22.58653 156.000
22.60648 137.000
22.62643 153.000
22.64637 138.000
22.66632 157.000
22.68627 151.000
22.70621 154.000
22.72616 144.000
22.74611 144.000
22.76606 161.000
22.78600 153.000
22.80595 144.000
22.82590 163.000
22.84584 159.000
22.86579 155.000
22.88574 167.000
22.90568 192.000
22.92563 139.000
22.94558 149.000
22.96553 170.000
22.98547 180.000
23.00542 145.000
23.02537 173.000
23.04531 160.000
23.06526 167.000
23.08521 172.000
23.10515 166.000
23.12510 155.000
23.14505 164.000
23.16499 164.000
23.18494 150.000
23.20489 189.000
23.22484 173.000
23.24478 167.000
23.26473 165.000
23.28468 171.000
23.30462 145.000
23.32457 142.000
23.34452 161.000
23.36446 157.000
23.38441 162.000
23.40436 157.000
23.42431 143.000
23.44425 132.000
23.46420 170.000
23.48415 149.000
23.50409 162.000
23.52404 158.000
23.54399 161.000
23.56393 161.000
23.58388 181.000
23.60383 162.000
23.62377 176.000
23.64372 159.000
23.66367 143.000
23.68362 156.000
23.70356 138.000
23.72351 132.000
23.74346 158.000
23.76340 173.000
23.78335 150.000
23.80330 138.000
23.82324 132.000
23.84319 163.000
23.86314 167.000
23.88309 160.000
23.90303 178.000
23.92298 168.000
23.94293 133.000
23.96287 151.000
23.98282 150.000
24.00277 196.000
24.02271 164.000
24.04266 162.000
24.06261 168.000
24.08256 171.000
24.10250 144.000
24.12245 143.000
24.14240 172.000
24.16234 129.000
24.18229 152.000
24.20224 188.000
24.22218 156.000
24.24213 163.000
24.26208 158.000
24.28202 152.000
24.30197 163.000
24.32192 166.000
24.34187 164.000
24.36181 166.000
24.38176 150.000
24.40171 154.000
24.42165 166.000
24.44160 155.000
24.46155 162.000
24.48149 148.000
24.50144 162.000
24.52139 184.000
24.54134 159.000
24.56128 168.000
24.58123 173.000
24.60118 161.000
24.62112 196.000
24.64107 153.000
24.66102 136.000
24.68096 165.000
24.70091 150.000
24.72086 147.000
24.74080 158.000
24.76075 185.000
24.78070 155.000
24.80065 138.000
24.82059 143.000
24.84054 173.000
24.86049 140.000
24.88043 173.000
24.90038 160.000
24.92033 174.000
24.94027 175.000
24.96022 167.000
24.98017 154.000
25.00012 151.000
25.02006 152.000
25.04001 158.000
25.05996 149.000
25.07990 149.000
25.09985 163.000
25.11980 145.000
25.13974 184.000
25.15969 150.000
25.17964 149.000
25.19958 158.000
25.21953 167.000
25.23948 140.000
25.25943 196.000
25.27937 155.000
25.29932 155.000
25.31927 160.000
25.33921 156.000
25.35916 150.000
25.37911 150.000
25.39905 147.000
25.41900 144.000
25.43895 161.000
25.45890 170.000
25.47884 153.000
25.49879 166.000
25.51874 151.000
25.53868 177.000
25.55863 158.000
25.57858 181.000
25.59852 171.000
25.61847 174.000
25.63842 159.000
25.65837 165.000
25.67831 187.000
25.69826 160.000
25.71821 166.000
25.73815 168.000
25.75810 166.000
25.77805 153.000
25.79799 167.000
25.81794 177.000
25.83789 165.000
25.85783 159.000
25.87778 139.000
25.89773 158.000
25.91768 151.000
25.93762 187.000
25.95757 160.000
25.97752 169.000
25.99746 200.000
26.01741 180.000
26.03736 157.000
26.05730 167.000
26.07725 168.000
26.09720 178.000
26.11715 168.000
26.13709 154.000
26.15704 177.000
26.17699 172.000
26.19693 160.000
26.21688 175.000
26.23683 187.000
26.25677 177.000
26.27672 178.000
26.29667 168.000
26.31661 162.000
26.33656 175.000
26.35651 171.000
26.37646 174.000
26.39640 161.000
26.41635 164.000
26.43630 185.000
26.45624 161.000
26.47619 169.000
26.49614 181.000
26.51608 152.000
26.53603 182.000
26.55598 153.000
26.57593 173.000
26.59587 156.000
26.61582 186.000
26.63577 182.000
26.65571 175.000
26.67566 194.000
26.69561 152.000
26.71555 168.000
26.73550 185.000
26.75545 180.000
26.77539 187.000
26.79534 188.000
26.81529 159.000
26.83524 173.000
26.85518 167.000
26.87513 193.000
26.89508 185.000
26.91502 170.000
26.93497 181.000
26.95492 164.000
26.97486 157.000
26.99481 186.000
27.01476 185.000
27.03471 172.000
27.05465 183.000
27.07460 159.000
27.09455 144.000
27.11449 173.000
27.13444 148.000
27.15439 178.000
27.17433 185.000
27.19428 181.000
27.21423 187.000
27.23417 178.000
27.25412 157.000
27.27407 171.000
27.29402 154.000
27.31396 173.000
27.33391 146.000
27.35386 175.000
27.37380 198.000
27.39375 176.000
27.41370 165.000
27.43364 173.000
27.45359 194.000
27.47354 178.000
27.49349 172.000
27.51343 173.000
27.53338 185.000
27.55333 168.000
27.57327 160.000
27.59322 166.000
27.61317 159.000
27.63311 181.000
27.65306 184.000
27.67301 149.000
27.69296 175.000
27.71290 155.000
27.73285 182.000
27.75280 169.000
27.77274 159.000
27.79269 162.000
27.81264 209.000
27.83258 190.000
27.85253 175.000
27.87248 188.000
27.89242 166.000
27.91237 178.000
27.93232 167.000
27.95227 149.000
27.97221 191.000
27.99216 192.000
28.01211 193.000
28.03205 153.000
28.05200 183.000
28.07195 160.000
28.09189 165.000
28.11184 162.000
28.13179 182.000
28.15174 193.000
28.17168 169.000
28.19163 153.000
28.21158 179.000
28.23152 179.000
28.25147 177.000
28.27142 166.000
28.29136 186.000
28.31131 177.000
28.33126 157.000
28.35120 174.000
28.37115 174.000
28.39110 188.000
28.41105 192.000
28.43099 190.000
28.45094 193.000
28.47089 161.000
28.49083 175.000
28.51078 184.000
28.53073 158.000
28.55067 191.000
28.57062 177.000
28.59057 179.000
28.61052 154.000
28.63046 156.000
28.65041 160.000
28.67036 191.000
28.69030 169.000
28.71025 163.000
28.73020 176.000
28.75014 163.000
28.77009 179.000
28.79004 169.000
28.80998 148.000
28.82993 172.000
28.84988 183.000
28.86983 164.000
28.88977 166.000
28.90972 155.000
28.92967 171.000
28.94961 167.000
28.96956 168.000
28.98951 147.000
29.00945 179.000
29.02940 180.000
29.04935 170.000
29.06930 179.000
29.08924 180.000
29.10919 197.000
29.12914 169.000
29.14908 171.000
29.16903 170.000
29.18898 184.000
29.20892 190.000
29.22887 176.000
29.24882 175.000
29.26877 179.000
29.28871 183.000
29.30866 154.000
29.32861 152.000
29.34855 175.000
29.36850 173.000
29.38845 171.000
29.40839 159.000
29.42834 183.000
29.44829 158.000
29.46823 184.000
29.48818 208.000
29.50813 155.000
29.52808 165.000
29.54802 178.000
29.56797 196.000
29.58792 202.000
29.60786 224.000
29.62781 162.000
29.64776 160.000
29.66770 167.000
29.68765 194.000
29.70760 188.000
29.72755 155.000
29.74749 183.000
29.76744 189.000
29.78739 172.000
29.80733 167.000
29.82728 145.000
29.84723 179.000
29.86717 187.000
29.88712 189.000
29.90707 172.000
29.92701 196.000
29.94696 197.000
29.96691 175.000
29.98686 176.000
30.00680 192.000
30.02675 188.000
30.04670 171.000
30.06664 193.000
30.08659 176.000
30.10654 205.000
30.12648 199.000
30.14643 244.000
30.16638 226.000
30.18633 295.000
30.20627 391.000
30.22622 530.000
30.24617 643.000
30.26611 787.000
30.28606 784.000
30.30601 797.000
30.32595 859.000
30.34590 842.000
30.36585 774.000
30.38579 678.000
30.40574 580.000
30.42569 523.000
30.44564 455.000
30.46558 372.000
30.48553 318.000
30.50548 262.000
30.52542 257.000
30.54537 236.000
30.56532 216.000
30.58526 225.000
30.60521 200.000
30.62516 181.000
30.64511 197.000
30.66505 192.000
30.68500 198.000
30.70495 194.000
30.72489 167.000
30.74484 186.000
30.76479 171.000
30.78473 174.000
30.80468 193.000
30.82463 182.000
30.84458 186.000
30.86452 170.000
30.88447 202.000
30.90442 181.000
30.92436 175.000
30.94431 172.000
30.96426 181.000
30.98420 196.000
31.00415 193.000
31.02410 177.000
31.04404 192.000
31.06399 184.000
31.08394 178.000
31.10389 177.000
31.12383 181.000
31.14378 197.000
31.16373 194.000
31.18367 171.000
31.20362 182.000
31.22357 197.000
31.24351 195.000
31.26346 197.000
31.28341 186.000
31.30336 169.000
31.32330 195.000
31.34325 193.000
31.36320 184.000
31.38314 204.000
31.40309 201.000
31.42304 167.000
31.44298 182.000
31.46293 190.000
31.48288 194.000
31.50282 164.000
31.52277 191.000
31.54272 198.000
31.56267 172.000
31.58261 170.000
31.60256 209.000
31.62251 172.000
31.64245 200.000
31.66240 190.000
31.68235 200.000
31.70229 207.000
31.72224 194.000
31.74219 205.000
31.76214 215.000
31.78208 224.000
31.80203 247.000
31.82198 281.000
31.84192 317.000
31.86187 384.000
31.88182 486.000
31.90176 554.000
31.92171 621.000
31.94166 637.000
31.96160 681.000
31.98155 618.000
32.00150 582.000
32.02145 508.000
32.04139 424.000
32.06134 403.000
32.08129 324.000
32.10123 242.000
32.12118 227.000
32.14113 201.000
32.16107 217.000
32.18102 203.000
32.20097 195.000
32.22092 182.000
32.24086 197.000
32.26081 183.000
32.28076 187.000
32.30070 157.000
32.32065 196.000
32.34060 184.000
32.36054 167.000
32.38049 182.000
32.40044 167.000
32.42039 205.000
32.44033 183.000
32.46028 177.000
32.48023 200.000
32.50017 186.000
32.52012 153.000
32.54007 173.000
32.56001 166.000
32.57996 188.000
32.59991 192.000
32.61985 175.000
32.63980 169.000
32.65975 169.000
32.67970 186.000
32.69964 187.000
32.71959 153.000
32.73954 174.000
32.75948 168.000
32.77943 183.000
32.79938 168.000
32.81932 189.000
32.83927 162.000
32.85922 169.000
32.87917 165.000
32.89911 176.000
32.91906 155.000
32.93901 178.000
32.95895 162.000
32.97890 183.000
32.99885 193.000
33.01879 149.000
33.03874 174.000
33.05869 176.000
33.07863 188.000
33.09858 197.000
33.11853 187.000
33.13848 179.000
33.15842 163.000
33.17837 176.000
33.19832 181.000
33.21826 173.000
33.23821 169.000
33.25816 159.000
33.27810 180.000
33.29805 178.000
33.31800 182.000
33.33795 179.000
33.35789 167.000
33.37784 185.000
33.39779 177.000
33.41773 171.000
33.43768 164.000
33.45763 167.000
33.47757 171.000
33.49752 179.000
33.51747 145.000
33.53741 163.000
33.55736 163.000
33.57731 181.000
33.59726 187.000
33.61720 166.000
33.63715 152.000
33.65710 143.000
33.67704 179.000
33.69699 161.000
33.71694 163.000
33.73688 160.000
33.75683 169.000
33.77678 184.000
33.79673 168.000
33.81667 173.000
33.83662 148.000
33.85657 168.000
33.87651 182.000
33.89646 169.000
33.91641 172.000
33.93635 174.000
33.95630 177.000
33.97625 175.000
33.99620 173.000
34.01614 166.000
34.03609 158.000
34.05604 196.000
34.07598 162.000
34.09593 188.000
34.11588 183.000
34.13582 200.000
34.15577 167.000
34.17572 167.000
34.19566 175.000
34.21561 184.000
34.23556 175.000
34.25551 183.000
34.27545 189.000
34.29540 174.000
34.31535 153.000
34.33529 179.000
34.35524 156.000
34.37519 184.000
34.39513 170.000
34.41508 169.000
34.43503 160.000
34.45498 174.000
34.47492 158.000
34.49487 156.000
34.51482 183.000
34.53476 185.000
34.55471 190.000
34.57466 165.000
34.59460 195.000
34.61455 185.000
34.63450 207.000
34.65444 183.000
34.67439 176.000
34.69434 151.000
34.71429 191.000
34.73423 183.000
34.75418 202.000
34.77413 194.000
34.79407 206.000
34.81402 205.000
34.83397 193.000
34.85391 185.000
34.87386 207.000
34.89381 191.000
34.91376 205.000
34.93370 198.000
34.95365 207.000
34.97360 181.000
34.99354 192.000
35.01349 223.000
35.03344 227.000
35.05338 208.000
35.07333 182.000
35.09328 183.000
35.11322 188.000
35.13317 207.000
35.15312 174.000
35.17307 205.000
35.19301 202.000
35.21296 200.000
35.23291 213.000
35.25285 224.000
35.27280 216.000
35.29275 217.000
35.31269 209.000
35.33264 198.000
35.35259 220.000
35.37254 247.000
35.39248 230.000
35.41243 239.000
35.43238 250.000
35.45232 300.000
35.47227 334.000
35.49222 300.000
35.51216 354.000
35.53211 391.000
35.55206 468.000
35.57201 630.000
35.59195 974.000
35.61190 1383.000
35.63185 1746.000
35.65179 1874.000
35.67174 1945.000
35.69169 2102.000
35.71163 2203.000
35.73158 2141.000
35.75153 2052.000
35.77147 1966.000
35.79142 1767.000
35.81137 1625.000
35.83132 1493.000
35.85126 1578.000
35.87121 1574.000
35.89116 1525.000
35.91110 1279.000
35.93105 1035.000
35.95100 900.000
35.97094 896.000
35.99089 753.000
36.01084 632.000
36.03079 493.000
36.05073 389.000
36.07068 342.000
36.09063 309.000
36.11057 301.000
36.13052 291.000
36.15047 247.000
36.17041 263.000
36.19036 214.000
36.21031 230.000
36.23025 204.000
36.25020 221.000
36.27015 232.000
36.29010 230.000
36.31004 226.000
36.32999 209.000
36.34994 208.000
36.36988 224.000
36.38983 244.000
36.40978 228.000
36.42972 234.000
36.44967 207.000
36.46962 232.000
36.48957 180.000
36.50951 234.000
36.52946 185.000
36.54941 218.000
36.56935 183.000
36.58930 192.000
36.60925 209.000
36.62919 181.000
36.64914 204.000
36.66909 196.000
36.68903 243.000
36.70898 188.000
36.72893 237.000
36.74888 222.000
36.76882 246.000
36.78877 265.000
36.80872 233.000
36.82866 263.000
36.84861 252.000
36.86856 256.000
36.88850 240.000
36.90845 235.000
36.92840 269.000
36.94835 250.000
36.96829 246.000
36.98824 279.000
37.00819 320.000
37.02813 339.000
37.04808 437.000
37.06803 522.000
37.08797 709.000
37.10792 994.000
37.12787 1203.000
37.14781 1352.000
37.16776 1332.000
37.18771 1287.000
37.20766 1203.000
37.22760 1133.000
37.24755 1013.000
37.26750 913.000
37.28744 789.000
37.30739 651.000
37.32734 568.000
37.34728 466.000
37.36723 410.000
37.38718 410.000
37.40713 380.000
37.42707 336.000
37.44702 345.000
37.46697 298.000
37.48691 285.000
37.50686 251.000
37.52681 285.000
37.54675 250.000
37.56670 233.000
37.58665 218.000
37.60660 215.000
37.62654 218.000
37.64649 190.000
37.66644 195.000
37.68638 188.000
37.70633 185.000
37.72628 177.000
37.74622 187.000
37.76617 192.000
37.78612 180.000
37.80606 191.000
37.82601 182.000
37.84596 199.000
37.86591 189.000
37.88585 196.000
37.90580 185.000
37.92575 161.000
37.94569 176.000
37.96564 156.000
37.98559 196.000
38.00553 188.000
38.02548 175.000
38.04543 192.000
38.06538 173.000
38.08532 173.000
38.10527 175.000
38.12522 174.000
38.14516 168.000
38.16511 179.000
38.18506 178.000
38.20500 175.000
38.22495 165.000
38.24490 189.000
38.26484 181.000
38.28479 193.000
38.30474 210.000
38.32469 171.000
38.34463 175.000
38.36458 182.000
38.38453 205.000
38.40447 183.000
38.42442 193.000
38.44437 181.000
38.46431 212.000
38.48426 192.000
38.50421 201.000
38.52416 196.000
38.54410 180.000
38.56405 187.000
38.58400 204.000
38.60394 191.000
38.62389 193.000
38.64384 199.000
38.66378 234.000
38.68373 199.000
38.70368 196.000
38.72362 222.000
38.74357 207.000
38.76352 203.000
38.78347 229.000
38.80341 211.000
38.82336 216.000
38.84331 206.000
38.86325 208.000
38.88320 196.000
38.90315 193.000
38.92309 205.000
38.94304 225.000
38.96299 221.000
38.98294 201.000
39.00288 208.000
39.02283 210.000
39.04278 243.000
39.06272 229.000
39.08267 255.000
39.10262 229.000
39.12256 248.000
39.14251 204.000
39.16246 251.000
39.18241 237.000
39.20235 259.000
39.22230 271.000
39.24225 298.000
39.26219 324.000
39.28214 349.000
39.30209 379.000
39.32203 444.000
39.34198 467.000
39.36193 609.000
39.38187 829.000
39.40182 1128.000
39.42177 1309.000
39.44172 1395.000
39.46166 1357.000
39.48161 1187.000
39.50156 1104.000
39.52150 1117.000
39.54145 1019.000
39.56140 836.000
39.58134 702.000
39.60129 512.000
39.62124 453.000
39.64119 394.000
39.66113 336.000
39.68108 275.000
39.70103 264.000
39.72097 245.000
39.74092 236.000
39.76087 240.000
39.78081 224.000
39.80076 194.000
39.82071 192.000
39.84065 236.000
39.86060 189.000
39.88055 212.000
39.90050 200.000
39.92044 196.000
39.94039 192.000
39.96034 195.000
39.98028 196.000
40.00023 183.000
40.02018 169.000
40.04012 190.000
40.06007 197.000
40.08002 170.000
40.09997 215.000
40.11991 172.000
40.13986 193.000
40.15981 170.000
40.17975 182.000
40.19970 207.000
40.21965 166.000
40.23959 180.000
40.25954 173.000
40.27949 204.000
40.29943 180.000
40.31938 178.000
40.33933 174.000
40.35928 176.000
40.37922 194.000
40.39917 169.000
40.41912 175.000
40.43906 160.000
40.45901 151.000
40.47896 155.000
40.49890 157.000
40.51885 156.000
40.53880 165.000
40.55875 138.000
40.57869 170.000
40.59864 164.000
40.61859 159.000
40.63853 166.000
40.65848 164.000
40.67843 162.000
40.69837 174.000
40.71832 180.000
40.73827 151.000
40.75822 154.000
40.77816 161.000
40.79811 190.000
40.81806 170.000
40.83800 192.000
40.85795 167.000
40.87790 172.000
40.89784 163.000
40.91779 161.000
40.93774 198.000
40.95768 154.000
40.97763 173.000
40.99758 171.000
41.01753 185.000
41.03747 199.000
41.05742 155.000
41.07737 172.000
41.09731 158.000
41.11726 151.000
41.13721 146.000
41.15715 171.000
41.17710 172.000
41.19705 197.000
41.21700 156.000
41.23694 170.000
41.25689 184.000
41.27684 174.000
41.29678 162.000
41.31673 163.000
41.33668 196.000
41.35662 170.000
41.37657 169.000
41.39652 145.000
41.41646 160.000
41.43641 154.000
41.45636 178.000
41.47631 144.000
41.49625 164.000
41.51620 166.000
41.53615 160.000
41.55609 162.000
41.57604 169.000
41.59599 180.000
41.61593 178.000
41.63588 178.000
41.65583 167.000
41.67578 163.000
41.69572 180.000
41.71567 189.000
41.73562 185.000
41.75556 161.000
41.77551 189.000
41.79546 173.000
41.81540 159.000
41.83535 166.000
41.85530 184.000
41.87524 192.000
41.89519 182.000
41.91514 179.000
41.93509 165.000
41.95503 162.000
41.97498 164.000
41.99493 189.000
42.01487 173.000
42.03482 174.000
42.05477 178.000
42.07471 185.000
42.09466 151.000
42.11461 145.000
42.13456 176.000
42.15450 188.000
42.17445 157.000
42.19440 149.000
42.21434 167.000
42.23429 162.000
42.25424 178.000
42.27418 161.000
42.29413 176.000
42.31408 199.000
42.33403 170.000
42.35397 164.000
42.37392 175.000
42.39387 179.000
42.41381 175.000
42.43376 172.000
42.45371 178.000
42.47365 207.000
42.49360 179.000
42.51355 170.000
42.53349 168.000
42.55344 187.000
42.57339 178.000
42.59334 174.000
42.61328 199.000
42.63323 192.000
42.65318 222.000
42.67312 210.000
42.69307 185.000
42.71302 186.000
42.73296 227.000
42.75291 196.000
42.77286 230.000
42.79281 216.000
42.81275 240.000
42.83270 235.000
42.85265 244.000
42.87259 237.000
42.89254 291.000
42.91249 300.000
42.93243 279.000
42.95238 366.000
42.97233 379.000
42.99227 431.000
43.01222 518.000
43.03217 502.000
43.05212 629.000
43.07206 695.000
43.09201 871.000
43.11196 971.000
43.13190 1186.000
43.15185 1311.000
43.17180 1531.000
43.19174 1574.000
43.21169 1656.000
43.23164 1468.000
43.25159 1453.000
43.27153 1425.000
43.29148 1375.000
43.31143 1283.000
43.33137 1213.000
43.35132 1125.000
43.37127 1018.000
43.39121 907.000
43.41116 920.000
43.43111 853.000
43.45105 879.000
43.47100 915.000
43.49095 893.000
43.51090 878.000
43.53084 906.000
43.55079 852.000
43.57074 735.000
43.59068 696.000
43.61063 641.000
43.63058 588.000
43.65052 535.000
43.67047 499.000
43.69042 422.000
43.71037 355.000
43.73031 304.000
43.75026 311.000
43.77021 290.000
43.79015 278.000
43.81010 221.000
43.83005 263.000
43.84999 221.000
43.86994 211.000
43.88989 211.000
43.90984 227.000
43.92978 184.000
43.94973 183.000
43.96968 185.000
43.98962 183.000
44.00957 204.000
44.02952 175.000
44.04946 180.000
44.06941 181.000
44.08936 212.000
44.10930 207.000
44.12925 205.000
44.14920 182.000
44.16915 178.000
44.18909 195.000
44.20904 178.000
44.22899 166.000
44.24893 189.000
44.26888 179.000
44.28883 185.000
44.30877 160.000
44.32872 166.000
44.34867 185.000
44.36862 172.000
44.38856 168.000
44.40851 190.000
44.42846 179.000
44.44840 175.000
44.46835 174.000
44.48830 166.000
44.50824 171.000
44.52819 182.000
44.54814 165.000
44.56808 150.000
44.58803 184.000
44.60798 177.000
44.62793 177.000
44.64787 213.000
44.66782 169.000
44.68777 165.000
44.70771 164.000
44.72766 203.000
44.74761 183.000
44.76755 186.000
44.78750 159.000
44.80745 161.000
44.82740 162.000
44.84734 164.000
44.86729 178.000
44.88724 160.000
44.90718 174.000
44.92713 183.000
44.94708 193.000
44.96702 147.000
44.98697 173.000
45.00692 176.000
45.02686 169.000
45.04681 197.000
45.06676 153.000
45.08671 195.000
45.10665 184.000
45.12660 176.000
45.14655 181.000
45.16649 184.000
45.18644 175.000
45.20639 177.000
45.22633 167.000
45.24628 170.000
45.26623 187.000
45.28618 166.000
45.30612 151.000
45.32607 185.000
45.34602 190.000
45.36596 170.000
45.38591 194.000
45.40586 177.000
45.42580 163.000
45.44575 164.000
45.46570 150.000
45.48565 161.000
45.50559 184.000
45.52554 148.000
45.54549 183.000
45.56543 147.000
45.58538 159.000
45.60533 167.000
45.62527 147.000
45.64522 137.000
45.66517 172.000
45.68511 166.000
45.70506 173.000
45.72501 179.000
45.74496 159.000
45.76490 156.000
45.78485 168.000
45.80480 158.000
45.82474 164.000
45.84469 164.000
45.86464 167.000
45.88458 143.000
45.90453 166.000
45.92448 156.000
45.94443 193.000
45.96437 155.000
45.98432 177.000
46.00427 165.000
46.02421 160.000
46.04416 163.000
46.06411 174.000
46.08405 161.000
46.10400 152.000
46.12395 152.000
46.14389 172.000
46.16384 199.000
46.18379 191.000
46.20374 171.000
46.22368 186.000
46.24363 150.000
46.26358 181.000
46.28352 143.000
46.30347 162.000
46.32342 167.000
46.34336 162.000
46.36331 142.000
46.38326 186.000
46.40321 168.000
46.42315 161.000
46.44310 160.000
46.46305 165.000
46.48299 162.000
46.50294 160.000
46.52289 200.000
46.54283 175.000
46.56278 169.000
46.58273 138.000
46.60267 151.000
46.62262 192.000
46.64257 154.000
46.66252 163.000
46.68246 152.000
46.70241 158.000
46.72236 153.000
46.74230 169.000
46.76225 151.000
46.78220 165.000
46.80214 174.000
46.82209 143.000
46.84204 161.000
46.86199 153.000
46.88193 162.000
46.90188 168.000
46.92183 158.000
46.94177 150.000
46.96172 163.000
46.98167 162.000
47.00161 134.000
47.02156 140.000
47.04151 184.000
47.06146 174.000
47.08140 176.000
47.10135 151.000
47.12130 197.000
47.14124 150.000
47.16119 145.000
47.18114 167.000
47.20108 183.000
47.22103 141.000
47.24098 156.000
47.26092 161.000
47.28087 175.000
47.30082 200.000
47.32077 176.000
47.34071 166.000
47.36066 167.000
47.38061 154.000
47.40055 180.000
47.42050 187.000
47.44045 167.000
47.46039 180.000
47.48034 176.000
47.50029 149.000
47.52024 152.000
47.54018 176.000
47.56013 181.000
47.58008 176.000
47.60002 142.000
47.61997 172.000
47.63992 155.000
47.65986 168.000
47.67981 173.000
47.69976 156.000
47.71970 169.000
47.73965 182.000
47.75960 203.000
47.77955 183.000
47.79949 169.000
47.81944 174.000
47.83939 160.000
47.85933 189.000
47.87928 183.000
47.89923 166.000
47.91917 168.000
47.93912 187.000
47.95907 163.000
47.97902 181.000
47.99896 158.000
48.01891 164.000
48.03886 172.000
48.05880 172.000
48.07875 174.000
48.09870 175.000
48.11864 205.000
48.13859 178.000
48.15854 206.000
48.17848 192.000
48.19843 185.000
48.21838 189.000
48.23833 189.000
48.25827 183.000
48.27822 169.000
48.29817 207.000
48.31811 188.000
48.33806 195.000
48.35801 196.000
48.37795 182.000
48.39790 245.000
48.41785 221.000
48.43780 217.000
48.45774 215.000
48.47769 244.000
48.49764 259.000
48.51758 239.000
48.53753 275.000
48.55748 291.000
48.57742 301.000
48.59737 289.000
48.61732 344.000
48.63726 376.000
48.65721 380.000
48.67716 483.000
48.69711 540.000
48.71705 613.000
48.73700 776.000
48.75695 882.000
48.77689 1003.000
48.79684 1076.000
48.81679 1065.000
48.83673 1082.000
48.85668 937.000
48.87663 914.000
48.89658 854.000
48.91652 810.000
48.93647 717.000
48.95642 698.000
48.97636 574.000
48.99631 488.000
49.01626 401.000
49.03620 387.000
49.05615 334.000
49.07610 343.000
49.09605 278.000
49.11599 264.000
49.13594 260.000
49.15589 218.000
49.17583 214.000
49.19578 240.000
49.21573 227.000
49.23567 202.000
49.25562 203.000
49.27557 205.000
49.29551 223.000
49.31546 220.000
49.33541 197.000
49.35536 196.000
49.37530 172.000
49.39525 196.000
49.41520 179.000
49.43514 168.000
49.45509 183.000
49.47504 185.000
49.49498 186.000
49.51493 208.000
49.53488 191.000
49.55483 205.000
49.57477 191.000
49.59472 179.000
49.61467 170.000
49.63461 181.000
49.65456 179.000
49.67451 194.000
49.69445 159.000
49.71440 203.000
49.73435 184.000
49.75429 169.000
49.77424 208.000
49.79419 175.000
49.81414 173.000
49.83408 176.000
49.85403 173.000
49.87398 166.000
49.89392 155.000
49.91387 175.000
49.93382 188.000
49.95376 164.000
49.97371 153.000
49.99366 174.000
50.01361 182.000
50.03355 181.000
50.05350 161.000
50.07345 183.000
50.09339 168.000
50.11334 173.000
50.13329 154.000
50.15323 176.000
50.17318 178.000
50.19313 177.000
50.21307 151.000
50.23302 175.000
50.25297 161.000
50.27292 176.000
50.29286 160.000
50.31281 183.000
50.33276 168.000
50.35270 159.000
50.37265 131.000
50.39260 169.000
50.41254 153.000
50.43249 155.000
50.45244 152.000
50.47239 164.000
50.49233 178.000
50.51228 173.000
50.53223 158.000
50.55217 149.000
50.57212 177.000
50.59207 157.000
50.61201 158.000
50.63196 129.000
50.65191 169.000
50.67186 165.000
50.69180 160.000
50.71175 159.000
50.73170 163.000
50.75164 145.000
50.77159 156.000
50.79154 176.000
50.81148 175.000
50.83143 160.000
50.85138 155.000
50.87132 162.000
50.89127 179.000
50.91122 162.000
50.93117 164.000
50.95111 191.000
50.97106 170.000
50.99101 165.000
51.01095 168.000
51.03090 162.000
51.05085 177.000
51.07079 160.000
51.09074 139.000
51.11069 185.000
51.13064 145.000
51.15058 167.000
51.17053 150.000
51.19048 144.000
51.21042 160.000
51.23037 137.000
51.25032 171.000
51.27026 171.000
51.29021 173.000
51.31016 145.000
51.33010 148.000
51.35005 175.000
51.37000 185.000
51.38995 151.000
51.40989 164.000
51.42984 155.000
51.44979 177.000
51.46973 148.000
51.48968 172.000
51.50963 156.000
51.52957 150.000
51.54952 173.000
51.56947 154.000
51.58942 183.000
51.60936 161.000
51.62931 161.000
51.64926 152.000
51.66920 131.000
51.68915 177.000
51.70910 160.000
51.72904 153.000
51.74899 159.000
51.76894 169.000
51.78888 171.000
51.80883 159.000
51.82878 138.000
51.84873 151.000
51.86867 167.000
51.88862 164.000
51.90857 150.000
51.92851 165.000
51.94846 152.000
51.96841 174.000
51.98835 153.000
52.00830 140.000
52.02825 145.000
52.04820 142.000
52.06814 153.000
52.08809 170.000
52.10804 175.000
52.12798 148.000
52.14793 137.000
52.16788 149.000
52.18782 153.000
52.20777 166.000
52.22772 165.000
52.24767 174.000
52.26761 162.000
52.28756 159.000
52.30751 145.000
52.32745 173.000
52.34740 162.000
52.36735 176.000
52.38729 154.000
52.40724 183.000
52.42719 161.000
52.44713 116.000
52.46708 175.000
52.48703 163.000
52.50698 165.000
52.52692 158.000
52.54687 166.000
52.56682 151.000
52.58676 148.000
52.60671 148.000
52.62666 158.000
52.64660 183.000
52.66655 175.000
52.68650 184.000
52.70645 148.000
52.72639 195.000
52.74634 161.000
52.76629 145.000
52.78623 179.000
52.80618 162.000
52.82613 164.000
52.84607 176.000
52.86602 121.000
52.88597 142.000
52.90591 173.000
52.92586 180.000
52.94581 139.000
52.96576 149.000
52.98570 157.000
53.00565 149.000
53.02560 144.000
53.04554 162.000
53.06549 161.000
53.08544 167.000
53.10538 146.000
53.12533 177.000
53.14528 171.000
53.16523 169.000
53.18517 159.000
53.20512 148.000
53.22507 137.000
53.24501 154.000
53.26496 168.000
53.28491 171.000
53.30485 175.000
53.32480 187.000
53.34475 174.000
53.36469 158.000
53.38464 161.000
53.40459 151.000
53.42454 172.000
53.44448 164.000
53.46443 174.000
53.48438 180.000
53.50432 171.000
53.52427 170.000
53.54422 159.000
53.56416 177.000
53.58411 155.000
53.60406 176.000
53.62401 173.000
53.64395 170.000
53.66390 192.000
53.68385 215.000
53.70379 237.000
53.72374 215.000
53.74369 241.000
53.76363 239.000
53.78358 270.000
53.80353 247.000
53.82348 271.000
53.84342 277.000
53.86337 250.000
53.88332 245.000
53.90326 295.000
53.92321 273.000
53.94316 296.000
53.96310 254.000
53.98305 243.000
54.00300 259.000
54.02294 252.000
54.04289 209.000
54.06284 216.000
54.08279 228.000
54.10273 196.000
54.12268 193.000
54.14263 199.000
54.16257 200.000
54.18252 186.000
54.20247 198.000
54.22241 181.000
54.24236 172.000
54.26231 192.000
54.28226 179.000
54.30220 156.000
54.32215 170.000
54.34210 149.000
54.36204 172.000
54.38199 151.000
54.40194 166.000
54.42188 165.000
54.44183 174.000
54.46178 177.000
54.48172 177.000
54.50167 170.000
54.52162 149.000
54.54157 146.000
54.56151 172.000
54.58146 166.000
54.60141 171.000
54.62135 142.000
54.64130 167.000
54.66125 173.000
54.68119 157.000
54.70114 131.000
54.72109 155.000
54.74104 160.000
54.76098 169.000
54.78093 172.000
54.80088 161.000
54.82082 167.000
54.84077 162.000
54.86072 156.000
54.88066 171.000
54.90061 170.000
54.92056 177.000
54.94050 149.000
54.96045 152.000
54.98040 166.000
55.00035 164.000
55.02029 172.000
55.04024 154.000
55.06019 175.000
55.08013 166.000
55.10008 174.000
55.12003 143.000
55.13997 138.000
55.15992 159.000
55.17987 134.000
55.19982 155.000
55.21976 161.000
55.23971 199.000
55.25966 158.000
55.27960 153.000
55.29955 158.000
55.31950 162.000
55.33944 169.000
55.35939 158.000
55.37934 160.000
55.39929 164.000
55.41923 181.000
55.43918 143.000
55.45913 155.000
55.47907 163.000
55.49902 167.000
55.51897 155.000
55.53891 156.000
55.55886 172.000
55.57881 171.000
55.59875 174.000
55.61870 159.000
55.63865 162.000
55.65860 165.000
55.67854 186.000
55.69849 144.000
55.71844 163.000
55.73838 159.000
55.75833 162.000
55.77828 163.000
55.79822 157.000
55.81817 158.000
55.83812 164.000
55.85807 170.000
55.87801 149.000
55.89796 147.000
55.91791 165.000
55.93785 165.000
55.95780 171.000
55.97775 184.000
55.99769 161.000
56.01764 152.000
56.03759 144.000
56.05753 161.000
56.07748 153.000
56.09743 147.000
56.11738 159.000
56.13732 154.000
56.15727 180.000
56.17722 171.000
56.19716 157.000
56.21711 151.000
56.23706 170.000
56.25700 156.000
56.27695 160.000
56.29690 172.000
56.31685 138.000
56.33679 134.000
56.35674 161.000
56.37669 179.000
56.39663 195.000
56.41658 145.000
56.43653 141.000
56.45647 164.000
56.47642 160.000
56.49637 155.000
56.51631 159.000
56.53626 161.000
56.55621 185.000
56.57616 172.000
56.59610 164.000
56.61605 179.000
56.63600 179.000
56.65594 160.000
56.67589 174.000
56.69584 179.000
56.71578 166.000
56.73573 139.000
56.75568 173.000
56.77563 182.000
56.79557 162.000
56.81552 161.000
56.83547 178.000
56.85541 172.000
56.87536 188.000
56.89531 176.000
56.91525 193.000
56.93520 177.000
56.95515 184.000
56.97510 169.000
56.99504 173.000
57.01499 177.000
57.03494 163.000
57.05488 193.000
57.07483 165.000
57.09478 178.000
57.11472 216.000
57.13467 207.000
57.15462 240.000
57.17456 198.000
57.19451 248.000
57.21446 262.000
57.23441 304.000
57.25435 373.000
57.27430 492.000
57.29425 465.000
57.31419 486.000
57.33414 482.000
57.35409 493.000
57.37403 480.000
57.39398 498.000
57.41393 574.000
57.43388 555.000
57.45382 592.000
57.47377 564.000
57.49372 545.000
57.51366 490.000
57.53361 508.000
57.55356 507.000
57.57350 436.000
57.59345 417.000
57.61340 394.000
57.63334 392.000
57.65329 344.000
57.67324 330.000
57.69319 300.000
57.71313 296.000
57.73308 274.000
57.75303 257.000
57.77297 235.000
57.79292 249.000
57.81287 217.000
57.83281 211.000
57.85276 194.000
57.87271 192.000
57.89266 183.000
57.91260 199.000
57.93255 171.000
57.95250 204.000
57.97244 181.000
57.99239 180.000
58.01234 153.000
58.03228 181.000
58.05223 163.000
58.07218 153.000
58.09212 170.000
58.11207 167.000
58.13202 173.000
58.15197 134.000
58.17191 154.000
58.19186 172.000
58.21181 177.000
58.23175 160.000
58.25170 185.000
58.27165 160.000
58.29159 172.000
58.31154 186.000
58.33149 162.000
58.35144 167.000
58.37138 135.000
58.39133 174.000
58.41128 174.000
58.43122 150.000
58.45117 169.000
58.47112 164.000
58.49106 158.000
58.51101 168.000
58.53096 180.000
58.55090 151.000
58.57085 166.000
58.59080 180.000
58.61075 162.000
58.63069 148.000
58.65064 165.000
58.67059 167.000
58.69053 143.000
58.71048 144.000
58.73043 169.000
58.75037 164.000
58.77032 169.000
58.79027 161.000
58.81022 175.000
58.83016 160.000
58.85011 158.000
58.87006 173.000
58.89000 158.000
58.90995 160.000
58.92990 194.000
58.94984 167.000
58.96979 144.000
58.98974 151.000
59.00969 158.000
59.02963 148.000
59.04958 170.000
59.06953 157.000
59.08947 168.000
59.10942 163.000
59.12937 160.000
59.14931 137.000
59.16926 173.000
59.18921 164.000
59.20915 166.000
59.22910 180.000
59.24905 164.000
59.26900 166.000
59.28894 144.000
59.30889 187.000
59.32884 170.000
59.34878 162.000
59.36873 178.000
59.38868 161.000
59.40862 168.000
59.42857 183.000
59.44852 145.000
59.46847 139.000
59.48841 157.000
59.50836 164.000
59.52831 171.000
59.54825 163.000
59.56820 173.000
59.58815 156.000
59.60809 140.000
59.62804 167.000
59.64799 151.000
59.66793 170.000
59.68788 141.000
59.70783 154.000
59.72778 170.000
59.74772 174.000
59.76767 164.000
59.78762 158.000
59.80756 181.000
59.82751 168.000
59.84746 173.000
59.86740 169.000
59.88735 154.000
59.90730 158.000
59.92725 178.000
59.94719 170.000
59.96714 142.000
59.98709 175.000
60.00703 162.000
60.02698 147.000
60.04693 178.000
60.06687 175.000
60.08682 158.000
60.10677 150.000
60.12671 157.000
60.14666 165.000
60.16661 189.000
60.18656 196.000
60.20650 166.000
60.22645 165.000
60.24640 149.000
60.26634 179.000
60.28629 175.000
60.30624 173.000
60.32618 158.000
60.34613 188.000
60.36608 173.000
60.38603 172.000
60.40597 133.000
60.42592 165.000
60.44587 178.000
60.46581 166.000
60.48576 171.000
60.50571 158.000
60.52565 170.000
60.54560 160.000
60.56555 178.000
60.58550 162.000
60.60544 143.000
60.62539 159.000
60.64534 174.000
60.66528 179.000
60.68523 172.000
60.70518 181.000
60.72512 173.000
60.74507 180.000
60.76502 181.000
60.78496 164.000
60.80491 187.000
60.82486 180.000
60.84481 186.000
60.86475 162.000
60.88470 182.000
60.90465 156.000
60.92459 143.000
60.94454 166.000
60.96449 166.000
60.98443 179.000
61.00438 160.000
61.02433 159.000
61.04428 147.000
61.06422 178.000
61.08417 164.000
61.10412 180.000
61.12406 181.000
61.14401 153.000
61.16396 165.000
61.18390 163.000
61.20385 157.000
61.22380 152.000
61.24374 183.000
61.26369 173.000
61.28364 175.000
61.30359 163.000
61.32353 199.000
61.34348 184.000
61.36343 191.000
61.38337 177.000
61.40332 199.000
61.42327 188.000
61.44321 182.000
61.46316 171.000
61.48311 216.000
61.50306 170.000
61.52300 187.000
61.54295 184.000
61.56290 193.000
61.58284 187.000
61.60279 204.000
61.62274 192.000
61.64268 203.000
61.66263 200.000
61.68258 221.000
61.70252 207.000
61.72247 228.000
61.74242 225.000
61.76237 233.000
61.78231 226.000
61.80226 253.000
61.82221 244.000
61.84215 303.000
61.86210 324.000
61.88205 314.000
61.90199 339.000
61.92194 369.000
61.94189 375.000
61.96184 410.000
61.98178 433.000
62.00173 476.000
62.02168 490.000
62.04162 465.000
62.06157 464.000
62.08152 503.000
62.10146 445.000
62.12141 421.000
62.14136 402.000
62.16131 386.000
62.18125 360.000
62.20120 359.000
62.22115 332.000
62.24109 344.000
62.26104 282.000
62.28099 290.000
62.30093 306.000
62.32088 230.000
62.34083 260.000
62.36077 267.000
62.38072 260.000
62.40067 244.000
62.42062 290.000
62.44056 285.000
62.46051 280.000
62.48046 274.000
62.50040 301.000
62.52035 299.000
62.54030 309.000
62.56024 397.000
62.58019 420.000
62.60014 472.000
62.62009 530.000
62.64003 601.000
62.65998 602.000
62.67993 651.000
62.69987 712.000
62.71982 720.000
62.73977 741.000
62.75971 755.000
62.77966 742.000
62.79961 735.000
62.81955 708.000
62.83950 701.000
62.85945 714.000
62.87940 729.000
62.89934 848.000
62.91929 810.000
62.93924 795.000
62.95918 789.000
62.97913 726.000
62.99908 735.000
63.01902 720.000
63.03897 650.000
63.05892 676.000
63.07887 646.000
63.09881 688.000
63.11876 599.000
63.13871 615.000
63.15865 618.000
63.17860 612.000
63.19855 593.000
63.21849 580.000
63.23844 527.000
63.25839 500.000
63.27833 470.000
63.29828 446.000
63.31823 404.000
63.33818 390.000
63.35812 380.000
63.37807 346.000
63.39802 319.000
63.41796 300.000
63.43791 284.000
63.45786 276.000
63.47780 272.000
63.49775 264.000
63.51770 244.000
63.53765 244.000
63.55759 230.000
63.57754 211.000
63.59749 195.000
63.61743 213.000
63.63738 197.000
63.65733 201.000
63.67727 176.000
63.69722 182.000
63.71717 186.000
63.73712 180.000
63.75706 203.000
63.77701 180.000
63.79696 179.000
63.81690 170.000
63.83685 180.000
63.85680 175.000
63.87674 196.000
63.89669 168.000
63.91664 192.000
63.93658 214.000
63.95653 173.000
63.97648 206.000
63.99643 209.000
64.01637 164.000
64.03632 177.000
64.05627 187.000
64.07621 179.000
64.09616 174.000
64.11611 167.000
64.13605 160.000
64.15600 200.000
64.17595 195.000
64.19590 201.000
64.21584 181.000
64.23579 216.000
64.25574 181.000
64.27568 223.000
64.29563 212.000
64.31558 227.000
64.33552 211.000
64.35547 218.000
64.37542 286.000
64.39536 258.000
64.41531 300.000
64.43526 343.000
64.45521 404.000
64.47515 439.000
64.49510 491.000
64.51505 532.000
64.53499 522.000
64.55494 445.000
64.57489 406.000
64.59483 369.000
64.61478 352.000
64.63473 340.000
64.65468 347.000
64.67462 392.000
64.69457 362.000
64.71452 373.000
64.73446 330.000
64.75441 278.000
64.77436 259.000
64.79430 268.000
64.81425 216.000
64.83420 224.000
64.85414 224.000
64.87409 199.000
64.89404 207.000
64.91399 171.000
64.93393 200.000
64.95388 165.000
64.97383 165.000
64.99377 187.000
65.01372 164.000
65.03367 195.000
65.05361 166.000
65.07356 172.000
65.09351 182.000
65.11346 163.000
65.13340 162.000
65.15335 181.000
65.17330 178.000
65.19324 185.000
65.21319 171.000
65.23314 162.000
65.25308 165.000
65.27303 168.000
65.29298 174.000
65.31293 174.000
65.33287 189.000
65.35282 156.000
65.37277 157.000
65.39271 171.000
65.41266 162.000
65.43261 172.000
65.45255 171.000
65.47250 165.000
65.49245 143.000
65.51239 157.000
65.53234 179.000
65.55229 179.000
65.57224 180.000
65.59218 192.000
65.61213 159.000
65.63208 157.000
65.65202 196.000
65.67197 156.000
65.69192 169.000
65.71186 192.000
65.73181 152.000
65.75176 161.000
65.77171 179.000
65.79165 189.000
65.81160 164.000
65.83155 154.000
65.85149 168.000
65.87144 159.000
65.89139 166.000
65.91133 180.000
65.93128 173.000
65.95123 171.000
65.97117 168.000
65.99112 186.000
66.01107 163.000
66.03102 164.000
66.05096 193.000
66.07091 167.000
66.09086 180.000
66.11080 167.000
66.13075 172.000
66.15070 197.000
66.17064 166.000
66.19059 201.000
66.21054 178.000
66.23049 206.000
66.25043 198.000
66.27038 210.000
66.29033 203.000
66.31027 163.000
66.33022 196.000
66.35017 180.000
66.37011 186.000
66.39006 186.000
66.41001 185.000
66.42995 200.000
66.44990 181.000
66.46985 204.000
66.48980 211.000
66.50974 203.000
66.52969 202.000
66.54964 194.000
66.56958 229.000
66.58953 222.000
66.60948 189.000
66.62942 198.000
66.64937 216.000
66.66932 215.000
66.68927 252.000
66.70921 208.000
66.72916 250.000
66.74911 254.000
66.76905 273.000
66.78900 327.000
66.80895 333.000
66.82889 322.000
66.84884 391.000
66.86879 366.000
66.88874 409.000
66.90868 390.000
66.92863 415.000
66.94858 351.000
66.96852 355.000
66.98847 323.000
67.00842 310.000
67.02836 299.000
67.04831 337.000
67.06826 343.000
67.08820 282.000
67.10815 283.000
67.12810 282.000
67.14805 256.000
67.16799 278.000
67.18794 235.000
67.20789 210.000
67.22783 218.000
67.24778 190.000
67.26773 193.000
67.28767 198.000
67.30762 187.000
67.32757 153.000
67.34752 182.000
67.36746 193.000
67.38741 167.000
67.40736 154.000
67.42730 189.000
67.44725 176.000
67.46720 150.000
67.48714 182.000
67.50709 164.000
67.52704 193.000
67.54698 186.000
67.56693 150.000
67.58688 169.000
67.60683 148.000
67.62677 167.000
67.64672 174.000
67.66667 158.000
67.68661 182.000
67.70656 153.000
67.72651 148.000
67.74645 175.000
67.76640 144.000
67.78635 161.000
67.80630 131.000
67.82624 182.000
67.84619 181.000
67.86614 159.000
67.88608 169.000
67.90603 168.000
67.92598 169.000
67.94592 192.000
67.96587 174.000
67.98582 139.000
68.00576 140.000
68.02571 176.000
68.04566 169.000
68.06561 151.000
68.08555 166.000
68.10550 189.000
68.12545 182.000
68.14539 159.000
68.16534 178.000
68.18529 152.000
68.20523 134.000
68.22518 160.000
68.24513 167.000
68.26508 183.000
68.28502 167.000
68.30497 159.000
68.32492 147.000
68.34486 180.000
68.36481 145.000
68.38476 156.000
68.40470 167.000
68.42465 168.000
68.44460 165.000
68.46455 151.000
68.48449 160.000
68.50444 163.000
68.52439 149.000
68.54433 185.000
68.56428 141.000
68.58423 159.000
68.60417 154.000
68.62412 157.000
68.64407 189.000
68.66401 164.000
68.68396 147.000
68.70391 165.000
68.72386 173.000
68.74380 158.000
68.76375 154.000
68.78370 156.000
68.80364 177.000
68.82359 163.000
68.84354 169.000
68.86348 167.000
68.88343 181.000
68.90338 156.000
68.92333 147.000
68.94327 144.000
68.96322 165.000
68.98317 149.000
69.00311 153.000
69.02306 169.000
69.04301 146.000
69.06295 161.000
69.08290 174.000
69.10285 173.000
69.12279 173.000
69.14274 200.000
69.16269 145.000
69.18264 175.000
69.20258 158.000
69.22253 168.000
69.24248 144.000
69.26242 149.000
69.28237 141.000
69.30232 152.000
69.32226 158.000
69.34221 133.000
69.36216 140.000
69.38211 154.000
69.40205 159.000
69.42200 163.000
69.44195 147.000
69.46189 156.000
69.48184 154.000
69.50179 146.000
69.52173 164.000
69.54168 170.000
69.56163 170.000
69.58157 174.000
69.60152 144.000
69.62147 130.000
69.64142 175.000
69.66136 153.000
69.68131 152.000
69.70126 166.000
69.72120 172.000
69.74115 173.000
69.76110 177.000
69.78104 178.000
69.80099 158.000
69.82094 166.000
69.84089 168.000
69.86083 155.000
69.88078 172.000
69.90073 151.000
69.92067 169.000
69.94062 167.000
69.96057 159.000
69.98051 133.000
70.00046 160.000
70.02041 148.000
70.04035 152.000
70.06030 165.000
70.08025 160.000
70.10020 160.000
70.12014 149.000
70.14009 154.000
70.16004 154.000
70.17998 147.000
70.19993 171.000
70.21988 156.000
70.23982 172.000
70.25977 144.000
70.27972 166.000
70.29967 160.000
70.31961 182.000
70.33956 157.000
70.35951 142.000
70.37945 175.000
70.39940 158.000
70.41935 145.000
70.43929 177.000
70.45924 157.000
70.47919 163.000
70.49914 154.000
70.51908 148.000
70.53903 164.000
70.55898 140.000
70.57892 152.000
70.59887 152.000
70.61882 142.000
70.63876 177.000
70.65871 156.000
70.67866 149.000
70.69860 144.000
70.71855 144.000
70.73850 163.000
70.75845 138.000
70.77839 143.000
70.79834 138.000
70.81829 153.000
70.83823 157.000
70.85818 129.000
70.87813 162.000
70.89807 156.000
70.91802 169.000
70.93797 158.000
70.95792 158.000
70.97786 161.000
70.99781 165.000
71.01776 142.000
71.03770 166.000
71.05765 170.000
71.07760 147.000
71.09754 170.000
71.11749 173.000
71.13744 162.000
71.15738 164.000
71.17733 165.000
71.19728 149.000
71.21723 184.000
71.23717 171.000
71.25712 186.000
71.27707 161.000
71.29701 183.000
71.31696 182.000
71.33691 164.000
71.35685 148.000
71.37680 171.000
71.39675 212.000
71.41670 171.000
71.43664 156.000
71.45659 166.000
71.47654 167.000
71.49648 172.000
71.51643 192.000
71.53638 183.000
71.55632 203.000
71.57627 208.000
71.59622 194.000
71.61616 186.000
71.63611 197.000
71.65606 166.000
71.67601 192.000
71.69595 186.000
71.71590 182.000
71.73585 163.000
71.75579 162.000
71.77574 198.000
71.79569 181.000
71.81563 157.000
71.83558 193.000
71.85553 157.000
71.87548 187.000
71.89542 158.000
71.91537 151.000
71.93532 167.000
71.95526 180.000
71.97521 163.000
71.99516 156.000
72.01510 162.000
72.03505 159.000
72.05500 161.000
72.07495 162.000
72.09489 187.000
72.11484 160.000
72.13479 143.000
72.15473 139.000
72.17468 153.000
72.19463 164.000
72.21457 155.000
72.23452 168.000
72.25447 155.000
72.27441 167.000
72.29436 183.000
72.31431 163.000
72.33426 169.000
72.35420 144.000
72.37415 148.000
72.39410 169.000
72.41404 157.000
72.43399 144.000
72.45394 135.000
72.47388 152.000
72.49383 175.000
72.51378 185.000
72.53373 147.000
72.55367 159.000
72.57362 161.000
72.59357 164.000
72.61351 156.000
72.63346 169.000
72.65341 143.000
72.67335 140.000
72.69330 164.000
72.71325 168.000
72.73319 161.000
72.75314 146.000
72.77309 161.000
72.79304 160.000
72.81298 170.000
72.83293 168.000
72.85288 151.000
72.87282 154.000
72.89277 171.000
72.91272 133.000
72.93266 153.000
72.95261 159.000
72.97256 146.000
72.99251 143.000
73.01245 136.000
73.03240 128.000
73.05235 162.000
73.07229 169.000
73.09224 162.000
73.11219 125.000
73.13213 153.000
73.15208 176.000
73.17203 168.000
73.19197 154.000
73.21192 130.000
73.23187 162.000
73.25182 180.000
73.27176 169.000
73.29171 161.000
73.31166 162.000
73.33160 167.000
73.35155 153.000
73.37150 157.000
73.39144 162.000
73.41139 159.000
73.43134 147.000
73.45129 145.000
73.47123 144.000
73.49118 179.000
73.51113 182.000
73.53107 137.000
73.55102 174.000
73.57097 191.000
73.59091 175.000
73.61086 166.000
73.63081 157.000
73.65076 169.000
73.67070 170.000
73.69065 210.000
73.71060 224.000
73.73054 216.000
73.75049 254.000
73.77044 235.000
73.79038 235.000
73.81033 251.000
73.83028 261.000
73.85022 252.000
73.87017 237.000
73.89012 217.000
73.91007 229.000
73.93001 192.000
73.94996 230.000
73.96991 213.000
73.98985 208.000
74.00980 203.000
74.02975 218.000
74.04969 224.000
74.06964 213.000
74.08959 194.000
74.10954 216.000
74.12948 203.000
74.14943 200.000
74.16938 190.000
74.18932 178.000
74.20927 177.000
74.22922 159.000
74.24916 183.000
74.26911 166.000
74.28906 190.000
74.30900 174.000
74.32895 176.000
74.34890 177.000
74.36885 149.000
74.38879 188.000
74.40874 192.000
74.42869 209.000
74.44863 222.000
74.46858 230.000
74.48853 204.000
74.50847 215.000
74.52842 249.000
74.54837 221.000
74.56832 241.000
74.58826 238.000
74.60821 221.000
74.62816 250.000
74.64810 247.000
74.66805 216.000
74.68800 265.000
74.70794 248.000
74.72789 254.000
74.74784 248.000
74.76778 241.000
74.78773 247.000
74.80768 267.000
74.82763 223.000
74.84757 219.000
74.86752 230.000
74.88747 276.000
74.90741 243.000
74.92736 219.000
74.94731 228.000
74.96725 227.000
74.98720 228.000
75.00715 268.000
75.02710 263.000
75.04704 282.000
75.06699 240.000
75.08694 270.000
75.10688 260.000
75.12683 289.000
75.14678 294.000
75.16672 329.000
75.18667 304.000
75.20662 318.000
75.22657 361.000
75.24651 346.000
75.26646 317.000
75.28641 304.000
75.30635 321.000
75.32630 321.000
75.34625 316.000
75.36619 307.000
75.38614 290.000
75.40609 302.000
75.42603 308.000
75.44598 280.000
75.46593 304.000
75.48588 268.000
75.50582 285.000
75.52577 274.000
75.54572 269.000
75.56566 252.000
75.58561 211.000
75.60556 203.000
75.62550 224.000
75.64545 228.000
75.66540 226.000
75.68535 219.000
75.70529 225.000
75.72524 217.000
75.74519 217.000
75.76513 221.000
75.78508 238.000
75.80503 209.000
75.82497 192.000
75.84492 190.000
75.86487 191.000
75.88481 189.000
75.90476 203.000
75.92471 187.000
75.94466 195.000
75.96460 191.000
75.98455 182.000
76.00450 191.000
76.02444 191.000
76.04439 223.000
76.06434 206.000
76.08428 192.000
76.10423 182.000
76.12418 185.000
76.14413 187.000
76.16407 197.000
76.18402 196.000
76.20397 184.000
76.22391 184.000
76.24386 183.000
76.26381 190.000
76.28375 194.000
76.30370 196.000
76.32365 180.000
76.34359 183.000
76.36354 176.000
76.38349 189.000
76.40344 169.000
76.42338 174.000
76.44333 192.000
76.46328 171.000
76.48322 170.000
76.50317 156.000
76.52312 160.000
76.54306 191.000
76.56301 154.000
76.58296 158.000
76.60291 151.000
76.62285 156.000
76.64280 172.000
76.66275 156.000
76.68269 155.000
76.70264 193.000
76.72259 177.000
76.74253 176.000
76.76248 157.000
76.78243 151.000
76.80238 170.000
76.82232 157.000
76.84227 172.000
76.86222 147.000
76.88216 164.000
76.90211 156.000
76.92206 160.000
76.94200 178.000
76.96195 141.000
76.98190 158.000
77.00184 151.000
77.02179 155.000
77.04174 159.000
77.06169 168.000
77.08163 181.000
77.10158 151.000
77.12153 158.000
77.14147 143.000
77.16142 157.000
77.18137 149.000
77.20131 135.000
77.22126 149.000
77.24121 173.000
77.26116 160.000
77.28110 148.000
77.30105 153.000
77.32100 138.000
77.34094 173.000
77.36089 175.000
77.38084 186.000
77.40078 136.000
77.42073 185.000
77.44068 157.000
77.46062 183.000
77.48057 155.000
77.50052 183.000
77.52047 166.000
77.54041 150.000
77.56036 168.000
77.58031 175.000
77.60025 170.000
77.62020 147.000
77.64015 150.000
77.66009 153.000
77.68004 163.000
77.69999 192.000
77.71994 190.000
77.73988 181.000
77.75983 152.000
77.77978 175.000
77.79972 175.000
77.81967 167.000
77.83962 171.000
77.85956 177.000
77.87951 172.000
77.89946 179.000
77.91940 180.000
77.93935 183.000
77.95930 218.000
77.97925 179.000
77.99919 204.000
78.01914 189.000
78.03909 217.000
78.05903 232.000
78.07898 226.000
78.09893 246.000
78.11887 235.000
78.13882 218.000
78.15877 248.000
78.17872 217.000
78.19866 241.000
78.21861 258.000
78.23856 266.000
78.25850 284.000
78.27845 315.000
78.29840 321.000
78.31834 311.000
78.33829 307.000
78.35824 271.000
78.37819 299.000
78.39813 250.000
78.41808 236.000
78.43803 248.000
78.45797 268.000
78.47792 260.000
78.49787 251.000
78.51781 257.000
78.53776 215.000
78.55771 242.000
78.57765 251.000
78.59760 226.000
78.61755 236.000
78.63750 213.000
78.65744 228.000
78.67739 209.000
78.69734 209.000
78.71728 201.000
78.73723 188.000
78.75718 172.000
78.77712 176.000
78.79707 207.000
78.81702 202.000
78.83697 193.000
78.85691 192.000
78.87686 176.000
78.89681 195.000
78.91675 193.000
78.93670 195.000
78.95665 194.000
78.97659 189.000
78.99654 211.000
79.01649 201.000
79.03643 195.000
79.05638 218.000
79.07633 245.000
79.09628 243.000
79.11622 242.000
79.13617 284.000
79.15612 262.000
79.17606 264.000
79.19601 298.000
79.21596 261.000
79.23590 286.000
79.25585 273.000
79.27580 259.000
79.29575 240.000
79.31569 261.000
79.33564 266.000
79.35559 266.000
79.37553 264.000
79.39548 226.000
79.41543 247.000
79.43537 245.000
79.45532 231.000
79.47527 208.000
79.49521 207.000
79.51516 243.000
79.53511 188.000
79.55506 211.000
79.57500 187.000
79.59495 195.000
79.61490 214.000
79.63484 211.000
79.65479 194.000
79.67474 172.000
79.69468 167.000
79.71463 215.000
79.73458 161.000
79.75453 185.000
79.77447 186.000
79.79442 189.000
79.81437 182.000
79.83431 175.000
79.85426 183.000
79.87421 168.000
79.89415 151.000
79.91410 188.000
79.93405 176.000
79.95399 171.000
79.97394 165.000
79.99389 178.000
80.01384 154.000
80.03378 173.000
80.05373 164.000
80.07368 169.000
80.09362 164.000
80.11357 160.000
80.13352 169.000
80.15346 147.000
80.17341 145.000
80.19336 145.000
80.21331 154.000
80.23325 146.000
80.25320 155.000
80.27315 162.000
80.29309 141.000
80.31304 163.000
80.33299 147.000
80.35293 173.000
80.37288 152.000
80.39283 154.000
80.41278 160.000
80.43272 154.000
80.45267 154.000
80.47262 145.000
80.49256 150.000
80.51251 149.000
80.53246 140.000
80.55240 150.000
80.57235 153.000
80.59230 155.000
80.61224 167.000
80.63219 168.000
80.65214 159.000
80.67209 156.000
80.69203 140.000
80.71198 157.000
80.73193 149.000
80.75187 158.000
80.77182 115.000
80.79177 183.000
80.81171 168.000
80.83166 159.000
80.85161 157.000
80.87156 162.000
80.89150 190.000
80.91145 166.000
80.93140 158.000
80.95134 155.000
80.97129 152.000
80.99124 148.000
81.01118 165.000
81.03113 171.000
81.05108 176.000
81.07102 161.000
81.09097 163.000
81.11092 168.000
81.13087 155.000
81.15081 155.000
81.17076 178.000
81.19071 195.000
81.21065 163.000
81.23060 156.000
81.25055 176.000
81.27049 175.000
81.29044 172.000
81.31039 173.000
81.33034 159.000
81.35028 160.000
81.37023 191.000
81.39018 159.000
81.41012 167.000
81.43007 163.000
81.45002 157.000
81.46996 163.000
81.48991 158.000
81.50986 166.000
81.52980 141.000
81.54975 164.000
81.56970 180.000
81.58965 157.000
81.60959 143.000
81.62954 126.000
81.64949 150.000
81.66943 142.000
81.68938 158.000
81.70933 160.000
81.72927 145.000
81.74922 174.000
81.76917 175.000
81.78912 166.000
81.80906 160.000
81.82901 143.000
81.84896 142.000
81.86890 180.000
81.88885 155.000
81.90880 162.000
81.92874 147.000
81.94869 171.000
81.96864 160.000
81.98859 165.000
82.00853 156.000
82.02848 155.000
82.04843 131.000
82.06837 147.000
82.08832 170.000
82.10827 146.000
82.12821 158.000
82.14816 162.000
82.16811 168.000
82.18805 169.000
82.20800 148.000
82.22795 166.000
82.24790 146.000
82.26784 154.000
82.28779 157.000
82.30774 156.000
82.32768 146.000
82.34763 159.000
82.36758 164.000
82.38752 178.000
82.40747 145.000
82.42742 149.000
82.44737 149.000
82.46731 176.000
82.48726 155.000
82.50721 156.000
82.52715 165.000
82.54710 178.000
82.56705 152.000
82.58699 145.000
82.60694 172.000
82.62689 151.000
82.64683 178.000
82.66678 153.000
82.68673 161.000
82.70668 156.000
82.72662 146.000
82.74657 161.000
82.76652 139.000
82.78646 155.000
82.80641 186.000
82.82636 147.000
82.84630 155.000
82.86625 171.000
82.88620 154.000
82.90615 153.000
82.92609 151.000
82.94604 142.000
82.96599 141.000
82.98593 143.000
83.00588 148.000
83.02583 158.000
83.04577 183.000
83.06572 157.000
83.08567 165.000
83.10561 158.000
83.12556 166.000
83.14551 146.000
83.16546 164.000
83.18540 163.000
83.20535 137.000
83.22530 149.000
83.24524 142.000
83.26519 160.000
83.28514 142.000
83.30508 145.000
83.32503 152.000
83.34498 156.000
83.36493 155.000
83.38487 142.000
83.40482 146.000
83.42477 154.000
83.44471 155.000
83.46466 148.000
83.48461 154.000
83.50455 170.000
83.52450 150.000
83.54445 164.000
83.56440 139.000
83.58434 149.000
83.60429 175.000
83.62424 130.000
83.64418 172.000
83.66413 161.000
83.68408 161.000
83.70402 153.000
83.72397 139.000
83.74392 159.000
83.76386 143.000
83.78381 162.000
83.80376 165.000
83.82371 164.000
83.84365 155.000
83.86360 173.000
83.88355 142.000
83.90349 175.000
83.92344 161.000
83.94339 169.000
83.96333 175.000
83.98328 150.000
84.00323 149.000
84.02318 169.000
84.04312 161.000
84.06307 150.000
84.08302 148.000
84.10296 169.000
84.12291 141.000
84.14286 154.000
84.16280 136.000
84.18275 165.000
84.20270 160.000
84.22264 157.000
84.24259 151.000
84.26254 171.000
84.28249 162.000
84.30243 169.000
84.32238 147.000
84.34233 176.000
84.36227 160.000
84.38222 163.000
84.40217 156.000
84.42211 159.000
84.44206 158.000
84.46201 167.000
84.48196 181.000
84.50190 177.000
84.52185 181.000
84.54180 187.000
84.56174 165.000
84.58169 158.000
84.60164 176.000
84.62158 175.000
84.64153 192.000
84.66148 185.000
84.68142 182.000
84.70137 162.000
84.72132 175.000
84.74127 180.000
84.76121 198.000
84.78116 220.000
84.80111 208.000
84.82105 259.000
84.84100 208.000
84.86095 224.000
84.88089 251.000
84.90084 241.000
84.92079 229.000
84.94074 228.000
84.96068 245.000
84.98063 247.000
85.00058 245.000
85.02052 229.000
85.04047 199.000
85.06042 221.000
85.08036 230.000
85.10031 179.000
85.12026 219.000
85.14021 224.000
85.16015 198.000
85.18010 224.000
85.20005 175.000
85.21999 216.000
85.23994 167.000
85.25989 172.000
85.27983 184.000
85.29978 163.000
85.31973 208.000
85.33967 165.000
85.35962 160.000
85.37957 167.000
85.39952 197.000
85.41946 179.000
85.43941 163.000
85.45936 150.000
85.47930 166.000
85.49925 170.000
85.51920 173.000
85.53914 147.000
85.55909 166.000
85.57904 148.000
85.59899 166.000
85.61893 192.000
85.63888 166.000
85.65883 162.000
85.67877 134.000
85.69872 161.000
85.71867 178.000
85.73861 145.000
85.75856 158.000
85.77851 156.000
85.79845 155.000
85.81840 140.000
85.83835 162.000
85.85830 152.000
85.87824 154.000
85.89819 146.000
85.91814 136.000
85.93808 162.000
85.95803 149.000
85.97798 175.000
85.99792 180.000
86.01787 165.000
86.03782 144.000
86.05777 132.000
86.07771 145.000
86.09766 167.000
86.11761 148.000
86.13755 141.000
86.15750 172.000
86.17745 166.000
86.19739 131.000
86.21734 147.000
86.23729 159.000
86.25723 163.000
86.27718 152.000
86.29713 151.000
86.31708 178.000
86.33702 164.000
86.35697 151.000
86.37692 163.000
86.39686 139.000
86.41681 134.000
86.43676 179.000
86.45670 137.000
86.47665 146.000
86.49660 154.000
86.51655 144.000
86.53649 175.000
86.55644 152.000
86.57639 148.000
86.59633 159.000
86.61628 151.000
86.63623 172.000
86.65617 159.000
86.67612 159.000
86.69607 171.000
86.71602 164.000
86.73596 173.000
86.75591 177.000
86.77586 165.000
86.79580 162.000
86.81575 143.000
86.83570 168.000
86.85564 145.000
86.87559 174.000
86.89554 161.000
86.91548 162.000
86.93543 168.000
86.95538 169.000
86.97533 150.000
86.99527 167.000
87.01522 194.000
87.03517 177.000
87.05511 186.000
87.07506 165.000
87.09501 174.000
87.11495 155.000
87.13490 208.000
87.15485 167.000
87.17480 157.000
87.19474 205.000
87.21469 183.000
87.23464 176.000
87.25458 173.000
87.27453 163.000
87.29448 163.000
87.31442 194.000
87.33437 188.000
87.35432 190.000
87.37426 196.000
87.39421 210.000
87.41416 177.000
87.43411 186.000
87.45405 174.000
87.47400 173.000
87.49395 185.000
87.51389 195.000
87.53384 182.000
87.55379 201.000
87.57373 181.000
87.59368 175.000
87.61363 193.000
87.63358 203.000
87.65352 183.000
87.67347 181.000
87.69342 191.000
87.71336 188.000
87.73331 193.000
87.75326 202.000
87.77320 198.000
87.79315 196.000
87.81310 162.000
87.83304 190.000
87.85299 198.000
87.87294 177.000
87.89289 173.000
87.91283 158.000
87.93278 196.000
87.95273 184.000
87.97267 158.000
87.99262 176.000
88.01257 151.000
88.03251 172.000
88.05246 173.000
88.07241 146.000
88.09236 162.000
88.11230 166.000
88.13225 147.000
88.15220 173.000
88.17214 160.000
88.19209 159.000
88.21204 168.000
88.23198 142.000
88.25193 152.000
88.27188 144.000
88.29183 169.000
88.31177 173.000
88.33172 161.000
88.35167 162.000
88.37161 165.000
88.39156 129.000
88.41151 136.000
88.43145 166.000
88.45140 170.000
88.47135 164.000
88.49129 139.000
88.51124 146.000
88.53119 145.000
88.55114 163.000
88.57108 151.000
88.59103 142.000
88.61098 158.000
88.63092 142.000
88.65087 153.000
88.67082 159.000
88.69076 146.000
88.71071 144.000
88.73066 163.000
88.75061 137.000
88.77055 147.000
88.79050 142.000
88.81045 147.000
88.83039 156.000
88.85034 143.000
88.87029 168.000
88.89023 164.000
88.91018 151.000
88.93013 153.000
88.95007 151.000
88.97002 167.000
88.98997 139.000
89.00992 151.000
89.02986 165.000
89.04981 157.000
89.06976 164.000
89.08970 152.000
89.10965 133.000
89.12960 141.000
89.14954 151.000
89.16949 150.000
89.18944 152.000
89.20939 154.000
89.22933 158.000
89.24928 156.000
89.26923 126.000
89.28917 132.000
89.30912 157.000
89.32907 150.000
89.34901 129.000
89.36896 126.000
89.38891 176.000
89.40885 142.000
89.42880 155.000
89.44875 164.000
89.46870 157.000
89.48864 153.000
89.50859 154.000
89.52854 145.000
89.54848 151.000
89.56843 176.000
89.58838 151.000
89.60832 147.000
89.62827 152.000
89.64822 161.000
89.66817 166.000
89.68811 166.000
89.70806 123.000
89.72801 144.000
89.74795 159.000
89.76790 164.000
89.78785 153.000
89.80779 143.000
89.82774 147.000
89.84769 160.000
89.86764 137.000
89.88758 176.000
89.90753 160.000
89.92748 135.000
89.94742 161.000
89.96737 147.000
89.98732 154.000
90.00726 146.000
