10.00000 160.000
10.01995 172.000
10.03989 129.000
10.05984 166.000
10.07979 179.000
10.09973 154.000
10.11968 185.000
10.13963 143.000
10.15958 175.000
10.17952 160.000
10.19947 152.000
10.21942 133.000
10.23936 147.000
10.25931 141.000
10.27926 154.000
10.29920 181.000
10.31915 128.000
10.33910 162.000
10.35905 131.000
10.37899 150.000
10.39894 153.000
10.41889 150.000
10.43883 157.000
10.45878 141.000
10.47873 164.000
10.49867 179.000
10.51862 165.000
10.53857 144.000
10.55851 154.000
10.57846 154.000
10.59841 172.000
10.61836 133.000
10.63830 148.000
10.65825 146.000
10.67820 173.000
10.69814 163.000
10.71809 137.000
10.73804 169.000
10.75798 140.000
10.77793 157.000
10.79788 165.000
10.81783 139.000
10.83777 162.000
10.85772 147.000
10.87767 161.000
10.89761 168.000
10.91756 147.000
10.93751 157.000
10.95745 154.000
10.97740 180.000
10.99735 148.000
11.01730 146.000
11.03724 158.000
11.05719 136.000
11.07714 154.000
11.09708 163.000
11.11703 152.000
11.13698 147.000
11.15692 151.000
11.17687 175.000
11.19682 149.000
11.21676 156.000
11.23671 166.000
11.25666 157.000
11.27661 167.000
11.29655 153.000
11.31650 155.000
11.33645 147.000
11.35639 153.000
11.37634 169.000
11.39629 161.000
11.41623 150.000
11.43618 160.000
11.45613 157.000
11.47608 162.000
11.49602 139.000
11.51597 170.000
11.53592 164.000
11.55586 150.000
11.57581 163.000
11.59576 153.000
11.61570 139.000
11.63565 149.000
11.65560 167.000
11.67554 174.000
11.69549 155.000
11.71544 148.000
11.73539 168.000
11.75533 163.000
11.77528 168.000
11.79523 137.000
11.81517 151.000
11.83512 179.000
11.85507 177.000
11.87501 158.000
11.89496 163.000
11.91491 146.000
11.93486 147.000
11.95480 157.000
11.97475 161.000
11.99470 153.000
12.01464 149.000
12.03459 173.000
12.05454 147.000
12.07448 155.000
12.09443 157.000
12.11438 137.000
12.13432 150.000
12.15427 171.000
12.17422 140.000
12.19417 171.000
12.21411 157.000
12.23406 157.000
12.25401 165.000
12.27395 185.000
12.29390 168.000
12.31385 156.000
12.33379 158.000
12.35374 171.000
12.37369 161.000
12.39364 150.000
12.41358 148.000
12.43353 169.000
12.45348 127.000
12.47342 148.000
12.49337 137.000
12.51332 156.000
12.53326 151.000
12.55321 145.000
12.57316 164.000
12.59311 151.000
12.61305 184.000
12.63300 170.000
12.65295 157.000
12.67289 151.000
12.69284 168.000
12.71279 177.000
12.73273 171.000
12.75268 156.000
12.77263 145.000
12.79257 135.000
12.81252 153.000
12.83247 152.000
12.85242 170.000
12.87236 165.000
12.89231 155.000
12.91226 157.000
12.93220 142.000
12.95215 138.000
12.97210 146.000
12.99204 168.000
13.01199 161.000
13.03194 177.000
13.05189 149.000
13.07183 149.000
13.09178 151.000
13.11173 150.000
13.13167 143.000
13.15162 158.000
13.17157 167.000
13.19151 150.000
13.21146 154.000
13.23141 158.000
13.25135 146.000
13.27130 153.000
13.29125 160.000
13.31120 144.000
13.33114 147.000
13.35109 149.000
13.37104 131.000
13.39098 132.000
13.41093 164.000
13.43088 158.000
13.45082 161.000
13.47077 149.000
13.49072 144.000
13.51067 166.000
13.53061 132.000
13.55056 179.000
13.57051 156.000
13.59045 154.000
13.61040 150.000
13.63035 158.000
13.65029 171.000
13.67024 150.000
13.69019 169.000
13.71013 157.000
13.73008 147.000
13.75003 188.000
13.76998 169.000
13.78992 162.000
13.80987 180.000
13.82982 190.000
13.84976 162.000
13.86971 148.000
13.88966 165.000
13.90960 140.000
13.92955 148.000
13.94950 139.000
13.96945 174.000
13.98939 160.000
14.00934 153.000
14.02929 159.000
14.04923 178.000
14.06918 150.000
14.08913 160.000
14.10907 167.000
14.12902 156.000
14.14897 145.000
14.16892 160.000
14.18886 181.000
14.20881 225.000
14.22876 183.000
14.24870 177.000
14.26865 181.000
14.28860 166.000
14.30854 161.000
14.32849 160.000
14.34844 162.000
14.36838 159.000
14.38833 169.000
14.40828 161.000
14.42823 158.000
14.44817 150.000
14.46812 164.000
14.48807 172.000
14.50801 166.000
14.52796 156.000
14.54791 185.000
14.56785 173.000
14.58780 174.000
14.60775 160.000
14.62770 197.000
14.64764 174.000
14.66759 179.000
14.68754 181.000
14.70748 160.000
14.72743 182.000
14.74738 185.000
14.76732 192.000
14.78727 176.000
14.80722 204.000
14.82716 179.000
14.84711 193.000
14.86706 179.000
14.88701 175.000
14.90695 178.000
14.92690 178.000
14.94685 156.000
14.96679 181.000
14.98674 215.000
15.00669 221.000
15.02663 195.000
15.04658 226.000
15.06653 226.000
15.08648 249.000
15.10642 292.000
15.12637 237.000
15.14632 225.000
15.16626 234.000
15.18621 216.000
15.20616 240.000
15.22610 247.000
15.24605 243.000
15.26600 266.000
15.28594 278.000
15.30589 261.000
15.32584 296.000
15.34579 333.000
15.36573 318.000
15.38568 303.000
15.40563 324.000
15.42557 337.000
15.44552 363.000
15.46547 394.000
15.48541 392.000
15.50536 417.000
15.52531 490.000
15.54526 569.000
15.56520 599.000
15.58515 801.000
15.60510 920.000
15.62504 1242.000
15.64499 1847.000
15.66494 2763.000
15.68488 4455.000
15.70483 7223.000
15.72478 12443.000
15.74472 18611.000
15.76467 20560.000
15.78462 16445.000
15.80457 11013.000
15.82451 5820.000
15.84446 2676.000
15.86441 1398.000
15.88435 973.000
15.90430 662.000
15.92425 628.000
15.94419 533.000
15.96414 440.000
15.98409 438.000
16.00404 398.000
16.02398 372.000
16.04393 355.000
16.06388 356.000
16.08382 276.000
16.10377 307.000
16.12372 297.000
16.14366 261.000
16.16361 283.000
16.18356 242.000
16.20351 268.000
16.22345 254.000
16.24340 261.000
16.26335 243.000
16.28329 242.000
16.30324 217.000
16.32319 238.000
16.34313 223.000
16.36308 224.000
16.38303 241.000
16.40297 216.000
16.42292 211.000
16.44287 210.000
16.46282 189.000
16.48276 193.000
16.50271 213.000
16.52266 203.000
16.54260 218.000
16.56255 198.000
16.58250 210.000
16.60244 196.000
16.62239 182.000
16.64234 195.000
16.66229 169.000
16.68223 201.000
16.70218 188.000
16.72213 190.000
16.74207 160.000
16.76202 173.000
16.78197 166.000
16.80191 200.000
16.82186 166.000
16.84181 186.000
16.86175 191.000
16.88170 158.000
16.90165 146.000
16.92160 165.000
16.94154 161.000
16.96149 149.000
16.98144 154.000
17.00138 163.000
17.02133 168.000
17.04128 177.000
17.06122 136.000
17.08117 150.000
17.10112 174.000
17.12107 154.000
17.14101 127.000
17.16096 137.000
17.18091 152.000
17.20085 154.000
17.22080 149.000
17.24075 165.000
17.26069 149.000
17.28064 178.000
17.30059 134.000
17.32053 143.000
17.34048 145.000
17.36043 169.000
17.38038 164.000
17.40032 156.000
17.42027 154.000
17.44022 152.000
17.46016 143.000
17.48011 144.000
17.50006 178.000
17.52000 168.000
17.53995 173.000
17.55990 151.000
17.57985 172.000
17.59979 164.000
17.61974 167.000
17.63969 165.000
17.65963 148.000
17.67958 155.000
17.69953 168.000
17.71947 162.000
17.73942 148.000
17.75937 144.000
17.77932 131.000
17.79926 151.000
17.81921 151.000
17.83916 167.000
17.85910 152.000
17.87905 155.000
17.89900 151.000
17.91894 139.000
17.93889 149.000
17.95884 144.000
17.97878 143.000
17.99873 183.000
18.01868 145.000
18.03863 142.000
18.05857 147.000
18.07852 159.000
18.09847 185.000
18.11841 156.000
18.13836 150.000
18.15831 146.000
18.17825 137.000
18.19820 155.000
18.21815 134.000
18.23810 146.000
18.25804 155.000
18.27799 173.000
18.29794 156.000
18.31788 169.000
18.33783 153.000
18.35778 180.000
18.37772 155.000
18.39767 167.000
18.41762 193.000
18.43756 178.000
18.45751 166.000
18.47746 140.000
18.49741 146.000
18.51735 156.000
18.53730 133.000
18.55725 157.000
18.57719 171.000
18.59714 143.000
18.61709 174.000
18.63703 139.000
18.65698 138.000
18.67693 137.000
18.69688 159.000
18.71682 154.000
18.73677 154.000
18.75672 159.000
18.77666 163.000
18.79661 134.000
18.81656 160.000
18.83650 143.000
18.85645 141.000
18.87640 172.000
18.89634 153.000
18.91629 157.000
18.93624 144.000
18.95619 158.000
18.97613 151.000
18.99608 146.000
19.01603 146.000
19.03597 156.000
19.05592 145.000
19.07587 150.000
19.09581 150.000
19.11576 146.000
19.13571 166.000
19.15566 129.000
19.17560 149.000
19.19555 151.000
19.21550 152.000
19.23544 161.000
19.25539 158.000
19.27534 161.000
19.29528 168.000
19.31523 171.000
19.33518 180.000
19.35513 145.000
19.37507 162.000
19.39502 156.000
19.41497 132.000
19.43491 149.000
19.45486 151.000
19.47481 128.000
19.49475 146.000
19.51470 149.000
19.53465 160.000
19.55459 168.000
19.57454 168.000
19.59449 173.000
19.61444 158.000
19.63438 140.000
19.65433 159.000
19.67428 168.000
19.69422 166.000
19.71417 166.000
19.73412 137.000
19.75406 135.000
19.77401 146.000
19.79396 144.000
19.81391 170.000
19.83385 157.000
19.85380 147.000
19.87375 162.000
19.89369 141.000
19.91364 161.000
19.93359 136.000
19.95353 183.000
19.97348 164.000
19.99343 155.000
20.01337 152.000
20.03332 151.000
20.05327 142.000
20.07322 165.000
20.09316 140.000
20.11311 152.000
20.13306 166.000
20.15300 169.000
20.17295 150.000
20.19290 142.000
20.21284 170.000
20.23279 134.000
20.25274 169.000
20.27269 148.000
20.29263 150.000
20.31258 149.000
20.33253 115.000
20.35247 142.000
20.37242 150.000
20.39237 132.000
20.41231 147.000
20.43226 149.000
20.45221 158.000
20.47215 183.000
20.49210 137.000
20.51205 145.000
20.53200 166.000
20.55194 159.000
20.57189 159.000
20.59184 158.000
20.61178 146.000
20.63173 159.000
20.65168 150.000
20.67162 138.000
20.69157 160.000
20.71152 143.000
20.73147 160.000
20.75141 138.000
20.77136 140.000
20.79131 156.000
20.81125 161.000
20.83120 149.000
20.85115 156.000
20.87109 164.000
20.89104 165.000
20.91099 145.000
20.93094 159.000
20.95088 159.000
20.97083 149.000
20.99078 146.000
21.01072 182.000
21.03067 162.000
21.05062 124.000
21.07056 169.000
21.09051 141.000
21.11046 132.000
21.13040 148.000
21.15035 179.000
21.17030 177.000
21.19025 138.000
21.21019 144.000
21.23014 178.000
21.25009 151.000
21.27003 153.000
21.28998 164.000
21.30993 142.000
21.32987 148.000
21.34982 171.000
21.36977 161.000
21.38972 162.000
21.40966 189.000
21.42961 123.000
21.44956 160.000
21.46950 140.000
21.48945 165.000
21.50940 158.000
21.52934 149.000
21.54929 150.000
21.56924 151.000
21.58918 144.000
21.60913 175.000
21.62908 154.000
21.64903 155.000
21.66897 176.000
21.68892 163.000
21.70887 170.000
21.72881 191.000
21.74876 157.000
21.76871 136.000
21.78865 175.000
21.80860 144.000
21.82855 151.000
21.84850 126.000
21.86844 169.000
21.88839 177.000
21.90834 135.000
21.92828 161.000
21.94823 166.000
21.96818 149.000
21.98812 162.000
22.00807 156.000
22.02802 177.000
22.04796 166.000
22.06791 161.000
22.08786 161.000
22.10781 143.000
22.12775 136.000
22.14770 151.000
22.16765 165.000
22.18759 164.000
22.20754 163.000
22.22749 171.000
22.24743 180.000
22.26738 158.000
22.28733 151.000
22.30728 150.000
22.32722 160.000
22.34717 151.000
22.36712 149.000
22.38706 172.000
22.40701 144.000
22.42696 179.000
22.44690 156.000
22.46685 165.000
22.48680 148.000
22.50675 158.000
22.52669 161.000
22.54664 159.000
22.56659 147.000
22.58653 164.000
22.60648 139.000
22.62643 148.000
22.64637 159.000
22.66632 140.000
22.68627 158.000
22.70621 149.000
22.72616 149.000
22.74611 153.000
22.76606 144.000
22.78600 181.000
22.80595 147.000
22.82590 149.000
22.84584 153.000
22.86579 146.000
22.88574 145.000
22.90568 138.000
22.92563 186.000
22.94558 164.000
22.96553 152.000
22.98547 159.000
23.00542 140.000
23.02537 163.000
23.04531 131.000
23.06526 134.000
23.08521 161.000
23.10515 149.000
23.12510 160.000
23.14505 159.000
23.16499 157.000
23.18494 139.000
23.20489 157.000
23.22484 171.000
23.24478 145.000
23.26473 157.000
23.28468 171.000
23.30462 141.000
23.32457 161.000
23.34452 165.000
23.36446 143.000
23.38441 143.000
23.40436 144.000
23.42431 157.000
23.44425 155.000
23.46420 151.000
23.48415 159.000
23.50409 150.000
23.52404 160.000
23.54399 154.000
23.56393 137.000
23.58388 137.000
23.60383 183.000
23.62377 158.000
23.64372 157.000
23.66367 163.000
23.68362 167.000
23.70356 186.000
23.72351 179.000
23.74346 150.000
23.76340 167.000
23.78335 190.000
23.80330 148.000
23.82324 148.000
23.84319 145.000
23.86314 162.000
23.88309 171.000
23.90303 157.000
23.92298 177.000
23.94293 158.000
23.96287 157.000
23.98282 172.000
24.00277 152.000
24.02271 155.000
24.04266 187.000
24.06261 165.000
24.08256 149.000
24.10250 171.000
24.12245 176.000
24.14240 139.000
24.16234 157.000
24.18229 149.000
24.20224 168.000
24.22218 152.000
24.24213 145.000
24.26208 142.000
24.28202 177.000
24.30197 146.000
24.32192 160.000
24.34187 159.000
24.36181 135.000
24.38176 164.000
24.40171 155.000
24.42165 167.000
24.44160 150.000
24.46155 163.000
24.48149 135.000
24.50144 187.000
24.52139 186.000
24.54134 168.000
24.56128 155.000
24.58123 171.000
24.60118 158.000
24.62112 138.000
24.64107 139.000
24.66102 144.000
24.68096 139.000
24.70091 167.000
24.72086 158.000
24.74080 148.000
24.76075 168.000
24.78070 146.000
24.80065 155.000
24.82059 171.000
24.84054 158.000
24.86049 158.000
24.88043 161.000
24.90038 141.000
24.92033 161.000
24.94027 139.000
24.96022 163.000
24.98017 169.000
25.00012 162.000
25.02006 185.000
25.04001 167.000
25.05996 156.000
25.07990 182.000
25.09985 163.000
25.11980 150.000
25.13974 154.000
25.15969 158.000
25.17964 166.000
25.19958 121.000
25.21953 155.000
25.23948 153.000
25.25943 165.000
25.27937 173.000
25.29932 169.000
25.31927 174.000
25.33921 164.000
25.35916 175.000
25.37911 147.000
25.39905 168.000
25.41900 154.000
25.43895 158.000
25.45890 178.000
25.47884 193.000
25.49879 140.000
25.51874 166.000
25.53868 158.000
25.55863 164.000
25.57858 175.000
25.59852 167.000
25.61847 179.000
25.63842 179.000
25.65837 188.000
25.67831 154.000
25.69826 161.000
25.71821 165.000
25.73815 172.000
25.75810 165.000
25.77805 157.000
25.79799 135.000
25.81794 175.000
25.83789 175.000
25.85783 149.000
25.87778 172.000
25.89773 170.000
25.91768 160.000
25.93762 168.000
25.95757 182.000
25.97752 190.000
25.99746 180.000
26.01741 170.000
26.03736 181.000
26.05730 161.000
26.07725 184.000
26.09720 166.000
26.11715 163.000
26.13709 172.000
26.15704 183.000
26.17699 157.000
26.19693 179.000
26.21688 156.000
26.23683 192.000
26.25677 174.000
26.27672 155.000
26.29667 178.000
26.31661 176.000
26.33656 155.000
26.35651 165.000
26.37646 168.000
26.39640 158.000
26.41635 169.000
26.43630 152.000
26.45624 178.000
26.47619 174.000
26.49614 142.000
26.51608 152.000
26.53603 162.000
26.55598 159.000
26.57593 178.000
26.59587 162.000
26.61582 170.000
26.63577 199.000
26.65571 162.000
26.67566 155.000
26.69561 148.000
26.71555 185.000
26.73550 160.000
26.75545 172.000
26.77539 170.000
26.79534 155.000
26.81529 160.000
26.83524 165.000
26.85518 151.000
26.87513 177.000
26.89508 166.000
26.91502 183.000
26.93497 174.000
26.95492 156.000
26.97486 160.000
26.99481 170.000
27.01476 166.000
27.03471 188.000
27.05465 168.000
27.07460 166.000
27.09455 160.000
27.11449 177.000
27.13444 159.000
27.15439 160.000
27.17433 185.000
27.19428 167.000
27.21423 149.000
27.23417 181.000
27.25412 173.000
27.27407 146.000
27.29402 185.000
27.31396 185.000
27.33391 171.000
27.35386 179.000
27.37380 161.000
27.39375 167.000
27.41370 167.000
27.43364 178.000
27.45359 144.000
27.47354 179.000
27.49349 164.000
27.51343 141.000
27.53338 161.000
27.55333 129.000
27.57327 173.000
27.59322 149.000
27.61317 169.000
27.63311 154.000
27.65306 164.000
27.67301 173.000
27.69296 161.000
27.71290 182.000
27.73285 175.000
27.75280 164.000
27.77274 173.000
27.79269 161.000
27.81264 159.000
27.83258 162.000
27.85253 155.000
27.87248 150.000
27.89242 151.000
27.91237 145.000
27.93232 153.000
27.95227 160.000
27.97221 149.000
27.99216 174.000
28.01211 152.000
28.03205 160.000
28.05200 158.000
28.07195 146.000
28.09189 160.000
28.11184 150.000
28.13179 174.000
28.15174 148.000
28.17168 168.000
28.19163 184.000
28.21158 167.000
28.23152 160.000
28.25147 177.000
28.27142 159.000
28.29136 161.000
28.31131 175.000
28.33126 185.000
28.35120 177.000
28.37115 159.000
28.39110 174.000
28.41105 170.000
28.43099 178.000
28.45094 165.000
28.47089 145.000
28.49083 180.000
28.51078 172.000
28.53073 177.000
28.55067 166.000
28.57062 144.000
28.59057 153.000
28.61052 181.000
28.63046 155.000
28.65041 146.000
28.67036 160.000
28.69030 150.000
28.71025 208.000
28.73020 135.000
28.75014 157.000
28.77009 158.000
28.79004 140.000
28.80998 175.000
28.82993 159.000
28.84988 169.000
28.86983 155.000
28.88977 187.000
28.90972 150.000
28.92967 155.000
28.94961 177.000
28.96956 173.000
28.98951 164.000
29.00945 163.000
29.02940 161.000
29.04935 185.000
29.06930 156.000
29.08924 167.000
29.10919 178.000
29.12914 156.000
29.14908 144.000
29.16903 164.000
29.18898 135.000
29.20892 149.000
29.22887 150.000
29.24882 168.000
29.26877 164.000
29.28871 175.000
29.30866 174.000
29.32861 179.000
29.34855 182.000
29.36850 169.000
29.38845 167.000
29.40839 151.000
29.42834 175.000
29.44829 174.000
29.46823 172.000
29.48818 186.000
29.50813 156.000
29.52808 160.000
29.54802 158.000
29.56797 155.000
29.58792 190.000
29.60786 157.000
29.62781 183.000
29.64776 188.000
29.66770 170.000
29.68765 161.000
29.70760 174.000
29.72755 185.000
29.74749 167.000
29.76744 140.000
29.78739 168.000
29.80733 149.000
29.82728 176.000
29.84723 154.000
29.86717 152.000
29.88712 156.000
29.90707 171.000
29.92701 156.000
29.94696 158.000
29.96691 181.000
29.98686 181.000
30.00680 173.000
30.02675 173.000
30.04670 176.000
30.06664 188.000
30.08659 174.000
30.10654 171.000
30.12648 180.000
30.14643 170.000
30.16638 175.000
30.18633 161.000
30.20627 171.000
30.22622 189.000
30.24617 193.000
30.26611 189.000
30.28606 191.000
30.30601 197.000
30.32595 189.000
30.34590 191.000
30.36585 181.000
30.38579 205.000
30.40574 215.000
30.42569 192.000
30.44564 182.000
30.46558 215.000
30.48553 176.000
30.50548 179.000
30.52542 174.000
30.54537 192.000
30.56532 188.000
30.58526 176.000
30.60521 181.000
30.62516 165.000
30.64511 168.000
30.66505 169.000
30.68500 158.000
30.70495 154.000
30.72489 157.000
30.74484 168.000
30.76479 174.000
30.78473 205.000
30.80468 163.000
30.82463 152.000
30.84458 172.000
30.86452 156.000
30.88447 168.000
30.90442 162.000
30.92436 191.000
30.94431 168.000
30.96426 190.000
30.98420 182.000
31.00415 173.000
31.02410 190.000
31.04404 194.000
31.06399 175.000
31.08394 159.000
31.10389 161.000
31.12383 162.000
31.14378 164.000
31.16373 171.000
31.18367 171.000
31.20362 176.000
31.22357 172.000
31.24351 173.000
31.26346 198.000
31.28341 197.000
31.30336 191.000
31.32330 167.000
31.34325 152.000
31.36320 177.000
31.38314 163.000
31.40309 149.000
31.42304 172.000
31.44298 164.000
31.46293 156.000
31.48288 215.000
31.50282 174.000
31.52277 168.000
31.54272 203.000
31.56267 197.000
31.58261 202.000
31.60256 191.000
31.62251 214.000
31.64245 231.000
31.66240 270.000
31.68235 271.000
31.70229 306.000
31.72224 348.000
31.74219 500.000
31.76214 648.000
31.78208 961.000
31.80203 1292.000
31.82198 1530.000
31.84192 1419.000
31.86187 1234.000
31.88182 1147.000
31.90176 1055.000
31.92171 803.000
31.94166 640.000
31.96160 470.000
31.98155 359.000
32.00150 283.000
32.02145 242.000
32.04139 223.000
32.06134 204.000
32.08129 196.000
32.10123 204.000
32.12118 176.000
32.14113 184.000
32.16107 187.000
32.18102 172.000
32.20097 170.000
32.22092 183.000
32.24086 199.000
32.26081 163.000
32.28076 168.000
32.30070 183.000
32.32065 181.000
32.34060 170.000
32.36054 203.000
32.38049 196.000
32.40044 211.000
32.42039 229.000
32.44033 218.000
32.46028 245.000
32.48023 252.000
32.50017 224.000
32.52012 233.000
32.54007 225.000
32.56001 196.000
32.57996 228.000
32.59991 199.000
32.61985 189.000
32.63980 192.000
32.65975 183.000
32.67970 154.000
32.69964 160.000
32.71959 164.000
32.73954 153.000
32.75948 159.000
32.77943 170.000
32.79938 152.000
32.81932 200.000
32.83927 169.000
32.85922 173.000
32.87917 147.000
32.89911 148.000
32.91906 187.000
32.93901 158.000
32.95895 186.000
32.97890 177.000
32.99885 166.000
33.01879 161.000
33.03874 175.000
33.05869 164.000
33.07863 173.000
33.09858 170.000
33.11853 185.000
33.13848 159.000
33.15842 182.000
33.17837 183.000
33.19832 164.000
33.21826 167.000
33.23821 185.000
33.25816 168.000
33.27810 163.000
33.29805 177.000
33.31800 182.000
33.33795 169.000
33.35789 179.000
33.37784 172.000
33.39779 164.000
33.41773 129.000
33.43768 167.000
33.45763 163.000
33.47757 177.000
33.49752 184.000
33.51747 177.000
33.53741 165.000
33.55736 177.000
33.57731 141.000
33.59726 175.000
33.61720 178.000
33.63715 154.000
33.65710 164.000
33.67704 181.000
33.69699 178.000
33.71694 158.000
33.73688 172.000
33.75683 193.000
33.77678 177.000
33.79673 185.000
33.81667 154.000
33.83662 176.000
33.85657 161.000
33.87651 170.000
33.89646 154.000
33.91641 189.000
33.93635 160.000
33.95630 154.000
33.97625 171.000
33.99620 185.000
34.01614 149.000
34.03609 168.000
34.05604 188.000
34.07598 168.000
34.09593 192.000
34.11588 169.000
34.13582 160.000
34.15577 198.000
34.17572 182.000
34.19566 172.000
34.21561 164.000
34.23556 173.000
34.25551 152.000
34.27545 167.000
34.29540 186.000
34.31535 183.000
34.33529 198.000
34.35524 176.000
34.37519 175.000
34.39513 172.000
34.41508 172.000
34.43503 211.000
34.45498 206.000
34.47492 171.000
34.49487 146.000
34.51482 172.000
34.53476 158.000
34.55471 148.000
34.57466 185.000
34.59460 166.000
34.61455 181.000
34.63450 166.000
34.65444 175.000
34.67439 157.000
34.69434 174.000
34.71429 168.000
34.73423 156.000
34.75418 192.000
34.77413 175.000
34.79407 170.000
34.81402 182.000
34.83397 156.000
34.85391 187.000
34.87386 170.000
34.89381 160.000
34.91376 164.000
34.93370 192.000
34.95365 200.000
34.97360 189.000
34.99354 180.000
35.01349 209.000
35.03344 211.000
35.05338 185.000
35.07333 195.000
35.09328 188.000
35.11322 188.000
35.13317 191.000
35.15312 197.000
35.17307 218.000
35.19301 195.000
35.21296 205.000
35.23291 200.000
35.25285 200.000
35.27280 231.000
35.29275 201.000
35.31269 202.000
35.33264 287.000
35.35259 276.000
35.37254 393.000
35.39248 490.000
35.41243 586.000
35.43238 580.000
35.45232 563.000
35.47227 616.000
35.49222 808.000
35.51216 1016.000
35.53211 981.000
35.55206 846.000
35.57201 694.000
35.59195 731.000
35.61190 724.000
35.63185 661.000
35.65179 559.000
35.67174 440.000
35.69169 420.000
35.71163 369.000
35.73158 328.000
35.75153 368.000
35.77147 330.000
35.79142 350.000
35.81137 372.000
35.83132 393.000
35.85126 436.000
35.87121 549.000
35.89116 799.000
35.91110 1239.000
35.93105 1787.000
35.95100 1944.000
35.97094 1457.000
35.99089 1169.000
36.01084 1078.000
36.03079 1209.000
36.05073 1026.000
36.07068 778.000
36.09063 548.000
36.11057 403.000
36.13052 334.000
36.15047 292.000
36.17041 262.000
36.19036 237.000
36.21031 242.000
36.23025 224.000
36.25020 201.000
36.27015 210.000
36.29010 200.000
36.31004 208.000
36.32999 214.000
36.34994 173.000
36.36988 180.000
36.38983 178.000
36.40978 181.000
36.42972 202.000
36.44967 192.000
36.46962 204.000
36.48957 185.000
36.50951 196.000
36.52946 216.000
36.54941 195.000
36.56935 189.000
36.58930 182.000
36.60925 191.000
36.62919 194.000
36.64914 185.000
36.66909 182.000
36.68903 207.000
36.70898 204.000
36.72893 187.000
36.74888 203.000
36.76882 224.000
36.78877 213.000
36.80872 238.000
36.82866 302.000
36.84861 329.000
36.86856 319.000
36.88850 271.000
36.90845 267.000
36.92840 294.000
36.94835 274.000
36.96829 244.000
36.98824 218.000
37.00819 218.000
37.02813 199.000
37.04808 172.000
37.06803 205.000
37.08797 201.000
37.10792 183.000
37.12787 207.000
37.14781 183.000
37.16776 207.000
37.18771 187.000
37.20766 205.000
37.22760 204.000
37.24755 201.000
37.26750 172.000
37.28744 192.000
37.30739 190.000
37.32734 177.000
37.34728 192.000
37.36723 188.000
37.38718 174.000
37.40713 188.000
37.42707 176.000
37.44702 167.000
37.46697 181.000
37.48691 218.000
37.50686 187.000
37.52681 176.000
37.54675 175.000
37.56670 176.000
37.58665 185.000
37.60660 176.000
37.62654 194.000
37.64649 195.000
37.66644 182.000
37.68638 175.000
37.70633 176.000
37.72628 192.000
37.74622 183.000
37.76617 212.000
37.78612 186.000
37.80606 183.000
37.82601 191.000
37.84596 161.000
37.86591 208.000
37.88585 189.000
37.90580 202.000
37.92575 193.000
37.94569 184.000
37.96564 168.000
37.98559 185.000
38.00553 194.000
38.02548 184.000
38.04543 175.000
38.06538 183.000
38.08532 189.000
38.10527 183.000
38.12522 199.000
38.14516 178.000
38.16511 181.000
38.18506 157.000
38.20500 191.000
38.22495 181.000
38.24490 191.000
38.26484 188.000
38.28479 209.000
38.30474 198.000
38.32469 219.000
38.34463 199.000
38.36458 214.000
38.38453 232.000
38.40447 235.000
38.42442 225.000
38.44437 251.000
38.46431 253.000
38.48426 252.000
38.50421 276.000
38.52416 288.000
38.54410 357.000
38.56405 400.000
38.58400 490.000
38.60394 663.000
38.62389 811.000
38.64384 929.000
38.66378 803.000
38.68373 850.000
38.70368 789.000
38.72362 747.000
38.74357 700.000
38.76352 595.000
38.78347 566.000
38.80341 478.000
38.82336 403.000
38.84331 345.000
38.86325 338.000
38.88320 306.000
38.90315 345.000
38.92309 346.000
38.94304 358.000
38.96299 365.000
38.98294 382.000
39.00288 440.000
39.02283 396.000
39.04278 378.000
39.06272 331.000
39.08267 348.000
39.10262 350.000
39.12256 333.000
39.14251 310.000
39.16246 301.000
39.18241 320.000
39.20235 324.000
39.22230 318.000
39.24225 343.000
39.26219 396.000
39.28214 402.000
39.30209 455.000
39.32203 530.000
39.34198 594.000
39.36193 695.000
39.38187 855.000
39.40182 1185.000
39.42177 1834.000
39.44172 2534.000
39.46166 3116.000
39.48161 2965.000
39.50156 2507.000
39.52150 2015.000
39.54145 1890.000
39.56140 2024.000
39.58134 1832.000
39.60129 1430.000
39.62124 993.000
39.64119 729.000
39.66113 588.000
39.68108 503.000
39.70103 438.000
39.72097 381.000
39.74092 327.000
39.76087 323.000
39.78081 284.000
39.80076 276.000
39.82071 264.000
39.84065 237.000
39.86060 244.000
39.88055 264.000
39.90050 222.000
39.92044 224.000
39.94039 231.000
39.96034 218.000
39.98028 198.000
40.00023 188.000
40.02018 214.000
40.04012 199.000
40.06007 203.000
40.08002 206.000
40.09997 205.000
40.11991 205.000
40.13986 214.000
40.15981 192.000
40.17975 207.000
40.19970 175.000
40.21965 188.000
40.23959 201.000
40.25954 175.000
40.27949 185.000
40.29943 178.000
40.31938 197.000
40.33933 174.000
40.35928 164.000
40.37922 184.000
40.39917 198.000
40.41912 195.000
40.43906 192.000
40.45901 184.000
40.47896 200.000
40.49890 194.000
40.51885 179.000
40.53880 174.000
40.55875 158.000
40.57869 170.000
40.59864 187.000
40.61859 201.000
40.63853 187.000
40.65848 167.000
40.67843 179.000
40.69837 193.000
40.71832 179.000
40.73827 171.000
40.75822 195.000
40.77816 146.000
40.79811 179.000
40.81806 207.000
40.83800 186.000
40.85795 170.000
40.87790 168.000
40.89784 165.000
40.91779 172.000
40.93774 169.000
40.95768 165.000
40.97763 173.000
40.99758 170.000
41.01753 148.000
41.03747 168.000
41.05742 179.000
41.07737 164.000
41.09731 165.000
41.11726 165.000
41.13721 197.000
41.15715 197.000
41.17710 162.000
41.19705 191.000
41.21700 152.000
41.23694 172.000
41.25689 164.000
41.27684 169.000
41.29678 162.000
41.31673 175.000
41.33668 190.000
41.35662 185.000
41.37657 162.000
41.39652 152.000
41.41646 166.000
41.43641 186.000
41.45636 157.000
41.47631 179.000
41.49625 150.000
41.51620 174.000
41.53615 182.000
41.55609 185.000
41.57604 172.000
41.59599 183.000
41.61593 160.000
41.63588 175.000
41.65583 192.000
41.67578 161.000
41.69572 195.000
41.71567 169.000
41.73562 174.000
41.75556 171.000
41.77551 178.000
41.79546 178.000
41.81540 186.000
41.83535 182.000
41.85530 183.000
41.87524 181.000
41.89519 171.000
41.91514 163.000
41.93509 171.000
41.95503 176.000
41.97498 150.000
41.99493 187.000
42.01487 160.000
42.03482 191.000
42.05477 198.000
42.07471 174.000
42.09466 176.000
42.11461 164.000
42.13456 173.000
42.15450 163.000
42.17445 171.000
42.19440 155.000
42.21434 153.000
42.23429 159.000
42.25424 182.000
42.27418 171.000
42.29413 174.000
42.31408 185.000
42.33403 174.000
42.35397 156.000
42.37392 163.000
42.39387 163.000
42.41381 186.000
42.43376 164.000
42.45371 180.000
42.47365 159.000
42.49360 190.000
42.51355 198.000
42.53349 184.000
42.55344 170.000
42.57339 176.000
42.59334 182.000
42.61328 174.000
42.63323 168.000
42.65318 176.000
42.67312 192.000
42.69307 170.000
42.71302 184.000
42.73296 146.000
42.75291 179.000
42.77286 178.000
42.79281 185.000
42.81275 173.000
42.83270 163.000
42.85265 148.000
42.87259 183.000
42.89254 195.000
42.91249 161.000
42.93243 175.000
42.95238 181.000
42.97233 167.000
42.99227 176.000
43.01222 163.000
43.03217 195.000
43.05212 187.000
43.07206 191.000
43.09201 186.000
43.11196 167.000
43.13190 206.000
43.15185 195.000
43.17180 205.000
43.19174 231.000
43.21169 222.000
43.23164 207.000
43.25159 229.000
43.27153 243.000
43.29148 257.000
43.31143 261.000
43.33137 299.000
43.35132 253.000
43.37127 282.000
43.39121 320.000
43.41116 367.000
43.43111 453.000
43.45105 492.000
43.47100 600.000
43.49095 833.000
43.51090 1063.000
43.53084 1176.000
43.55079 1161.000
43.57074 966.000
43.59068 802.000
43.61063 773.000
43.63058 791.000
43.65052 776.000
43.67047 666.000
43.69042 499.000
43.71037 435.000
43.73031 337.000
43.75026 314.000
43.77021 294.000
43.79015 307.000
43.81010 238.000
43.83005 217.000
43.84999 203.000
43.86994 189.000
43.88989 186.000
43.90984 188.000
43.92978 215.000
43.94973 196.000
43.96968 178.000
43.98962 188.000
44.00957 195.000
44.02952 192.000
44.04946 181.000
44.06941 182.000
44.08936 184.000
44.10930 157.000
44.12925 155.000
44.14920 182.000
44.16915 175.000
44.18909 166.000
44.20904 163.000
44.22899 152.000
44.24893 176.000
44.26888 175.000
44.28883 192.000
44.30877 175.000
44.32872 162.000
44.34867 168.000
44.36862 135.000
44.38856 169.000
44.40851 147.000
44.42846 174.000
44.44840 167.000
44.46835 153.000
44.48830 170.000
44.50824 153.000
44.52819 178.000
44.54814 183.000
44.56808 167.000
44.58803 154.000
44.60798 180.000
44.62793 177.000
44.64787 170.000
44.66782 177.000
44.68777 170.000
44.70771 162.000
44.72766 180.000
44.74761 171.000
44.76755 157.000
44.78750 160.000
44.80745 175.000
44.82740 161.000
44.84734 152.000
44.86729 175.000
44.88724 137.000
44.90718 197.000
44.92713 180.000
44.94708 176.000
44.96702 178.000
44.98697 164.000
45.00692 176.000
45.02686 173.000
45.04681 165.000
45.06676 164.000
45.08671 176.000
45.10665 179.000
45.12660 153.000
45.14655 171.000
45.16649 170.000
45.18644 173.000
45.20639 157.000
45.22633 179.000
45.24628 162.000
45.26623 171.000
45.28618 140.000
45.30612 145.000
45.32607 167.000
45.34602 173.000
45.36596 164.000
45.38591 156.000
45.40586 150.000
45.42580 170.000
45.44575 176.000
45.46570 164.000
45.48565 178.000
45.50559 176.000
45.52554 175.000
45.54549 169.000
45.56543 168.000
45.58538 139.000
45.60533 153.000
45.62527 181.000
45.64522 168.000
45.66517 166.000
45.68511 171.000
45.70506 131.000
45.72501 181.000
45.74496 165.000
45.76490 170.000
45.78485 157.000
45.80480 160.000
45.82474 168.000
45.84469 153.000
45.86464 184.000
45.88458 171.000
45.90453 166.000
45.92448 164.000
45.94443 143.000
45.96437 168.000
45.98432 184.000
46.00427 157.000
46.02421 151.000
46.04416 170.000
46.06411 154.000
46.08405 157.000
46.10400 183.000
46.12395 168.000
46.14389 173.000
46.16384 179.000
46.18379 149.000
46.20374 176.000
46.22368 154.000
46.24363 193.000
46.26358 197.000
46.28352 180.000
46.30347 182.000
46.32342 189.000
46.34336 168.000
46.36331 204.000
46.38326 180.000
46.40321 167.000
46.42315 173.000
46.44310 150.000
46.46305 186.000
46.48299 166.000
46.50294 175.000
46.52289 144.000
46.54283 183.000
46.56278 176.000
46.58273 163.000
46.60267 158.000
46.62262 204.000
46.64257 175.000
46.66252 179.000
46.68246 153.000
46.70241 151.000
46.72236 165.000
46.74230 175.000
46.76225 167.000
46.78220 177.000
46.80214 164.000
46.82209 160.000
46.84204 152.000
46.86199 170.000
46.88193 164.000
46.90188 166.000
46.92183 173.000
46.94177 176.000
46.96172 172.000
46.98167 190.000
47.00161 146.000
47.02156 152.000
47.04151 195.000
47.06146 166.000
47.08140 142.000
47.10135 173.000
47.12130 153.000
47.14124 155.000
47.16119 174.000
47.18114 155.000
47.20108 191.000
47.22103 148.000
47.24098 146.000
47.26092 193.000
47.28087 179.000
47.30082 157.000
47.32077 175.000
47.34071 185.000
47.36066 166.000
47.38061 175.000
47.40055 156.000
47.42050 173.000
47.44045 169.000
47.46039 170.000
47.48034 166.000
47.50029 144.000
47.52024 160.000
47.54018 167.000
47.56013 173.000
47.58008 192.000
47.60002 161.000
47.61997 187.000
47.63992 181.000
47.65986 210.000
47.67981 204.000
47.69976 180.000
47.71970 170.000
47.73965 153.000
47.75960 167.000
47.77955 170.000
47.79949 187.000
47.81944 160.000
47.83939 178.000
47.85933 180.000
47.87928 194.000
47.89923 188.000
47.91917 179.000
47.93912 183.000
47.95907 177.000
47.97902 208.000
47.99896 173.000
48.01891 170.000
48.03886 199.000
48.05880 182.000
48.07875 196.000
48.09870 205.000
48.11864 187.000
48.13859 219.000
48.15854 198.000
48.17848 205.000
48.19843 227.000
48.21838 202.000
48.23833 204.000
48.25827 230.000
48.27822 222.000
48.29817 221.000
48.31811 236.000
48.33806 248.000
48.35801 253.000
48.37795 277.000
48.39790 293.000
48.41785 278.000
48.43780 269.000
48.45774 320.000
48.47769 329.000
48.49764 342.000
48.51758 388.000
48.53753 427.000
48.55748 411.000
48.57742 488.000
48.59737 591.000
48.61732 561.000
48.63726 701.000
48.65721 852.000
48.67716 1020.000
48.69711 1384.000
48.71705 1701.000
48.73700 2183.000
48.75695 2460.000
48.77689 2476.000
48.79684 2185.000
48.81679 1922.000
48.83673 1819.000
48.85668 1793.000
48.87663 1751.000
48.89658 1724.000
48.91652 1535.000
48.93647 1332.000
48.95642 979.000
48.97636 839.000
48.99631 646.000
49.01626 619.000
49.03620 549.000
49.05615 443.000
49.07610 430.000
49.09605 333.000
49.11599 336.000
49.13594 336.000
49.15589 291.000
49.17583 300.000
49.19578 288.000
49.21573 260.000
49.23567 259.000
49.25562 235.000
49.27557 234.000
49.29551 214.000
49.31546 219.000
49.33541 218.000
49.35536 219.000
49.37530 189.000
49.39525 229.000
49.41520 244.000
49.43514 227.000
49.45509 227.000
49.47504 206.000
49.49498 201.000
49.51493 207.000
49.53488 196.000
49.55483 182.000
49.57477 211.000
49.59472 200.000
49.61467 163.000
49.63461 200.000
49.65456 187.000
49.67451 182.000
49.69445 198.000
49.71440 193.000
49.73435 138.000
49.75429 185.000
49.77424 160.000
49.79419 201.000
49.81414 157.000
49.83408 167.000
49.85403 174.000
49.87398 171.000
49.89392 197.000
49.91387 178.000
49.93382 185.000
49.95376 173.000
49.97371 161.000
49.99366 171.000
50.01361 167.000
50.03355 155.000
50.05350 151.000
50.07345 191.000
50.09339 166.000
50.11334 187.000
50.13329 201.000
50.15323 187.000
50.17318 170.000
50.19313 171.000
50.21307 170.000
50.23302 174.000
50.25297 164.000
50.27292 174.000
50.29286 156.000
50.31281 163.000
50.33276 176.000
50.35270 168.000
50.37265 173.000
50.39260 187.000
50.41254 196.000
50.43249 150.000
50.45244 162.000
50.47239 175.000
50.49233 166.000
50.51228 164.000
50.53223 195.000
50.55217 172.000
50.57212 163.000
50.59207 174.000
50.61201 148.000
50.63196 196.000
50.65191 163.000
50.67186 153.000
50.69180 177.000
50.71175 191.000
50.73170 170.000
50.75164 160.000
50.77159 174.000
50.79154 159.000
50.81148 169.000
50.83143 132.000
50.85138 165.000
50.87132 193.000
50.89127 183.000
50.91122 160.000
50.93117 168.000
50.95111 207.000
50.97106 170.000
50.99101 182.000
51.01095 175.000
51.03090 164.000
51.05085 186.000
51.07079 179.000
51.09074 170.000
51.11069 168.000
51.13064 149.000
51.15058 165.000
51.17053 160.000
51.19048 146.000
51.21042 162.000
51.23037 189.000
51.25032 193.000
51.27026 180.000
51.29021 177.000
51.31016 181.000
51.33010 164.000
51.35005 170.000
51.37000 163.000
51.38995 169.000
51.40989 159.000
51.42984 186.000
51.44979 168.000
51.46973 172.000
51.48968 163.000
51.50963 172.000
51.52957 163.000
51.54952 157.000
51.56947 166.000
51.58942 170.000
51.60936 167.000
51.62931 156.000
51.64926 167.000
51.66920 160.000
51.68915 159.000
51.70910 162.000
51.72904 167.000
51.74899 162.000
51.76894 147.000
51.78888 164.000
51.80883 144.000
51.82878 161.000
51.84873 179.000
51.86867 171.000
51.88862 157.000
51.90857 140.000
51.92851 158.000
51.94846 193.000
51.96841 158.000
51.98835 145.000
52.00830 168.000
52.02825 185.000
52.04820 151.000
52.06814 169.000
52.08809 165.000
52.10804 163.000
52.12798 163.000
52.14793 161.000
52.16788 159.000
52.18782 154.000
52.20777 160.000
52.22772 181.000
52.24767 166.000
52.26761 154.000
52.28756 165.000
52.30751 148.000
52.32745 155.000
52.34740 166.000
52.36735 170.000
52.38729 146.000
52.40724 157.000
52.42719 173.000
52.44713 158.000
52.46708 191.000
52.48703 141.000
52.50698 164.000
52.52692 183.000
52.54687 165.000
52.56682 176.000
52.58676 175.000
52.60671 159.000
52.62666 145.000
52.64660 148.000
52.66655 163.000
52.68650 173.000
52.70645 154.000
52.72639 149.000
52.74634 161.000
52.76629 165.000
52.78623 170.000
52.80618 156.000
52.82613 155.000
52.84607 176.000
52.86602 150.000
52.88597 159.000
52.90591 173.000
52.92586 172.000
52.94581 172.000
52.96576 170.000
52.98570 174.000
53.00565 140.000
53.02560 162.000
53.04554 149.000
53.06549 180.000
53.08544 169.000
53.10538 178.000
53.12533 186.000
53.14528 165.000
53.16523 205.000
53.18517 198.000
53.20512 201.000
53.22507 210.000
53.24501 178.000
53.26496 182.000
53.28491 192.000
53.30485 204.000
53.32480 196.000
53.34475 205.000
53.36469 200.000
53.38464 192.000
53.40459 211.000
53.42454 203.000
53.44448 182.000
53.46443 203.000
53.48438 210.000
53.50432 180.000
53.52427 182.000
53.54422 170.000
53.56416 167.000
53.58411 150.000
53.60406 205.000
53.62401 165.000
53.64395 183.000
53.66390 172.000
53.68385 159.000
53.70379 164.000
53.72374 183.000
53.74369 181.000
53.76363 167.000
53.78358 157.000
53.80353 151.000
53.82348 162.000
53.84342 159.000
53.86337 169.000
53.88332 166.000
53.90326 144.000
53.92321 155.000
53.94316 168.000
53.96310 180.000
53.98305 150.000
54.00300 144.000
54.02294 145.000
54.04289 152.000
54.06284 158.000
54.08279 191.000
54.10273 147.000
54.12268 157.000
54.14263 145.000
54.16257 146.000
54.18252 153.000
54.20247 157.000
54.22241 194.000
54.24236 156.000
54.26231 184.000
54.28226 157.000
54.30220 152.000
54.32215 157.000
54.34210 161.000
54.36204 162.000
54.38199 156.000
54.40194 173.000
54.42188 158.000
54.44183 143.000
54.46178 150.000
54.48172 140.000
54.50167 156.000
54.52162 154.000
54.54157 162.000
54.56151 147.000
54.58146 170.000
54.60141 141.000
54.62135 160.000
54.64130 161.000
54.66125 148.000
54.68119 154.000
54.70114 163.000
54.72109 194.000
54.74104 166.000
54.76098 171.000
54.78093 146.000
54.80088 152.000
54.82082 127.000
54.84077 160.000
54.86072 180.000
54.88066 157.000
54.90061 160.000
54.92056 168.000
54.94050 157.000
54.96045 165.000
54.98040 177.000
55.00035 158.000
55.02029 152.000
55.04024 183.000
55.06019 169.000
55.08013 132.000
55.10008 159.000
55.12003 154.000
55.13997 136.000
55.15992 194.000
55.17987 145.000
55.19982 170.000
55.21976 174.000
55.23971 156.000
55.25966 159.000
55.27960 152.000
55.29955 150.000
55.31950 161.000
55.33944 166.000
55.35939 144.000
55.37934 143.000
55.39929 160.000
55.41923 140.000
55.43918 182.000
55.45913 158.000
55.47907 153.000
55.49902 162.000
55.51897 130.000
55.53891 157.000
55.55886 144.000
55.57881 158.000
55.59875 143.000
55.61870 187.000
55.63865 153.000
55.65860 149.000
55.67854 159.000
55.69849 139.000
55.71844 150.000
55.73838 161.000
55.75833 155.000
55.77828 162.000
55.79822 150.000
55.81817 140.000
55.83812 162.000
55.85807 160.000
55.87801 152.000
55.89796 163.000
55.91791 156.000
55.93785 155.000
55.95780 161.000
55.97775 162.000
55.99769 164.000
56.01764 140.000
56.03759 187.000
56.05753 160.000
56.07748 154.000
56.09743 180.000
56.11738 152.000
56.13732 127.000
56.15727 137.000
56.17722 157.000
56.19716 144.000
56.21711 160.000
56.23706 155.000
56.25700 151.000
56.27695 167.000
56.29690 157.000
56.31685 151.000
56.33679 157.000
56.35674 171.000
56.37669 145.000
56.39663 152.000
56.41658 149.000
56.43653 168.000
56.45647 149.000
56.47642 162.000
56.49637 164.000
56.51631 176.000
56.53626 182.000
56.55621 145.000
56.57616 164.000
56.59610 167.000
56.61605 169.000
56.63600 161.000
56.65594 189.000
56.67589 170.000
56.69584 162.000
56.71578 178.000
56.73573 158.000
56.75568 161.000
56.77563 163.000
56.79557 148.000
56.81552 160.000
56.83547 175.000
56.85541 158.000
56.87536 150.000
56.89531 153.000
56.91525 172.000
56.93520 151.000
56.95515 158.000
56.97510 153.000
56.99504 175.000
57.01499 161.000
57.03494 139.000
57.05488 166.000
57.07483 160.000
57.09478 154.000
57.11472 176.000
57.13467 164.000
57.15462 180.000
57.17456 163.000
57.19451 164.000
57.21446 164.000
57.23441 187.000
57.25435 176.000
57.27430 175.000
57.29425 143.000
57.31419 134.000
57.33414 185.000
57.35409 173.000
57.37403 190.000
57.39398 182.000
57.41393 164.000
57.43388 154.000
57.45382 165.000
57.47377 191.000
57.49372 179.000
57.51366 201.000
57.53361 171.000
57.55356 173.000
57.57350 182.000
57.59345 180.000
57.61340 166.000
57.63334 154.000
57.65329 167.000
57.67324 164.000
57.69319 175.000
57.71313 162.000
57.73308 173.000
57.75303 164.000
57.77297 150.000
57.79292 177.000
57.81287 166.000
57.83281 164.000
57.85276 179.000
57.87271 183.000
57.89266 162.000
57.91260 152.000
57.93255 177.000
57.95250 167.000
57.97244 174.000
57.99239 174.000
58.01234 159.000
58.03228 180.000
58.05223 193.000
58.07218 159.000
58.09212 195.000
58.11207 159.000
58.13202 197.000
58.15197 194.000
58.17191 211.000
58.19186 252.000
58.21181 237.000
58.23175 247.000
58.25170 240.000
58.27165 245.000
58.29159 217.000
58.31154 233.000
58.33149 189.000
58.35144 212.000
58.37138 228.000
58.39133 215.000
58.41128 210.000
58.43122 226.000
58.45117 186.000
58.47112 178.000
58.49106 188.000
58.51101 179.000
58.53096 152.000
58.55090 161.000
58.57085 175.000
58.59080 157.000
58.61075 173.000
58.63069 158.000
58.65064 167.000
58.67059 158.000
58.69053 170.000
58.71048 182.000
58.73043 157.000
58.75037 171.000
58.77032 167.000
58.79027 176.000
58.81022 176.000
58.83016 157.000
58.85011 162.000
58.87006 174.000
58.89000 168.000
58.90995 167.000
58.92990 166.000
58.94984 161.000
58.96979 148.000
58.98974 175.000
59.00969 138.000
59.02963 164.000
59.04958 158.000
59.06953 161.000
59.08947 176.000
59.10942 188.000
59.12937 156.000
59.14931 154.000
59.16926 162.000
59.18921 161.000
59.20915 163.000
59.22910 153.000
59.24905 151.000
59.26900 159.000
59.28894 151.000
59.30889 152.000
59.32884 172.000
59.34878 187.000
59.36873 168.000
59.38868 177.000
59.40862 160.000
59.42857 162.000
59.44852 162.000
59.46847 165.000
59.48841 178.000
59.50836 151.000
59.52831 179.000
59.54825 169.000
59.56820 162.000
59.58815 163.000
59.60809 144.000
59.62804 152.000
59.64799 179.000
59.66793 153.000
59.68788 164.000
59.70783 172.000
59.72778 178.000
59.74772 175.000
59.76767 167.000
59.78762 152.000
59.80756 169.000
59.82751 160.000
59.84746 163.000
59.86740 154.000
59.88735 157.000
59.90730 148.000
59.92725 163.000
59.94719 167.000
59.96714 152.000
59.98709 168.000
60.00703 146.000
60.02698 136.000
60.04693 190.000
60.06687 173.000
60.08682 168.000
60.10677 141.000
60.12671 165.000
60.14666 164.000
60.16661 141.000
60.18656 166.000
60.20650 157.000
60.22645 170.000
60.24640 154.000
60.26634 157.000
60.28629 167.000
60.30624 163.000
60.32618 162.000
60.34613 173.000
60.36608 184.000
60.38603 151.000
60.40597 162.000
60.42592 179.000
60.44587 168.000
60.46581 160.000
60.48576 162.000
60.50571 186.000
60.52565 156.000
60.54560 176.000
60.56555 164.000
60.58550 153.000
60.60544 130.000
60.62539 175.000
60.64534 194.000
60.66528 171.000
60.68523 168.000
60.70518 169.000
60.72512 172.000
60.74507 189.000
60.76502 178.000
60.78496 168.000
60.80491 177.000
60.82486 171.000
60.84481 174.000
60.86475 164.000
60.88470 165.000
60.90465 182.000
60.92459 186.000
60.94454 183.000
60.96449 187.000
60.98443 171.000
61.00438 163.000
61.02433 141.000
61.04428 183.000
61.06422 185.000
61.08417 196.000
61.10412 177.000
61.12406 184.000
61.14401 161.000
61.16396 192.000
61.18390 194.000
61.20385 208.000
61.22380 184.000
61.24374 192.000
61.26369 186.000
61.28364 202.000
61.30359 194.000
61.32353 214.000
61.34348 226.000
61.36343 219.000
61.38337 199.000
61.40332 244.000
61.42327 202.000
61.44321 251.000
61.46316 263.000
61.48311 294.000
61.50306 328.000
61.52300 324.000
61.54295 359.000
61.56290 362.000
61.58284 328.000
61.60279 329.000
61.62274 333.000
61.64268 361.000
61.66263 366.000
61.68258 380.000
61.70252 413.000
61.72247 424.000
61.74242 430.000
61.76237 467.000
61.78231 544.000
61.80226 590.000
61.82221 706.000
61.84215 747.000
61.86210 878.000
61.88205 989.000
61.90199 959.000
61.92194 878.000
61.94189 841.000
61.96184 726.000
61.98178 728.000
62.00173 741.000
62.02168 662.000
62.04162 714.000
62.06157 677.000
62.08152 672.000
62.10146 556.000
62.12141 532.000
62.14136 462.000
62.16131 395.000
62.18125 338.000
62.20120 285.000
62.22115 251.000
62.24109 242.000
62.26104 242.000
62.28099 241.000
62.30093 250.000
62.32088 229.000
62.34083 225.000
62.36077 208.000
62.38072 212.000
62.40067 219.000
62.42062 195.000
62.44056 220.000
62.46051 160.000
62.48046 196.000
62.50040 216.000
62.52035 188.000
62.54030 201.000
62.56024 187.000
62.58019 176.000
62.60014 181.000
62.62009 214.000
62.64003 180.000
62.65998 170.000
62.67993 173.000
62.69987 187.000
62.71982 211.000
62.73977 157.000
62.75971 180.000
62.77966 206.000
62.79961 187.000
62.81955 191.000
62.83950 199.000
62.85945 181.000
62.87940 204.000
62.89934 179.000
62.91929 162.000
62.93924 202.000
62.95918 179.000
62.97913 172.000
62.99908 202.000
63.01902 184.000
63.03897 226.000
63.05892 178.000
63.07887 186.000
63.09881 185.000
63.11876 169.000
63.13871 213.000
63.15865 179.000
63.17860 202.000
63.19855 193.000
63.21849 174.000
63.23844 228.000
63.25839 159.000
63.27833 190.000
63.29828 150.000
63.31823 179.000
63.33818 175.000
63.35812 181.000
63.37807 157.000
63.39802 180.000
63.41796 166.000
63.43791 199.000
63.45786 170.000
63.47780 167.000
63.49775 176.000
63.51770 166.000
63.53765 170.000
63.55759 175.000
63.57754 189.000
63.59749 183.000
63.61743 179.000
63.63738 169.000
63.65733 168.000
63.67727 176.000
63.69722 172.000
63.71717 160.000
63.73712 178.000
63.75706 168.000
63.77701 156.000
63.79696 166.000
63.81690 159.000
63.83685 155.000
63.85680 184.000
63.87674 179.000
63.89669 189.000
63.91664 176.000
63.93658 174.000
63.95653 153.000
63.97648 190.000
63.99643 176.000
64.01637 197.000
64.03632 160.000
64.05627 171.000
64.07621 170.000
64.09616 149.000
64.11611 182.000
64.13605 191.000
64.15600 156.000
64.17595 221.000
64.19590 180.000
64.21584 210.000
64.23579 202.000
64.25574 207.000
64.27568 211.000
64.29563 164.000
64.31558 190.000
64.33552 266.000
64.35547 250.000
64.37542 226.000
64.39536 229.000
64.41531 228.000
64.43526 242.000
64.45521 273.000
64.47515 270.000
64.49510 318.000
64.51505 356.000
64.53499 432.000
64.55494 556.000
64.57489 718.000
64.59483 873.000
64.61478 976.000
64.63473 906.000
64.65468 720.000
64.67462 633.000
64.69457 598.000
64.71452 454.000
64.73446 471.000
64.75441 569.000
64.77436 586.000
64.79430 631.000
64.81425 551.000
64.83420 481.000
64.85414 429.000
64.87409 362.000
64.89404 317.000
64.91399 277.000
64.93393 232.000
64.95388 261.000
64.97383 238.000
64.99377 233.000
65.01372 233.000
65.03367 192.000
65.05361 231.000
65.07356 191.000
65.09351 165.000
65.11346 214.000
65.13340 187.000
65.15335 204.000
65.17330 182.000
65.19324 178.000
65.21319 179.000
65.23314 186.000
65.25308 176.000
65.27303 186.000
65.29298 179.000
65.31293 192.000
65.33287 190.000
65.35282 183.000
65.37277 204.000
65.39271 181.000
65.41266 189.000
65.43261 170.000
65.45255 175.000
65.47250 195.000
65.49245 202.000
65.51239 190.000
65.53234 200.000
65.55229 198.000
65.57224 192.000
65.59218 228.000
65.61213 242.000
65.63208 224.000
65.65202 205.000
65.67197 224.000
65.69192 209.000
65.71186 210.000
65.73181 227.000
65.75176 241.000
65.77171 225.000
65.79165 206.000
65.81160 212.000
65.83155 203.000
65.85149 184.000
65.87144 217.000
65.89139 178.000
65.91133 224.000
65.93128 186.000
65.95123 193.000
65.97117 175.000
65.99112 194.000
66.01107 178.000
66.03102 196.000
66.05096 182.000
66.07091 181.000
66.09086 198.000
66.11080 173.000
66.13075 191.000
66.15070 205.000
66.17064 226.000
66.19059 213.000
66.21054 198.000
66.23049 193.000
66.25043 239.000
66.27038 246.000
66.29033 246.000
66.31027 239.000
66.33022 267.000
66.35017 263.000
66.37011 291.000
66.39006 292.000
66.41001 292.000
66.42995 306.000
66.44990 294.000
66.46985 298.000
66.48980 331.000
66.50974 338.000
66.52969 311.000
66.54964 334.000
66.56958 308.000
66.58953 331.000
66.60948 318.000
66.62942 292.000
66.64937 269.000
66.66932 288.000
66.68927 261.000
66.70921 261.000
66.72916 273.000
66.74911 256.000
66.76905 284.000
66.78900 272.000
66.80895 273.000
66.82889 291.000
66.84884 294.000
66.86879 332.000
66.88874 337.000
66.90868 411.000
66.92863 493.000
66.94858 567.000
66.96852 673.000
66.98847 671.000
67.00842 605.000
67.02836 535.000
67.04831 460.000
67.06826 425.000
67.08820 417.000
67.10815 378.000
67.12810 409.000
67.14805 459.000
67.16799 471.000
67.18794 449.000
67.20789 367.000
67.22783 341.000
67.24778 286.000
67.26773 248.000
67.28767 227.000
67.30762 226.000
67.32757 222.000
67.34752 235.000
67.36746 214.000
67.38741 208.000
67.40736 183.000
67.42730 228.000
67.44725 185.000
67.46720 183.000
67.48714 207.000
67.50709 181.000
67.52704 167.000
67.54698 183.000
67.56693 195.000
67.58688 184.000
67.60683 178.000
67.62677 168.000
67.64672 173.000
67.66667 190.000
67.68661 192.000
67.70656 186.000
67.72651 181.000
67.74645 211.000
67.76640 217.000
67.78635 197.000
67.80630 208.000
67.82624 196.000
67.84619 209.000
67.86614 217.000
67.88608 219.000
67.90603 241.000
67.92598 216.000
67.94592 233.000
67.96587 243.000
67.98582 249.000
68.00576 249.000
68.02571 237.000
68.04566 224.000
68.06561 225.000
68.08555 233.000
68.10550 231.000
68.12545 214.000
68.14539 187.000
68.16534 211.000
68.18529 237.000
68.20523 196.000
68.22518 214.000
68.24513 221.000
68.26508 192.000
68.28502 174.000
68.30497 185.000
68.32492 153.000
68.34486 190.000
68.36481 175.000
68.38476 184.000
68.40470 146.000
68.42465 164.000
68.44460 167.000
68.46455 167.000
68.48449 141.000
68.50444 171.000
68.52439 167.000
68.54433 164.000
68.56428 154.000
68.58423 179.000
68.60417 154.000
68.62412 158.000
68.64407 160.000
68.66401 206.000
68.68396 171.000
68.70391 158.000
68.72386 155.000
68.74380 169.000
68.76375 156.000
68.78370 185.000
68.80364 166.000
68.82359 170.000
68.84354 180.000
68.86348 144.000
68.88343 169.000
68.90338 169.000
68.92333 190.000
68.94327 157.000
68.96322 174.000
68.98317 158.000
69.00311 149.000
69.02306 156.000
69.04301 157.000
69.06295 146.000
69.08290 179.000
69.10285 156.000
69.12279 145.000
69.14274 184.000
69.16269 153.000
69.18264 158.000
69.20258 169.000
69.22253 172.000
69.24248 168.000
69.26242 153.000
69.28237 173.000
69.30232 184.000
69.32226 151.000
69.34221 164.000
69.36216 146.000
69.38211 166.000
69.40205 166.000
69.42200 151.000
69.44195 175.000
69.46189 157.000
69.48184 148.000
69.50179 172.000
69.52173 169.000
69.54168 185.000
69.56163 158.000
69.58157 159.000
69.60152 188.000
69.62147 170.000
69.64142 171.000
69.66136 155.000
69.68131 173.000
69.70126 155.000
69.72120 166.000
69.74115 167.000
69.76110 176.000
69.78104 175.000
69.80099 176.000
69.82094 137.000
69.84089 194.000
69.86083 178.000
69.88078 164.000
69.90073 164.000
69.92067 168.000
69.94062 148.000
69.96057 178.000
69.98051 152.000
70.00046 138.000
70.02041 181.000
70.04035 155.000
70.06030 155.000
70.08025 168.000
70.10020 157.000
70.12014 141.000
70.14009 167.000
70.16004 165.000
70.17998 167.000
70.19993 159.000
70.21988 180.000
70.23982 157.000
70.25977 151.000
70.27972 169.000
70.29967 151.000
70.31961 170.000
70.33956 154.000
70.35951 166.000
70.37945 153.000
70.39940 141.000
70.41935 135.000
70.43929 145.000
70.45924 146.000
70.47919 167.000
70.49914 138.000
70.51908 141.000
70.53903 175.000
70.55898 169.000
70.57892 136.000
70.59887 174.000
70.61882 157.000
70.63876 153.000
70.65871 185.000
70.67866 153.000
70.69860 176.000
70.71855 148.000
70.73850 158.000
70.75845 167.000
70.77839 140.000
70.79834 143.000
70.81829 188.000
70.83823 174.000
70.85818 162.000
70.87813 144.000
70.89807 148.000
70.91802 141.000
70.93797 141.000
70.95792 140.000
70.97786 149.000
70.99781 145.000
71.01776 163.000
71.03770 162.000
71.05765 149.000
71.07760 147.000
71.09754 197.000
71.11749 157.000
71.13744 164.000
71.15738 154.000
71.17733 140.000
71.19728 161.000
71.21723 161.000
71.23717 134.000
71.25712 173.000
71.27707 168.000
71.29701 151.000
71.31696 164.000
71.33691 155.000
71.35685 157.000
71.37680 148.000
71.39675 180.000
71.41670 156.000
71.43664 165.000
71.45659 160.000
71.47654 150.000
71.49648 163.000
71.51643 157.000
71.53638 163.000
71.55632 151.000
71.57627 182.000
71.59622 161.000
71.61616 158.000
71.63611 165.000
71.65606 176.000
71.67601 173.000
71.69595 159.000
71.71590 173.000
71.73585 160.000
71.75579 181.000
71.77574 179.000
71.79569 147.000
71.81563 168.000
71.83558 176.000
71.85553 152.000
71.87548 145.000
71.89542 176.000
71.91537 172.000
71.93532 146.000
71.95526 139.000
71.97521 170.000
71.99516 130.000
72.01510 154.000
72.03505 164.000
72.05500 180.000
72.07495 144.000
72.09489 169.000
72.11484 159.000
72.13479 151.000
72.15473 147.000
72.17468 138.000
72.19463 161.000
72.21457 148.000
72.23452 175.000
72.25447 159.000
72.27441 199.000
72.29436 187.000
72.31431 195.000
72.33426 160.000
72.35420 188.000
72.37415 197.000
72.39410 152.000
72.41404 194.000
72.43399 185.000
72.45394 208.000
72.47388 177.000
72.49383 158.000
72.51378 158.000
72.53373 173.000
72.55367 180.000
72.57362 159.000
72.59357 170.000
72.61351 183.000
72.63346 181.000
72.65341 173.000
72.67335 148.000
72.69330 178.000
72.71325 152.000
72.73319 166.000
72.75314 162.000
72.77309 174.000
72.79304 180.000
72.81298 152.000
72.83293 174.000
72.85288 161.000
72.87282 156.000
72.89277 181.000
72.91272 170.000
72.93266 145.000
72.95261 152.000
72.97256 177.000
72.99251 142.000
73.01245 170.000
73.03240 157.000
73.05235 153.000
73.07229 149.000
73.09224 166.000
73.11219 145.000
73.13213 146.000
73.15208 175.000
73.17203 162.000
73.19197 168.000
73.21192 154.000
73.23187 164.000
73.25182 165.000
73.27176 189.000
73.29171 150.000
73.31166 154.000
73.33160 159.000
73.35155 151.000
73.37150 168.000
73.39144 139.000
73.41139 161.000
73.43134 177.000
73.45129 166.000
73.47123 158.000
73.49118 177.000
73.51113 174.000
73.53107 172.000
73.55102 174.000
73.57097 166.000
73.59091 193.000
73.61086 209.000
73.63081 214.000
73.65076 184.000
73.67070 216.000
73.69065 214.000
73.71060 226.000
73.73054 234.000
73.75049 247.000
73.77044 248.000
73.79038 308.000
73.81033 345.000
73.83028 347.000
73.85022 357.000
73.87017 347.000
73.89012 315.000
73.91007 286.000
73.93001 264.000
73.94996 266.000
73.96991 258.000
73.98985 277.000
74.00980 260.000
74.02975 248.000
74.04969 294.000
74.06964 289.000
74.08959 240.000
74.10954 246.000
74.12948 207.000
74.14943 223.000
74.16938 234.000
74.18932 191.000
74.20927 193.000
74.22922 220.000
74.24916 217.000
74.26911 177.000
74.28906 164.000
74.30900 183.000
74.32895 185.000
74.34890 163.000
74.36885 182.000
74.38879 175.000
74.40874 159.000
74.42869 181.000
74.44863 151.000
74.46858 144.000
74.48853 174.000
74.50847 160.000
74.52842 168.000
74.54837 139.000
74.56832 159.000
74.58826 171.000
74.60821 176.000
74.62816 159.000
74.64810 155.000
74.66805 177.000
74.68800 172.000
74.70794 166.000
74.72789 184.000
74.74784 181.000
74.76778 180.000
74.78773 161.000
74.80768 166.000
74.82763 149.000
74.84757 179.000
74.86752 177.000
74.88747 166.000
74.90741 195.000
74.92736 228.000
74.94731 207.000
74.96725 198.000
74.98720 195.000
75.00715 182.000
75.02710 205.000
75.04704 165.000
75.06699 195.000
75.08694 185.000
75.10688 179.000
75.12683 179.000
75.14678 200.000
75.16672 190.000
75.18667 194.000
75.20662 194.000
75.22657 231.000
75.24651 192.000
75.26646 171.000
75.28641 194.000
75.30635 183.000
75.32630 204.000
75.34625 168.000
75.36619 181.000
75.38614 171.000
75.40609 169.000
75.42603 196.000
75.44598 156.000
75.46593 167.000
75.48588 205.000
75.50582 161.000
75.52577 160.000
75.54572 174.000
75.56566 165.000
75.58561 166.000
75.60556 164.000
75.62550 149.000
75.64545 160.000
75.66540 154.000
75.68535 165.000
75.70529 170.000
75.72524 164.000
75.74519 162.000
75.76513 143.000
75.78508 156.000
75.80503 152.000
75.82497 175.000
75.84492 161.000
75.86487 143.000
75.88481 161.000
75.90476 171.000
75.92471 183.000
75.94466 146.000
75.96460 146.000
75.98455 169.000
76.00450 164.000
76.02444 179.000
76.04439 166.000
76.06434 159.000
76.08428 198.000
76.10423 182.000
76.12418 176.000
76.14413 192.000
76.16407 226.000
76.18402 212.000
76.20397 256.000
76.22391 254.000
76.24386 220.000
76.26381 210.000
76.28375 209.000
76.30370 200.000
76.32365 216.000
76.34359 211.000
76.36354 214.000
76.38349 201.000
76.40344 234.000
76.42338 218.000
76.44333 223.000
76.46328 239.000
76.48322 182.000
76.50317 204.000
76.52312 165.000
76.54306 163.000
76.56301 165.000
76.58296 170.000
76.60291 179.000
76.62285 166.000
76.64280 165.000
76.66275 169.000
76.68269 192.000
76.70264 173.000
76.72259 170.000
76.74253 139.000
76.76248 176.000
76.78243 178.000
76.80238 173.000
76.82232 188.000
76.84227 161.000
76.86222 189.000
76.88216 157.000
76.90211 166.000
76.92206 157.000
76.94200 147.000
76.96195 167.000
76.98190 176.000
77.00184 153.000
77.02179 174.000
77.04174 153.000
77.06169 167.000
77.08163 156.000
77.10158 146.000
77.12153 131.000
77.14147 162.000
77.16142 166.000
77.18137 153.000
77.20131 153.000
77.22126 165.000
77.24121 157.000
77.26116 157.000
77.28110 171.000
77.30105 181.000
77.32100 173.000
77.34094 142.000
77.36089 171.000
77.38084 179.000
77.40078 161.000
77.42073 171.000
77.44068 154.000
77.46062 177.000
77.48057 189.000
77.50052 153.000
77.52047 174.000
77.54041 188.000
77.56036 182.000
77.58031 191.000
77.60025 173.000
77.62020 169.000
77.64015 160.000
77.66009 183.000
77.68004 186.000
77.69999 189.000
77.71994 204.000
77.73988 198.000
77.75983 204.000
77.77978 194.000
77.79972 205.000
77.81967 224.000
77.83962 235.000
77.85956 258.000
77.87951 284.000
77.89946 295.000
77.91940 308.000
77.93935 351.000
77.95930 334.000
77.97925 340.000
77.99919 354.000
78.01914 372.000
78.03909 352.000
78.05903 357.000
78.07898 348.000
78.09893 358.000
78.11887 321.000
78.13882 333.000
78.15877 315.000
78.17872 308.000
78.19866 306.000
78.21861 318.000
78.23856 284.000
78.25850 329.000
78.27845 307.000
78.29840 312.000
78.31834 306.000
78.33829 329.000
78.35824 353.000
78.37819 363.000
78.39813 373.000
78.41808 393.000
78.43803 357.000
78.45797 351.000
78.47792 290.000
78.49787 355.000
78.51781 295.000
78.53776 269.000
78.55771 259.000
78.57765 275.000
78.59760 251.000
78.61755 301.000
78.63750 254.000
78.65744 306.000
78.67739 293.000
78.69734 231.000
78.71728 255.000
78.73723 212.000
78.75718 223.000
78.77712 200.000
78.79707 221.000
78.81702 180.000
78.83697 189.000
78.85691 202.000
78.87686 178.000
78.89681 168.000
78.91675 180.000
78.93670 175.000
78.95665 187.000
78.97659 171.000
78.99654 152.000
79.01649 169.000
79.03643 146.000
79.05638 162.000
79.07633 142.000
79.09628 164.000
79.11622 167.000
79.13617 151.000
79.15612 186.000
79.17606 157.000
79.19601 161.000
79.21596 158.000
79.23590 172.000
79.25585 139.000
79.27580 155.000
79.29575 150.000
79.31569 161.000
79.33564 168.000
79.35559 164.000
79.37553 172.000
79.39548 154.000
79.41543 145.000
79.43537 142.000
79.45532 154.000
79.47527 161.000
79.49521 144.000
79.51516 144.000
79.53511 151.000
79.55506 159.000
79.57500 173.000
79.59495 172.000
79.61490 132.000
79.63484 143.000
79.65479 181.000
79.67474 166.000
79.69468 176.000
79.71463 172.000
79.73458 163.000
79.75453 160.000
79.77447 156.000
79.79442 170.000
79.81437 141.000
79.83431 152.000
79.85426 159.000
79.87421 162.000
79.89415 158.000
79.91410 159.000
79.93405 160.000
79.95399 139.000
79.97394 178.000
79.99389 174.000
80.01384 142.000
80.03378 169.000
80.05373 165.000
80.07368 144.000
80.09362 149.000
80.11357 160.000
80.13352 189.000
80.15346 140.000
80.17341 172.000
80.19336 165.000
80.21331 182.000
80.23325 164.000
80.25320 162.000
80.27315 166.000
80.29309 175.000
80.31304 182.000
80.33299 179.000
80.35293 178.000
80.37288 159.000
80.39283 155.000
80.41278 161.000
80.43272 155.000
80.45267 152.000
80.47262 165.000
80.49256 165.000
80.51251 171.000
80.53246 158.000
80.55240 164.000
80.57235 149.000
80.59230 148.000
80.61224 166.000
80.63219 142.000
80.65214 162.000
80.67209 172.000
80.69203 186.000
80.71198 178.000
80.73193 158.000
80.75187 169.000
80.77182 128.000
80.79177 177.000
80.81171 165.000
80.83166 143.000
80.85161 164.000
80.87156 171.000
80.89150 159.000
80.91145 159.000
80.93140 163.000
80.95134 139.000
80.97129 145.000
80.99124 180.000
81.01118 162.000
81.03113 175.000
81.05108 163.000
81.07102 176.000
81.09097 189.000
81.11092 149.000
81.13087 177.000
81.15081 205.000
81.17076 179.000
81.19071 172.000
81.21065 173.000
81.23060 176.000
81.25055 152.000
81.27049 157.000
81.29044 152.000
81.31039 176.000
81.33034 197.000
81.35028 152.000
81.37023 161.000
81.39018 158.000
81.41012 153.000
81.43007 154.000
81.45002 163.000
81.46996 164.000
81.48991 180.000
81.50986 141.000
81.52980 180.000
81.54975 163.000
81.56970 161.000
81.58965 172.000
81.60959 172.000
81.62954 155.000
81.64949 153.000
81.66943 177.000
81.68938 167.000
81.70933 147.000
81.72927 166.000
81.74922 150.000
81.76917 170.000
81.78912 148.000
81.80906 155.000
81.82901 172.000
81.84896 164.000
81.86890 168.000
81.88885 160.000
81.90880 146.000
81.92874 166.000
81.94869 160.000
81.96864 157.000
81.98859 144.000
82.00853 146.000
82.02848 164.000
82.04843 156.000
82.06837 153.000
82.08832 164.000
82.10827 152.000
82.12821 165.000
82.14816 158.000
82.16811 162.000
82.18805 155.000
82.20800 146.000
82.22795 151.000
82.24790 180.000
82.26784 166.000
82.28779 161.000
82.30774 145.000
82.32768 163.000
82.34763 164.000
82.36758 161.000
82.38752 181.000
82.40747 171.000
82.42742 165.000
82.44737 154.000
82.46731 177.000
82.48726 188.000
82.50721 155.000
82.52715 163.000
82.54710 179.000
82.56705 194.000
82.58699 187.000
82.60694 189.000
82.62689 179.000
82.64683 155.000
82.66678 186.000
82.68673 197.000
82.70668 169.000
82.72662 174.000
82.74657 180.000
82.76652 161.000
82.78646 176.000
82.80641 168.000
82.82636 200.000
82.84630 196.000
82.86625 198.000
82.88620 192.000
82.90615 158.000
82.92609 159.000
82.94604 189.000
82.96599 184.000
82.98593 169.000
83.00588 162.000
83.02583 158.000
83.04577 167.000
83.06572 179.000
83.08567 180.000
83.10561 147.000
83.12556 159.000
83.14551 168.000
83.16546 163.000
83.18540 194.000
83.20535 158.000
83.22530 157.000
83.24524 164.000
83.26519 181.000
83.28514 165.000
83.30508 173.000
83.32503 171.000
83.34498 176.000
83.36493 164.000
83.38487 143.000
83.40482 162.000
83.42477 143.000
83.44471 180.000
83.46466 157.000
83.48461 156.000
83.50455 166.000
83.52450 165.000
83.54445 160.000
83.56440 155.000
83.58434 139.000
83.60429 146.000
83.62424 161.000
83.64418 158.000
83.66413 182.000
83.68408 174.000
83.70402 168.000
83.72397 162.000
83.74392 180.000
83.76386 171.000
83.78381 165.000
83.80376 160.000
83.82371 147.000
83.84365 164.000
83.86360 168.000
83.88355 151.000
83.90349 155.000
83.92344 135.000
83.94339 152.000
83.96333 161.000
83.98328 131.000
84.00323 180.000
84.02318 176.000
84.04312 152.000
84.06307 165.000
84.08302 159.000
84.10296 194.000
84.12291 181.000
84.14286 159.000
84.16280 156.000
84.18275 153.000
84.20270 156.000
84.22264 162.000
84.24259 169.000
84.26254 167.000
84.28249 171.000
84.30243 173.000
84.32238 175.000
84.34233 173.000
84.36227 168.000
84.38222 165.000
84.40217 149.000
84.42211 145.000
84.44206 135.000
84.46201 162.000
84.48196 155.000
84.50190 171.000
84.52185 180.000
84.54180 182.000
84.56174 177.000
84.58169 176.000
84.60164 163.000
84.62158 191.000
84.64153 175.000
84.66148 201.000
84.68142 177.000
84.70137 202.000
84.72132 211.000
84.74127 205.000
84.76121 196.000
84.78116 251.000
84.80111 229.000
84.82105 287.000
84.84100 240.000
84.86095 275.000
84.88089 319.000
84.90084 329.000
84.92079 313.000
84.94074 355.000
84.96068 401.000
84.98063 376.000
85.00058 340.000
85.02052 343.000
85.04047 278.000
85.06042 267.000
85.08036 274.000
85.10031 278.000
85.12026 248.000
85.14021 252.000
85.16015 257.000
85.18010 275.000
85.20005 294.000
85.21999 261.000
85.23994 245.000
85.25989 239.000
85.27983 245.000
85.29978 251.000
85.31973 207.000
85.33967 210.000
85.35962 198.000
85.37957 192.000
85.39952 192.000
85.41946 178.000
85.43941 188.000
85.45936 197.000
85.47930 183.000
85.49925 159.000
85.51920 152.000
85.53914 143.000
85.55909 145.000
85.57904 179.000
85.59899 174.000
85.61893 175.000
85.63888 148.000
85.65883 184.000
85.67877 165.000
85.69872 155.000
85.71867 156.000
85.73861 167.000
85.75856 159.000
85.77851 162.000
85.79845 159.000
85.81840 151.000
85.83835 180.000
85.85830 150.000
85.87824 168.000
85.89819 172.000
85.91814 186.000
85.93808 158.000
85.95803 162.000
85.97798 173.000
85.99792 161.000
86.01787 162.000
86.03782 163.000
86.05777 133.000
86.07771 178.000
86.09766 151.000
86.11761 162.000
86.13755 154.000
86.15750 164.000
86.17745 145.000
86.19739 163.000
86.21734 183.000
86.23729 148.000
86.25723 165.000
86.27718 165.000
86.29713 164.000
86.31708 177.000
86.33702 155.000
86.35697 147.000
86.37692 163.000
86.39686 156.000
86.41681 163.000
86.43676 168.000
86.45670 199.000
86.47665 182.000
86.49660 160.000
86.51655 187.000
86.53649 168.000
86.55644 187.000
86.57639 208.000
86.59633 205.000
86.61628 204.000
86.63623 190.000
86.65617 165.000
86.67612 179.000
86.69607 174.000
86.71602 180.000
86.73596 146.000
86.75591 173.000
86.77586 173.000
86.79580 176.000
86.81575 182.000
86.83570 181.000
86.85564 186.000
86.87559 187.000
86.89554 179.000
86.91548 173.000
86.93543 159.000
86.95538 170.000
86.97533 186.000
86.99527 166.000
87.01522 161.000
87.03517 180.000
87.05511 161.000
87.07506 175.000
87.09501 174.000
87.11495 191.000
87.13490 174.000
87.15485 188.000
87.17480 170.000
87.19474 206.000
87.21469 187.000
87.23464 159.000
87.25458 176.000
87.27453 168.000
87.29448 185.000
87.31442 189.000
87.33437 180.000
87.35432 176.000
87.37426 174.000
87.39421 166.000
87.41416 158.000
87.43411 154.000
87.45405 150.000
87.47400 149.000
87.49395 171.000
87.51389 157.000
87.53384 170.000
87.55379 158.000
87.57373 173.000
87.59368 192.000
87.61363 162.000
87.63358 178.000
87.65352 155.000
87.67347 163.000
87.69342 169.000
87.71336 174.000
87.73331 185.000
87.75326 158.000
87.77320 173.000
87.79315 155.000
87.81310 174.000
87.83304 173.000
87.85299 160.000
87.87294 155.000
87.89289 159.000
87.91283 170.000
87.93278 149.000
87.95273 186.000
87.97267 150.000
87.99262 165.000
88.01257 154.000
88.03251 149.000
88.05246 181.000
88.07241 162.000
88.09236 154.000
88.11230 153.000
88.13225 156.000
88.15220 163.000
88.17214 140.000
88.19209 157.000
88.21204 156.000
88.23198 154.000
88.25193 147.000
88.27188 124.000
88.29183 133.000
88.31177 157.000
88.33172 162.000
88.35167 150.000
88.37161 160.000
88.39156 164.000
88.41151 144.000
88.43145 162.000
88.45140 161.000
88.47135 136.000
88.49129 154.000
88.51124 147.000
88.53119 188.000
88.55114 163.000
88.57108 144.000
88.59103 159.000
88.61098 171.000
88.63092 167.000
88.65087 148.000
88.67082 162.000
88.69076 151.000
88.71071 140.000
88.73066 153.000
88.75061 171.000
88.77055 163.000
88.79050 155.000
88.81045 136.000
88.83039 170.000
88.85034 148.000
88.87029 143.000
88.89023 156.000
88.91018 155.000
88.93013 159.000
88.95007 141.000
88.97002 133.000
88.98997 168.000
89.00992 143.000
89.02986 173.000
89.04981 143.000
89.06976 134.000
89.08970 158.000
89.10965 160.000
89.12960 132.000
89.14954 168.000
89.16949 159.000
89.18944 149.000
89.20939 157.000
89.22933 160.000
89.24928 171.000
89.26923 172.000
89.28917 151.000
89.30912 155.000
89.32907 169.000
89.34901 169.000
89.36896 168.000
89.38891 165.000
89.40885 165.000
89.42880 163.000
89.44875 161.000
89.46870 170.000
89.48864 167.000
89.50859 181.000
89.52854 168.000
89.54848 177.000
89.56843 166.000
89.58838 150.000
89.60832 183.000
89.62827 178.000
89.64822 170.000
89.66817 175.000
89.68811 180.000
89.70806 177.000
89.72801 142.000
89.74795 162.000
89.76790 162.000
89.78785 176.000
89.80779 157.000
89.82774 151.000
89.84769 175.000
89.86764 160.000
89.88758 183.000
89.90753 179.000
89.92748 165.000
89.94742 157.000
89.96737 156.000
89.98732 187.000
90.00726 157.000
