10.00000 142.000
10.01995 120.000
10.03989 110.000
10.05984 144.000
10.07979 133.000
10.09973 138.000
10.11968 105.000
10.13963 133.000
10.15958 125.000
10.17952 98.000
10.19947 117.000
10.21942 124.000
10.23936 113.000
10.25931 124.000
10.27926 116.000
10.29920 138.000
10.31915 129.000
10.33910 147.000
10.35905 128.000
10.37899 135.000
10.39894 138.000
10.41889 96.000
10.43883 127.000
10.45878 121.000
10.47873 136.000
10.49867 134.000
10.51862 116.000
10.53857 142.000
10.55851 143.000
10.57846 136.000
10.59841 119.000
10.61836 139.000
10.63830 124.000
10.65825 136.000
10.67820 143.000
10.69814 120.000
10.71809 151.000
10.73804 128.000
10.75798 142.000
10.77793 127.000
10.79788 124.000
10.81783 140.000
10.83777 163.000
10.85772 131.000
10.87767 131.000
10.89761 136.000
10.91756 138.000
10.93751 124.000
10.95745 160.000
10.97740 130.000
10.99735 134.000
11.01730 148.000
11.03724 156.000
11.05719 125.000
11.07714 153.000
11.09708 155.000
11.11703 137.000
11.13698 138.000
11.15692 141.000
11.17687 151.000
11.19682 149.000
11.21676 161.000
11.23671 143.000
11.25666 97.000
11.27661 147.000
11.29655 149.000
11.31650 154.000
11.33645 136.000
11.35639 140.000
11.37634 141.000
11.39629 136.000
11.41623 150.000
11.43618 152.000
11.45613 131.000
11.47608 143.000
11.49602 133.000
11.51597 165.000
11.53592 130.000
11.55586 138.000
11.57581 153.000
11.59576 151.000
11.61570 162.000
11.63565 146.000
11.65560 142.000
11.67554 163.000
11.69549 134.000
11.71544 159.000
11.73539 148.000
11.75533 159.000
11.77528 139.000
11.79523 147.000
11.81517 169.000
11.83512 147.000
11.85507 165.000
11.87501 126.000
11.89496 156.000
11.91491 162.000
11.93486 154.000
11.95480 168.000
11.97475 151.000
11.99470 172.000
12.01464 162.000
12.03459 148.000
12.05454 120.000
12.07448 165.000
12.09443 161.000
12.11438 173.000
12.13432 159.000
12.15427 151.000
12.17422 152.000
12.19417 162.000
12.21411 147.000
12.23406 144.000
12.25401 156.000
12.27395 161.000
12.29390 170.000
12.31385 166.000
12.33379 155.000
12.35374 164.000
12.37369 157.000
12.39364 165.000
12.41358 159.000
12.43353 172.000
12.45348 148.000
12.47342 124.000
12.49337 146.000
12.51332 170.000
12.53326 163.000
12.55321 149.000
12.57316 181.000
12.59311 153.000
12.61305 183.000
12.63300 169.000
12.65295 160.000
12.67289 168.000
12.69284 159.000
12.71279 152.000
12.73273 164.000
12.75268 160.000
12.77263 162.000
12.79257 170.000
12.81252 161.000
12.83247 180.000
12.85242 187.000
12.87236 180.000
12.89231 141.000
12.91226 167.000
12.93220 170.000
12.95215 185.000
12.97210 187.000
12.99204 159.000
13.01199 206.000
13.03194 170.000
13.05189 177.000
13.07183 174.000
13.09178 165.000
13.11173 160.000
13.13167 173.000
13.15162 180.000
13.17157 166.000
13.19151 176.000
13.21146 145.000
13.23141 148.000
13.25135 185.000
13.27130 170.000
13.29125 183.000
13.31120 164.000
13.33114 175.000
13.35109 194.000
13.37104 186.000
13.39098 170.000
13.41093 183.000
13.43088 190.000
13.45082 172.000
13.47077 191.000
13.49072 177.000
13.51067 165.000
13.53061 203.000
13.55056 174.000
13.57051 192.000
13.59045 187.000
13.61040 168.000
13.63035 211.000
13.65029 203.000
13.67024 203.000
13.69019 193.000
13.71013 195.000
13.73008 172.000
13.75003 203.000
13.76998 183.000
13.78992 197.000
13.80987 166.000
13.82982 204.000
13.84976 184.000
13.86971 183.000
13.88966 171.000
13.90960 183.000
13.92955 203.000
13.94950 204.000
13.96945 189.000
13.98939 205.000
14.00934 217.000
14.02929 172.000
14.04923 180.000
14.06918 193.000
14.08913 213.000
14.10907 210.000
14.12902 189.000
14.14897 187.000
14.16892 180.000
14.18886 188.000
14.20881 176.000
14.22876 189.000
14.24870 200.000
14.26865 208.000
14.28860 175.000
14.30854 192.000
14.32849 181.000
14.34844 185.000
14.36838 164.000
14.38833 176.000
14.40828 206.000
14.42823 198.000
14.44817 194.000
14.46812 205.000
14.48807 201.000
14.50801 208.000
14.52796 208.000
14.54791 205.000
14.56785 208.000
14.58780 218.000
14.60775 209.000
14.62770 211.000
14.64764 248.000
14.66759 216.000
14.68754 201.000
14.70748 205.000
14.72743 228.000
14.74738 221.000
14.76732 190.000
14.78727 206.000
14.80722 226.000
14.82716 204.000
14.84711 210.000
14.86706 244.000
14.88701 212.000
14.90695 221.000
14.92690 216.000
14.94685 230.000
14.96679 216.000
14.98674 179.000
15.00669 230.000
15.02663 230.000
15.04658 222.000
15.06653 240.000
15.08648 249.000
15.10642 224.000
15.12637 212.000
15.14632 222.000
15.16626 204.000
15.18621 240.000
15.20616 214.000
15.22610 223.000
15.24605 226.000
15.26600 233.000
15.28594 249.000
15.30589 226.000
15.32584 212.000
15.34579 224.000
15.36573 231.000
15.38568 224.000
15.40563 216.000
15.42557 223.000
15.44552 232.000
15.46547 226.000
15.48541 265.000
15.50536 254.000
15.52531 220.000
15.54526 246.000
15.56520 246.000
15.58515 233.000
15.60510 231.000
15.62504 241.000
15.64499 250.000
15.66494 200.000
15.68488 247.000
15.70483 243.000
15.72478 224.000
15.74472 276.000
15.76467 269.000
15.78462 240.000
15.80457 234.000
15.82451 252.000
15.84446 247.000
15.86441 254.000
15.88435 263.000
15.90430 244.000
15.92425 262.000
15.94419 228.000
15.96414 272.000
15.98409 221.000
16.00404 256.000
16.02398 259.000
16.04393 258.000
16.06388 262.000
16.08382 267.000
16.10377 293.000
16.12372 238.000
16.14366 256.000
16.16361 249.000
16.18356 240.000
16.20351 271.000
16.22345 249.000
16.24340 261.000
16.26335 262.000
16.28329 290.000
16.30324 259.000
16.32319 254.000
16.34313 284.000
16.36308 266.000
16.38303 268.000
16.40297 276.000
16.42292 273.000
16.44287 262.000
16.46282 237.000
16.48276 300.000
16.50271 308.000
16.52266 297.000
16.54260 277.000
16.56255 280.000
16.58250 286.000
16.60244 290.000
16.62239 257.000
16.64234 287.000
16.66229 274.000
16.68223 262.000
16.70218 283.000
16.72213 301.000
16.74207 276.000
16.76202 282.000
16.78197 266.000
16.80191 280.000
16.82186 294.000
16.84181 282.000
16.86175 279.000
16.88170 284.000
16.90165 276.000
16.92160 299.000
16.94154 293.000
16.96149 302.000
16.98144 278.000
17.00138 288.000
17.02133 262.000
17.04128 284.000
17.06122 267.000
17.08117 297.000
17.10112 260.000
17.12107 301.000
17.14101 257.000
17.16096 313.000
17.18091 301.000
17.20085 286.000
17.22080 296.000
17.24075 311.000
17.26069 318.000
17.28064 266.000
17.30059 310.000
17.32053 288.000
17.34048 304.000
17.36043 265.000
17.38038 298.000
17.40032 292.000
17.42027 283.000
17.44022 273.000
17.46016 331.000
17.48011 317.000
17.50006 283.000
17.52000 287.000
17.53995 329.000
17.55990 319.000
17.57985 307.000
17.59979 275.000
17.61974 321.000
17.63969 330.000
17.65963 322.000
17.67958 332.000
17.69953 317.000
17.71947 321.000
17.73942 298.000
17.75937 334.000
17.77932 320.000
17.79926 361.000
17.81921 313.000
17.83916 339.000
17.85910 312.000
17.87905 368.000
17.89900 364.000
17.91894 338.000
17.93889 334.000
17.95884 345.000
17.97878 357.000
17.99873 360.000
18.01868 356.000
18.03863 359.000
18.05857 360.000
18.07852 352.000
18.09847 376.000
18.11841 400.000
18.13836 386.000
18.15831 358.000
18.17825 326.000
18.19820 350.000
18.21815 333.000
18.23810 350.000
18.25804 333.000
18.27799 321.000
18.29794 318.000
18.31788 316.000
18.33783 371.000
18.35778 364.000
18.37772 333.000
18.39767 312.000
18.41762 351.000
18.43756 336.000
18.45751 351.000
18.47746 350.000
18.49741 329.000
18.51735 357.000
18.53730 351.000
18.55725 352.000
18.57719 351.000
18.59714 330.000
18.61709 343.000
18.63703 340.000
18.65698 331.000
18.67693 313.000
18.69688 365.000
18.71682 383.000
18.73677 345.000
18.75672 369.000
18.77666 354.000
18.79661 323.000
18.81656 358.000
18.83650 352.000
18.85645 340.000
18.87640 359.000
18.89634 353.000
18.91629 331.000
18.93624 401.000
18.95619 365.000
18.97613 350.000
18.99608 375.000
19.01603 373.000
19.03597 390.000
19.05592 351.000
19.07587 390.000
19.09581 374.000
19.11576 378.000
19.13571 348.000
19.15566 345.000
19.17560 380.000
19.19555 370.000
19.21550 384.000
19.23544 359.000
19.25539 386.000
19.27534 364.000
19.29528 386.000
19.31523 368.000
19.33518 366.000
19.35513 421.000
19.37507 349.000
19.39502 351.000
19.41497 355.000
19.43491 389.000
19.45486 403.000
19.47481 362.000
19.49475 353.000
19.51470 356.000
19.53465 379.000
19.55459 392.000
19.57454 354.000
19.59449 380.000
19.61444 363.000
19.63438 407.000
19.65433 414.000
19.67428 422.000
19.69422 391.000
19.71417 344.000
19.73412 387.000
19.75406 416.000
19.77401 422.000
19.79396 386.000
19.81391 403.000
19.83385 412.000
19.85380 393.000
19.87375 369.000
19.89369 408.000
19.91364 409.000
19.93359 374.000
19.95353 378.000
19.97348 418.000
19.99343 413.000
20.01337 417.000
20.03332 392.000
20.05327 390.000
20.07322 421.000
20.09316 455.000
20.11311 437.000
20.13306 420.000
20.15300 433.000
20.17295 428.000
20.19290 424.000
20.21284 435.000
20.23279 444.000
20.25274 447.000
20.27269 439.000
20.29263 442.000
20.31258 462.000
20.33253 470.000
20.35247 496.000
20.37242 545.000
20.39237 506.000
20.41231 572.000
20.43226 576.000
20.45221 639.000
20.47215 626.000
20.49210 683.000
20.51205 700.000
20.53200 698.000
20.55194 662.000
20.57189 733.000
20.59184 799.000
20.61178 758.000
20.63173 739.000
20.65168 801.000
20.67162 768.000
20.69157 723.000
20.71152 699.000
20.73147 643.000
20.75141 589.000
20.77136 555.000
20.79131 527.000
20.81125 522.000
20.83120 500.000
20.85115 467.000
20.87109 468.000
20.89104 451.000
20.91099 460.000
20.93094 448.000
20.95088 417.000
20.97083 418.000
20.99078 414.000
21.01072 425.000
21.03067 397.000
21.05062 406.000
21.07056 478.000
21.09051 441.000
21.11046 457.000
21.13040 423.000
21.15035 419.000
21.17030 383.000
21.19025 415.000
21.21019 418.000
21.23014 442.000
21.25009 437.000
21.27003 415.000
21.28998 419.000
21.30993 433.000
21.32987 457.000
21.34982 449.000
21.36977 417.000
21.38972 481.000
21.40966 485.000
21.42961 456.000
21.44956 458.000
21.46950 392.000
21.48945 427.000
21.50940 424.000
21.52934 455.000
21.54929 438.000
21.56924 435.000
21.58918 389.000
21.60913 472.000
21.62908 466.000
21.64903 469.000
21.66897 439.000
21.68892 424.000
21.70887 428.000
21.72881 475.000
21.74876 482.000
21.76871 491.000
21.78865 474.000
21.80860 425.000
21.82855 461.000
21.84850 431.000
21.86844 483.000
21.88839 450.000
21.90834 480.000
21.92828 448.000
21.94823 486.000
21.96818 459.000
21.98812 445.000
22.00807 433.000
22.02802 481.000
22.04796 449.000
22.06791 464.000
22.08786 439.000
22.10781 409.000
22.12775 464.000
22.14770 425.000
22.16765 486.000
22.18759 491.000
22.20754 486.000
22.22749 485.000
22.24743 460.000
22.26738 471.000
22.28733 457.000
22.30728 447.000
22.32722 459.000
22.34717 472.000
22.36712 462.000
22.38706 472.000
22.40701 453.000
22.42696 483.000
22.44690 490.000
22.46685 503.000
22.48680 475.000
22.50675 498.000
22.52669 481.000
22.54664 471.000
22.56659 404.000
22.58653 478.000
22.60648 469.000
22.62643 444.000
22.64637 508.000
22.66632 454.000
22.68627 474.000
22.70621 467.000
22.72616 459.000
22.74611 511.000
22.76606 483.000
22.78600 506.000
22.80595 447.000
22.82590 464.000
22.84584 423.000
22.86579 463.000
22.88574 487.000
22.90568 492.000
22.92563 497.000
22.94558 446.000
22.96553 478.000
22.98547 491.000
23.00542 470.000
23.02537 434.000
23.04531 464.000
23.06526 479.000
23.08521 448.000
23.10515 458.000
23.12510 460.000
23.14505 529.000
23.16499 518.000
23.18494 489.000
23.20489 506.000
23.22484 499.000
23.24478 493.000
23.26473 475.000
23.28468 536.000
23.30462 467.000
23.32457 484.000
23.34452 509.000
23.36446 504.000
23.38441 485.000
23.40436 499.000
23.42431 486.000
23.44425 482.000
23.46420 446.000
23.48415 486.000
23.50409 511.000
23.52404 496.000
23.54399 497.000
23.56393 482.000
23.58388 515.000
23.60383 500.000
23.62377 496.000
23.64372 486.000
23.66367 489.000
23.68362 485.000
23.70356 530.000
23.72351 506.000
23.74346 490.000
23.76340 465.000
23.78335 470.000
23.80330 491.000
23.82324 541.000
23.84319 490.000
23.86314 522.000
23.88309 491.000
23.90303 509.000
23.92298 465.000
23.94293 526.000
23.96287 509.000
23.98282 510.000
24.00277 495.000
24.02271 513.000
24.04266 452.000
24.06261 477.000
24.08256 521.000
24.10250 469.000
24.12245 519.000
24.14240 475.000
24.16234 522.000
24.18229 521.000
24.20224 459.000
24.22218 508.000
24.24213 530.000
24.26208 488.000
24.28202 519.000
24.30197 554.000
24.32192 487.000
24.34187 480.000
24.36181 480.000
24.38176 486.000
24.40171 488.000
24.42165 503.000
24.44160 508.000
24.46155 519.000
24.48149 559.000
24.50144 515.000
24.52139 548.000
24.54134 498.000
24.56128 484.000
24.58123 531.000
24.60118 539.000
24.62112 507.000
24.64107 526.000
24.66102 534.000
24.68096 516.000
24.70091 500.000
24.72086 528.000
24.74080 487.000
24.76075 519.000
24.78070 516.000
24.80065 534.000
24.82059 528.000
24.84054 510.000
24.86049 549.000
24.88043 527.000
24.90038 519.000
24.92033 509.000
24.94027 541.000
24.96022 488.000
24.98017 533.000
25.00012 515.000
25.02006 515.000
25.04001 547.000
25.05996 501.000
25.07990 531.000
25.09985 488.000
25.11980 516.000
25.13974 509.000
25.15969 456.000
25.17964 500.000
25.19958 495.000
25.21953 506.000
25.23948 530.000
25.25943 519.000
25.27937 510.000
25.29932 529.000
25.31927 524.000
25.33921 563.000
25.35916 500.000
25.37911 502.000
25.39905 522.000
25.41900 505.000
25.43895 490.000
25.45890 601.000
25.47884 540.000
25.49879 559.000
25.51874 519.000
25.53868 548.000
25.55863 543.000
25.57858 542.000
25.59852 558.000
25.61847 536.000
25.63842 533.000
25.65837 513.000
25.67831 524.000
25.69826 536.000
25.71821 495.000
25.73815 509.000
25.75810 564.000
25.77805 564.000
25.79799 541.000
25.81794 534.000
25.83789 557.000
25.85783 538.000
25.87778 538.000
25.89773 514.000
25.91768 539.000
25.93762 562.000
25.95757 497.000
25.97752 542.000
25.99746 574.000
26.01741 553.000
26.03736 588.000
26.05730 538.000
26.07725 537.000
26.09720 565.000
26.11715 582.000
26.13709 518.000
26.15704 564.000
26.17699 533.000
26.19693 552.000
26.21688 538.000
26.23683 523.000
26.25677 530.000
26.27672 570.000
26.29667 537.000
26.31661 551.000
26.33656 583.000
26.35651 576.000
26.37646 573.000
26.39640 548.000
26.41635 552.000
26.43630 582.000
26.45624 531.000
26.47619 523.000
26.49614 557.000
26.51608 546.000
26.53603 540.000
26.55598 525.000
26.57593 538.000
26.59587 525.000
26.61582 550.000
26.63577 536.000
26.65571 555.000
26.67566 591.000
26.69561 542.000
26.71555 555.000
26.73550 534.000
26.75545 567.000
26.77539 524.000
26.79534 571.000
26.81529 548.000
26.83524 574.000
26.85518 566.000
26.87513 508.000
26.89508 596.000
26.91502 579.000
26.93497 531.000
26.95492 537.000
26.97486 542.000
26.99481 581.000
27.01476 527.000
27.03471 545.000
27.05465 621.000
27.07460 542.000
27.09455 553.000
27.11449 572.000
27.13444 550.000
27.15439 558.000
27.17433 548.000
27.19428 557.000
27.21423 607.000
27.23417 595.000
27.25412 591.000
27.27407 589.000
27.29402 560.000
27.31396 555.000
27.33391 589.000
27.35386 553.000
27.37380 581.000
27.39375 566.000
27.41370 558.000
27.43364 589.000
27.45359 572.000
27.47354 560.000
27.49349 607.000
27.51343 580.000
27.53338 556.000
27.55333 536.000
27.57327 587.000
27.59322 600.000
27.61317 549.000
27.63311 569.000
27.65306 582.000
27.67301 584.000
27.69296 589.000
27.71290 573.000
27.73285 568.000
27.75280 597.000
27.77274 539.000
27.79269 604.000
27.81264 566.000
27.83258 555.000
27.85253 573.000
27.87248 601.000
27.89242 576.000
27.91237 581.000
27.93232 570.000
27.95227 590.000
27.97221 567.000
27.99216 574.000
28.01211 577.000
28.03205 562.000
28.05200 617.000
28.07195 588.000
28.09189 605.000
28.11184 524.000
28.13179 614.000
28.15174 599.000
28.17168 617.000
28.19163 563.000
28.21158 584.000
28.23152 605.000
28.25147 548.000
28.27142 583.000
28.29136 572.000
28.31131 619.000
28.33126 586.000
28.35120 572.000
28.37115 576.000
28.39110 602.000
28.41105 582.000
28.43099 589.000
28.45094 564.000
28.47089 581.000
28.49083 595.000
28.51078 573.000
28.53073 565.000
28.55067 627.000
28.57062 578.000
28.59057 612.000
28.61052 590.000
28.63046 598.000
28.65041 581.000
28.67036 578.000
28.69030 594.000
28.71025 582.000
28.73020 620.000
28.75014 643.000
28.77009 643.000
28.79004 635.000
28.80998 646.000
28.82993 627.000
28.84988 611.000
28.86983 644.000
28.88977 686.000
28.90972 629.000
28.92967 636.000
28.94961 688.000
28.96956 698.000
28.98951 664.000
29.00945 658.000
29.02940 656.000
29.04935 630.000
29.06930 636.000
29.08924 637.000
29.10919 661.000
29.12914 627.000
29.14908 622.000
29.16903 669.000
29.18898 581.000
29.20892 620.000
29.22887 599.000
29.24882 655.000
29.26877 611.000
29.28871 601.000
29.30866 598.000
29.32861 573.000
29.34855 628.000
29.36850 584.000
29.38845 566.000
29.40839 573.000
29.42834 621.000
29.44829 573.000
29.46823 602.000
29.48818 636.000
29.50813 622.000
29.52808 593.000
29.54802 636.000
29.56797 588.000
29.58792 597.000
29.60786 643.000
29.62781 637.000
29.64776 622.000
29.66770 672.000
29.68765 615.000
29.70760 670.000
29.72755 644.000
29.74749 673.000
29.76744 730.000
29.78739 749.000
29.80733 789.000
29.82728 830.000
29.84723 837.000
29.86717 873.000
29.88712 873.000
29.90707 860.000
29.92701 888.000
29.94696 905.000
29.96691 833.000
29.98686 808.000
30.00680 771.000
30.02675 731.000
30.04670 716.000
30.06664 724.000
30.08659 627.000
30.10654 668.000
30.12648 629.000
30.14643 596.000
30.16638 594.000
30.18633 593.000
30.20627 613.000
30.22622 596.000
30.24617 593.000
30.26611 592.000
30.28606 648.000
30.30601 580.000
30.32595 611.000
30.34590 574.000
30.36585 603.000
30.38579 554.000
30.40574 625.000
30.42569 641.000
30.44564 630.000
30.46558 622.000
30.48553 641.000
30.50548 595.000
30.52542 559.000
30.54537 603.000
30.56532 583.000
30.58526 597.000
30.60521 575.000
30.62516 613.000
30.64511 593.000
30.66505 624.000
30.68500 612.000
30.70495 593.000
30.72489 625.000
30.74484 549.000
30.76479 620.000
30.78473 629.000
30.80468 612.000
30.82463 622.000
30.84458 610.000
30.86452 594.000
30.88447 617.000
30.90442 583.000
30.92436 597.000
30.94431 625.000
30.96426 589.000
30.98420 595.000
31.00415 608.000
31.02410 644.000
31.04404 617.000
31.06399 576.000
31.08394 634.000
31.10389 591.000
31.12383 578.000
31.14378 610.000
31.16373 593.000
31.18367 613.000
31.20362 555.000
31.22357 585.000
31.24351 620.000
31.26346 596.000
31.28341 638.000
31.30336 643.000
31.32330 628.000
31.34325 617.000
31.36320 585.000
31.38314 628.000
31.40309 616.000
31.42304 631.000
31.44298 604.000
31.46293 613.000
31.48288 625.000
31.50282 579.000
31.52277 623.000
31.54272 566.000
31.56267 566.000
31.58261 594.000
31.60256 580.000
31.62251 611.000
31.64245 643.000
31.66240 598.000
31.68235 614.000
31.70229 558.000
31.72224 623.000
31.74219 630.000
31.76214 641.000
31.78208 614.000
31.80203 578.000
31.82198 610.000
31.84192 634.000
31.86187 627.000
31.88182 678.000
31.90176 707.000
31.92171 716.000
31.94166 720.000
31.96160 710.000
31.98155 809.000
32.00150 807.000
32.02145 782.000
32.04139 852.000
32.06134 804.000
32.08129 842.000
32.10123 881.000
32.12118 829.000
32.14113 809.000
32.16107 799.000
32.18102 757.000
32.20097 756.000
32.22092 750.000
32.24086 709.000
32.26081 650.000
32.28076 647.000
32.30070 662.000
32.32065 642.000
32.34060 611.000
32.36054 618.000
32.38049 608.000
32.40044 635.000
32.42039 580.000
32.44033 589.000
32.46028 584.000
32.48023 599.000
32.50017 627.000
32.52012 607.000
32.54007 600.000
32.56001 571.000
32.57996 599.000
32.59991 562.000
32.61985 620.000
32.63980 600.000
32.65975 550.000
32.67970 602.000
32.69964 576.000
32.71959 583.000
32.73954 613.000
32.75948 580.000
32.77943 560.000
32.79938 629.000
32.81932 569.000
32.83927 608.000
32.85922 582.000
32.87917 589.000
32.89911 641.000
32.91906 595.000
32.93901 602.000
32.95895 623.000
32.97890 596.000
32.99885 603.000
33.01879 607.000
33.03874 617.000
33.05869 571.000
33.07863 555.000
33.09858 571.000
33.11853 622.000
33.13848 648.000
33.15842 623.000
33.17837 619.000
33.19832 615.000
33.21826 576.000
33.23821 544.000
33.25816 624.000
33.27810 588.000
33.29805 585.000
33.31800 615.000
33.33795 601.000
33.35789 608.000
33.37784 620.000
33.39779 592.000
33.41773 616.000
33.43768 606.000
33.45763 617.000
33.47757 639.000
33.49752 631.000
33.51747 635.000
33.53741 616.000
33.55736 613.000
33.57731 636.000
33.59726 590.000
33.61720 605.000
33.63715 653.000
33.65710 637.000
33.67704 644.000
33.69699 637.000
33.71694 610.000
33.73688 601.000
33.75683 675.000
33.77678 656.000
33.79673 685.000
33.81667 669.000
33.83662 638.000
33.85657 655.000
33.87651 714.000
33.89646 738.000
33.91641 750.000
33.93635 777.000
33.95630 784.000
33.97625 849.000
33.99620 806.000
34.01614 876.000
34.03609 863.000
34.05604 969.000
34.07598 987.000
34.09593 1035.000
34.11588 1093.000
34.13582 1135.000
34.15577 1189.000
34.17572 1144.000
34.19566 1218.000
34.21561 1217.000
34.23556 1242.000
34.25551 1233.000
34.27545 1149.000
34.29540 1167.000
34.31535 1161.000
34.33529 1169.000
34.35524 1051.000
34.37519 975.000
34.39513 938.000
34.41508 1021.000
34.43503 862.000
34.45498 937.000
34.47492 789.000
34.49487 836.000
34.51482 782.000
34.53476 804.000
34.55471 752.000
34.57466 761.000
34.59460 811.000
34.61455 779.000
34.63450 773.000
34.65444 756.000
34.67439 810.000
34.69434 811.000
34.71429 815.000
34.73423 851.000
34.75418 932.000
34.77413 938.000
34.79407 1018.000
34.81402 1026.000
34.83397 1087.000
34.85391 1194.000
34.87386 1305.000
34.89381 1509.000
34.91376 1625.000
34.93370 1731.000
34.95365 1997.000
34.97360 2154.000
34.99354 2448.000
35.01349 2815.000
35.03344 3074.000
35.05338 3409.000
35.07333 3661.000
35.09328 3742.000
35.11322 3869.000
35.13317 3971.000
35.15312 4094.000
35.17307 4087.000
35.19301 3953.000
35.21296 3854.000
35.23291 3795.000
35.25285 3515.000
35.27280 3289.000
35.29275 3076.000
35.31269 2902.000
35.33264 2611.000
35.35259 2294.000
35.37254 2054.000
35.39248 1725.000
35.41243 1579.000
35.43238 1320.000
35.45232 1223.000
35.47227 1124.000
35.49222 1005.000
35.51216 892.000
35.53211 808.000
35.55206 811.000
35.57201 775.000
35.59195 741.000
35.61190 747.000
35.63185 693.000
35.65179 710.000
35.67174 683.000
35.69169 700.000
35.71163 724.000
35.73158 706.000
35.75153 682.000
35.77147 712.000
35.79142 660.000
35.81137 697.000
35.83132 674.000
35.85126 688.000
35.87121 680.000
35.89116 678.000
35.91110 654.000
35.93105 736.000
35.95100 696.000
35.97094 721.000
35.99089 659.000
36.01084 666.000
36.03079 646.000
36.05073 682.000
36.07068 689.000
36.09063 674.000
36.11057 637.000
36.13052 670.000
36.15047 638.000
36.17041 648.000
36.19036 649.000
36.21031 633.000
36.23025 645.000
36.25020 630.000
36.27015 628.000
36.29010 628.000
36.31004 630.000
36.32999 664.000
36.34994 641.000
36.36988 618.000
36.38983 681.000
36.40978 650.000
36.42972 676.000
36.44967 657.000
36.46962 682.000
36.48957 748.000
36.50951 698.000
36.52946 762.000
36.54941 767.000
36.56935 760.000
36.58930 870.000
36.60925 859.000
36.62919 960.000
36.64914 1023.000
36.66909 1041.000
36.68903 1100.000
36.70898 1100.000
36.72893 1165.000
36.74888 1158.000
36.76882 1255.000
36.78877 1274.000
36.80872 1147.000
36.82866 1111.000
36.84861 1086.000
36.86856 1055.000
36.88850 977.000
36.90845 859.000
36.92840 873.000
36.94835 838.000
36.96829 796.000
36.98824 732.000
37.00819 774.000
37.02813 665.000
37.04808 634.000
37.06803 666.000
37.08797 661.000
37.10792 656.000
37.12787 669.000
37.14781 653.000
37.16776 627.000
37.18771 634.000
37.20766 685.000
37.22760 604.000
37.24755 616.000
37.26750 603.000
37.28744 631.000
37.30739 638.000
37.32734 638.000
37.34728 599.000
37.36723 613.000
37.38718 604.000
37.40713 627.000
37.42707 647.000
37.44702 651.000
37.46697 624.000
37.48691 662.000
37.50686 632.000
37.52681 656.000
37.54675 690.000
37.56670 661.000
37.58665 721.000
37.60660 683.000
37.62654 676.000
37.64649 738.000
37.66644 716.000
37.68638 699.000
37.70633 746.000
37.72628 772.000
37.74622 755.000
37.76617 772.000
37.78612 794.000
37.80606 760.000
37.82601 823.000
37.84596 884.000
37.86591 879.000
37.88585 893.000
37.90580 947.000
37.92575 1049.000
37.94569 1002.000
37.96564 1090.000
37.98559 1172.000
38.00553 1203.000
38.02548 1316.000
38.04543 1409.000
38.06538 1509.000
38.08532 1639.000
38.10527 1941.000
38.12522 2017.000
38.14516 2317.000
38.16511 2517.000
38.18506 2756.000
38.20500 2900.000
38.22495 3115.000
38.24490 3204.000
38.26484 3298.000
38.28479 3350.000
38.30474 3311.000
38.32469 3149.000
38.34463 3071.000
38.36458 2789.000
38.38453 2621.000
38.40447 2408.000
38.42442 2171.000
38.44437 1829.000
38.46431 1728.000
38.48426 1574.000
38.50421 1412.000
38.52416 1380.000
38.54410 1238.000
38.56405 1297.000
38.58400 1369.000
38.60394 1320.000
38.62389 1401.000
38.64384 1340.000
38.66378 1386.000
38.68373 1278.000
38.70368 1253.000
38.72362 1283.000
38.74357 1298.000
38.76352 1221.000
38.78347 1026.000
38.80341 1045.000
38.82336 951.000
38.84331 891.000
38.86325 802.000
38.88320 870.000
38.90315 870.000
38.92309 824.000
38.94304 707.000
38.96299 708.000
38.98294 704.000
39.00288 702.000
39.02283 658.000
39.04278 707.000
39.06272 659.000
39.08267 676.000
39.10262 617.000
39.12256 610.000
39.14251 617.000
39.16246 644.000
39.18241 640.000
39.20235 617.000
39.22230 628.000
39.24225 623.000
39.26219 632.000
39.28214 590.000
39.30209 615.000
39.32203 621.000
39.34198 637.000
39.36193 619.000
39.38187 619.000
39.40182 593.000
39.42177 610.000
39.44172 547.000
39.46166 572.000
39.48161 618.000
39.50156 616.000
39.52150 629.000
39.54145 579.000
39.56140 605.000
39.58134 599.000
39.60129 595.000
39.62124 575.000
39.64119 588.000
39.66113 542.000
39.68108 584.000
39.70103 593.000
39.72097 629.000
39.74092 604.000
39.76087 582.000
39.78081 561.000
39.80076 565.000
39.82071 581.000
39.84065 596.000
39.86060 571.000
39.88055 593.000
39.90050 607.000
39.92044 574.000
39.94039 576.000
39.96034 574.000
39.98028 565.000
40.00023 556.000
40.02018 575.000
40.04012 583.000
40.06007 564.000
40.08002 565.000
40.09997 562.000
40.11991 577.000
40.13986 629.000
40.15981 565.000
40.17975 582.000
40.19970 601.000
40.21965 575.000
40.23959 558.000
40.25954 605.000
40.27949 560.000
40.29943 525.000
40.31938 571.000
40.33933 530.000
40.35928 555.000
40.37922 608.000
40.39917 579.000
40.41912 558.000
40.43906 569.000
40.45901 569.000
40.47896 597.000
40.49890 551.000
40.51885 572.000
40.53880 595.000
40.55875 596.000
40.57869 599.000
40.59864 581.000
40.61859 576.000
40.63853 536.000
40.65848 596.000
40.67843 566.000
40.69837 550.000
40.71832 576.000
40.73827 609.000
40.75822 577.000
40.77816 574.000
40.79811 552.000
40.81806 641.000
40.83800 567.000
40.85795 496.000
40.87790 581.000
40.89784 548.000
40.91779 583.000
40.93774 591.000
40.95768 606.000
40.97763 566.000
40.99758 587.000
41.01753 555.000
41.03747 603.000
41.05742 573.000
41.07737 572.000
41.09731 604.000
41.11726 555.000
41.13721 570.000
41.15715 603.000
41.17710 566.000
41.19705 576.000
41.21700 577.000
41.23694 633.000
41.25689 603.000
41.27684 536.000
41.29678 604.000
41.31673 564.000
41.33668 545.000
41.35662 558.000
41.37657 563.000
41.39652 551.000
41.41646 541.000
41.43641 520.000
41.45636 581.000
41.47631 563.000
41.49625 573.000
41.51620 539.000
41.53615 556.000
41.55609 600.000
41.57604 562.000
41.59599 560.000
41.61593 564.000
41.63588 570.000
41.65583 575.000
41.67578 517.000
41.69572 559.000
41.71567 543.000
41.73562 584.000
41.75556 549.000
41.77551 567.000
41.79546 566.000
41.81540 570.000
41.83535 567.000
41.85530 567.000
41.87524 567.000
41.89519 570.000
41.91514 550.000
41.93509 582.000
41.95503 579.000
41.97498 561.000
41.99493 553.000
42.01487 574.000
42.03482 575.000
42.05477 547.000
42.07471 599.000
42.09466 616.000
42.11461 574.000
42.13456 586.000
42.15450 569.000
42.17445 575.000
42.19440 629.000
42.21434 642.000
42.23429 556.000
42.25424 639.000
42.27418 607.000
42.29413 639.000
42.31408 673.000
42.33403 635.000
42.35397 683.000
42.37392 639.000
42.39387 675.000
42.41381 670.000
42.43376 703.000
42.45371 683.000
42.47365 698.000
42.49360 818.000
42.51355 795.000
42.53349 820.000
42.55344 884.000
42.57339 864.000
42.59334 917.000
42.61328 977.000
42.63323 1005.000
42.65318 1037.000
42.67312 1117.000
42.69307 1159.000
42.71302 1254.000
42.73296 1289.000
42.75291 1313.000
42.77286 1314.000
42.79281 1341.000
42.81275 1384.000
42.83270 1325.000
42.85265 1317.000
42.87259 1295.000
42.89254 1301.000
42.91249 1260.000
42.93243 1202.000
42.95238 1156.000
42.97233 1113.000
42.99227 1127.000
43.01222 993.000
43.03217 976.000
43.05212 981.000
43.07206 824.000
43.09201 814.000
43.11196 765.000
43.13190 714.000
43.15185 662.000
43.17180 653.000
43.19174 655.000
43.21169 605.000
43.23164 579.000
43.25159 590.000
43.27153 629.000
43.29148 608.000
43.31143 586.000
43.33137 538.000
43.35132 625.000
43.37127 537.000
43.39121 587.000
43.41116 561.000
43.43111 532.000
43.45105 539.000
43.47100 557.000
43.49095 545.000
43.51090 596.000
43.53084 567.000
43.55079 587.000
43.57074 576.000
43.59068 551.000
43.61063 554.000
43.63058 591.000
43.65052 574.000
43.67047 594.000
43.69042 535.000
43.71037 577.000
43.73031 537.000
43.75026 574.000
43.77021 555.000
43.79015 530.000
43.81010 552.000
43.83005 571.000
43.84999 539.000
43.86994 608.000
43.88989 650.000
43.90984 524.000
43.92978 566.000
43.94973 542.000
43.96968 556.000
43.98962 566.000
44.00957 548.000
44.02952 567.000
44.04946 593.000
44.06941 573.000
44.08936 551.000
44.10930 561.000
44.12925 574.000
44.14920 550.000
44.16915 564.000
44.18909 542.000
44.20904 555.000
44.22899 562.000
44.24893 556.000
44.26888 598.000
44.28883 555.000
44.30877 568.000
44.32872 544.000
44.34867 555.000
44.36862 565.000
44.38856 552.000
44.40851 502.000
44.42846 560.000
44.44840 552.000
44.46835 541.000
44.48830 549.000
44.50824 543.000
44.52819 555.000
44.54814 508.000
44.56808 556.000
44.58803 508.000
44.60798 572.000
44.62793 558.000
44.64787 561.000
44.66782 586.000
44.68777 566.000
44.70771 557.000
44.72766 523.000
44.74761 598.000
44.76755 550.000
44.78750 557.000
44.80745 559.000
44.82740 584.000
44.84734 525.000
44.86729 535.000
44.88724 571.000
44.90718 514.000
44.92713 560.000
44.94708 543.000
44.96702 553.000
44.98697 557.000
45.00692 569.000
45.02686 486.000
45.04681 568.000
45.06676 539.000
45.08671 578.000
45.10665 570.000
45.12660 493.000
45.14655 538.000
45.16649 557.000
45.18644 547.000
45.20639 575.000
45.22633 532.000
45.24628 558.000
45.26623 576.000
45.28618 536.000
45.30612 528.000
45.32607 540.000
45.34602 564.000
45.36596 550.000
45.38591 534.000
45.40586 516.000
45.42580 541.000
45.44575 504.000
45.46570 547.000
45.48565 567.000
45.50559 544.000
45.52554 575.000
45.54549 503.000
45.56543 523.000
45.58538 542.000
45.60533 564.000
45.62527 555.000
45.64522 543.000
45.66517 557.000
45.68511 538.000
45.70506 561.000
45.72501 592.000
45.74496 588.000
45.76490 596.000
45.78485 563.000
45.80480 585.000
45.82474 584.000
45.84469 558.000
45.86464 615.000
45.88458 630.000
45.90453 619.000
45.92448 619.000
45.94443 562.000
45.96437 604.000
45.98432 618.000
46.00427 608.000
46.02421 642.000
46.04416 607.000
46.06411 610.000
46.08405 576.000
46.10400 563.000
46.12395 579.000
46.14389 562.000
46.16384 571.000
46.18379 570.000
46.20374 564.000
46.22368 556.000
46.24363 562.000
46.26358 511.000
46.28352 531.000
46.30347 554.000
46.32342 544.000
46.34336 548.000
46.36331 572.000
46.38326 609.000
46.40321 582.000
46.42315 562.000
46.44310 531.000
46.46305 551.000
46.48299 528.000
46.50294 569.000
46.52289 533.000
46.54283 545.000
46.56278 534.000
46.58273 527.000
46.60267 533.000
46.62262 559.000
46.64257 544.000
46.66252 543.000
46.68246 530.000
46.70241 568.000
46.72236 495.000
46.74230 526.000
46.76225 546.000
46.78220 580.000
46.80214 572.000
46.82209 531.000
46.84204 524.000
46.86199 509.000
46.88193 561.000
46.90188 540.000
46.92183 525.000
46.94177 555.000
46.96172 529.000
46.98167 515.000
47.00161 612.000
47.02156 529.000
47.04151 578.000
47.06146 543.000
47.08140 566.000
47.10135 583.000
47.12130 498.000
47.14124 531.000
47.16119 540.000
47.18114 586.000
47.20108 550.000
47.22103 550.000
47.24098 543.000
47.26092 532.000
47.28087 562.000
47.30082 499.000
47.32077 553.000
47.34071 548.000
47.36066 549.000
47.38061 542.000
47.40055 550.000
47.42050 526.000
47.44045 546.000
47.46039 538.000
47.48034 502.000
47.50029 580.000
47.52024 571.000
47.54018 564.000
47.56013 533.000
47.58008 579.000
47.60002 535.000
47.61997 572.000
47.63992 577.000
47.65986 570.000
47.67981 572.000
47.69976 575.000
47.71970 556.000
47.73965 558.000
47.75960 554.000
47.77955 581.000
47.79949 532.000
47.81944 549.000
47.83939 561.000
47.85933 596.000
47.87928 560.000
47.89923 547.000
47.91917 584.000
47.93912 544.000
47.95907 525.000
47.97902 512.000
47.99896 542.000
48.01891 577.000
48.03886 540.000
48.05880 593.000
48.07875 558.000
48.09870 589.000
48.11864 602.000
48.13859 562.000
48.15854 600.000
48.17848 603.000
48.19843 593.000
48.21838 614.000
48.23833 622.000
48.25827 639.000
48.27822 659.000
48.29817 670.000
48.31811 743.000
48.33806 715.000
48.35801 735.000
48.37795 794.000
48.39790 871.000
48.41785 880.000
48.43780 969.000
48.45774 1074.000
48.47769 1118.000
48.49764 1110.000
48.51758 1225.000
48.53753 1273.000
48.55748 1344.000
48.57742 1273.000
48.59737 1312.000
48.61732 1342.000
48.63726 1245.000
48.65721 1212.000
48.67716 1194.000
48.69711 1169.000
48.71705 1030.000
48.73700 1045.000
48.75695 1009.000
48.77689 950.000
48.79684 784.000
48.81679 763.000
48.83673 790.000
48.85668 686.000
48.87663 700.000
48.89658 666.000
48.91652 712.000
48.93647 629.000
48.95642 647.000
48.97636 644.000
48.99631 615.000
49.01626 650.000
49.03620 592.000
49.05615 626.000
49.07610 621.000
49.09605 597.000
49.11599 586.000
49.13594 602.000
49.15589 626.000
49.17583 630.000
49.19578 606.000
49.21573 614.000
49.23567 636.000
49.25562 622.000
49.27557 595.000
49.29551 607.000
49.31546 554.000
49.33541 614.000
49.35536 621.000
49.37530 621.000
49.39525 642.000
49.41520 575.000
49.43514 584.000
49.45509 630.000
49.47504 579.000
49.49498 607.000
49.51493 622.000
49.53488 607.000
49.55483 621.000
49.57477 592.000
49.59472 586.000
49.61467 594.000
49.63461 565.000
49.65456 536.000
49.67451 580.000
49.69445 578.000
49.71440 574.000
49.73435 521.000
49.75429 537.000
49.77424 570.000
49.79419 544.000
49.81414 549.000
49.83408 512.000
49.85403 517.000
49.87398 503.000
49.89392 589.000
49.91387 546.000
49.93382 537.000
49.95376 618.000
49.97371 582.000
49.99366 519.000
50.01361 560.000
50.03355 553.000
50.05350 543.000
50.07345 535.000
50.09339 578.000
50.11334 570.000
50.13329 578.000
50.15323 550.000
50.17318 529.000
50.19313 544.000
50.21307 574.000
50.23302 552.000
50.25297 556.000
50.27292 540.000
50.29286 558.000
50.31281 503.000
50.33276 585.000
50.35270 498.000
50.37265 564.000
50.39260 528.000
50.41254 551.000
50.43249 562.000
50.45244 557.000
50.47239 560.000
50.49233 533.000
50.51228 555.000
50.53223 532.000
50.55217 575.000
50.57212 535.000
50.59207 545.000
50.61201 512.000
50.63196 564.000
50.65191 571.000
50.67186 575.000
50.69180 601.000
50.71175 593.000
50.73170 566.000
50.75164 576.000
50.77159 541.000
50.79154 560.000
50.81148 544.000
50.83143 557.000
50.85138 579.000
50.87132 571.000
50.89127 565.000
50.91122 558.000
50.93117 578.000
50.95111 589.000
50.97106 530.000
50.99101 583.000
51.01095 562.000
51.03090 588.000
51.05085 569.000
51.07079 534.000
51.09074 581.000
51.11069 580.000
51.13064 593.000
51.15058 522.000
51.17053 572.000
51.19048 555.000
51.21042 549.000
51.23037 520.000
51.25032 525.000
51.27026 543.000
51.29021 579.000
51.31016 542.000
51.33010 520.000
51.35005 523.000
51.37000 553.000
51.38995 543.000
51.40989 543.000
51.42984 541.000
51.44979 531.000
51.46973 570.000
51.48968 574.000
51.50963 534.000
51.52957 545.000
51.54952 567.000
51.56947 531.000
51.58942 558.000
51.60936 545.000
51.62931 570.000
51.64926 562.000
51.66920 558.000
51.68915 538.000
51.70910 535.000
51.72904 558.000
51.74899 556.000
51.76894 540.000
51.78888 550.000
51.80883 557.000
51.82878 527.000
51.84873 539.000
51.86867 575.000
51.88862 577.000
51.90857 570.000
51.92851 551.000
51.94846 569.000
51.96841 553.000
51.98835 537.000
52.00830 578.000
52.02825 551.000
52.04820 530.000
52.06814 545.000
52.08809 598.000
52.10804 521.000
52.12798 558.000
52.14793 538.000
52.16788 550.000
52.18782 568.000
52.20777 528.000
52.22772 510.000
52.24767 537.000
52.26761 510.000
52.28756 562.000
52.30751 561.000
52.32745 529.000
52.34740 546.000
52.36735 553.000
52.38729 517.000
52.40724 592.000
52.42719 540.000
52.44713 570.000
52.46708 551.000
52.48703 528.000
52.50698 558.000
52.52692 577.000
52.54687 610.000
52.56682 605.000
52.58676 594.000
52.60671 582.000
52.62666 629.000
52.64660 597.000
52.66655 601.000
52.68650 573.000
52.70645 620.000
52.72639 625.000
52.74634 643.000
52.76629 679.000
52.78623 730.000
52.80618 734.000
52.82613 736.000
52.84607 723.000
52.86602 737.000
52.88597 699.000
52.90591 685.000
52.92586 743.000
52.94581 731.000
52.96576 667.000
52.98570 697.000
53.00565 716.000
53.02560 729.000
53.04554 675.000
53.06549 723.000
53.08544 654.000
53.10538 660.000
53.12533 649.000
53.14528 668.000
53.16523 650.000
53.18517 572.000
53.20512 597.000
53.22507 614.000
53.24501 614.000
53.26496 642.000
53.28491 569.000
53.30485 628.000
53.32480 604.000
53.34475 626.000
53.36469 642.000
53.38464 634.000
53.40459 653.000
53.42454 622.000
53.44448 628.000
53.46443 597.000
53.48438 616.000
53.50432 651.000
53.52427 602.000
53.54422 610.000
53.56416 604.000
53.58411 608.000
53.60406 556.000
53.62401 612.000
53.64395 559.000
53.66390 578.000
53.68385 483.000
53.70379 483.000
53.72374 534.000
53.74369 486.000
53.76363 549.000
53.78358 509.000
53.80353 540.000
53.82348 553.000
53.84342 557.000
53.86337 550.000
53.88332 569.000
53.90326 541.000
53.92321 520.000
53.94316 569.000
53.96310 547.000
53.98305 540.000
54.00300 557.000
54.02294 509.000
54.04289 562.000
54.06284 477.000
54.08279 562.000
54.10273 559.000
54.12268 581.000
54.14263 581.000
54.16257 554.000
54.18252 493.000
54.20247 566.000
54.22241 536.000
54.24236 537.000
54.26231 538.000
54.28226 554.000
54.30220 535.000
54.32215 544.000
54.34210 573.000
54.36204 560.000
54.38199 553.000
54.40194 548.000
54.42188 560.000
54.44183 540.000
54.46178 545.000
54.48172 544.000
54.50167 561.000
54.52162 543.000
54.54157 540.000
54.56151 508.000
54.58146 520.000
54.60141 513.000
54.62135 535.000
54.64130 521.000
54.66125 532.000
54.68119 550.000
54.70114 504.000
54.72109 561.000
54.74104 552.000
54.76098 534.000
54.78093 518.000
54.80088 555.000
54.82082 531.000
54.84077 534.000
54.86072 543.000
54.88066 529.000
54.90061 559.000
54.92056 516.000
54.94050 510.000
54.96045 560.000
54.98040 525.000
55.00035 547.000
55.02029 566.000
55.04024 541.000
55.06019 555.000
55.08013 522.000
55.10008 550.000
55.12003 521.000
55.13997 511.000
55.15992 571.000
55.17987 554.000
55.19982 512.000
55.21976 528.000
55.23971 560.000
55.25966 565.000
55.27960 539.000
55.29955 519.000
55.31950 542.000
55.33944 531.000
55.35939 554.000
55.37934 566.000
55.39929 551.000
55.41923 537.000
55.43918 559.000
55.45913 548.000
55.47907 562.000
55.49902 538.000
55.51897 507.000
55.53891 532.000
55.55886 511.000
55.57881 531.000
55.59875 513.000
55.61870 565.000
55.63865 548.000
55.65860 517.000
55.67854 517.000
55.69849 544.000
55.71844 547.000
55.73838 529.000
55.75833 562.000
55.77828 549.000
55.79822 554.000
55.81817 543.000
55.83812 539.000
55.85807 552.000
55.87801 554.000
55.89796 540.000
55.91791 571.000
55.93785 540.000
55.95780 513.000
55.97775 523.000
55.99769 498.000
56.01764 537.000
56.03759 549.000
56.05753 541.000
56.07748 574.000
56.09743 557.000
56.11738 546.000
56.13732 521.000
56.15727 572.000
56.17722 609.000
56.19716 584.000
56.21711 568.000
56.23706 575.000
56.25700 576.000
56.27695 609.000
56.29690 516.000
56.31685 521.000
56.33679 547.000
56.35674 568.000
56.37669 561.000
56.39663 556.000
56.41658 514.000
56.43653 545.000
56.45647 581.000
56.47642 605.000
56.49637 589.000
56.51631 540.000
56.53626 518.000
56.55621 549.000
56.57616 543.000
56.59610 585.000
56.61605 542.000
56.63600 526.000
56.65594 542.000
56.67589 544.000
56.69584 561.000
56.71578 573.000
56.73573 576.000
56.75568 575.000
56.77563 604.000
56.79557 569.000
56.81552 621.000
56.83547 619.000
56.85541 653.000
56.87536 687.000
56.89531 707.000
56.91525 702.000
56.93520 739.000
56.95515 776.000
56.97510 813.000
56.99504 849.000
57.01499 802.000
57.03494 794.000
57.05488 788.000
57.07483 705.000
57.09478 803.000
57.11472 741.000
57.13467 702.000
57.15462 709.000
57.17456 682.000
57.19451 670.000
57.21446 639.000
57.23441 645.000
57.25435 597.000
57.27430 597.000
57.29425 561.000
57.31419 555.000
57.33414 565.000
57.35409 550.000
57.37403 626.000
57.39398 534.000
57.41393 585.000
57.43388 590.000
57.45382 588.000
57.47377 583.000
57.49372 562.000
57.51366 566.000
57.53361 586.000
57.55356 561.000
57.57350 579.000
57.59345 532.000
57.61340 574.000
57.63334 589.000
57.65329 653.000
57.67324 669.000
57.69319 618.000
57.71313 652.000
57.73308 701.000
57.75303 709.000
57.77297 770.000
57.79292 785.000
57.81287 790.000
57.83281 880.000
57.85276 894.000
57.87271 878.000
57.89266 903.000
57.91260 930.000
57.93255 899.000
57.95250 824.000
57.97244 898.000
57.99239 873.000
58.01234 770.000
58.03228 787.000
58.05223 842.000
58.07218 747.000
58.09212 772.000
58.11207 729.000
58.13202 702.000
58.15197 670.000
58.17191 673.000
58.19186 635.000
58.21181 597.000
58.23175 556.000
58.25170 595.000
58.27165 568.000
58.29159 564.000
58.31154 555.000
58.33149 588.000
58.35144 542.000
58.37138 543.000
58.39133 538.000
58.41128 533.000
58.43122 572.000
58.45117 568.000
58.47112 556.000
58.49106 540.000
58.51101 580.000
58.53096 514.000
58.55090 504.000
58.57085 568.000
58.59080 546.000
58.61075 525.000
58.63069 559.000
58.65064 584.000
58.67059 534.000
58.69053 536.000
58.71048 481.000
58.73043 586.000
58.75037 534.000
58.77032 526.000
58.79027 562.000
58.81022 562.000
58.83016 546.000
58.85011 529.000
58.87006 562.000
58.89000 536.000
58.90995 593.000
58.92990 585.000
58.94984 539.000
58.96979 543.000
58.98974 527.000
59.00969 553.000
59.02963 547.000
59.04958 535.000
59.06953 587.000
59.08947 519.000
59.10942 501.000
59.12937 523.000
59.14931 499.000
59.16926 538.000
59.18921 530.000
59.20915 535.000
59.22910 579.000
59.24905 581.000
59.26900 533.000
59.28894 537.000
59.30889 543.000
59.32884 518.000
59.34878 552.000
59.36873 525.000
59.38868 615.000
59.40862 556.000
59.42857 555.000
59.44852 567.000
59.46847 529.000
59.48841 545.000
59.50836 576.000
59.52831 533.000
59.54825 562.000
59.56820 549.000
59.58815 551.000
59.60809 535.000
59.62804 583.000
59.64799 561.000
59.66793 554.000
59.68788 511.000
59.70783 525.000
59.72778 544.000
59.74772 563.000
59.76767 534.000
59.78762 555.000
59.80756 541.000
59.82751 504.000
59.84746 557.000
59.86740 526.000
59.88735 556.000
59.90730 554.000
59.92725 533.000
59.94719 545.000
59.96714 516.000
59.98709 529.000
60.00703 529.000
60.02698 529.000
60.04693 553.000
60.06687 555.000
60.08682 545.000
60.10677 536.000
60.12671 606.000
60.14666 540.000
60.16661 543.000
60.18656 550.000
60.20650 537.000
60.22645 507.000
60.24640 587.000
60.26634 562.000
60.28629 522.000
60.30624 538.000
60.32618 540.000
60.34613 529.000
60.36608 555.000
60.38603 519.000
60.40597 549.000
60.42592 564.000
60.44587 528.000
60.46581 512.000
60.48576 545.000
60.50571 532.000
60.52565 562.000
60.54560 545.000
60.56555 587.000
60.58550 553.000
60.60544 525.000
60.62539 569.000
60.64534 552.000
60.66528 577.000
60.68523 549.000
60.70518 602.000
60.72512 573.000
60.74507 587.000
60.76502 565.000
60.78496 604.000
60.80491 590.000
60.82486 629.000
60.84481 577.000
60.86475 611.000
60.88470 605.000
60.90465 601.000
60.92459 613.000
60.94454 616.000
60.96449 671.000
60.98443 682.000
61.00438 693.000
61.02433 680.000
61.04428 746.000
61.06422 827.000
61.08417 813.000
61.10412 863.000
61.12406 911.000
61.14401 981.000
61.16396 1043.000
61.18390 1114.000
61.20385 1098.000
61.22380 1091.000
61.24374 1182.000
61.26369 1041.000
61.28364 1070.000
61.30359 1010.000
61.32353 1052.000
61.34348 1061.000
61.36343 1016.000
61.38337 927.000
61.40332 951.000
61.42327 927.000
61.44321 822.000
61.46316 832.000
61.48311 838.000
61.50306 760.000
61.52300 731.000
61.54295 699.000
61.56290 675.000
61.58284 698.000
61.60279 681.000
61.62274 671.000
61.64268 690.000
61.66263 684.000
61.68258 740.000
61.70252 682.000
61.72247 636.000
61.74242 665.000
61.76237 683.000
61.78231 671.000
61.80226 695.000
61.82221 639.000
61.84215 643.000
61.86210 621.000
61.88205 639.000
61.90199 677.000
61.92194 643.000
61.94189 685.000
61.96184 674.000
61.98178 629.000
62.00173 644.000
62.02168 689.000
62.04162 703.000
62.06157 704.000
62.08152 762.000
62.10146 717.000
62.12141 764.000
62.14136 812.000
62.16131 781.000
62.18125 785.000
62.20120 825.000
62.22115 869.000
62.24109 886.000
62.26104 896.000
62.28099 879.000
62.30093 872.000
62.32088 934.000
62.34083 954.000
62.36077 936.000
62.38072 876.000
62.40067 865.000
62.42062 879.000
62.44056 926.000
62.46051 898.000
62.48046 910.000
62.50040 900.000
62.52035 909.000
62.54030 907.000
62.56024 956.000
62.58019 932.000
62.60014 1032.000
62.62009 1010.000
62.64003 990.000
62.65998 1060.000
62.67993 899.000
62.69987 963.000
62.71982 897.000
62.73977 785.000
62.75971 814.000
62.77966 765.000
62.79961 751.000
62.81955 788.000
62.83950 764.000
62.85945 745.000
62.87940 682.000
62.89934 651.000
62.91929 617.000
62.93924 653.000
62.95918 638.000
62.97913 538.000
62.99908 581.000
63.01902 558.000
63.03897 573.000
63.05892 585.000
63.07887 552.000
63.09881 562.000
63.11876 556.000
63.13871 613.000
63.15865 498.000
63.17860 564.000
63.19855 582.000
63.21849 552.000
63.23844 541.000
63.25839 505.000
63.27833 523.000
63.29828 530.000
63.31823 562.000
63.33818 557.000
63.35812 582.000
63.37807 496.000
63.39802 548.000
63.41796 575.000
63.43791 522.000
63.45786 528.000
63.47780 586.000
63.49775 541.000
63.51770 505.000
63.53765 531.000
63.55759 537.000
63.57754 540.000
63.59749 596.000
63.61743 545.000
63.63738 554.000
63.65733 571.000
63.67727 524.000
63.69722 550.000
63.71717 518.000
63.73712 532.000
63.75706 550.000
63.77701 543.000
63.79696 493.000
63.81690 517.000
63.83685 535.000
63.85680 516.000
63.87674 569.000
63.89669 584.000
63.91664 586.000
63.93658 527.000
63.95653 502.000
63.97648 553.000
63.99643 521.000
64.01637 542.000
64.03632 573.000
64.05627 553.000
64.07621 583.000
64.09616 595.000
64.11611 574.000
64.13605 575.000
64.15600 531.000
64.17595 575.000
64.19590 531.000
64.21584 535.000
64.23579 558.000
64.25574 517.000
64.27568 581.000
64.29563 542.000
64.31558 564.000
64.33552 570.000
64.35547 507.000
64.37542 517.000
64.39536 620.000
64.41531 568.000
64.43526 556.000
64.45521 581.000
64.47515 552.000
64.49510 575.000
64.51505 565.000
64.53499 559.000
64.55494 520.000
64.57489 581.000
64.59483 556.000
64.61478 594.000
64.63473 536.000
64.65468 554.000
64.67462 549.000
64.69457 635.000
64.71452 573.000
64.73446 570.000
64.75441 571.000
64.77436 577.000
64.79430 574.000
64.81425 539.000
64.83420 638.000
64.85414 594.000
64.87409 642.000
64.89404 607.000
64.91399 611.000
64.93393 618.000
64.95388 648.000
64.97383 641.000
64.99377 675.000
65.01372 634.000
65.03367 640.000
65.05361 659.000
65.07356 715.000
65.09351 687.000
65.11346 696.000
65.13340 789.000
65.15335 766.000
65.17330 796.000
65.19324 782.000
65.21319 856.000
65.23314 853.000
65.25308 855.000
65.27303 842.000
65.29298 825.000
65.31293 806.000
65.33287 831.000
65.35282 814.000
65.37277 830.000
65.39271 797.000
65.41266 788.000
65.43261 782.000
65.45255 779.000
65.47250 733.000
65.49245 737.000
65.51239 724.000
65.53234 702.000
65.55229 774.000
65.57224 754.000
65.59218 706.000
65.61213 703.000
65.63208 669.000
65.65202 629.000
65.67197 664.000
65.69192 659.000
65.71186 653.000
65.73181 649.000
65.75176 673.000
65.77171 626.000
65.79165 664.000
65.81160 698.000
65.83155 706.000
65.85149 692.000
65.87144 737.000
65.89139 748.000
65.91133 676.000
65.93128 733.000
65.95123 760.000
65.97117 792.000
65.99112 860.000
66.01107 832.000
66.03102 960.000
66.05096 873.000
66.07091 928.000
66.09086 940.000
66.11080 1007.000
66.13075 916.000
66.15070 923.000
66.17064 899.000
66.19059 890.000
66.21054 887.000
66.23049 831.000
66.25043 846.000
66.27038 782.000
66.29033 812.000
66.31027 769.000
66.33022 838.000
66.35017 752.000
66.37011 669.000
66.39006 664.000
66.41001 677.000
66.42995 654.000
66.44990 684.000
66.46985 612.000
66.48980 636.000
66.50974 609.000
66.52969 652.000
66.54964 553.000
66.56958 599.000
66.58953 559.000
66.60948 542.000
66.62942 590.000
66.64937 548.000
66.66932 552.000
66.68927 565.000
66.70921 607.000
66.72916 527.000
66.74911 553.000
66.76905 564.000
66.78900 570.000
66.80895 521.000
66.82889 567.000
66.84884 582.000
66.86879 594.000
66.88874 617.000
66.90868 565.000
66.92863 554.000
66.94858 519.000
66.96852 619.000
66.98847 628.000
67.00842 567.000
67.02836 561.000
67.04831 592.000
67.06826 618.000
67.08820 657.000
67.10815 602.000
67.12810 634.000
67.14805 631.000
67.16799 635.000
67.18794 628.000
67.20789 716.000
67.22783 644.000
67.24778 685.000
67.26773 679.000
67.28767 647.000
67.30762 675.000
67.32757 730.000
67.34752 776.000
67.36746 789.000
67.38741 824.000
67.40736 792.000
67.42730 790.000
67.44725 815.000
67.46720 871.000
67.48714 872.000
67.50709 879.000
67.52704 941.000
67.54698 921.000
67.56693 951.000
67.58688 925.000
67.60683 1050.000
67.62677 986.000
67.64672 1006.000
67.66667 941.000
67.68661 961.000
67.70656 916.000
67.72651 848.000
67.74645 884.000
67.76640 895.000
67.78635 845.000
67.80630 799.000
67.82624 794.000
67.84619 776.000
67.86614 782.000
67.88608 823.000
67.90603 695.000
67.92598 708.000
67.94592 662.000
67.96587 681.000
67.98582 609.000
68.00576 607.000
68.02571 569.000
68.04566 606.000
68.06561 563.000
68.08555 518.000
68.10550 555.000
68.12545 583.000
68.14539 567.000
68.16534 541.000
68.18529 580.000
68.20523 530.000
68.22518 547.000
68.24513 555.000
68.26508 569.000
68.28502 568.000
68.30497 570.000
68.32492 525.000
68.34486 512.000
68.36481 518.000
68.38476 537.000
68.40470 540.000
68.42465 538.000
68.44460 564.000
68.46455 574.000
68.48449 569.000
68.50444 498.000
68.52439 529.000
68.54433 523.000
68.56428 591.000
68.58423 519.000
68.60417 569.000
68.62412 559.000
68.64407 536.000
68.66401 540.000
68.68396 545.000
68.70391 537.000
68.72386 524.000
68.74380 518.000
68.76375 535.000
68.78370 515.000
68.80364 545.000
68.82359 576.000
68.84354 512.000
68.86348 551.000
68.88343 503.000
68.90338 521.000
68.92333 533.000
68.94327 521.000
68.96322 560.000
68.98317 507.000
69.00311 515.000
69.02306 560.000
69.04301 515.000
69.06295 528.000
69.08290 562.000
69.10285 522.000
69.12279 492.000
69.14274 510.000
69.16269 517.000
69.18264 503.000
69.20258 513.000
69.22253 581.000
69.24248 514.000
69.26242 483.000
69.28237 506.000
69.30232 564.000
69.32226 514.000
69.34221 486.000
69.36216 502.000
69.38211 513.000
69.40205 507.000
69.42200 504.000
69.44195 476.000
69.46189 574.000
69.48184 504.000
69.50179 492.000
69.52173 525.000
69.54168 478.000
69.56163 555.000
69.58157 505.000
69.60152 500.000
69.62147 504.000
69.64142 562.000
69.66136 540.000
69.68131 490.000
69.70126 520.000
69.72120 541.000
69.74115 493.000
69.76110 532.000
69.78104 563.000
69.80099 536.000
69.82094 533.000
69.84089 531.000
69.86083 489.000
69.88078 513.000
69.90073 492.000
69.92067 560.000
69.94062 530.000
69.96057 523.000
69.98051 518.000
70.00046 470.000
70.02041 506.000
70.04035 496.000
70.06030 518.000
70.08025 506.000
70.10020 490.000
70.12014 482.000
70.14009 526.000
70.16004 532.000
70.17998 503.000
70.19993 519.000
70.21988 532.000
70.23982 489.000
70.25977 546.000
70.27972 518.000
70.29967 511.000
70.31961 506.000
70.33956 502.000
70.35951 505.000
70.37945 511.000
70.39940 510.000
70.41935 500.000
70.43929 498.000
70.45924 545.000
70.47919 495.000
70.49914 500.000
70.51908 517.000
70.53903 494.000
70.55898 509.000
70.57892 539.000
70.59887 506.000
70.61882 541.000
70.63876 544.000
70.65871 509.000
70.67866 548.000
70.69860 508.000
70.71855 494.000
70.73850 519.000
70.75845 495.000
70.77839 492.000
70.79834 521.000
70.81829 532.000
70.83823 557.000
70.85818 493.000
70.87813 532.000
70.89807 506.000
70.91802 478.000
70.93797 539.000
70.95792 512.000
70.97786 508.000
70.99781 531.000
71.01776 500.000
71.03770 548.000
71.05765 493.000
71.07760 550.000
71.09754 522.000
71.11749 536.000
71.13744 561.000
71.15738 540.000
71.17733 527.000
71.19728 558.000
71.21723 501.000
71.23717 519.000
71.25712 556.000
71.27707 560.000
71.29701 561.000
71.31696 531.000
71.33691 566.000
71.35685 504.000
71.37680 587.000
71.39675 495.000
71.41670 540.000
71.43664 508.000
71.45659 543.000
71.47654 519.000
71.49648 524.000
71.51643 548.000
71.53638 563.000
71.55632 504.000
71.57627 533.000
71.59622 545.000
71.61616 570.000
71.63611 545.000
71.65606 521.000
71.67601 568.000
71.69595 520.000
71.71590 538.000
71.73585 553.000
71.75579 551.000
71.77574 533.000
71.79569 562.000
71.81563 515.000
71.83558 558.000
71.85553 560.000
71.87548 589.000
71.89542 564.000
71.91537 573.000
71.93532 550.000
71.95526 609.000
71.97521 633.000
71.99516 642.000
72.01510 597.000
72.03505 640.000
72.05500 645.000
72.07495 667.000
72.09489 688.000
72.11484 702.000
72.13479 704.000
72.15473 705.000
72.17468 696.000
72.19463 661.000
72.21457 697.000
72.23452 692.000
72.25447 644.000
72.27441 665.000
72.29436 626.000
72.31431 629.000
72.33426 656.000
72.35420 582.000
72.37415 572.000
72.39410 617.000
72.41404 610.000
72.43399 565.000
72.45394 543.000
72.47388 585.000
72.49383 544.000
72.51378 553.000
72.53373 546.000
72.55367 545.000
72.57362 549.000
72.59357 604.000
72.61351 578.000
72.63346 535.000
72.65341 519.000
72.67335 560.000
72.69330 520.000
72.71325 565.000
72.73319 523.000
72.75314 473.000
72.77309 565.000
72.79304 530.000
72.81298 562.000
72.83293 538.000
72.85288 500.000
72.87282 527.000
72.89277 489.000
72.91272 553.000
72.93266 508.000
72.95261 531.000
72.97256 532.000
72.99251 549.000
73.01245 578.000
73.03240 494.000
73.05235 554.000
73.07229 534.000
73.09224 523.000
73.11219 551.000
73.13213 515.000
73.15208 538.000
73.17203 553.000
73.19197 521.000
73.21192 541.000
73.23187 508.000
73.25182 515.000
73.27176 558.000
73.29171 513.000
73.31166 553.000
73.33160 537.000
73.35155 513.000
73.37150 520.000
73.39144 539.000
73.41139 493.000
73.43134 507.000
73.45129 539.000
73.47123 525.000
73.49118 506.000
73.51113 517.000
73.53107 501.000
73.55102 573.000
73.57097 536.000
73.59091 528.000
73.61086 522.000
73.63081 546.000
73.65076 506.000
73.67070 547.000
73.69065 539.000
73.71060 524.000
73.73054 494.000
73.75049 522.000
73.77044 541.000
73.79038 534.000
73.81033 520.000
73.83028 514.000
73.85022 524.000
73.87017 517.000
73.89012 534.000
73.91007 519.000
73.93001 539.000
73.94996 496.000
73.96991 491.000
73.98985 534.000
74.00980 548.000
74.02975 553.000
74.04969 517.000
74.06964 547.000
74.08959 573.000
74.10954 594.000
74.12948 622.000
74.14943 604.000
74.16938 634.000
74.18932 645.000
74.20927 631.000
74.22922 634.000
74.24916 652.000
74.26911 612.000
74.28906 634.000
74.30900 606.000
74.32895 643.000
74.34890 638.000
74.36885 626.000
74.38879 647.000
74.40874 595.000
74.42869 614.000
74.44863 651.000
74.46858 691.000
74.48853 721.000
74.50847 671.000
74.52842 724.000
74.54837 704.000
74.56832 744.000
74.58826 750.000
74.60821 823.000
74.62816 809.000
74.64810 821.000
74.66805 841.000
74.68800 801.000
74.70794 779.000
74.72789 817.000
74.74784 835.000
74.76778 818.000
74.78773 835.000
74.80768 816.000
74.82763 834.000
74.84757 813.000
74.86752 853.000
74.88747 872.000
74.90741 821.000
74.92736 834.000
74.94731 797.000
74.96725 716.000
74.98720 723.000
75.00715 705.000
75.02710 731.000
75.04704 702.000
75.06699 737.000
75.08694 713.000
75.10688 653.000
75.12683 673.000
75.14678 650.000
75.16672 674.000
75.18667 657.000
75.20662 650.000
75.22657 611.000
75.24651 607.000
75.26646 602.000
75.28641 626.000
75.30635 564.000
75.32630 528.000
75.34625 562.000
75.36619 573.000
75.38614 557.000
75.40609 591.000
75.42603 517.000
75.44598 553.000
75.46593 560.000
75.48588 548.000
75.50582 500.000
75.52577 580.000
75.54572 551.000
75.56566 497.000
75.58561 510.000
75.60556 525.000
75.62550 531.000
75.64545 546.000
75.66540 520.000
75.68535 503.000
75.70529 534.000
75.72524 503.000
75.74519 531.000
75.76513 501.000
75.78508 513.000
75.80503 485.000
75.82497 534.000
75.84492 523.000
75.86487 487.000
75.88481 509.000
75.90476 541.000
75.92471 518.000
75.94466 559.000
75.96460 543.000
75.98455 521.000
76.00450 507.000
76.02444 564.000
76.04439 504.000
76.06434 524.000
76.08428 562.000
76.10423 500.000
76.12418 527.000
76.14413 516.000
76.16407 504.000
76.18402 492.000
76.20397 548.000
76.22391 534.000
76.24386 537.000
76.26381 496.000
76.28375 521.000
76.30370 510.000
76.32365 485.000
76.34359 480.000
76.36354 488.000
76.38349 539.000
76.40344 538.000
76.42338 490.000
76.44333 517.000
76.46328 521.000
76.48322 518.000
76.50317 509.000
76.52312 537.000
76.54306 576.000
76.56301 524.000
76.58296 482.000
76.60291 534.000
76.62285 469.000
76.64280 579.000
76.66275 511.000
76.68269 527.000
76.70264 529.000
76.72259 486.000
76.74253 549.000
76.76248 502.000
76.78243 498.000
76.80238 498.000
76.82232 513.000
76.84227 507.000
76.86222 496.000
76.88216 492.000
76.90211 512.000
76.92206 526.000
76.94200 514.000
76.96195 513.000
76.98190 523.000
77.00184 532.000
77.02179 512.000
77.04174 514.000
77.06169 472.000
77.08163 555.000
77.10158 498.000
77.12153 517.000
77.14147 555.000
77.16142 520.000
77.18137 534.000
77.20131 491.000
77.22126 490.000
77.24121 494.000
77.26116 535.000
77.28110 532.000
77.30105 486.000
77.32100 514.000
77.34094 518.000
77.36089 498.000
77.38084 504.000
77.40078 535.000
77.42073 502.000
77.44068 525.000
77.46062 480.000
77.48057 533.000
77.50052 508.000
77.52047 519.000
77.54041 546.000
77.56036 504.000
77.58031 507.000
77.60025 516.000
77.62020 499.000
77.64015 527.000
77.66009 548.000
77.68004 488.000
77.69999 497.000
77.71994 481.000
77.73988 535.000
77.75983 481.000
77.77978 537.000
77.79972 534.000
77.81967 514.000
77.83962 495.000
77.85956 538.000
77.87951 520.000
77.89946 523.000
77.91940 550.000
77.93935 515.000
77.95930 496.000
77.97925 516.000
77.99919 490.000
78.01914 512.000
78.03909 483.000
78.05903 458.000
78.07898 483.000
78.09893 501.000
78.11887 478.000
78.13882 508.000
78.15877 566.000
78.17872 517.000
78.19866 502.000
78.21861 533.000
78.23856 524.000
78.25850 483.000
78.27845 527.000
78.29840 506.000
78.31834 519.000
78.33829 536.000
78.35824 536.000
78.37819 523.000
78.39813 542.000
78.41808 517.000
78.43803 547.000
78.45797 498.000
78.47792 516.000
78.49787 506.000
78.51781 516.000
78.53776 563.000
78.55771 553.000
78.57765 554.000
78.59760 502.000
78.61755 541.000
78.63750 579.000
78.65744 544.000
78.67739 608.000
78.69734 571.000
78.71728 615.000
78.73723 607.000
78.75718 592.000
78.77712 617.000
78.79707 557.000
78.81702 624.000
78.83697 604.000
78.85691 538.000
78.87686 637.000
78.89681 578.000
78.91675 587.000
78.93670 554.000
78.95665 607.000
78.97659 554.000
78.99654 579.000
79.01649 546.000
79.03643 572.000
79.05638 516.000
79.07633 550.000
79.09628 594.000
79.11622 563.000
79.13617 512.000
79.15612 569.000
79.17606 556.000
79.19601 558.000
79.21596 533.000
79.23590 546.000
79.25585 583.000
79.27580 508.000
79.29575 525.000
79.31569 537.000
79.33564 547.000
79.35559 500.000
79.37553 524.000
79.39548 527.000
79.41543 562.000
79.43537 549.000
79.45532 547.000
79.47527 533.000
79.49521 500.000
79.51516 526.000
79.53511 545.000
79.55506 502.000
79.57500 558.000
79.59495 484.000
79.61490 515.000
79.63484 492.000
79.65479 561.000
79.67474 475.000
79.69468 534.000
79.71463 527.000
79.73458 531.000
79.75453 542.000
79.77447 498.000
79.79442 503.000
79.81437 521.000
79.83431 512.000
79.85426 534.000
79.87421 531.000
79.89415 545.000
79.91410 532.000
79.93405 511.000
79.95399 550.000
79.97394 540.000
79.99389 531.000
80.01384 527.000
80.03378 532.000
80.05373 564.000
80.07368 619.000
80.09362 594.000
80.11357 529.000
80.13352 564.000
80.15346 533.000
80.17341 555.000
80.19336 553.000
80.21331 518.000
80.23325 535.000
80.25320 561.000
80.27315 550.000
80.29309 541.000
80.31304 583.000
80.33299 545.000
80.35293 482.000
80.37288 542.000
80.39283 539.000
80.41278 555.000
80.43272 499.000
80.45267 468.000
80.47262 557.000
80.49256 514.000
80.51251 528.000
80.53246 498.000
80.55240 527.000
80.57235 559.000
80.59230 484.000
80.61224 503.000
80.63219 534.000
80.65214 518.000
80.67209 526.000
80.69203 519.000
80.71198 513.000
80.73193 550.000
80.75187 524.000
80.77182 505.000
80.79177 481.000
80.81171 468.000
80.83166 524.000
80.85161 513.000
80.87156 511.000
80.89150 538.000
80.91145 540.000
80.93140 496.000
80.95134 489.000
80.97129 509.000
80.99124 507.000
81.01118 533.000
81.03113 556.000
81.05108 486.000
81.07102 489.000
81.09097 470.000
81.11092 491.000
81.13087 541.000
81.15081 493.000
81.17076 564.000
81.19071 524.000
81.21065 498.000
81.23060 459.000
81.25055 511.000
81.27049 504.000
81.29044 520.000
81.31039 510.000
81.33034 514.000
81.35028 540.000
81.37023 517.000
81.39018 566.000
81.41012 542.000
81.43007 524.000
81.45002 510.000
81.46996 543.000
81.48991 510.000
81.50986 536.000
81.52980 523.000
81.54975 497.000
81.56970 549.000
81.58965 526.000
81.60959 523.000
81.62954 492.000
81.64949 512.000
81.66943 507.000
81.68938 548.000
81.70933 491.000
81.72927 526.000
81.74922 487.000
81.76917 476.000
81.78912 500.000
81.80906 503.000
81.82901 503.000
81.84896 498.000
81.86890 487.000
81.88885 509.000
81.90880 543.000
81.92874 490.000
81.94869 535.000
81.96864 529.000
81.98859 522.000
82.00853 500.000
82.02848 536.000
82.04843 592.000
82.06837 560.000
82.08832 535.000
82.10827 554.000
82.12821 654.000
82.14816 606.000
82.16811 570.000
82.18805 564.000
82.20800 625.000
82.22795 614.000
82.24790 636.000
82.26784 627.000
82.28779 607.000
82.30774 676.000
82.32768 677.000
82.34763 656.000
82.36758 713.000
82.38752 651.000
82.40747 661.000
82.42742 673.000
82.44737 669.000
82.46731 617.000
82.48726 626.000
82.50721 655.000
82.52715 677.000
82.54710 642.000
82.56705 677.000
82.58699 640.000
82.60694 632.000
82.62689 699.000
82.64683 660.000
82.66678 662.000
82.68673 589.000
82.70668 641.000
82.72662 609.000
82.74657 623.000
82.76652 591.000
82.78646 526.000
82.80641 629.000
82.82636 596.000
82.84630 574.000
82.86625 562.000
82.88620 583.000
82.90615 532.000
82.92609 611.000
82.94604 557.000
82.96599 587.000
82.98593 573.000
83.00588 589.000
83.02583 573.000
83.04577 581.000
83.06572 568.000
83.08567 548.000
83.10561 557.000
83.12556 548.000
83.14551 571.000
83.16546 551.000
83.18540 577.000
83.20535 576.000
83.22530 564.000
83.24524 516.000
83.26519 563.000
83.28514 537.000
83.30508 537.000
83.32503 541.000
83.34498 567.000
83.36493 574.000
83.38487 570.000
83.40482 548.000
83.42477 535.000
83.44471 601.000
83.46466 584.000
83.48461 575.000
83.50455 567.000
83.52450 606.000
83.54445 608.000
83.56440 622.000
83.58434 555.000
83.60429 585.000
83.62424 581.000
83.64418 602.000
83.66413 571.000
83.68408 554.000
83.70402 564.000
83.72397 596.000
83.74392 580.000
83.76386 554.000
83.78381 540.000
83.80376 571.000
83.82371 576.000
83.84365 584.000
83.86360 558.000
83.88355 537.000
83.90349 521.000
83.92344 504.000
83.94339 537.000
83.96333 526.000
83.98328 599.000
84.00323 480.000
84.02318 500.000
84.04312 583.000
84.06307 529.000
84.08302 519.000
84.10296 485.000
84.12291 537.000
84.14286 528.000
84.16280 547.000
84.18275 508.000
84.20270 507.000
84.22264 504.000
84.24259 538.000
84.26254 503.000
84.28249 525.000
84.30243 533.000
84.32238 530.000
84.34233 501.000
84.36227 494.000
84.38222 515.000
84.40217 499.000
84.42211 484.000
84.44206 515.000
84.46201 505.000
84.48196 507.000
84.50190 493.000
84.52185 496.000
84.54180 446.000
84.56174 560.000
84.58169 496.000
84.60164 528.000
84.62158 539.000
84.64153 525.000
84.66148 507.000
84.68142 530.000
84.70137 475.000
84.72132 499.000
84.74127 522.000
84.76121 509.000
84.78116 529.000
84.80111 525.000
84.82105 488.000
84.84100 532.000
84.86095 553.000
84.88089 537.000
84.90084 507.000
84.92079 499.000
84.94074 519.000
84.96068 473.000
84.98063 474.000
85.00058 526.000
85.02052 509.000
85.04047 510.000
85.06042 532.000
85.08036 494.000
85.10031 518.000
85.12026 483.000
85.14021 513.000
85.16015 477.000
85.18010 514.000
85.20005 500.000
85.21999 474.000
85.23994 510.000
85.25989 497.000
85.27983 516.000
85.29978 486.000
85.31973 534.000
85.33967 470.000
85.35962 521.000
85.37957 510.000
85.39952 511.000
85.41946 534.000
85.43941 547.000
85.45936 517.000
85.47930 475.000
85.49925 482.000
85.51920 524.000
85.53914 521.000
85.55909 495.000
85.57904 488.000
85.59899 532.000
85.61893 508.000
85.63888 513.000
85.65883 506.000
85.67877 512.000
85.69872 512.000
85.71867 522.000
85.73861 482.000
85.75856 525.000
85.77851 527.000
85.79845 472.000
85.81840 482.000
85.83835 474.000
85.85830 488.000
85.87824 527.000
85.89819 511.000
85.91814 505.000
85.93808 501.000
85.95803 527.000
85.97798 483.000
85.99792 549.000
86.01787 496.000
86.03782 527.000
86.05777 495.000
86.07771 498.000
86.09766 513.000
86.11761 485.000
86.13755 539.000
86.15750 519.000
86.17745 516.000
86.19739 494.000
86.21734 582.000
86.23729 474.000
86.25723 509.000
86.27718 474.000
86.29713 548.000
86.31708 560.000
86.33702 505.000
86.35697 535.000
86.37692 562.000
86.39686 528.000
86.41681 497.000
86.43676 533.000
86.45670 517.000
86.47665 532.000
86.49660 528.000
86.51655 504.000
86.53649 556.000
86.55644 544.000
86.57639 543.000
86.59633 549.000
86.61628 516.000
86.63623 492.000
86.65617 550.000
86.67612 547.000
86.69607 567.000
86.71602 540.000
86.73596 581.000
86.75591 547.000
86.77586 513.000
86.79580 524.000
86.81575 506.000
86.83570 553.000
86.85564 510.000
86.87559 547.000
86.89554 491.000
86.91548 509.000
86.93543 517.000
86.95538 516.000
86.97533 542.000
86.99527 524.000
87.01522 538.000
87.03517 550.000
87.05511 558.000
87.07506 572.000
87.09501 549.000
87.11495 573.000
87.13490 551.000
87.15485 546.000
87.17480 539.000
87.19474 547.000
87.21469 516.000
87.23464 522.000
87.25458 500.000
87.27453 505.000
87.29448 526.000
87.31442 496.000
87.33437 567.000
87.35432 510.000
87.37426 584.000
87.39421 560.000
87.41416 510.000
87.43411 530.000
87.45405 585.000
87.47400 520.000
87.49395 538.000
87.51389 524.000
87.53384 493.000
87.55379 548.000
87.57373 510.000
87.59368 504.000
87.61363 505.000
87.63358 529.000
87.65352 478.000
87.67347 518.000
87.69342 502.000
87.71336 499.000
87.73331 557.000
87.75326 471.000
87.77320 510.000
87.79315 507.000
87.81310 509.000
87.83304 484.000
87.85299 512.000
87.87294 515.000
87.89289 524.000
87.91283 524.000
87.93278 550.000
87.95273 542.000
87.97267 525.000
87.99262 471.000
88.01257 549.000
88.03251 478.000
88.05246 522.000
88.07241 504.000
88.09236 529.000
88.11230 514.000
88.13225 523.000
88.15220 494.000
88.17214 523.000
88.19209 538.000
88.21204 516.000
88.23198 516.000
88.25193 542.000
88.27188 544.000
88.29183 472.000
88.31177 497.000
88.33172 520.000
88.35167 501.000
88.37161 526.000
88.39156 504.000
88.41151 546.000
88.43145 473.000
88.45140 535.000
88.47135 480.000
88.49129 571.000
88.51124 527.000
88.53119 507.000
88.55114 527.000
88.57108 532.000
88.59103 521.000
88.61098 529.000
88.63092 505.000
88.65087 533.000
88.67082 507.000
88.69076 539.000
88.71071 537.000
88.73066 518.000
88.75061 539.000
88.77055 531.000
88.79050 519.000
88.81045 549.000
88.83039 529.000
88.85034 532.000
88.87029 564.000
88.89023 563.000
88.91018 570.000
88.93013 556.000
88.95007 533.000
88.97002 567.000
88.98997 580.000
89.00992 567.000
89.02986 629.000
89.04981 606.000
89.06976 589.000
89.08970 601.000
89.10965 568.000
89.12960 592.000
89.14954 611.000
89.16949 583.000
89.18944 596.000
89.20939 532.000
89.22933 604.000
89.24928 597.000
89.26923 573.000
89.28917 611.000
89.30912 581.000
89.32907 593.000
89.34901 595.000
89.36896 575.000
89.38891 549.000
89.40885 567.000
89.42880 586.000
89.44875 564.000
89.46870 586.000
89.48864 523.000
89.50859 609.000
89.52854 552.000
89.54848 564.000
89.56843 592.000
89.58838 529.000
89.60832 569.000
89.62827 523.000
89.64822 514.000
89.66817 573.000
89.68811 513.000
89.70806 524.000
89.72801 556.000
89.74795 528.000
89.76790 513.000
89.78785 521.000
89.80779 535.000
89.82774 502.000
89.84769 559.000
89.86764 583.000
89.88758 563.000
89.90753 547.000
89.92748 645.000
89.94742 568.000
89.96737 565.000
89.98732 572.000
90.00726 591.000
