10.00000 351.000
10.01995 350.000
10.03989 352.000
10.05984 338.000
10.07979 357.000
10.09973 355.000
10.11968 364.000
10.13963 347.000
10.15958 364.000
10.17952 362.000
10.19947 355.000
10.21942 357.000
10.23936 404.000
10.25931 354.000
10.27926 342.000
10.29920 338.000
10.31915 355.000
10.33910 339.000
10.35905 347.000
10.37899 381.000
10.39894 351.000
10.41889 348.000
10.43883 361.000
10.45878 361.000
10.47873 345.000
10.49867 358.000
10.51862 350.000
10.53857 388.000
10.55851 353.000
10.57846 361.000
10.59841 386.000
10.61836 319.000
10.63830 359.000
10.65825 347.000
10.67820 370.000
10.69814 384.000
10.71809 356.000
10.73804 346.000
10.75798 372.000
10.77793 379.000
10.79788 349.000
10.81783 401.000
10.83777 366.000
10.85772 375.000
10.87767 367.000
10.89761 337.000
10.91756 364.000
10.93751 345.000
10.95745 362.000
10.97740 373.000
10.99735 359.000
11.01730 400.000
11.03724 374.000
11.05719 356.000
11.07714 352.000
11.09708 391.000
11.11703 332.000
11.13698 359.000
11.15692 419.000
11.17687 371.000
11.19682 379.000
11.21676 391.000
11.23671 362.000
11.25666 390.000
11.27661 355.000
11.29655 411.000
11.31650 370.000
11.33645 358.000
11.35639 388.000
11.37634 392.000
11.39629 369.000
11.41623 388.000
11.43618 346.000
11.45613 358.000
11.47608 346.000
11.49602 400.000
11.51597 390.000
11.53592 366.000
11.55586 402.000
11.57581 372.000
11.59576 352.000
11.61570 393.000
11.63565 395.000
11.65560 375.000
11.67554 364.000
11.69549 397.000
11.71544 355.000
11.73539 358.000
11.75533 361.000
11.77528 381.000
11.79523 378.000
11.81517 371.000
11.83512 420.000
11.85507 386.000
11.87501 379.000
11.89496 368.000
11.91491 368.000
11.93486 374.000
11.95480 381.000
11.97475 395.000
11.99470 424.000
12.01464 380.000
12.03459 382.000
12.05454 348.000
12.07448 362.000
12.09443 407.000
12.11438 394.000
12.13432 392.000
12.15427 376.000
12.17422 381.000
12.19417 336.000
12.21411 377.000
12.23406 402.000
12.25401 370.000
12.27395 363.000
12.29390 369.000
12.31385 381.000
12.33379 373.000
12.35374 368.000
12.37369 394.000
12.39364 356.000
12.41358 372.000
12.43353 401.000
12.45348 407.000
12.47342 382.000
12.49337 395.000
12.51332 353.000
12.53326 401.000
12.55321 407.000
12.57316 435.000
12.59311 365.000
12.61305 388.000
12.63300 413.000
12.65295 381.000
12.67289 372.000
12.69284 393.000
12.71279 416.000
12.73273 416.000
12.75268 363.000
12.77263 385.000
12.79257 382.000
12.81252 370.000
12.83247 394.000
12.85242 408.000
12.87236 412.000
12.89231 357.000
12.91226 355.000
12.93220 395.000
12.95215 418.000
12.97210 396.000
12.99204 415.000
13.01199 369.000
13.03194 413.000
13.05189 386.000
13.07183 373.000
13.09178 374.000
13.11173 346.000
13.13167 396.000
13.15162 377.000
13.17157 402.000
13.19151 390.000
13.21146 431.000
13.23141 386.000
13.25135 428.000
13.27130 408.000
13.29125 408.000
13.31120 386.000
13.33114 381.000
13.35109 397.000
13.37104 394.000
13.39098 375.000
13.41093 388.000
13.43088 396.000
13.45082 398.000
13.47077 400.000
13.49072 386.000
13.51067 414.000
13.53061 388.000
13.55056 379.000
13.57051 394.000
13.59045 431.000
13.61040 386.000
13.63035 379.000
13.65029 403.000
13.67024 402.000
13.69019 385.000
13.71013 376.000
13.73008 399.000
13.75003 397.000
13.76998 390.000
13.78992 387.000
13.80987 373.000
13.82982 379.000
13.84976 407.000
13.86971 397.000
13.88966 419.000
13.90960 410.000
13.92955 378.000
13.94950 410.000
13.96945 409.000
13.98939 366.000
14.00934 467.000
14.02929 404.000
14.04923 431.000
14.06918 410.000
14.08913 401.000
14.10907 403.000
14.12902 397.000
14.14897 397.000
14.16892 434.000
14.18886 406.000
14.20881 412.000
14.22876 366.000
14.24870 405.000
14.26865 422.000
14.28860 426.000
14.30854 393.000
14.32849 429.000
14.34844 438.000
14.36838 393.000
14.38833 371.000
14.40828 423.000
14.42823 401.000
14.44817 389.000
14.46812 389.000
14.48807 423.000
14.50801 376.000
14.52796 428.000
14.54791 386.000
14.56785 418.000
14.58780 411.000
14.60775 405.000
14.62770 403.000
14.64764 398.000
14.66759 381.000
14.68754 439.000
14.70748 378.000
14.72743 392.000
14.74738 385.000
14.76732 385.000
14.78727 387.000
14.80722 442.000
14.82716 388.000
14.84711 408.000
14.86706 395.000
14.88701 417.000
14.90695 452.000
14.92690 381.000
14.94685 440.000
14.96679 419.000
14.98674 401.000
15.00669 374.000
15.02663 418.000
15.04658 429.000
15.06653 454.000
15.08648 431.000
15.10642 414.000
15.12637 442.000
15.14632 405.000
15.16626 381.000
15.18621 436.000
15.20616 403.000
15.22610 444.000
15.24605 434.000
15.26600 392.000
15.28594 444.000
15.30589 452.000
15.32584 409.000
15.34579 409.000
15.36573 408.000
15.38568 412.000
15.40563 465.000
15.42557 448.000
15.44552 425.000
15.46547 423.000
15.48541 474.000
15.50536 468.000
15.52531 491.000
15.54526 480.000
15.56520 524.000
15.58515 559.000
15.60510 639.000
15.62504 664.000
15.64499 745.000
15.66494 1022.000
15.68488 1174.000
15.70483 1630.000
15.72478 2141.000
15.74472 2829.000
15.76467 3360.000
15.78462 3459.000
15.80457 3347.000
15.82451 2966.000
15.84446 2861.000
15.86441 2606.000
15.88435 2236.000
15.90430 1922.000
15.92425 1627.000
15.94419 1315.000
15.96414 967.000
15.98409 707.000
16.00404 553.000
16.02398 496.000
16.04393 481.000
16.06388 487.000
16.08382 421.000
16.10377 420.000
16.12372 441.000
16.14366 474.000
16.16361 462.000
16.18356 479.000
16.20351 419.000
16.22345 455.000
16.24340 456.000
16.26335 413.000
16.28329 422.000
16.30324 427.000
16.32319 420.000
16.34313 468.000
16.36308 448.000
16.38303 430.000
16.40297 434.000
16.42292 424.000
16.44287 420.000
16.46282 394.000
16.48276 403.000
16.50271 415.000
16.52266 420.000
16.54260 406.000
16.56255 451.000
16.58250 466.000
16.60244 475.000
16.62239 438.000
16.64234 403.000
16.66229 455.000
16.68223 519.000
16.70218 532.000
16.72213 539.000
16.74207 533.000
16.76202 548.000
16.78197 494.000
16.80191 536.000
16.82186 479.000
16.84181 477.000
16.86175 475.000
16.88170 503.000
16.90165 477.000
16.92160 437.000
16.94154 453.000
16.96149 410.000
16.98144 434.000
17.00138 408.000
17.02133 417.000
17.04128 407.000
17.06122 384.000
17.08117 417.000
17.10112 420.000
17.12107 391.000
17.14101 444.000
17.16096 404.000
17.18091 389.000
17.20085 395.000
17.22080 402.000
17.24075 413.000
17.26069 445.000
17.28064 413.000
17.30059 383.000
17.32053 428.000
17.34048 397.000
17.36043 415.000
17.38038 422.000
17.40032 419.000
17.42027 440.000
17.44022 381.000
17.46016 429.000
17.48011 400.000
17.50006 427.000
17.52000 392.000
17.53995 388.000
17.55990 433.000
17.57985 417.000
17.59979 409.000
17.61974 437.000
17.63969 436.000
17.65963 418.000
17.67958 381.000
17.69953 386.000
17.71947 417.000
17.73942 421.000
17.75937 408.000
17.77932 419.000
17.79926 413.000
17.81921 409.000
17.83916 457.000
17.85910 409.000
17.87905 430.000
17.89900 431.000
17.91894 402.000
17.93889 398.000
17.95884 391.000
17.97878 406.000
17.99873 423.000
18.01868 396.000
18.03863 410.000
18.05857 418.000
18.07852 397.000
18.09847 423.000
18.11841 413.000
18.13836 422.000
18.15831 397.000
18.17825 405.000
18.19820 465.000
18.21815 377.000
18.23810 420.000
18.25804 387.000
18.27799 420.000
18.29794 390.000
18.31788 420.000
18.33783 448.000
18.35778 419.000
18.37772 406.000
18.39767 419.000
18.41762 440.000
18.43756 413.000
18.45751 430.000
18.47746 405.000
18.49741 417.000
18.51735 424.000
18.53730 435.000
18.55725 408.000
18.57719 430.000
18.59714 444.000
18.61709 416.000
18.63703 398.000
18.65698 393.000
18.67693 414.000
18.69688 408.000
18.71682 448.000
18.73677 410.000
18.75672 416.000
18.77666 410.000
18.79661 420.000
18.81656 449.000
18.83650 428.000
18.85645 420.000
18.87640 411.000
18.89634 392.000
18.91629 429.000
18.93624 415.000
18.95619 395.000
18.97613 415.000
18.99608 458.000
19.01603 429.000
19.03597 392.000
19.05592 392.000
19.07587 428.000
19.09581 408.000
19.11576 407.000
19.13571 414.000
19.15566 423.000
19.17560 393.000
19.19555 413.000
19.21550 460.000
19.23544 438.000
19.25539 418.000
19.27534 398.000
19.29528 403.000
19.31523 400.000
19.33518 399.000
19.35513 443.000
19.37507 427.000
19.39502 389.000
19.41497 411.000
19.43491 406.000
19.45486 411.000
19.47481 445.000
19.49475 447.000
19.51470 416.000
19.53465 398.000
19.55459 385.000
19.57454 432.000
19.59449 436.000
19.61444 424.000
19.63438 449.000
19.65433 405.000
19.67428 414.000
19.69422 428.000
19.71417 434.000
19.73412 427.000
19.75406 413.000
19.77401 432.000
19.79396 435.000
19.81391 416.000
19.83385 447.000
19.85380 392.000
19.87375 439.000
19.89369 383.000
19.91364 441.000
19.93359 403.000
19.95353 415.000
19.97348 443.000
19.99343 448.000
20.01337 443.000
20.03332 404.000
20.05327 421.000
20.07322 426.000
20.09316 410.000
20.11311 414.000
20.13306 416.000
20.15300 424.000
20.17295 400.000
20.19290 460.000
20.21284 418.000
20.23279 417.000
20.25274 407.000
20.27269 423.000
20.29263 401.000
20.31258 443.000
20.33253 428.000
20.35247 443.000
20.37242 419.000
20.39237 430.000
20.41231 456.000
20.43226 419.000
20.45221 446.000
20.47215 423.000
20.49210 429.000
20.51205 433.000
20.53200 462.000
20.55194 452.000
20.57189 480.000
20.59184 424.000
20.61178 446.000
20.63173 466.000
20.65168 431.000
20.67162 463.000
20.69157 435.000
20.71152 485.000
20.73147 442.000
20.75141 485.000
20.77136 495.000
20.79131 519.000
20.81125 547.000
20.83120 518.000
20.85115 580.000
20.87109 563.000
20.89104 589.000
20.91099 533.000
20.93094 581.000
20.95088 579.000
20.97083 574.000
20.99078 563.000
21.01072 495.000
21.03067 517.000
21.05062 517.000
21.07056 495.000
21.09051 484.000
21.11046 471.000
21.13040 435.000
21.15035 461.000
21.17030 443.000
21.19025 489.000
21.21019 417.000
21.23014 431.000
21.25009 489.000
21.27003 438.000
21.28998 476.000
21.30993 425.000
21.32987 469.000
21.34982 424.000
21.36977 414.000
21.38972 425.000
21.40966 423.000
21.42961 411.000
21.44956 423.000
21.46950 443.000
21.48945 425.000
21.50940 418.000
21.52934 450.000
21.54929 415.000
21.56924 438.000
21.58918 418.000
21.60913 480.000
21.62908 448.000
21.64903 424.000
21.66897 427.000
21.68892 452.000
21.70887 387.000
21.72881 430.000
21.74876 433.000
21.76871 408.000
21.78865 450.000
21.80860 439.000
21.82855 429.000
21.84850 448.000
21.86844 442.000
21.88839 416.000
21.90834 457.000
21.92828 457.000
21.94823 399.000
21.96818 459.000
21.98812 393.000
22.00807 451.000
22.02802 447.000
22.04796 432.000
22.06791 437.000
22.08786 454.000
22.10781 441.000
22.12775 458.000
22.14770 401.000
22.16765 430.000
22.18759 411.000
22.20754 435.000
22.22749 451.000
22.24743 445.000
22.26738 432.000
22.28733 424.000
22.30728 453.000
22.32722 451.000
22.34717 442.000
22.36712 445.000
22.38706 440.000
22.40701 476.000
22.42696 432.000
22.44690 446.000
22.46685 425.000
22.48680 442.000
22.50675 457.000
22.52669 456.000
22.54664 434.000
22.56659 421.000
22.58653 426.000
22.60648 434.000
22.62643 456.000
22.64637 450.000
22.66632 453.000
22.68627 473.000
22.70621 429.000
22.72616 462.000
22.74611 410.000
22.76606 435.000
22.78600 439.000
22.80595 481.000
22.82590 428.000
22.84584 460.000
22.86579 441.000
22.88574 430.000
22.90568 446.000
22.92563 463.000
22.94558 441.000
22.96553 460.000
22.98547 423.000
23.00542 418.000
23.02537 440.000
23.04531 430.000
23.06526 400.000
23.08521 442.000
23.10515 454.000
23.12510 394.000
23.14505 460.000
23.16499 409.000
23.18494 421.000
23.20489 409.000
23.22484 452.000
23.24478 419.000
23.26473 459.000
23.28468 431.000
23.30462 433.000
23.32457 417.000
23.34452 456.000
23.36446 484.000
23.38441 434.000
23.40436 458.000
23.42431 491.000
23.44425 451.000
23.46420 406.000
23.48415 444.000
23.50409 468.000
23.52404 486.000
23.54399 446.000
23.56393 442.000
23.58388 470.000
23.60383 440.000
23.62377 463.000
23.64372 483.000
23.66367 407.000
23.68362 442.000
23.70356 462.000
23.72351 465.000
23.74346 499.000
23.76340 433.000
23.78335 469.000
23.80330 446.000
23.82324 474.000
23.84319 474.000
23.86314 463.000
23.88309 420.000
23.90303 466.000
23.92298 426.000
23.94293 422.000
23.96287 470.000
23.98282 468.000
24.00277 431.000
24.02271 469.000
24.04266 454.000
24.06261 454.000
24.08256 463.000
24.10250 468.000
24.12245 430.000
24.14240 495.000
24.16234 429.000
24.18229 403.000
24.20224 430.000
24.22218 475.000
24.24213 439.000
24.26208 412.000
24.28202 432.000
24.30197 430.000
24.32192 459.000
24.34187 461.000
24.36181 487.000
24.38176 444.000
24.40171 424.000
24.42165 442.000
24.44160 452.000
24.46155 412.000
24.48149 445.000
24.50144 432.000
24.52139 407.000
24.54134 449.000
24.56128 454.000
24.58123 448.000
24.60118 434.000
24.62112 450.000
24.64107 444.000
24.66102 450.000
24.68096 451.000
24.70091 438.000
24.72086 459.000
24.74080 464.000
24.76075 473.000
24.78070 482.000
24.80065 465.000
24.82059 487.000
24.84054 504.000
24.86049 523.000
24.88043 525.000
24.90038 528.000
24.92033 524.000
24.94027 555.000
24.96022 562.000
24.98017 540.000
25.00012 538.000
25.02006 508.000
25.04001 492.000
25.05996 476.000
25.07990 463.000
25.09985 446.000
25.11980 461.000
25.13974 428.000
25.15969 452.000
25.17964 445.000
25.19958 463.000
25.21953 446.000
25.23948 454.000
25.25943 488.000
25.27937 464.000
25.29932 438.000
25.31927 436.000
25.33921 445.000
25.35916 446.000
25.37911 461.000
25.39905 429.000
25.41900 422.000
25.43895 426.000
25.45890 445.000
25.47884 458.000
25.49879 446.000
25.51874 459.000
25.53868 439.000
25.55863 458.000
25.57858 494.000
25.59852 479.000
25.61847 417.000
25.63842 457.000
25.65837 481.000
25.67831 460.000
25.69826 458.000
25.71821 477.000
25.73815 419.000
25.75810 482.000
25.77805 457.000
25.79799 448.000
25.81794 435.000
25.83789 464.000
25.85783 449.000
25.87778 437.000
25.89773 443.000
25.91768 442.000
25.93762 463.000
25.95757 478.000
25.97752 439.000
25.99746 444.000
26.01741 493.000
26.03736 459.000
26.05730 487.000
26.07725 451.000
26.09720 443.000
26.11715 459.000
26.13709 469.000
26.15704 461.000
26.17699 437.000
26.19693 435.000
26.21688 469.000
26.23683 442.000
26.25677 453.000
26.27672 494.000
26.29667 448.000
26.31661 467.000
26.33656 463.000
26.35651 455.000
26.37646 469.000
26.39640 481.000
26.41635 443.000
26.43630 437.000
26.45624 516.000
26.47619 407.000
26.49614 439.000
26.51608 480.000
26.53603 486.000
26.55598 480.000
26.57593 465.000
26.59587 447.000
26.61582 442.000
26.63577 451.000
26.65571 482.000
26.67566 453.000
26.69561 498.000
26.71555 478.000
26.73550 470.000
26.75545 452.000
26.77539 461.000
26.79534 476.000
26.81529 482.000
26.83524 482.000
26.85518 462.000
26.87513 456.000
26.89508 476.000
26.91502 509.000
26.93497 460.000
26.95492 466.000
26.97486 456.000
26.99481 463.000
27.01476 424.000
27.03471 469.000
27.05465 471.000
27.07460 498.000
27.09455 483.000
27.11449 463.000
27.13444 491.000
27.15439 495.000
27.17433 524.000
27.19428 485.000
27.21423 496.000
27.23417 452.000
27.25412 432.000
27.27407 476.000
27.29402 438.000
27.31396 486.000
27.33391 489.000
27.35386 476.000
27.37380 468.000
27.39375 443.000
27.41370 434.000
27.43364 463.000
27.45359 443.000
27.47354 477.000
27.49349 475.000
27.51343 442.000
27.53338 473.000
27.55333 466.000
27.57327 441.000
27.59322 480.000
27.61317 519.000
27.63311 455.000
27.65306 479.000
27.67301 466.000
27.69296 459.000
27.71290 438.000
27.73285 458.000
27.75280 466.000
27.77274 473.000
27.79269 478.000
27.81264 447.000
27.83258 468.000
27.85253 453.000
27.87248 469.000
27.89242 463.000
27.91237 442.000
27.93232 466.000
27.95227 477.000
27.97221 422.000
27.99216 445.000
28.01211 510.000
28.03205 477.000
28.05200 471.000
28.07195 452.000
28.09189 456.000
28.11184 497.000
28.13179 484.000
28.15174 486.000
28.17168 495.000
28.19163 521.000
28.21158 494.000
28.23152 518.000
28.25147 536.000
28.27142 502.000
28.29136 516.000
28.31131 487.000
28.33126 514.000
28.35120 484.000
28.37115 493.000
28.39110 471.000
28.41105 494.000
28.43099 506.000
28.45094 525.000
28.47089 466.000
28.49083 517.000
28.51078 482.000
28.53073 512.000
28.55067 457.000
28.57062 510.000
28.59057 462.000
28.61052 491.000
28.63046 483.000
28.65041 487.000
28.67036 505.000
28.69030 498.000
28.71025 460.000
28.73020 484.000
28.75014 483.000
28.77009 474.000
28.79004 511.000
28.80998 508.000
28.82993 496.000
28.84988 457.000
28.86983 445.000
28.88977 487.000
28.90972 514.000
28.92967 496.000
28.94961 466.000
28.96956 517.000
28.98951 474.000
29.00945 447.000
29.02940 497.000
29.04935 545.000
29.06930 498.000
29.08924 498.000
29.10919 546.000
29.12914 552.000
29.14908 601.000
29.16903 562.000
29.18898 585.000
29.20892 634.000
29.22887 707.000
29.24882 787.000
29.26877 794.000
29.28871 815.000
29.30866 806.000
29.32861 735.000
29.34855 822.000
29.36850 725.000
29.38845 689.000
29.40839 685.000
29.42834 630.000
29.44829 576.000
29.46823 611.000
29.48818 563.000
29.50813 545.000
29.52808 540.000
29.54802 474.000
29.56797 522.000
29.58792 499.000
29.60786 476.000
29.62781 508.000
29.64776 454.000
29.66770 446.000
29.68765 449.000
29.70760 482.000
29.72755 452.000
29.74749 457.000
29.76744 490.000
29.78739 435.000
29.80733 457.000
29.82728 459.000
29.84723 484.000
29.86717 444.000
29.88712 510.000
29.90707 457.000
29.92701 455.000
29.94696 460.000
29.96691 474.000
29.98686 452.000
30.00680 511.000
30.02675 474.000
30.04670 505.000
30.06664 488.000
30.08659 463.000
30.10654 493.000
30.12648 477.000
30.14643 491.000
30.16638 497.000
30.18633 488.000
30.20627 480.000
30.22622 460.000
30.24617 516.000
30.26611 467.000
30.28606 486.000
30.30601 504.000
30.32595 511.000
30.34590 485.000
30.36585 476.000
30.38579 463.000
30.40574 482.000
30.42569 481.000
30.44564 457.000
30.46558 481.000
30.48553 521.000
30.50548 490.000
30.52542 490.000
30.54537 486.000
30.56532 436.000
30.58526 472.000
30.60521 485.000
30.62516 470.000
30.64511 451.000
30.66505 501.000
30.68500 473.000
30.70495 483.000
30.72489 464.000
30.74484 468.000
30.76479 446.000
30.78473 495.000
30.80468 419.000
30.82463 480.000
30.84458 501.000
30.86452 515.000
30.88447 468.000
30.90442 469.000
30.92436 453.000
30.94431 486.000
30.96426 496.000
30.98420 516.000
31.00415 497.000
31.02410 468.000
31.04404 454.000
31.06399 450.000
31.08394 482.000
31.10389 461.000
31.12383 462.000
31.14378 508.000
31.16373 491.000
31.18367 471.000
31.20362 492.000
31.22357 500.000
31.24351 483.000
31.26346 473.000
31.28341 504.000
31.30336 485.000
31.32330 499.000
31.34325 508.000
31.36320 492.000
31.38314 494.000
31.40309 493.000
31.42304 474.000
31.44298 505.000
31.46293 550.000
31.48288 512.000
31.50282 509.000
31.52277 537.000
31.54272 526.000
31.56267 538.000
31.58261 530.000
31.60256 464.000
31.62251 494.000
31.64245 505.000
31.66240 506.000
31.68235 526.000
31.70229 508.000
31.72224 515.000
31.74219 525.000
31.76214 542.000
31.78208 541.000
31.80203 513.000
31.82198 535.000
31.84192 518.000
31.86187 561.000
31.88182 617.000
31.90176 643.000
31.92171 696.000
31.94166 736.000
31.96160 806.000
31.98155 836.000
32.00150 838.000
32.02145 865.000
32.04139 842.000
32.06134 901.000
32.08129 725.000
32.10123 682.000
32.12118 704.000
32.14113 659.000
32.16107 585.000
32.18102 634.000
32.20097 571.000
32.22092 614.000
32.24086 517.000
32.26081 593.000
32.28076 605.000
32.30070 640.000
32.32065 700.000
32.34060 719.000
32.36054 797.000
32.38049 802.000
32.40044 826.000
32.42039 879.000
32.44033 843.000
32.46028 765.000
32.48023 791.000
32.50017 696.000
32.52012 742.000
32.54007 644.000
32.56001 651.000
32.57996 581.000
32.59991 540.000
32.61985 543.000
32.63980 497.000
32.65975 534.000
32.67970 504.000
32.69964 503.000
32.71959 507.000
32.73954 483.000
32.75948 475.000
32.77943 489.000
32.79938 489.000
32.81932 509.000
32.83927 502.000
32.85922 508.000
32.87917 500.000
32.89911 457.000
32.91906 512.000
32.93901 448.000
32.95895 488.000
32.97890 479.000
32.99885 465.000
33.01879 490.000
33.03874 448.000
33.05869 523.000
33.07863 480.000
33.09858 444.000
33.11853 487.000
33.13848 475.000
33.15842 450.000
33.17837 474.000
33.19832 457.000
33.21826 448.000
33.23821 491.000
33.25816 507.000
33.27810 503.000
33.29805 526.000
33.31800 500.000
33.33795 478.000
33.35789 465.000
33.37784 429.000
33.39779 495.000
33.41773 435.000
33.43768 469.000
33.45763 513.000
33.47757 443.000
33.49752 502.000
33.51747 514.000
33.53741 500.000
33.55736 517.000
33.57731 456.000
33.59726 504.000
33.61720 464.000
33.63715 522.000
33.65710 507.000
33.67704 486.000
33.69699 501.000
33.71694 501.000
33.73688 482.000
33.75683 488.000
33.77678 500.000
33.79673 526.000
33.81667 467.000
33.83662 455.000
33.85657 534.000
33.87651 518.000
33.89646 533.000
33.91641 537.000
33.93635 554.000
33.95630 536.000
33.97625 526.000
33.99620 499.000
34.01614 562.000
34.03609 541.000
34.05604 540.000
34.07598 512.000
34.09593 530.000
34.11588 565.000
34.13582 536.000
34.15577 551.000
34.17572 518.000
34.19566 596.000
34.21561 571.000
34.23556 577.000
34.25551 564.000
34.27545 589.000
34.29540 580.000
34.31535 588.000
34.33529 601.000
34.35524 616.000
34.37519 614.000
34.39513 640.000
34.41508 697.000
34.43503 639.000
34.45498 724.000
34.47492 658.000
34.49487 712.000
34.51482 677.000
34.53476 682.000
34.55471 689.000
34.57466 700.000
34.59460 667.000
34.61455 676.000
34.63450 732.000
34.65444 705.000
34.67439 715.000
34.69434 730.000
34.71429 733.000
34.73423 751.000
34.75418 733.000
34.77413 791.000
34.79407 789.000
34.81402 772.000
34.83397 721.000
34.85391 733.000
34.87386 742.000
34.89381 757.000
34.91376 713.000
34.93370 715.000
34.95365 687.000
34.97360 703.000
34.99354 685.000
35.01349 731.000
35.03344 714.000
35.05338 747.000
35.07333 675.000
35.09328 723.000
35.11322 769.000
35.13317 851.000
35.15312 875.000
35.17307 896.000
35.19301 946.000
35.21296 1061.000
35.23291 1204.000
35.25285 1424.000
35.27280 1666.000
35.29275 2090.000
35.31269 2398.000
35.33264 2697.000
35.35259 2969.000
35.37254 3318.000
35.39248 3900.000
35.41243 4396.000
35.43238 4622.000
35.45232 4467.000
35.47227 4405.000
35.49222 4334.000
35.51216 3982.000
35.53211 3720.000
35.55206 3379.000
35.57201 3033.000
35.59195 2546.000
35.61190 2138.000
35.63185 1863.000
35.65179 1709.000
35.67174 1424.000
35.69169 1313.000
35.71163 1202.000
35.73158 1079.000
35.75153 1056.000
35.77147 1149.000
35.79142 1127.000
35.81137 1077.000
35.83132 965.000
35.85126 915.000
35.87121 877.000
35.89116 801.000
35.91110 867.000
35.93105 713.000
35.95100 718.000
35.97094 687.000
35.99089 637.000
36.01084 651.000
36.03079 605.000
36.05073 595.000
36.07068 597.000
36.09063 589.000
36.11057 571.000
36.13052 565.000
36.15047 547.000
36.17041 568.000
36.19036 554.000
36.21031 526.000
36.23025 591.000
36.25020 519.000
36.27015 554.000
36.29010 597.000
36.31004 538.000
36.32999 568.000
36.34994 554.000
36.36988 568.000
36.38983 574.000
36.40978 575.000
36.42972 533.000
36.44967 550.000
36.46962 593.000
36.48957 569.000
36.50951 553.000
36.52946 524.000
36.54941 566.000
36.56935 552.000
36.58930 541.000
36.60925 580.000
36.62919 579.000
36.64914 617.000
36.66909 576.000
36.68903 595.000
36.70898 604.000
36.72893 609.000
36.74888 593.000
36.76882 648.000
36.78877 647.000
36.80872 623.000
36.82866 677.000
36.84861 593.000
36.86856 707.000
36.88850 698.000
36.90845 776.000
36.92840 783.000
36.94835 895.000
36.96829 947.000
36.98824 1009.000
37.00819 1123.000
37.02813 1156.000
37.04808 1147.000
37.06803 1181.000
37.08797 1166.000
37.10792 1113.000
37.12787 1124.000
37.14781 1040.000
37.16776 945.000
37.18771 947.000
37.20766 919.000
37.22760 862.000
37.24755 787.000
37.26750 714.000
37.28744 674.000
37.30739 645.000
37.32734 661.000
37.34728 620.000
37.36723 586.000
37.38718 621.000
37.40713 604.000
37.42707 560.000
37.44702 564.000
37.46697 558.000
37.48691 578.000
37.50686 504.000
37.52681 569.000
37.54675 555.000
37.56670 554.000
37.58665 536.000
37.60660 526.000
37.62654 538.000
37.64649 581.000
37.66644 581.000
37.68638 531.000
37.70633 589.000
37.72628 545.000
37.74622 562.000
37.76617 539.000
37.78612 504.000
37.80606 580.000
37.82601 558.000
37.84596 545.000
37.86591 555.000
37.88585 611.000
37.90580 578.000
37.92575 605.000
37.94569 610.000
37.96564 592.000
37.98559 618.000
38.00553 599.000
38.02548 642.000
38.04543 622.000
38.06538 679.000
38.08532 650.000
38.10527 653.000
38.12522 647.000
38.14516 711.000
38.16511 715.000
38.18506 741.000
38.20500 769.000
38.22495 800.000
38.24490 832.000
38.26484 844.000
38.28479 861.000
38.30474 900.000
38.32469 994.000
38.34463 1027.000
38.36458 1074.000
38.38453 1159.000
38.40447 1304.000
38.42442 1562.000
38.44437 1795.000
38.46431 2058.000
38.48426 2456.000
38.50421 2950.000
38.52416 3421.000
38.54410 3668.000
38.56405 3974.000
38.58400 4101.000
38.60394 4091.000
38.62389 4197.000
38.64384 3978.000
38.66378 3647.000
38.68373 3416.000
38.70368 3154.000
38.72362 2845.000
38.74357 2548.000
38.76352 2279.000
38.78347 2092.000
38.80341 1888.000
38.82336 1735.000
38.84331 1690.000
38.86325 1649.000
38.88320 1601.000
38.90315 1589.000
38.92309 1614.000
38.94304 1448.000
38.96299 1429.000
38.98294 1361.000
39.00288 1250.000
39.02283 1141.000
39.04278 1151.000
39.06272 1046.000
39.08267 944.000
39.10262 873.000
39.12256 861.000
39.14251 823.000
39.16246 845.000
39.18241 832.000
39.20235 850.000
39.22230 880.000
39.24225 968.000
39.26219 1038.000
39.28214 1115.000
39.30209 1228.000
39.32203 1314.000
39.34198 1252.000
39.36193 1253.000
39.38187 1375.000
39.40182 1273.000
39.42177 1252.000
39.44172 1207.000
39.46166 1130.000
39.48161 1065.000
39.50156 1051.000
39.52150 931.000
39.54145 870.000
39.56140 768.000
39.58134 717.000
39.60129 703.000
39.62124 664.000
39.64119 624.000
39.66113 591.000
39.68108 586.000
39.70103 533.000
39.72097 561.000
39.74092 584.000
39.76087 553.000
39.78081 545.000
39.80076 531.000
39.82071 566.000
39.84065 506.000
39.86060 525.000
39.88055 559.000
39.90050 533.000
39.92044 505.000
39.94039 509.000
39.96034 531.000
39.98028 506.000
40.00023 475.000
40.02018 529.000
40.04012 525.000
40.06007 506.000
40.08002 482.000
40.09997 517.000
40.11991 523.000
40.13986 550.000
40.15981 508.000
40.17975 485.000
40.19970 540.000
40.21965 520.000
40.23959 460.000
40.25954 530.000
40.27949 515.000
40.29943 493.000
40.31938 526.000
40.33933 517.000
40.35928 449.000
40.37922 522.000
40.39917 466.000
40.41912 510.000
40.43906 474.000
40.45901 507.000
40.47896 511.000
40.49890 503.000
40.51885 505.000
40.53880 467.000
40.55875 488.000
40.57869 514.000
40.59864 510.000
40.61859 512.000
40.63853 497.000
40.65848 484.000
40.67843 523.000
40.69837 492.000
40.71832 499.000
40.73827 518.000
40.75822 530.000
40.77816 510.000
40.79811 486.000
40.81806 552.000
40.83800 519.000
40.85795 526.000
40.87790 515.000
40.89784 464.000
40.91779 505.000
40.93774 527.000
40.95768 480.000
40.97763 515.000
40.99758 447.000
41.01753 507.000
41.03747 505.000
41.05742 473.000
41.07737 473.000
41.09731 494.000
41.11726 514.000
41.13721 476.000
41.15715 500.000
41.17710 502.000
41.19705 519.000
41.21700 497.000
41.23694 452.000
41.25689 502.000
41.27684 472.000
41.29678 482.000
41.31673 496.000
41.33668 462.000
41.35662 507.000
41.37657 535.000
41.39652 513.000
41.41646 482.000
41.43641 464.000
41.45636 489.000
41.47631 535.000
41.49625 533.000
41.51620 477.000
41.53615 504.000
41.55609 485.000
41.57604 514.000
41.59599 507.000
41.61593 491.000
41.63588 504.000
41.65583 470.000
41.67578 504.000
41.69572 483.000
41.71567 497.000
41.73562 517.000
41.75556 478.000
41.77551 522.000
41.79546 479.000
41.81540 505.000
41.83535 498.000
41.85530 490.000
41.87524 519.000
41.89519 478.000
41.91514 480.000
41.93509 502.000
41.95503 509.000
41.97498 486.000
41.99493 534.000
42.01487 520.000
42.03482 479.000
42.05477 476.000
42.07471 514.000
42.09466 471.000
42.11461 482.000
42.13456 481.000
42.15450 535.000
42.17445 518.000
42.19440 506.000
42.21434 517.000
42.23429 508.000
42.25424 541.000
42.27418 501.000
42.29413 495.000
42.31408 524.000
42.33403 479.000
42.35397 520.000
42.37392 539.000
42.39387 545.000
42.41381 501.000
42.43376 513.000
42.45371 531.000
42.47365 571.000
42.49360 620.000
42.51355 534.000
42.53349 521.000
42.55344 522.000
42.57339 577.000
42.59334 553.000
42.61328 550.000
42.63323 573.000
42.65318 608.000
42.67312 574.000
42.69307 595.000
42.71302 612.000
42.73296 647.000
42.75291 666.000
42.77286 689.000
42.79281 708.000
42.81275 795.000
42.83270 698.000
42.85265 751.000
42.87259 808.000
42.89254 849.000
42.91249 869.000
42.93243 880.000
42.95238 884.000
42.97233 940.000
42.99227 921.000
43.01222 993.000
43.03217 1068.000
43.05212 996.000
43.07206 1046.000
43.09201 1056.000
43.11196 1115.000
43.13190 1089.000
43.15185 975.000
43.17180 1035.000
43.19174 978.000
43.21169 982.000
43.23164 991.000
43.25159 934.000
43.27153 869.000
43.29148 890.000
43.31143 880.000
43.33137 900.000
43.35132 879.000
43.37127 838.000
43.39121 887.000
43.41116 969.000
43.43111 860.000
43.45105 911.000
43.47100 871.000
43.49095 829.000
43.51090 880.000
43.53084 879.000
43.55079 800.000
43.57074 826.000
43.59068 727.000
43.61063 749.000
43.63058 699.000
43.65052 688.000
43.67047 650.000
43.69042 627.000
43.71037 615.000
43.73031 589.000
43.75026 549.000
43.77021 556.000
43.79015 587.000
43.81010 514.000
43.83005 512.000
43.84999 585.000
43.86994 548.000
43.88989 526.000
43.90984 494.000
43.92978 500.000
43.94973 511.000
43.96968 518.000
43.98962 523.000
44.00957 530.000
44.02952 522.000
44.04946 501.000
44.06941 497.000
44.08936 536.000
44.10930 513.000
44.12925 520.000
44.14920 499.000
44.16915 475.000
44.18909 528.000
44.20904 505.000
44.22899 487.000
44.24893 518.000
44.26888 542.000
44.28883 493.000
44.30877 515.000
44.32872 518.000
44.34867 517.000
44.36862 469.000
44.38856 524.000
44.40851 490.000
44.42846 520.000
44.44840 510.000
44.46835 481.000
44.48830 528.000
44.50824 497.000
44.52819 516.000
44.54814 514.000
44.56808 487.000
44.58803 481.000
44.60798 497.000
44.62793 493.000
44.64787 513.000
44.66782 521.000
44.68777 496.000
44.70771 498.000
44.72766 547.000
44.74761 510.000
44.76755 537.000
44.78750 476.000
44.80745 527.000
44.82740 468.000
44.84734 481.000
44.86729 516.000
44.88724 508.000
44.90718 520.000
44.92713 503.000
44.94708 485.000
44.96702 545.000
44.98697 551.000
45.00692 496.000
45.02686 537.000
45.04681 521.000
45.06676 514.000
45.08671 526.000
45.10665 539.000
45.12660 484.000
45.14655 535.000
45.16649 530.000
45.18644 502.000
45.20639 507.000
45.22633 516.000
45.24628 512.000
45.26623 531.000
45.28618 524.000
45.30612 501.000
45.32607 537.000
45.34602 531.000
45.36596 507.000
45.38591 551.000
45.40586 524.000
45.42580 486.000
45.44575 525.000
45.46570 564.000
45.48565 527.000
45.50559 534.000
45.52554 566.000
45.54549 548.000
45.56543 541.000
45.58538 497.000
45.60533 539.000
45.62527 487.000
45.64522 526.000
45.66517 526.000
45.68511 519.000
45.70506 497.000
45.72501 499.000
45.74496 491.000
45.76490 463.000
45.78485 521.000
45.80480 517.000
45.82474 522.000
45.84469 495.000
45.86464 501.000
45.88458 494.000
45.90453 477.000
45.92448 507.000
45.94443 501.000
45.96437 521.000
45.98432 515.000
46.00427 515.000
46.02421 525.000
46.04416 526.000
46.06411 470.000
46.08405 525.000
46.10400 537.000
46.12395 541.000
46.14389 584.000
46.16384 582.000
46.18379 618.000
46.20374 559.000
46.22368 577.000
46.24363 608.000
46.26358 566.000
46.28352 575.000
46.30347 608.000
46.32342 583.000
46.34336 552.000
46.36331 547.000
46.38326 578.000
46.40321 505.000
46.42315 529.000
46.44310 511.000
46.46305 564.000
46.48299 493.000
46.50294 527.000
46.52289 511.000
46.54283 483.000
46.56278 473.000
46.58273 524.000
46.60267 546.000
46.62262 527.000
46.64257 510.000
46.66252 528.000
46.68246 458.000
46.70241 525.000
46.72236 496.000
46.74230 505.000
46.76225 494.000
46.78220 485.000
46.80214 513.000
46.82209 479.000
46.84204 506.000
46.86199 489.000
46.88193 515.000
46.90188 535.000
46.92183 493.000
46.94177 515.000
46.96172 482.000
46.98167 492.000
47.00161 476.000
47.02156 464.000
47.04151 487.000
47.06146 517.000
47.08140 505.000
47.10135 504.000
47.12130 462.000
47.14124 507.000
47.16119 533.000
47.18114 476.000
47.20108 460.000
47.22103 478.000
47.24098 497.000
47.26092 506.000
47.28087 483.000
47.30082 484.000
47.32077 544.000
47.34071 496.000
47.36066 505.000
47.38061 483.000
47.40055 491.000
47.42050 537.000
47.44045 526.000
47.46039 510.000
47.48034 509.000
47.50029 489.000
47.52024 464.000
47.54018 515.000
47.56013 493.000
47.58008 524.000
47.60002 542.000
47.61997 503.000
47.63992 476.000
47.65986 500.000
47.67981 514.000
47.69976 478.000
47.71970 494.000
47.73965 494.000
47.75960 505.000
47.77955 484.000
47.79949 547.000
47.81944 541.000
47.83939 525.000
47.85933 550.000
47.87928 519.000
47.89923 527.000
47.91917 583.000
47.93912 549.000
47.95907 600.000
47.97902 577.000
47.99896 661.000
48.01891 609.000
48.03886 608.000
48.05880 617.000
48.07875 606.000
48.09870 616.000
48.11864 572.000
48.13859 578.000
48.15854 566.000
48.17848 577.000
48.19843 606.000
48.21838 565.000
48.23833 565.000
48.25827 590.000
48.27822 558.000
48.29817 579.000
48.31811 600.000
48.33806 618.000
48.35801 623.000
48.37795 632.000
48.39790 644.000
48.41785 635.000
48.43780 613.000
48.45774 643.000
48.47769 710.000
48.49764 697.000
48.51758 739.000
48.53753 727.000
48.55748 829.000
48.57742 859.000
48.59737 928.000
48.61732 1001.000
48.63726 1101.000
48.65721 1256.000
48.67716 1376.000
48.69711 1605.000
48.71705 1654.000
48.73700 1857.000
48.75695 1895.000
48.77689 2000.000
48.79684 2017.000
48.81679 2031.000
48.83673 2124.000
48.85668 2054.000
48.87663 1912.000
48.89658 1803.000
48.91652 1664.000
48.93647 1564.000
48.95642 1491.000
48.97636 1376.000
48.99631 1206.000
49.01626 1050.000
49.03620 1020.000
49.05615 957.000
49.07610 862.000
49.09605 804.000
49.11599 767.000
49.13594 707.000
49.15589 643.000
49.17583 643.000
49.19578 621.000
49.21573 667.000
49.23567 592.000
49.25562 621.000
49.27557 564.000
49.29551 575.000
49.31546 520.000
49.33541 561.000
49.35536 571.000
49.37530 577.000
49.39525 545.000
49.41520 556.000
49.43514 572.000
49.45509 518.000
49.47504 555.000
49.49498 588.000
49.51493 516.000
49.53488 528.000
49.55483 586.000
49.57477 517.000
49.59472 518.000
49.61467 530.000
49.63461 517.000
49.65456 542.000
49.67451 488.000
49.69445 532.000
49.71440 506.000
49.73435 548.000
49.75429 514.000
49.77424 513.000
49.79419 523.000
49.81414 545.000
49.83408 539.000
49.85403 528.000
49.87398 519.000
49.89392 551.000
49.91387 534.000
49.93382 473.000
49.95376 536.000
49.97371 514.000
49.99366 482.000
50.01361 483.000
50.03355 494.000
50.05350 533.000
50.07345 524.000
50.09339 530.000
50.11334 534.000
50.13329 517.000
50.15323 523.000
50.17318 486.000
50.19313 513.000
50.21307 473.000
50.23302 479.000
50.25297 488.000
50.27292 502.000
50.29286 492.000
50.31281 524.000
50.33276 531.000
50.35270 501.000
50.37265 493.000
50.39260 502.000
50.41254 467.000
50.43249 498.000
50.45244 528.000
50.47239 503.000
50.49233 502.000
50.51228 520.000
50.53223 485.000
50.55217 519.000
50.57212 516.000
50.59207 499.000
50.61201 484.000
50.63196 515.000
50.65191 525.000
50.67186 502.000
50.69180 480.000
50.71175 506.000
50.73170 523.000
50.75164 516.000
50.77159 498.000
50.79154 475.000
50.81148 481.000
50.83143 487.000
50.85138 527.000
50.87132 505.000
50.89127 531.000
50.91122 536.000
50.93117 521.000
50.95111 510.000
50.97106 516.000
50.99101 550.000
51.01095 522.000
51.03090 551.000
51.05085 566.000
51.07079 506.000
51.09074 566.000
51.11069 553.000
51.13064 555.000
51.15058 541.000
51.17053 574.000
51.19048 543.000
51.21042 578.000
51.23037 551.000
51.25032 576.000
51.27026 584.000
51.29021 567.000
51.31016 562.000
51.33010 506.000
51.35005 539.000
51.37000 509.000
51.38995 516.000
51.40989 501.000
51.42984 541.000
51.44979 550.000
51.46973 536.000
51.48968 537.000
51.50963 524.000
51.52957 499.000
51.54952 537.000
51.56947 523.000
51.58942 508.000
51.60936 529.000
51.62931 499.000
51.64926 533.000
51.66920 503.000
51.68915 516.000
51.70910 494.000
51.72904 503.000
51.74899 508.000
51.76894 518.000
51.78888 543.000
51.80883 550.000
51.82878 541.000
51.84873 549.000
51.86867 522.000
51.88862 556.000
51.90857 581.000
51.92851 556.000
51.94846 548.000
51.96841 595.000
51.98835 578.000
52.00830 594.000
52.02825 635.000
52.04820 600.000
52.06814 569.000
52.08809 581.000
52.10804 611.000
52.12798 573.000
52.14793 549.000
52.16788 556.000
52.18782 554.000
52.20777 540.000
52.22772 521.000
52.24767 548.000
52.26761 544.000
52.28756 556.000
52.30751 533.000
52.32745 489.000
52.34740 529.000
52.36735 562.000
52.38729 511.000
52.40724 494.000
52.42719 493.000
52.44713 487.000
52.46708 487.000
52.48703 512.000
52.50698 523.000
52.52692 537.000
52.54687 528.000
52.56682 516.000
52.58676 488.000
52.60671 488.000
52.62666 496.000
52.64660 533.000
52.66655 494.000
52.68650 496.000
52.70645 513.000
52.72639 518.000
52.74634 541.000
52.76629 516.000
52.78623 476.000
52.80618 561.000
52.82613 571.000
52.84607 543.000
52.86602 593.000
52.88597 522.000
52.90591 528.000
52.92586 547.000
52.94581 566.000
52.96576 538.000
52.98570 542.000
53.00565 612.000
53.02560 608.000
53.04554 572.000
53.06549 631.000
53.08544 640.000
53.10538 681.000
53.12533 673.000
53.14528 683.000
53.16523 641.000
53.18517 793.000
53.20512 687.000
53.22507 701.000
53.24501 749.000
53.26496 710.000
53.28491 750.000
53.30485 764.000
53.32480 745.000
53.34475 723.000
53.36469 740.000
53.38464 696.000
53.40459 709.000
53.42454 685.000
53.44448 706.000
53.46443 666.000
53.48438 675.000
53.50432 646.000
53.52427 627.000
53.54422 607.000
53.56416 596.000
53.58411 586.000
53.60406 595.000
53.62401 573.000
53.64395 548.000
53.66390 589.000
53.68385 565.000
53.70379 547.000
53.72374 564.000
53.74369 550.000
53.76363 564.000
53.78358 525.000
53.80353 579.000
53.82348 504.000
53.84342 533.000
53.86337 536.000
53.88332 498.000
53.90326 486.000
53.92321 545.000
53.94316 491.000
53.96310 506.000
53.98305 539.000
54.00300 519.000
54.02294 470.000
54.04289 481.000
54.06284 478.000
54.08279 470.000
54.10273 497.000
54.12268 505.000
54.14263 486.000
54.16257 466.000
54.18252 499.000
54.20247 492.000
54.22241 543.000
54.24236 517.000
54.26231 509.000
54.28226 528.000
54.30220 496.000
54.32215 508.000
54.34210 486.000
54.36204 501.000
54.38199 462.000
54.40194 488.000
54.42188 490.000
54.44183 479.000
54.46178 504.000
54.48172 555.000
54.50167 514.000
54.52162 504.000
54.54157 502.000
54.56151 524.000
54.58146 544.000
54.60141 508.000
54.62135 502.000
54.64130 519.000
54.66125 510.000
54.68119 533.000
54.70114 521.000
54.72109 530.000
54.74104 521.000
54.76098 480.000
54.78093 501.000
54.80088 509.000
54.82082 528.000
54.84077 476.000
54.86072 503.000
54.88066 490.000
54.90061 525.000
54.92056 515.000
54.94050 504.000
54.96045 507.000
54.98040 527.000
55.00035 476.000
55.02029 443.000
55.04024 480.000
55.06019 523.000
55.08013 465.000
55.10008 499.000
55.12003 511.000
55.13997 455.000
55.15992 505.000
55.17987 517.000
55.19982 501.000
55.21976 505.000
55.23971 509.000
55.25966 509.000
55.27960 514.000
55.29955 503.000
55.31950 501.000
55.33944 465.000
55.35939 507.000
55.37934 502.000
55.39929 540.000
55.41923 518.000
55.43918 523.000
55.45913 487.000
55.47907 533.000
55.49902 524.000
55.51897 489.000
55.53891 505.000
55.55886 497.000
55.57881 494.000
55.59875 526.000
55.61870 492.000
55.63865 503.000
55.65860 492.000
55.67854 497.000
55.69849 540.000
55.71844 507.000
55.73838 494.000
55.75833 491.000
55.77828 496.000
55.79822 507.000
55.81817 489.000
55.83812 486.000
55.85807 526.000
55.87801 514.000
55.89796 479.000
55.91791 495.000
55.93785 508.000
55.95780 531.000
55.97775 517.000
55.99769 497.000
56.01764 516.000
56.03759 505.000
56.05753 516.000
56.07748 510.000
56.09743 537.000
56.11738 498.000
56.13732 539.000
56.15727 485.000
56.17722 501.000
56.19716 509.000
56.21711 520.000
56.23706 494.000
56.25700 506.000
56.27695 493.000
56.29690 508.000
56.31685 505.000
56.33679 458.000
56.35674 498.000
56.37669 534.000
56.39663 479.000
56.41658 554.000
56.43653 530.000
56.45647 583.000
56.47642 535.000
56.49637 527.000
56.51631 500.000
56.53626 444.000
56.55621 490.000
56.57616 556.000
56.59610 514.000
56.61605 502.000
56.63600 520.000
56.65594 585.000
56.67589 522.000
56.69584 516.000
56.71578 498.000
56.73573 561.000
56.75568 539.000
56.77563 512.000
56.79557 535.000
56.81552 541.000
56.83547 528.000
56.85541 504.000
56.87536 508.000
56.89531 556.000
56.91525 505.000
56.93520 524.000
56.95515 545.000
56.97510 492.000
56.99504 492.000
57.01499 545.000
57.03494 482.000
57.05488 499.000
57.07483 472.000
57.09478 515.000
57.11472 518.000
57.13467 482.000
57.15462 517.000
57.17456 542.000
57.19451 518.000
57.21446 538.000
57.23441 473.000
57.25435 508.000
57.27430 489.000
57.29425 487.000
57.31419 547.000
57.33414 510.000
57.35409 476.000
57.37403 519.000
57.39398 503.000
57.41393 505.000
57.43388 489.000
57.45382 537.000
57.47377 522.000
57.49372 504.000
57.51366 511.000
57.53361 548.000
57.55356 524.000
57.57350 492.000
57.59345 497.000
57.61340 506.000
57.63334 559.000
57.65329 477.000
57.67324 498.000
57.69319 523.000
57.71313 527.000
57.73308 499.000
57.75303 546.000
57.77297 537.000
57.79292 517.000
57.81287 551.000
57.83281 568.000
57.85276 578.000
57.87271 551.000
57.89266 575.000
57.91260 575.000
57.93255 619.000
57.95250 629.000
57.97244 643.000
57.99239 669.000
58.01234 711.000
58.03228 732.000
58.05223 832.000
58.07218 799.000
58.09212 860.000
58.11207 929.000
58.13202 949.000
58.15197 950.000
58.17191 932.000
58.19186 967.000
58.21181 933.000
58.23175 912.000
58.25170 913.000
58.27165 932.000
58.29159 845.000
58.31154 802.000
58.33149 815.000
58.35144 734.000
58.37138 752.000
58.39133 725.000
58.41128 695.000
58.43122 676.000
58.45117 643.000
58.47112 624.000
58.49106 567.000
58.51101 603.000
58.53096 604.000
58.55090 543.000
58.57085 535.000
58.59080 526.000
58.61075 553.000
58.63069 504.000
58.65064 559.000
58.67059 508.000
58.69053 500.000
58.71048 493.000
58.73043 514.000
58.75037 537.000
58.77032 514.000
58.79027 482.000
58.81022 515.000
58.83016 526.000
58.85011 516.000
58.87006 517.000
58.89000 498.000
58.90995 501.000
58.92990 522.000
58.94984 513.000
58.96979 499.000
58.98974 525.000
59.00969 524.000
59.02963 519.000
59.04958 579.000
59.06953 445.000
59.08947 504.000
59.10942 522.000
59.12937 483.000
59.14931 519.000
59.16926 512.000
59.18921 522.000
59.20915 514.000
59.22910 537.000
59.24905 522.000
59.26900 549.000
59.28894 474.000
59.30889 530.000
59.32884 488.000
59.34878 501.000
59.36873 501.000
59.38868 468.000
59.40862 514.000
59.42857 494.000
59.44852 483.000
59.46847 457.000
59.48841 508.000
59.50836 514.000
59.52831 528.000
59.54825 493.000
59.56820 489.000
59.58815 508.000
59.60809 504.000
59.62804 530.000
59.64799 473.000
59.66793 494.000
59.68788 505.000
59.70783 460.000
59.72778 541.000
59.74772 528.000
59.76767 535.000
59.78762 551.000
59.80756 557.000
59.82751 554.000
59.84746 482.000
59.86740 518.000
59.88735 536.000
59.90730 532.000
59.92725 520.000
59.94719 539.000
59.96714 519.000
59.98709 545.000
60.00703 521.000
60.02698 487.000
60.04693 520.000
60.06687 508.000
60.08682 478.000
60.10677 559.000
60.12671 522.000
60.14666 539.000
60.16661 499.000
60.18656 512.000
60.20650 508.000
60.22645 575.000
60.24640 555.000
60.26634 553.000
60.28629 540.000
60.30624 544.000
60.32618 554.000
60.34613 481.000
60.36608 545.000
60.38603 547.000
60.40597 497.000
60.42592 512.000
60.44587 556.000
60.46581 515.000
60.48576 517.000
60.50571 503.000
60.52565 530.000
60.54560 529.000
60.56555 505.000
60.58550 502.000
60.60544 570.000
60.62539 552.000
60.64534 491.000
60.66528 533.000
60.68523 525.000
60.70518 526.000
60.72512 514.000
60.74507 534.000
60.76502 550.000
60.78496 497.000
60.80491 536.000
60.82486 497.000
60.84481 535.000
60.86475 546.000
60.88470 536.000
60.90465 520.000
60.92459 566.000
60.94454 548.000
60.96449 535.000
60.98443 557.000
61.00438 524.000
61.02433 541.000
61.04428 550.000
61.06422 585.000
61.08417 582.000
61.10412 568.000
61.12406 552.000
61.14401 589.000
61.16396 566.000
61.18390 614.000
61.20385 571.000
61.22380 561.000
61.24374 669.000
61.26369 681.000
61.28364 731.000
61.30359 703.000
61.32353 708.000
61.34348 792.000
61.36343 900.000
61.38337 945.000
61.40332 1002.000
61.42327 1098.000
61.44321 1203.000
61.46316 1246.000
61.48311 1211.000
61.50306 1262.000
61.52300 1204.000
61.54295 1211.000
61.56290 1179.000
61.58284 1088.000
61.60279 1095.000
61.62274 1118.000
61.64268 1070.000
61.66263 994.000
61.68258 968.000
61.70252 928.000
61.72247 852.000
61.74242 831.000
61.76237 811.000
61.78231 784.000
61.80226 747.000
61.82221 710.000
61.84215 682.000
61.86210 676.000
61.88205 663.000
61.90199 651.000
61.92194 680.000
61.94189 725.000
61.96184 723.000
61.98178 742.000
62.00173 802.000
62.02168 766.000
62.04162 839.000
62.06157 786.000
62.08152 840.000
62.10146 748.000
62.12141 858.000
62.14136 859.000
62.16131 830.000
62.18125 757.000
62.20120 853.000
62.22115 750.000
62.24109 805.000
62.26104 787.000
62.28099 758.000
62.30093 795.000
62.32088 824.000
62.34083 755.000
62.36077 739.000
62.38072 722.000
62.40067 771.000
62.42062 746.000
62.44056 740.000
62.46051 748.000
62.48046 850.000
62.50040 763.000
62.52035 744.000
62.54030 822.000
62.56024 804.000
62.58019 783.000
62.60014 793.000
62.62009 749.000
62.64003 768.000
62.65998 810.000
62.67993 761.000
62.69987 737.000
62.71982 726.000
62.73977 659.000
62.75971 744.000
62.77966 752.000
62.79961 773.000
62.81955 682.000
62.83950 625.000
62.85945 692.000
62.87940 674.000
62.89934 615.000
62.91929 622.000
62.93924 622.000
62.95918 589.000
62.97913 644.000
62.99908 596.000
63.01902 618.000
63.03897 631.000
63.05892 596.000
63.07887 549.000
63.09881 519.000
63.11876 543.000
63.13871 560.000
63.15865 547.000
63.17860 512.000
63.19855 565.000
63.21849 539.000
63.23844 543.000
63.25839 548.000
63.27833 553.000
63.29828 517.000
63.31823 568.000
63.33818 565.000
63.35812 557.000
63.37807 549.000
63.39802 547.000
63.41796 524.000
63.43791 506.000
63.45786 517.000
63.47780 533.000
63.49775 522.000
63.51770 506.000
63.53765 554.000
63.55759 496.000
63.57754 531.000
63.59749 565.000
63.61743 524.000
63.63738 495.000
63.65733 526.000
63.67727 577.000
63.69722 543.000
63.71717 548.000
63.73712 562.000
63.75706 535.000
63.77701 533.000
63.79696 544.000
63.81690 535.000
63.83685 549.000
63.85680 552.000
63.87674 491.000
63.89669 565.000
63.91664 581.000
63.93658 550.000
63.95653 544.000
63.97648 581.000
63.99643 579.000
64.01637 547.000
64.03632 523.000
64.05627 549.000
64.07621 600.000
64.09616 561.000
64.11611 591.000
64.13605 614.000
64.15600 609.000
64.17595 659.000
64.19590 602.000
64.21584 663.000
64.23579 702.000
64.25574 706.000
64.27568 715.000
64.29563 726.000
64.31558 708.000
64.33552 754.000
64.35547 724.000
64.37542 717.000
64.39536 727.000
64.41531 705.000
64.43526 726.000
64.45521 781.000
64.47515 696.000
64.49510 685.000
64.51505 760.000
64.53499 656.000
64.55494 704.000
64.57489 665.000
64.59483 666.000
64.61478 592.000
64.63473 614.000
64.65468 594.000
64.67462 595.000
64.69457 602.000
64.71452 584.000
64.73446 572.000
64.75441 556.000
64.77436 635.000
64.79430 524.000
64.81425 525.000
64.83420 560.000
64.85414 547.000
64.87409 560.000
64.89404 560.000
64.91399 569.000
64.93393 561.000
64.95388 590.000
64.97383 579.000
64.99377 542.000
65.01372 559.000
65.03367 552.000
65.05361 607.000
65.07356 571.000
65.09351 579.000
65.11346 597.000
65.13340 561.000
65.15335 568.000
65.17330 591.000
65.19324 576.000
65.21319 563.000
65.23314 606.000
65.25308 607.000
65.27303 625.000
65.29298 635.000
65.31293 650.000
65.33287 652.000
65.35282 685.000
65.37277 707.000
65.39271 711.000
65.41266 763.000
65.43261 728.000
65.45255 807.000
65.47250 861.000
65.49245 803.000
65.51239 855.000
65.53234 901.000
65.55229 867.000
65.57224 877.000
65.59218 939.000
65.61213 956.000
65.63208 882.000
65.65202 943.000
65.67197 923.000
65.69192 893.000
65.71186 882.000
65.73181 895.000
65.75176 911.000
65.77171 846.000
65.79165 808.000
65.81160 843.000
65.83155 833.000
65.85149 855.000
65.87144 810.000
65.89139 814.000
65.91133 815.000
65.93128 836.000
65.95123 757.000
65.97117 720.000
65.99112 789.000
66.01107 779.000
66.03102 743.000
66.05096 739.000
66.07091 717.000
66.09086 831.000
66.11080 814.000
66.13075 830.000
66.15070 873.000
66.17064 889.000
66.19059 958.000
66.21054 893.000
66.23049 967.000
66.25043 994.000
66.27038 1007.000
66.29033 1055.000
66.31027 1034.000
66.33022 1075.000
66.35017 1079.000
66.37011 1007.000
66.39006 965.000
66.41001 945.000
66.42995 930.000
66.44990 846.000
66.46985 911.000
66.48980 903.000
66.50974 853.000
66.52969 821.000
66.54964 719.000
66.56958 744.000
66.58953 763.000
66.60948 773.000
66.62942 736.000
66.64937 714.000
66.66932 723.000
66.68927 693.000
66.70921 720.000
66.72916 744.000
66.74911 663.000
66.76905 728.000
66.78900 712.000
66.80895 694.000
66.82889 698.000
66.84884 658.000
66.86879 697.000
66.88874 659.000
66.90868 662.000
66.92863 673.000
66.94858 721.000
66.96852 671.000
66.98847 648.000
67.00842 690.000
67.02836 704.000
67.04831 618.000
67.06826 667.000
67.08820 635.000
67.10815 583.000
67.12810 620.000
67.14805 635.000
67.16799 645.000
67.18794 623.000
67.20789 617.000
67.22783 582.000
67.24778 589.000
67.26773 566.000
67.28767 557.000
67.30762 551.000
67.32757 554.000
67.34752 580.000
67.36746 586.000
67.38741 601.000
67.40736 548.000
67.42730 567.000
67.44725 617.000
67.46720 608.000
67.48714 605.000
67.50709 631.000
67.52704 653.000
67.54698 639.000
67.56693 688.000
67.58688 666.000
67.60683 757.000
67.62677 796.000
67.64672 759.000
67.66667 820.000
67.68661 831.000
67.70656 804.000
67.72651 809.000
67.74645 869.000
67.76640 922.000
67.78635 892.000
67.80630 943.000
67.82624 959.000
67.84619 1044.000
67.86614 1004.000
67.88608 1032.000
67.90603 1089.000
67.92598 1020.000
67.94592 963.000
67.96587 1013.000
67.98582 1043.000
68.00576 1003.000
68.02571 964.000
68.04566 948.000
68.06561 936.000
68.08555 913.000
68.10550 907.000
68.12545 854.000
68.14539 824.000
68.16534 812.000
68.18529 834.000
68.20523 746.000
68.22518 736.000
68.24513 680.000
68.26508 647.000
68.28502 627.000
68.30497 652.000
68.32492 605.000
68.34486 628.000
68.36481 582.000
68.38476 591.000
68.40470 579.000
68.42465 607.000
68.44460 557.000
68.46455 585.000
68.48449 536.000
68.50444 576.000
68.52439 542.000
68.54433 549.000
68.56428 562.000
68.58423 526.000
68.60417 503.000
68.62412 561.000
68.64407 520.000
68.66401 538.000
68.68396 533.000
68.70391 519.000
68.72386 552.000
68.74380 547.000
68.76375 567.000
68.78370 529.000
68.80364 543.000
68.82359 536.000
68.84354 527.000
68.86348 527.000
68.88343 560.000
68.90338 529.000
68.92333 537.000
68.94327 543.000
68.96322 526.000
68.98317 529.000
69.00311 555.000
69.02306 490.000
69.04301 531.000
69.06295 525.000
69.08290 510.000
69.10285 555.000
69.12279 499.000
69.14274 488.000
69.16269 512.000
69.18264 528.000
69.20258 506.000
69.22253 488.000
69.24248 524.000
69.26242 525.000
69.28237 523.000
69.30232 525.000
69.32226 558.000
69.34221 536.000
69.36216 506.000
69.38211 529.000
69.40205 567.000
69.42200 514.000
69.44195 542.000
69.46189 531.000
69.48184 481.000
69.50179 473.000
69.52173 471.000
69.54168 547.000
69.56163 529.000
69.58157 515.000
69.60152 539.000
69.62147 497.000
69.64142 497.000
69.66136 544.000
69.68131 529.000
69.70126 539.000
69.72120 483.000
69.74115 475.000
69.76110 514.000
69.78104 513.000
69.80099 487.000
69.82094 552.000
69.84089 501.000
69.86083 491.000
69.88078 522.000
69.90073 531.000
69.92067 528.000
69.94062 502.000
69.96057 549.000
69.98051 524.000
70.00046 476.000
70.02041 553.000
70.04035 499.000
70.06030 530.000
70.08025 533.000
70.10020 500.000
70.12014 527.000
70.14009 508.000
70.16004 477.000
70.17998 547.000
70.19993 524.000
70.21988 480.000
70.23982 551.000
70.25977 530.000
70.27972 555.000
70.29967 538.000
70.31961 510.000
70.33956 518.000
70.35951 529.000
70.37945 529.000
70.39940 526.000
70.41935 481.000
70.43929 486.000
70.45924 539.000
70.47919 531.000
70.49914 527.000
70.51908 496.000
70.53903 530.000
70.55898 539.000
70.57892 518.000
70.59887 481.000
70.61882 518.000
70.63876 499.000
70.65871 544.000
70.67866 498.000
70.69860 526.000
70.71855 519.000
70.73850 514.000
70.75845 541.000
70.77839 535.000
70.79834 535.000
70.81829 475.000
70.83823 514.000
70.85818 482.000
70.87813 489.000
70.89807 521.000
70.91802 474.000
70.93797 502.000
70.95792 536.000
70.97786 516.000
70.99781 521.000
71.01776 506.000
71.03770 461.000
71.05765 513.000
71.07760 511.000
71.09754 473.000
71.11749 559.000
71.13744 537.000
71.15738 512.000
71.17733 523.000
71.19728 529.000
71.21723 529.000
71.23717 519.000
71.25712 521.000
71.27707 475.000
71.29701 546.000
71.31696 500.000
71.33691 491.000
71.35685 528.000
71.37680 507.000
71.39675 528.000
71.41670 504.000
71.43664 486.000
71.45659 509.000
71.47654 517.000
71.49648 482.000
71.51643 507.000
71.53638 509.000
71.55632 529.000
71.57627 562.000
71.59622 545.000
71.61616 549.000
71.63611 522.000
71.65606 579.000
71.67601 467.000
71.69595 555.000
71.71590 534.000
71.73585 531.000
71.75579 546.000
71.77574 539.000
71.79569 553.000
71.81563 535.000
71.83558 530.000
71.85553 568.000
71.87548 527.000
71.89542 516.000
71.91537 526.000
71.93532 580.000
71.95526 554.000
71.97521 563.000
71.99516 495.000
72.01510 563.000
72.03505 542.000
72.05500 573.000
72.07495 515.000
72.09489 554.000
72.11484 627.000
72.13479 599.000
72.15473 592.000
72.17468 658.000
72.19463 636.000
72.21457 672.000
72.23452 684.000
72.25447 687.000
72.27441 710.000
72.29436 784.000
72.31431 721.000
72.33426 698.000
72.35420 731.000
72.37415 693.000
72.39410 709.000
72.41404 708.000
72.43399 703.000
72.45394 690.000
72.47388 699.000
72.49383 660.000
72.51378 658.000
72.53373 632.000
72.55367 656.000
72.57362 634.000
72.59357 607.000
72.61351 630.000
72.63346 584.000
72.65341 607.000
72.67335 561.000
72.69330 578.000
72.71325 564.000
72.73319 609.000
72.75314 545.000
72.77309 538.000
72.79304 561.000
72.81298 558.000
72.83293 544.000
72.85288 534.000
72.87282 514.000
72.89277 563.000
72.91272 525.000
72.93266 535.000
72.95261 558.000
72.97256 575.000
72.99251 502.000
73.01245 512.000
73.03240 512.000
73.05235 535.000
73.07229 526.000
73.09224 494.000
73.11219 522.000
73.13213 529.000
73.15208 553.000
73.17203 551.000
73.19197 560.000
73.21192 528.000
73.23187 523.000
73.25182 522.000
73.27176 509.000
73.29171 551.000
73.31166 547.000
73.33160 522.000
73.35155 532.000
73.37150 516.000
73.39144 521.000
73.41139 533.000
73.43134 580.000
73.45129 518.000
73.47123 574.000
73.49118 567.000
73.51113 534.000
73.53107 508.000
73.55102 548.000
73.57097 573.000
73.59091 554.000
73.61086 582.000
73.63081 569.000
73.65076 569.000
73.67070 573.000
73.69065 593.000
73.71060 583.000
73.73054 593.000
73.75049 597.000
73.77044 607.000
73.79038 587.000
73.81033 565.000
73.83028 588.000
73.85022 610.000
73.87017 611.000
73.89012 555.000
73.91007 609.000
73.93001 536.000
73.94996 525.000
73.96991 577.000
73.98985 560.000
74.00980 534.000
74.02975 583.000
74.04969 537.000
74.06964 546.000
74.08959 531.000
74.10954 554.000
74.12948 565.000
74.14943 556.000
74.16938 528.000
74.18932 565.000
74.20927 529.000
74.22922 541.000
74.24916 540.000
74.26911 594.000
74.28906 549.000
74.30900 506.000
74.32895 542.000
74.34890 530.000
74.36885 594.000
74.38879 554.000
74.40874 565.000
74.42869 531.000
74.44863 570.000
74.46858 550.000
74.48853 531.000
74.50847 543.000
74.52842 541.000
74.54837 581.000
74.56832 567.000
74.58826 539.000
74.60821 553.000
74.62816 603.000
74.64810 573.000
74.66805 585.000
74.68800 615.000
74.70794 601.000
74.72789 583.000
74.74784 660.000
74.76778 638.000
74.78773 661.000
74.80768 716.000
74.82763 753.000
74.84757 765.000
74.86752 760.000
74.88747 869.000
74.90741 774.000
74.92736 800.000
74.94731 787.000
74.96725 784.000
74.98720 815.000
75.00715 755.000
75.02710 816.000
75.04704 810.000
75.06699 842.000
75.08694 897.000
75.10688 861.000
75.12683 862.000
75.14678 832.000
75.16672 807.000
75.18667 839.000
75.20662 811.000
75.22657 766.000
75.24651 830.000
75.26646 790.000
75.28641 715.000
75.30635 736.000
75.32630 694.000
75.34625 716.000
75.36619 650.000
75.38614 700.000
75.40609 667.000
75.42603 722.000
75.44598 629.000
75.46593 723.000
75.48588 636.000
75.50582 632.000
75.52577 603.000
75.54572 630.000
75.56566 642.000
75.58561 596.000
75.60556 533.000
75.62550 585.000
75.64545 524.000
75.66540 544.000
75.68535 594.000
75.70529 514.000
75.72524 536.000
75.74519 521.000
75.76513 589.000
75.78508 567.000
75.80503 537.000
75.82497 568.000
75.84492 545.000
75.86487 562.000
75.88481 501.000
75.90476 554.000
75.92471 545.000
75.94466 602.000
75.96460 597.000
75.98455 553.000
76.00450 567.000
76.02444 561.000
76.04439 559.000
76.06434 577.000
76.08428 564.000
76.10423 509.000
76.12418 518.000
76.14413 541.000
76.16407 527.000
76.18402 507.000
76.20397 585.000
76.22391 521.000
76.24386 548.000
76.26381 522.000
76.28375 512.000
76.30370 561.000
76.32365 498.000
76.34359 565.000
76.36354 510.000
76.38349 546.000
76.40344 526.000
76.42338 503.000
76.44333 475.000
76.46328 537.000
76.48322 570.000
76.50317 467.000
76.52312 511.000
76.54306 544.000
76.56301 523.000
76.58296 487.000
76.60291 514.000
76.62285 562.000
76.64280 516.000
76.66275 531.000
76.68269 535.000
76.70264 541.000
76.72259 533.000
76.74253 507.000
76.76248 519.000
76.78243 559.000
76.80238 495.000
76.82232 495.000
76.84227 515.000
76.86222 545.000
76.88216 533.000
76.90211 490.000
76.92206 532.000
76.94200 492.000
76.96195 549.000
76.98190 522.000
77.00184 512.000
77.02179 508.000
77.04174 498.000
77.06169 540.000
77.08163 521.000
77.10158 547.000
77.12153 528.000
77.14147 521.000
77.16142 537.000
77.18137 524.000
77.20131 532.000
77.22126 503.000
77.24121 548.000
77.26116 510.000
77.28110 529.000
77.30105 530.000
77.32100 518.000
77.34094 508.000
77.36089 522.000
77.38084 507.000
77.40078 514.000
77.42073 525.000
77.44068 537.000
77.46062 505.000
77.48057 477.000
77.50052 527.000
77.52047 536.000
77.54041 528.000
77.56036 535.000
77.58031 544.000
77.60025 493.000
77.62020 526.000
77.64015 517.000
77.66009 542.000
77.68004 510.000
77.69999 545.000
77.71994 544.000
77.73988 488.000
77.75983 515.000
77.77978 510.000
77.79972 535.000
77.81967 535.000
77.83962 490.000
77.85956 519.000
77.87951 519.000
77.89946 529.000
77.91940 553.000
77.93935 536.000
77.95930 617.000
77.97925 554.000
77.99919 592.000
78.01914 535.000
78.03909 579.000
78.05903 567.000
78.07898 537.000
78.09893 592.000
78.11887 584.000
78.13882 561.000
78.15877 586.000
78.17872 620.000
78.19866 618.000
78.21861 571.000
78.23856 555.000
78.25850 600.000
78.27845 645.000
78.29840 601.000
78.31834 639.000
78.33829 661.000
78.35824 604.000
78.37819 602.000
78.39813 621.000
78.41808 592.000
78.43803 633.000
78.45797 591.000
78.47792 614.000
78.49787 628.000
78.51781 580.000
78.53776 637.000
78.55771 591.000
78.57765 567.000
78.59760 594.000
78.61755 587.000
78.63750 625.000
78.65744 566.000
78.67739 592.000
78.69734 578.000
78.71728 591.000
78.73723 599.000
78.75718 568.000
78.77712 575.000
78.79707 602.000
78.81702 581.000
78.83697 584.000
78.85691 572.000
78.87686 582.000
78.89681 607.000
78.91675 573.000
78.93670 555.000
78.95665 584.000
78.97659 600.000
78.99654 581.000
79.01649 605.000
79.03643 548.000
79.05638 551.000
79.07633 588.000
79.09628 584.000
79.11622 588.000
79.13617 599.000
79.15612 584.000
79.17606 584.000
79.19601 589.000
79.21596 585.000
79.23590 552.000
79.25585 601.000
79.27580 585.000
79.29575 569.000
79.31569 585.000
79.33564 543.000
79.35559 559.000
79.37553 574.000
79.39548 539.000
79.41543 537.000
79.43537 535.000
79.45532 579.000
79.47527 538.000
79.49521 537.000
79.51516 513.000
79.53511 531.000
79.55506 486.000
79.57500 510.000
79.59495 516.000
79.61490 498.000
79.63484 528.000
79.65479 542.000
79.67474 487.000
79.69468 508.000
79.71463 589.000
79.73458 548.000
79.75453 557.000
79.77447 544.000
79.79442 542.000
79.81437 512.000
79.83431 543.000
79.85426 511.000
79.87421 504.000
79.89415 565.000
79.91410 596.000
79.93405 553.000
79.95399 577.000
79.97394 556.000
79.99389 497.000
80.01384 526.000
80.03378 549.000
80.05373 563.000
80.07368 547.000
80.09362 565.000
80.11357 539.000
80.13352 544.000
80.15346 613.000
80.17341 545.000
80.19336 565.000
80.21331 555.000
80.23325 608.000
80.25320 596.000
80.27315 572.000
80.29309 572.000
80.31304 561.000
80.33299 560.000
80.35293 611.000
80.37288 580.000
80.39283 590.000
80.41278 585.000
80.43272 554.000
80.45267 527.000
80.47262 550.000
80.49256 532.000
80.51251 540.000
80.53246 567.000
80.55240 521.000
80.57235 533.000
80.59230 555.000
80.61224 526.000
80.63219 571.000
80.65214 518.000
80.67209 525.000
80.69203 570.000
80.71198 544.000
80.73193 511.000
80.75187 528.000
80.77182 545.000
80.79177 536.000
80.81171 535.000
80.83166 535.000
80.85161 490.000
80.87156 598.000
80.89150 543.000
80.91145 525.000
80.93140 466.000
80.95134 527.000
80.97129 501.000
80.99124 532.000
81.01118 514.000
81.03113 512.000
81.05108 511.000
81.07102 546.000
81.09097 496.000
81.11092 547.000
81.13087 552.000
81.15081 531.000
81.17076 496.000
81.19071 558.000
81.21065 504.000
81.23060 524.000
81.25055 517.000
81.27049 499.000
81.29044 494.000
81.31039 550.000
81.33034 523.000
81.35028 524.000
81.37023 537.000
81.39018 499.000
81.41012 511.000
81.43007 520.000
81.45002 530.000
81.46996 544.000
81.48991 515.000
81.50986 532.000
81.52980 513.000
81.54975 499.000
81.56970 513.000
81.58965 506.000
81.60959 488.000
81.62954 515.000
81.64949 520.000
81.66943 534.000
81.68938 495.000
81.70933 565.000
81.72927 512.000
81.74922 550.000
81.76917 519.000
81.78912 543.000
81.80906 562.000
81.82901 497.000
81.84896 533.000
81.86890 514.000
81.88885 540.000
81.90880 563.000
81.92874 572.000
81.94869 558.000
81.96864 513.000
81.98859 518.000
82.00853 519.000
82.02848 572.000
82.04843 531.000
82.06837 513.000
82.08832 561.000
82.10827 550.000
82.12821 563.000
82.14816 555.000
82.16811 546.000
82.18805 558.000
82.20800 497.000
82.22795 541.000
82.24790 589.000
82.26784 565.000
82.28779 601.000
82.30774 551.000
82.32768 536.000
82.34763 559.000
82.36758 569.000
82.38752 628.000
82.40747 621.000
82.42742 637.000
82.44737 648.000
82.46731 625.000
82.48726 686.000
82.50721 681.000
82.52715 685.000
82.54710 660.000
82.56705 661.000
82.58699 689.000
82.60694 664.000
82.62689 659.000
82.64683 667.000
82.66678 646.000
82.68673 648.000
82.70668 666.000
82.72662 661.000
82.74657 666.000
82.76652 685.000
82.78646 645.000
82.80641 613.000
82.82636 680.000
82.84630 626.000
82.86625 602.000
82.88620 616.000
82.90615 652.000
82.92609 631.000
82.94604 630.000
82.96599 618.000
82.98593 598.000
83.00588 603.000
83.02583 610.000
83.04577 595.000
83.06572 585.000
83.08567 598.000
83.10561 592.000
83.12556 599.000
83.14551 627.000
83.16546 588.000
83.18540 591.000
83.20535 574.000
83.22530 609.000
83.24524 596.000
83.26519 528.000
83.28514 583.000
83.30508 599.000
83.32503 583.000
83.34498 623.000
83.36493 564.000
83.38487 620.000
83.40482 627.000
83.42477 541.000
83.44471 574.000
83.46466 600.000
83.48461 626.000
83.50455 595.000
83.52450 590.000
83.54445 607.000
83.56440 564.000
83.58434 607.000
83.60429 616.000
83.62424 626.000
83.64418 610.000
83.66413 615.000
83.68408 623.000
83.70402 596.000
83.72397 595.000
83.74392 627.000
83.76386 631.000
83.78381 599.000
83.80376 618.000
83.82371 601.000
83.84365 601.000
83.86360 621.000
83.88355 592.000
83.90349 540.000
83.92344 620.000
83.94339 564.000
83.96333 577.000
83.98328 611.000
84.00323 584.000
84.02318 588.000
84.04312 573.000
84.06307 561.000
84.08302 554.000
84.10296 556.000
84.12291 571.000
84.14286 550.000
84.16280 523.000
84.18275 559.000
84.20270 491.000
84.22264 531.000
84.24259 532.000
84.26254 560.000
84.28249 573.000
84.30243 555.000
84.32238 544.000
84.34233 500.000
84.36227 531.000
84.38222 498.000
84.40217 572.000
84.42211 557.000
84.44206 541.000
84.46201 580.000
84.48196 517.000
84.50190 513.000
84.52185 549.000
84.54180 533.000
84.56174 533.000
84.58169 568.000
84.60164 544.000
84.62158 529.000
84.64153 546.000
84.66148 581.000
84.68142 542.000
84.70137 585.000
84.72132 555.000
84.74127 563.000
84.76121 557.000
84.78116 526.000
84.80111 586.000
84.82105 542.000
84.84100 571.000
84.86095 610.000
84.88089 573.000
84.90084 584.000
84.92079 559.000
84.94074 599.000
84.96068 559.000
84.98063 560.000
85.00058 594.000
85.02052 577.000
85.04047 580.000
85.06042 554.000
85.08036 591.000
85.10031 536.000
85.12026 598.000
85.14021 573.000
85.16015 555.000
85.18010 533.000
85.20005 561.000
85.21999 480.000
85.23994 552.000
85.25989 578.000
85.27983 523.000
85.29978 565.000
85.31973 519.000
85.33967 538.000
85.35962 539.000
85.37957 534.000
85.39952 545.000
85.41946 524.000
85.43941 514.000
85.45936 518.000
85.47930 521.000
85.49925 542.000
85.51920 519.000
85.53914 510.000
85.55909 548.000
85.57904 517.000
85.59899 481.000
85.61893 529.000
85.63888 523.000
85.65883 532.000
85.67877 540.000
85.69872 522.000
85.71867 545.000
85.73861 512.000
85.75856 575.000
85.77851 515.000
85.79845 512.000
85.81840 494.000
85.83835 527.000
85.85830 525.000
85.87824 487.000
85.89819 498.000
85.91814 531.000
85.93808 543.000
85.95803 566.000
85.97798 540.000
85.99792 489.000
86.01787 496.000
86.03782 503.000
86.05777 535.000
86.07771 517.000
86.09766 524.000
86.11761 569.000
86.13755 555.000
86.15750 527.000
86.17745 531.000
86.19739 491.000
86.21734 551.000
86.23729 496.000
86.25723 526.000
86.27718 528.000
86.29713 545.000
86.31708 520.000
86.33702 536.000
86.35697 532.000
86.37692 503.000
86.39686 528.000
86.41681 523.000
86.43676 538.000
86.45670 552.000
86.47665 520.000
86.49660 531.000
86.51655 524.000
86.53649 534.000
86.55644 553.000
86.57639 518.000
86.59633 564.000
86.61628 557.000
86.63623 555.000
86.65617 569.000
86.67612 576.000
86.69607 554.000
86.71602 603.000
86.73596 573.000
86.75591 587.000
86.77586 536.000
86.79580 576.000
86.81575 554.000
86.83570 535.000
86.85564 578.000
86.87559 566.000
86.89554 584.000
86.91548 536.000
86.93543 574.000
86.95538 584.000
86.97533 546.000
86.99527 559.000
87.01522 595.000
87.03517 560.000
87.05511 577.000
87.07506 586.000
87.09501 589.000
87.11495 566.000
87.13490 531.000
87.15485 596.000
87.17480 553.000
87.19474 552.000
87.21469 566.000
87.23464 549.000
87.25458 607.000
87.27453 548.000
87.29448 610.000
87.31442 573.000
87.33437 531.000
87.35432 545.000
87.37426 574.000
87.39421 587.000
87.41416 541.000
87.43411 576.000
87.45405 544.000
87.47400 532.000
87.49395 553.000
87.51389 525.000
87.53384 506.000
87.55379 557.000
87.57373 546.000
87.59368 523.000
87.61363 534.000
87.63358 494.000
87.65352 522.000
87.67347 552.000
87.69342 554.000
87.71336 520.000
87.73331 585.000
87.75326 507.000
87.77320 560.000
87.79315 517.000
87.81310 553.000
87.83304 552.000
87.85299 571.000
87.87294 539.000
87.89289 536.000
87.91283 579.000
87.93278 540.000
87.95273 542.000
87.97267 465.000
87.99262 502.000
88.01257 555.000
88.03251 503.000
88.05246 548.000
88.07241 561.000
88.09236 568.000
88.11230 497.000
88.13225 525.000
88.15220 513.000
88.17214 525.000
88.19209 495.000
88.21204 527.000
88.23198 537.000
88.25193 509.000
88.27188 559.000
88.29183 581.000
88.31177 544.000
88.33172 567.000
88.35167 542.000
88.37161 542.000
88.39156 538.000
88.41151 555.000
88.43145 507.000
88.45140 547.000
88.47135 521.000
88.49129 531.000
88.51124 533.000
88.53119 481.000
88.55114 530.000
88.57108 537.000
88.59103 522.000
88.61098 530.000
88.63092 516.000
88.65087 523.000
88.67082 572.000
88.69076 490.000
88.71071 514.000
88.73066 531.000
88.75061 545.000
88.77055 544.000
88.79050 573.000
88.81045 517.000
88.83039 549.000
88.85034 534.000
88.87029 527.000
88.89023 530.000
88.91018 507.000
88.93013 523.000
88.95007 563.000
88.97002 518.000
88.98997 542.000
89.00992 530.000
89.02986 543.000
89.04981 534.000
89.06976 524.000
89.08970 599.000
89.10965 591.000
89.12960 546.000
89.14954 547.000
89.16949 616.000
89.18944 599.000
89.20939 624.000
89.22933 608.000
89.24928 600.000
89.26923 522.000
89.28917 587.000
89.30912 600.000
89.32907 598.000
89.34901 602.000
89.36896 641.000
89.38891 642.000
89.40885 626.000
89.42880 594.000
89.44875 605.000
89.46870 628.000
89.48864 591.000
89.50859 582.000
89.52854 619.000
89.54848 596.000
89.56843 630.000
89.58838 615.000
89.60832 590.000
89.62827 582.000
89.64822 564.000
89.66817 579.000
89.68811 585.000
89.70806 639.000
89.72801 601.000
89.74795 650.000
89.76790 592.000
89.78785 620.000
89.80779 583.000
89.82774 577.000
89.84769 628.000
89.86764 615.000
89.88758 594.000
89.90753 546.000
89.92748 551.000
89.94742 573.000
89.96737 587.000
89.98732 556.000
90.00726 504.000
