10.00000 58.000
10.01995 58.000
10.03989 57.000
10.05984 50.000
10.07979 65.000
10.09973 49.000
10.11968 60.000
10.13963 74.000
10.15958 58.000
10.17952 56.000
10.19947 71.000
10.21942 53.000
10.23936 65.000
10.25931 49.000
10.27926 64.000
10.29920 48.000
10.31915 50.000
10.33910 49.000
10.35905 60.000
10.37899 44.000
10.39894 57.000
10.41889 65.000
10.43883 42.000
10.45878 60.000
10.47873 66.000
10.49867 56.000
10.51862 64.000
10.53857 49.000
10.55851 58.000
10.57846 50.000
10.59841 47.000
10.61836 61.000
10.63830 53.000
10.65825 56.000
10.67820 58.000
10.69814 63.000
10.71809 54.000
10.73804 55.000
10.75798 61.000
10.77793 51.000
10.79788 49.000
10.81783 70.000
10.83777 71.000
10.85772 63.000
10.87767 62.000
10.89761 53.000
10.91756 57.000
10.93751 64.000
10.95745 53.000
10.97740 42.000
10.99735 52.000
11.01730 76.000
11.03724 52.000
11.05719 60.000
11.07714 49.000
11.09708 58.000
11.11703 65.000
11.13698 49.000
11.15692 53.000
11.17687 46.000
11.19682 49.000
11.21676 61.000
11.23671 46.000
11.25666 48.000
11.27661 62.000
11.29655 53.000
11.31650 71.000
11.33645 47.000
11.35639 71.000
11.37634 53.000
11.39629 64.000
11.41623 57.000
11.43618 47.000
11.45613 51.000
11.47608 32.000
11.49602 51.000
11.51597 48.000
11.53592 58.000
11.55586 47.000
11.57581 60.000
11.59576 49.000
11.61570 72.000
11.63565 62.000
11.65560 67.000
11.67554 48.000
11.69549 63.000
11.71544 50.000
11.73539 43.000
11.75533 55.000
11.77528 60.000
11.79523 56.000
11.81517 44.000
11.83512 49.000
11.85507 53.000
11.87501 62.000
11.89496 64.000
11.91491 54.000
11.93486 52.000
11.95480 48.000
11.97475 54.000
11.99470 62.000
12.01464 42.000
12.03459 72.000
12.05454 64.000
12.07448 53.000
12.09443 41.000
12.11438 49.000
12.13432 57.000
12.15427 57.000
12.17422 61.000
12.19417 57.000
12.21411 41.000
12.23406 36.000
12.25401 41.000
12.27395 60.000
12.29390 47.000
12.31385 56.000
12.33379 51.000
12.35374 51.000
12.37369 68.000
12.39364 63.000
12.41358 45.000
12.43353 52.000
12.45348 60.000
12.47342 56.000
12.49337 67.000
12.51332 62.000
12.53326 61.000
12.55321 74.000
12.57316 60.000
12.59311 54.000
12.61305 59.000
12.63300 52.000
12.65295 57.000
12.67289 64.000
12.69284 55.000
12.71279 47.000
12.73273 58.000
12.75268 64.000
12.77263 65.000
12.79257 56.000
12.81252 63.000
12.83247 44.000
12.85242 48.000
12.87236 62.000
12.89231 58.000
12.91226 58.000
12.93220 62.000
12.95215 56.000
12.97210 57.000
12.99204 46.000
13.01199 47.000
13.03194 43.000
13.05189 49.000
13.07183 64.000
13.09178 51.000
13.11173 42.000
13.13167 49.000
13.15162 51.000
13.17157 52.000
13.19151 56.000
13.21146 51.000
13.23141 46.000
13.25135 49.000
13.27130 55.000
13.29125 48.000
13.31120 51.000
13.33114 56.000
13.35109 50.000
13.37104 57.000
13.39098 56.000
13.41093 57.000
13.43088 49.000
13.45082 68.000
13.47077 43.000
13.49072 69.000
13.51067 46.000
13.53061 63.000
13.55056 50.000
13.57051 49.000
13.59045 48.000
13.61040 59.000
13.63035 47.000
13.65029 42.000
13.67024 45.000
13.69019 51.000
13.71013 53.000
13.73008 69.000
13.75003 47.000
13.76998 49.000
13.78992 53.000
13.80987 59.000
13.82982 63.000
13.84976 57.000
13.86971 57.000
13.88966 56.000
13.90960 72.000
13.92955 53.000
13.94950 51.000
13.96945 57.000
13.98939 56.000
14.00934 52.000
14.02929 68.000
14.04923 57.000
14.06918 48.000
14.08913 47.000
14.10907 47.000
14.12902 60.000
14.14897 56.000
14.16892 60.000
14.18886 59.000
14.20881 55.000
14.22876 52.000
14.24870 59.000
14.26865 64.000
14.28860 52.000
14.30854 55.000
14.32849 62.000
14.34844 48.000
14.36838 58.000
14.38833 53.000
14.40828 53.000
14.42823 54.000
14.44817 52.000
14.46812 60.000
14.48807 55.000
14.50801 65.000
14.52796 65.000
14.54791 61.000
14.56785 54.000
14.58780 57.000
14.60775 66.000
14.62770 68.000
14.64764 73.000
14.66759 56.000
14.68754 48.000
14.70748 62.000
14.72743 67.000
14.74738 62.000
14.76732 49.000
14.78727 59.000
14.80722 69.000
14.82716 54.000
14.84711 68.000
14.86706 65.000
14.88701 47.000
14.90695 59.000
14.92690 56.000
14.94685 50.000
14.96679 58.000
14.98674 57.000
15.00669 56.000
15.02663 68.000
15.04658 56.000
15.06653 62.000
15.08648 60.000
15.10642 60.000
15.12637 56.000
15.14632 66.000
15.16626 80.000
15.18621 80.000
15.20616 68.000
15.22610 68.000
15.24605 75.000
15.26600 77.000
15.28594 79.000
15.30589 73.000
15.32584 77.000
15.34579 79.000
15.36573 81.000
15.38568 80.000
15.40563 83.000
15.42557 90.000
15.44552 89.000
15.46547 77.000
15.48541 109.000
15.50536 111.000
15.52531 104.000
15.54526 112.000
15.56520 120.000
15.58515 189.000
15.60510 176.000
15.62504 233.000
15.64499 307.000
15.66494 365.000
15.68488 390.000
15.70483 449.000
15.72478 419.000
15.74472 341.000
15.76467 295.000
15.78462 271.000
15.80457 239.000
15.82451 301.000
15.84446 331.000
15.86441 381.000
15.88435 443.000
15.90430 550.000
15.92425 622.000
15.94419 721.000
15.96414 827.000
15.98409 868.000
16.00404 886.000
16.02398 923.000
16.04393 867.000
16.06388 861.000
16.08382 769.000
16.10377 703.000
16.12372 592.000
16.14366 496.000
16.16361 379.000
16.18356 312.000
16.20351 255.000
16.22345 204.000
16.24340 168.000
16.26335 160.000
16.28329 138.000
16.30324 104.000
16.32319 128.000
16.34313 95.000
16.36308 91.000
16.38303 105.000
16.40297 100.000
16.42292 99.000
16.44287 107.000
16.46282 94.000
16.48276 71.000
16.50271 78.000
16.52266 83.000
16.54260 91.000
16.56255 87.000
16.58250 91.000
16.60244 97.000
16.62239 76.000
16.64234 67.000
16.66229 69.000
16.68223 82.000
16.70218 70.000
16.72213 66.000
16.74207 62.000
16.76202 79.000
16.78197 68.000
16.80191 71.000
16.82186 66.000
16.84181 64.000
16.86175 71.000
16.88170 63.000
16.90165 77.000
16.92160 55.000
16.94154 63.000
16.96149 76.000
16.98144 60.000
17.00138 85.000
17.02133 70.000
17.04128 61.000
17.06122 68.000
17.08117 65.000
17.10112 69.000
17.12107 66.000
17.14101 75.000
17.16096 66.000
17.18091 55.000
17.20085 62.000
17.22080 61.000
17.24075 67.000
17.26069 69.000
17.28064 64.000
17.30059 63.000
17.32053 66.000
17.34048 63.000
17.36043 66.000
17.38038 63.000
17.40032 67.000
17.42027 78.000
17.44022 42.000
17.46016 74.000
17.48011 59.000
17.50006 62.000
17.52000 75.000
17.53995 50.000
17.55990 66.000
17.57985 54.000
17.59979 55.000
17.61974 59.000
17.63969 53.000
17.65963 78.000
17.67958 62.000
17.69953 55.000
17.71947 57.000
17.73942 59.000
17.75937 52.000
17.77932 38.000
17.79926 57.000
17.81921 46.000
17.83916 57.000
17.85910 55.000
17.87905 59.000
17.89900 58.000
17.91894 56.000
17.93889 53.000
17.95884 50.000
17.97878 71.000
17.99873 61.000
18.01868 60.000
18.03863 65.000
18.05857 58.000
18.07852 45.000
18.09847 60.000
18.11841 57.000
18.13836 83.000
18.15831 68.000
18.17825 108.000
18.19820 102.000
18.21815 108.000
18.23810 139.000
18.25804 177.000
18.27799 243.000
18.29794 250.000
18.31788 331.000
18.33783 376.000
18.35778 326.000
18.37772 299.000
18.39767 257.000
18.41762 161.000
18.43756 131.000
18.45751 108.000
18.47746 84.000
18.49741 67.000
18.51735 66.000
18.53730 65.000
18.55725 61.000
18.57719 54.000
18.59714 58.000
18.61709 54.000
18.63703 74.000
18.65698 45.000
18.67693 44.000
18.69688 42.000
18.71682 44.000
18.73677 52.000
18.75672 42.000
18.77666 44.000
18.79661 46.000
18.81656 41.000
18.83650 42.000
18.85645 49.000
18.87640 56.000
18.89634 56.000
18.91629 51.000
18.93624 46.000
18.95619 55.000
18.97613 50.000
18.99608 46.000
19.01603 57.000
19.03597 38.000
19.05592 58.000
19.07587 39.000
19.09581 58.000
19.11576 41.000
19.13571 45.000
19.15566 39.000
19.17560 56.000
19.19555 46.000
19.21550 44.000
19.23544 50.000
19.25539 45.000
19.27534 55.000
19.29528 47.000
19.31523 50.000
19.33518 44.000
19.35513 44.000
19.37507 56.000
19.39502 60.000
19.41497 43.000
19.43491 45.000
19.45486 53.000
19.47481 35.000
19.49475 48.000
19.51470 57.000
19.53465 46.000
19.55459 61.000
19.57454 58.000
19.59449 50.000
19.61444 49.000
19.63438 59.000
19.65433 47.000
19.67428 44.000
19.69422 48.000
19.71417 52.000
19.73412 44.000
19.75406 47.000
19.77401 36.000
19.79396 52.000
19.81391 45.000
19.83385 50.000
19.85380 46.000
19.87375 45.000
19.89369 49.000
19.91364 56.000
19.93359 49.000
19.95353 40.000
19.97348 59.000
19.99343 43.000
20.01337 53.000
20.03332 50.000
20.05327 45.000
20.07322 47.000
20.09316 54.000
20.11311 38.000
20.13306 50.000
20.15300 42.000
20.17295 44.000
20.19290 43.000
20.21284 48.000
20.23279 39.000
20.25274 37.000
20.27269 48.000
20.29263 46.000
20.31258 51.000
20.33253 51.000
20.35247 48.000
20.37242 47.000
20.39237 42.000
20.41231 66.000
20.43226 58.000
20.45221 62.000
20.47215 48.000
20.49210 42.000
20.51205 43.000
20.53200 43.000
20.55194 62.000
20.57189 52.000
20.59184 66.000
20.61178 71.000
20.63173 87.000
20.65168 91.000
20.67162 83.000
20.69157 95.000
20.71152 93.000
20.73147 106.000
20.75141 108.000
20.77136 105.000
20.79131 108.000
20.81125 121.000
20.83120 112.000
20.85115 112.000
20.87109 116.000
20.89104 97.000
20.91099 107.000
20.93094 91.000
20.95088 76.000
20.97083 80.000
20.99078 59.000
21.01072 62.000
21.03067 43.000
21.05062 51.000
21.07056 77.000
21.09051 51.000
21.11046 62.000
21.13040 53.000
21.15035 56.000
21.17030 54.000
21.19025 56.000
21.21019 53.000
21.23014 37.000
21.25009 39.000
21.27003 54.000
21.28998 51.000
21.30993 56.000
21.32987 46.000
21.34982 56.000
21.36977 51.000
21.38972 47.000
21.40966 36.000
21.42961 48.000
21.44956 46.000
21.46950 48.000
21.48945 48.000
21.50940 40.000
21.52934 51.000
21.54929 43.000
21.56924 50.000
21.58918 45.000
21.60913 43.000
21.62908 52.000
21.64903 42.000
21.66897 50.000
21.68892 45.000
21.70887 42.000
21.72881 41.000
21.74876 34.000
21.76871 55.000
21.78865 59.000
21.80860 40.000
21.82855 33.000
21.84850 47.000
21.86844 53.000
21.88839 50.000
21.90834 35.000
21.92828 57.000
21.94823 48.000
21.96818 51.000
21.98812 46.000
22.00807 37.000
22.02802 54.000
22.04796 47.000
22.06791 53.000
22.08786 53.000
22.10781 47.000
22.12775 45.000
22.14770 51.000
22.16765 47.000
22.18759 47.000
22.20754 48.000
22.22749 48.000
22.24743 42.000
22.26738 38.000
22.28733 53.000
22.30728 45.000
22.32722 50.000
22.34717 48.000
22.36712 54.000
22.38706 43.000
22.40701 57.000
22.42696 43.000
22.44690 41.000
22.46685 43.000
22.48680 52.000
22.50675 50.000
22.52669 49.000
22.54664 50.000
22.56659 44.000
22.58653 47.000
22.60648 45.000
22.62643 54.000
22.64637 44.000
22.66632 69.000
22.68627 54.000
22.70621 46.000
22.72616 29.000
22.74611 46.000
22.76606 37.000
22.78600 38.000
22.80595 55.000
22.82590 51.000
22.84584 45.000
22.86579 43.000
22.88574 44.000
22.90568 54.000
22.92563 42.000
22.94558 47.000
22.96553 44.000
22.98547 45.000
23.00542 47.000
23.02537 53.000
23.04531 45.000
23.06526 62.000
23.08521 51.000
23.10515 46.000
23.12510 42.000
23.14505 31.000
23.16499 44.000
23.18494 58.000
23.20489 44.000
23.22484 35.000
23.24478 54.000
23.26473 44.000
23.28468 48.000
23.30462 37.000
23.32457 60.000
23.34452 55.000
23.36446 41.000
23.38441 47.000
23.40436 52.000
23.42431 57.000
23.44425 54.000
23.46420 61.000
23.48415 41.000
23.50409 38.000
23.52404 53.000
23.54399 51.000
23.56393 47.000
23.58388 35.000
23.60383 53.000
23.62377 52.000
23.64372 45.000
23.66367 48.000
23.68362 45.000
23.70356 58.000
23.72351 54.000
23.74346 43.000
23.76340 46.000
23.78335 41.000
23.80330 36.000
23.82324 49.000
23.84319 54.000
23.86314 47.000
23.88309 58.000
23.90303 40.000
23.92298 59.000
23.94293 43.000
23.96287 40.000
23.98282 59.000
24.00277 50.000
24.02271 51.000
24.04266 37.000
24.06261 52.000
24.08256 35.000
24.10250 45.000
24.12245 53.000
24.14240 51.000
24.16234 42.000
24.18229 42.000
24.20224 37.000
24.22218 39.000
24.24213 50.000
24.26208 51.000
24.28202 39.000
24.30197 52.000
24.32192 47.000
24.34187 54.000
24.36181 48.000
24.38176 42.000
24.40171 41.000
24.42165 46.000
24.44160 42.000
24.46155 47.000
24.48149 48.000
24.50144 44.000
24.52139 40.000
24.54134 38.000
24.56128 46.000
24.58123 36.000
24.60118 42.000
24.62112 54.000
24.64107 50.000
24.66102 45.000
24.68096 46.000
24.70091 55.000
24.72086 43.000
24.74080 60.000
24.76075 43.000
24.78070 68.000
24.80065 42.000
24.82059 45.000
24.84054 43.000
24.86049 36.000
24.88043 59.000
24.90038 51.000
24.92033 45.000
24.94027 38.000
24.96022 47.000
24.98017 49.000
25.00012 55.000
25.02006 47.000
25.04001 39.000
25.05996 42.000
25.07990 46.000
25.09985 51.000
25.11980 37.000
25.13974 56.000
25.15969 41.000
25.17964 52.000
25.19958 37.000
25.21953 48.000
25.23948 59.000
25.25943 53.000
25.27937 38.000
25.29932 45.000
25.31927 41.000
25.33921 50.000
25.35916 49.000
25.37911 53.000
25.39905 49.000
25.41900 36.000
25.43895 42.000
25.45890 56.000
25.47884 53.000
25.49879 51.000
25.51874 43.000
25.53868 48.000
25.55863 61.000
25.57858 45.000
25.59852 48.000
25.61847 58.000
25.63842 53.000
25.65837 46.000
25.67831 48.000
25.69826 50.000
25.71821 42.000
25.73815 40.000
25.75810 54.000
25.77805 58.000
25.79799 49.000
25.81794 63.000
25.83789 47.000
25.85783 54.000
25.87778 55.000
25.89773 35.000
25.91768 43.000
25.93762 64.000
25.95757 66.000
25.97752 56.000
25.99746 48.000
26.01741 60.000
26.03736 58.000
26.05730 45.000
26.07725 37.000
26.09720 43.000
26.11715 44.000
26.13709 62.000
26.15704 47.000
26.17699 42.000
26.19693 44.000
26.21688 56.000
26.23683 54.000
26.25677 59.000
26.27672 76.000
26.29667 71.000
26.31661 52.000
26.33656 51.000
26.35651 51.000
26.37646 45.000
26.39640 55.000
26.41635 57.000
26.43630 51.000
26.45624 50.000
26.47619 57.000
26.49614 44.000
26.51608 48.000
26.53603 42.000
26.55598 38.000
26.57593 48.000
26.59587 59.000
26.61582 49.000
26.63577 44.000
26.65571 58.000
26.67566 44.000
26.69561 46.000
26.71555 44.000
26.73550 44.000
26.75545 45.000
26.77539 64.000
26.79534 47.000
26.81529 50.000
26.83524 49.000
26.85518 42.000
26.87513 59.000
26.89508 58.000
26.91502 70.000
26.93497 50.000
26.95492 48.000
26.97486 62.000
26.99481 51.000
27.01476 66.000
27.03471 53.000
27.05465 42.000
27.07460 53.000
27.09455 53.000
27.11449 59.000
27.13444 55.000
27.15439 57.000
27.17433 54.000
27.19428 59.000
27.21423 44.000
27.23417 59.000
27.25412 53.000
27.27407 64.000
27.29402 66.000
27.31396 49.000
27.33391 61.000
27.35386 49.000
27.37380 60.000
27.39375 53.000
27.41370 40.000
27.43364 55.000
27.45359 44.000
27.47354 55.000
27.49349 55.000
27.51343 50.000
27.53338 48.000
27.55333 57.000
27.57327 63.000
27.59322 55.000
27.61317 53.000
27.63311 51.000
27.65306 63.000
27.67301 71.000
27.69296 44.000
27.71290 60.000
27.73285 50.000
27.75280 59.000
27.77274 50.000
27.79269 58.000
27.81264 58.000
27.83258 37.000
27.85253 61.000
27.87248 54.000
27.89242 55.000
27.91237 49.000
27.93232 57.000
27.95227 59.000
27.97221 61.000
27.99216 57.000
28.01211 59.000
28.03205 48.000
28.05200 67.000
28.07195 48.000
28.09189 49.000
28.11184 65.000
28.13179 58.000
28.15174 50.000
28.17168 46.000
28.19163 53.000
28.21158 61.000
28.23152 58.000
28.25147 65.000
28.27142 67.000
28.29136 61.000
28.31131 50.000
28.33126 59.000
28.35120 57.000
28.37115 58.000
28.39110 50.000
28.41105 78.000
28.43099 63.000
28.45094 58.000
28.47089 63.000
28.49083 58.000
28.51078 45.000
28.53073 52.000
28.55067 57.000
28.57062 53.000
28.59057 57.000
28.61052 49.000
28.63046 66.000
28.65041 57.000
28.67036 61.000
28.69030 66.000
28.71025 63.000
28.73020 62.000
28.75014 39.000
28.77009 55.000
28.79004 65.000
28.80998 67.000
28.82993 50.000
28.84988 64.000
28.86983 59.000
28.88977 63.000
28.90972 57.000
28.92967 55.000
28.94961 64.000
28.96956 67.000
28.98951 63.000
29.00945 62.000
29.02940 56.000
29.04935 65.000
29.06930 59.000
29.08924 47.000
29.10919 63.000
29.12914 66.000
29.14908 57.000
29.16903 58.000
29.18898 60.000
29.20892 53.000
29.22887 63.000
29.24882 48.000
29.26877 56.000
29.28871 71.000
29.30866 69.000
29.32861 60.000
29.34855 67.000
29.36850 61.000
29.38845 59.000
29.40839 56.000
29.42834 63.000
29.44829 78.000
29.46823 79.000
29.48818 65.000
29.50813 53.000
29.52808 60.000
29.54802 78.000
29.56797 60.000
29.58792 65.000
29.60786 66.000
29.62781 55.000
29.64776 59.000
29.66770 68.000
29.68765 73.000
29.70760 78.000
29.72755 77.000
29.74749 70.000
29.76744 59.000
29.78739 62.000
29.80733 77.000
29.82728 78.000
29.84723 67.000
29.86717 89.000
29.88712 82.000
29.90707 85.000
29.92701 93.000
29.94696 105.000
29.96691 118.000
29.98686 135.000
30.00680 170.000
30.02675 202.000
30.04670 249.000
30.06664 293.000
30.08659 377.000
30.10654 430.000
30.12648 534.000
30.14643 595.000
30.16638 618.000
30.18633 711.000
30.20627 662.000
30.22622 612.000
30.24617 556.000
30.26611 525.000
30.28606 417.000
30.30601 337.000
30.32595 273.000
30.34590 217.000
30.36585 161.000
30.38579 109.000
30.40574 130.000
30.42569 105.000
30.44564 90.000
30.46558 77.000
30.48553 96.000
30.50548 95.000
30.52542 73.000
30.54537 84.000
30.56532 74.000
30.58526 81.000
30.60521 70.000
30.62516 75.000
30.64511 71.000
30.66505 65.000
30.68500 63.000
30.70495 65.000
30.72489 70.000
30.74484 77.000
30.76479 61.000
30.78473 72.000
30.80468 76.000
30.82463 63.000
30.84458 66.000
30.86452 68.000
30.88447 73.000
30.90442 70.000
30.92436 59.000
30.94431 76.000
30.96426 82.000
30.98420 59.000
31.00415 72.000
31.02410 67.000
31.04404 77.000
31.06399 67.000
31.08394 76.000
31.10389 64.000
31.12383 73.000
31.14378 52.000
31.16373 54.000
31.18367 78.000
31.20362 85.000
31.22357 47.000
31.24351 74.000
31.26346 72.000
31.28341 52.000
31.30336 79.000
31.32330 79.000
31.34325 56.000
31.36320 61.000
31.38314 62.000
31.40309 62.000
31.42304 71.000
31.44298 69.000
31.46293 69.000
31.48288 71.000
31.50282 62.000
31.52277 75.000
31.54272 64.000
31.56267 68.000
31.58261 78.000
31.60256 78.000
31.62251 84.000
31.64245 86.000
31.66240 80.000
31.68235 70.000
31.70229 84.000
31.72224 97.000
31.74219 73.000
31.76214 84.000
31.78208 86.000
31.80203 80.000
31.82198 89.000
31.84192 67.000
31.86187 71.000
31.88182 72.000
31.90176 71.000
31.92171 83.000
31.94166 62.000
31.96160 95.000
31.98155 71.000
32.00150 76.000
32.02145 65.000
32.04139 71.000
32.06134 71.000
32.08129 88.000
32.10123 76.000
32.12118 87.000
32.14113 78.000
32.16107 82.000
32.18102 86.000
32.20097 86.000
32.22092 92.000
32.24086 91.000
32.26081 101.000
32.28076 103.000
32.30070 114.000
32.32065 102.000
32.34060 138.000
32.36054 127.000
32.38049 117.000
32.40044 120.000
32.42039 106.000
32.44033 118.000
32.46028 136.000
32.48023 109.000
32.50017 111.000
32.52012 119.000
32.54007 111.000
32.56001 111.000
32.57996 115.000
32.59991 103.000
32.61985 92.000
32.63980 76.000
32.65975 93.000
32.67970 72.000
32.69964 89.000
32.71959 69.000
32.73954 75.000
32.75948 55.000
32.77943 66.000
32.79938 63.000
32.81932 73.000
32.83927 77.000
32.85922 67.000
32.87917 58.000
32.89911 82.000
32.91906 56.000
32.93901 54.000
32.95895 70.000
32.97890 55.000
32.99885 52.000
33.01879 59.000
33.03874 57.000
33.05869 51.000
33.07863 55.000
33.09858 53.000
33.11853 57.000
33.13848 50.000
33.15842 57.000
33.17837 57.000
33.19832 52.000
33.21826 64.000
33.23821 72.000
33.25816 60.000
33.27810 56.000
33.29805 65.000
33.31800 48.000
33.33795 60.000
33.35789 54.000
33.37784 66.000
33.39779 64.000
33.41773 54.000
33.43768 51.000
33.45763 69.000
33.47757 62.000
33.49752 62.000
33.51747 63.000
33.53741 64.000
33.55736 48.000
33.57731 57.000
33.59726 68.000
33.61720 55.000
33.63715 62.000
33.65710 51.000
33.67704 70.000
33.69699 63.000
33.71694 38.000
33.73688 65.000
33.75683 52.000
33.77678 62.000
33.79673 49.000
33.81667 82.000
33.83662 80.000
33.85657 71.000
33.87651 69.000
33.89646 59.000
33.91641 81.000
33.93635 92.000
33.95630 83.000
33.97625 81.000
33.99620 77.000
34.01614 97.000
34.03609 83.000
34.05604 82.000
34.07598 104.000
34.09593 100.000
34.11588 100.000
34.13582 89.000
34.15577 109.000
34.17572 94.000
34.19566 104.000
34.21561 104.000
34.23556 96.000
34.25551 109.000
34.27545 116.000
34.29540 94.000
34.31535 100.000
34.33529 125.000
34.35524 123.000
34.37519 93.000
34.39513 113.000
34.41508 113.000
34.43503 95.000
34.45498 105.000
34.47492 102.000
34.49487 99.000
34.51482 95.000
34.53476 77.000
34.55471 97.000
34.57466 89.000
34.59460 79.000
34.61455 95.000
34.63450 88.000
34.65444 73.000
34.67439 66.000
34.69434 77.000
34.71429 73.000
34.73423 77.000
34.75418 82.000
34.77413 75.000
34.79407 85.000
34.81402 80.000
34.83397 69.000
34.85391 97.000
34.87386 74.000
34.89381 88.000
34.91376 72.000
34.93370 87.000
34.95365 95.000
34.97360 87.000
34.99354 96.000
35.01349 77.000
35.03344 85.000
35.05338 87.000
35.07333 103.000
35.09328 107.000
35.11322 107.000
35.13317 126.000
35.15312 131.000
35.17307 135.000
35.19301 130.000
35.21296 138.000
35.23291 185.000
35.25285 199.000
35.27280 234.000
35.29275 293.000
35.31269 329.000
35.33264 428.000
35.35259 488.000
35.37254 587.000
35.39248 702.000
35.41243 888.000
35.43238 1037.000
35.45232 1215.000
35.47227 1442.000
35.49222 1740.000
35.51216 1793.000
35.53211 2004.000
35.55206 2114.000
35.57201 2167.000
35.59195 2042.000
35.61190 1970.000
35.63185 1838.000
35.65179 1577.000
35.67174 1290.000
35.69169 1052.000
35.71163 884.000
35.73158 737.000
35.75153 535.000
35.77147 395.000
35.79142 325.000
35.81137 253.000
35.83132 215.000
35.85126 214.000
35.87121 161.000
35.89116 164.000
35.91110 139.000
35.93105 134.000
35.95100 108.000
35.97094 121.000
35.99089 103.000
36.01084 112.000
36.03079 102.000
36.05073 82.000
36.07068 89.000
36.09063 96.000
36.11057 91.000
36.13052 87.000
36.15047 112.000
36.17041 72.000
36.19036 93.000
36.21031 84.000
36.23025 91.000
36.25020 73.000
36.27015 82.000
36.29010 81.000
36.31004 89.000
36.32999 79.000
36.34994 74.000
36.36988 117.000
36.38983 82.000
36.40978 92.000
36.42972 77.000
36.44967 84.000
36.46962 96.000
36.48957 93.000
36.50951 92.000
36.52946 100.000
36.54941 127.000
36.56935 138.000
36.58930 150.000
36.60925 159.000
36.62919 192.000
36.64914 183.000
36.66909 199.000
36.68903 189.000
36.70898 192.000
36.72893 202.000
36.74888 195.000
36.76882 192.000
36.78877 188.000
36.80872 179.000
36.82866 216.000
36.84861 152.000
36.86856 140.000
36.88850 135.000
36.90845 128.000
36.92840 110.000
36.94835 123.000
36.96829 99.000
36.98824 129.000
37.00819 140.000
37.02813 133.000
37.04808 140.000
37.06803 154.000
37.08797 157.000
37.10792 155.000
37.12787 167.000
37.14781 158.000
37.16776 187.000
37.18771 186.000
37.20766 177.000
37.22760 171.000
37.24755 210.000
37.26750 187.000
37.28744 189.000
37.30739 142.000
37.32734 126.000
37.34728 119.000
37.36723 91.000
37.38718 81.000
37.40713 88.000
37.42707 73.000
37.44702 81.000
37.46697 68.000
37.48691 62.000
37.50686 52.000
37.52681 61.000
37.54675 51.000
37.56670 52.000
37.58665 47.000
37.60660 57.000
37.62654 52.000
37.64649 61.000
37.66644 50.000
37.68638 54.000
37.70633 50.000
37.72628 47.000
37.74622 50.000
37.76617 53.000
37.78612 51.000
37.80606 69.000
37.82601 60.000
37.84596 55.000
37.86591 61.000
37.88585 46.000
37.90580 57.000
37.92575 46.000
37.94569 55.000
37.96564 50.000
37.98559 46.000
38.00553 56.000
38.02548 52.000
38.04543 61.000
38.06538 50.000
38.08532 56.000
38.10527 53.000
38.12522 56.000
38.14516 54.000
38.16511 47.000
38.18506 50.000
38.20500 50.000
38.22495 54.000
38.24490 64.000
38.26484 45.000
38.28479 53.000
38.30474 60.000
38.32469 50.000
38.34463 53.000
38.36458 54.000
38.38453 56.000
38.40447 65.000
38.42442 42.000
38.44437 54.000
38.46431 57.000
38.48426 43.000
38.50421 50.000
38.52416 50.000
38.54410 58.000
38.56405 58.000
38.58400 41.000
38.60394 45.000
38.62389 49.000
38.64384 51.000
38.66378 52.000
38.68373 44.000
38.70368 56.000
38.72362 53.000
38.74357 53.000
38.76352 51.000
38.78347 63.000
38.80341 56.000
38.82336 53.000
38.84331 58.000
38.86325 56.000
38.88320 63.000
38.90315 70.000
38.92309 61.000
38.94304 61.000
38.96299 76.000
38.98294 63.000
39.00288 95.000
39.02283 95.000
39.04278 68.000
39.06272 90.000
39.08267 68.000
39.10262 65.000
39.12256 62.000
39.14251 69.000
39.16246 51.000
39.18241 54.000
39.20235 55.000
39.22230 42.000
39.24225 63.000
39.26219 52.000
39.28214 59.000
39.30209 62.000
39.32203 54.000
39.34198 48.000
39.36193 57.000
39.38187 65.000
39.40182 48.000
39.42177 43.000
39.44172 58.000
39.46166 50.000
39.48161 67.000
39.50156 65.000
39.52150 47.000
39.54145 47.000
39.56140 44.000
39.58134 66.000
39.60129 62.000
39.62124 51.000
39.64119 62.000
39.66113 58.000
39.68108 63.000
39.70103 54.000
39.72097 56.000
39.74092 62.000
39.76087 58.000
39.78081 57.000
39.80076 58.000
39.82071 52.000
39.84065 41.000
39.86060 59.000
39.88055 48.000
39.90050 38.000
39.92044 49.000
39.94039 58.000
39.96034 48.000
39.98028 44.000
40.00023 47.000
40.02018 56.000
40.04012 44.000
40.06007 46.000
40.08002 59.000
40.09997 51.000
40.11991 36.000
40.13986 48.000
40.15981 53.000
40.17975 51.000
40.19970 41.000
40.21965 42.000
40.23959 56.000
40.25954 47.000
40.27949 55.000
40.29943 51.000
40.31938 60.000
40.33933 45.000
40.35928 51.000
40.37922 56.000
40.39917 55.000
40.41912 46.000
40.43906 34.000
40.45901 50.000
40.47896 59.000
40.49890 54.000
40.51885 53.000
40.53880 56.000
40.55875 66.000
40.57869 34.000
40.59864 66.000
40.61859 56.000
40.63853 46.000
40.65848 52.000
40.67843 62.000
40.69837 71.000
40.71832 49.000
40.73827 59.000
40.75822 87.000
40.77816 60.000
40.79811 50.000
40.81806 70.000
40.83800 61.000
40.85795 63.000
40.87790 68.000
40.89784 45.000
40.91779 55.000
40.93774 58.000
40.95768 72.000
40.97763 63.000
40.99758 72.000
41.01753 62.000
41.03747 79.000
41.05742 64.000
41.07737 79.000
41.09731 82.000
41.11726 97.000
41.13721 99.000
41.15715 108.000
41.17710 109.000
41.19705 124.000
41.21700 134.000
41.23694 157.000
41.25689 189.000
41.27684 195.000
41.29678 245.000
41.31673 332.000
41.33668 403.000
41.35662 449.000
41.37657 546.000
41.39652 680.000
41.41646 684.000
41.43641 687.000
41.45636 751.000
41.47631 704.000
41.49625 653.000
41.51620 640.000
41.53615 602.000
41.55609 531.000
41.57604 491.000
41.59599 427.000
41.61593 340.000
41.63588 307.000
41.65583 259.000
41.67578 208.000
41.69572 174.000
41.71567 165.000
41.73562 147.000
41.75556 126.000
41.77551 120.000
41.79546 122.000
41.81540 103.000
41.83535 111.000
41.85530 108.000
41.87524 108.000
41.89519 71.000
41.91514 97.000
41.93509 88.000
41.95503 73.000
41.97498 81.000
41.99493 61.000
42.01487 84.000
42.03482 76.000
42.05477 87.000
42.07471 94.000
42.09466 83.000
42.11461 72.000
42.13456 66.000
42.15450 76.000
42.17445 66.000
42.19440 64.000
42.21434 62.000
42.23429 73.000
42.25424 80.000
42.27418 58.000
42.29413 76.000
42.31408 69.000
42.33403 69.000
42.35397 76.000
42.37392 73.000
42.39387 63.000
42.41381 67.000
42.43376 72.000
42.45371 63.000
42.47365 80.000
42.49360 55.000
42.51355 79.000
42.53349 68.000
42.55344 62.000
42.57339 66.000
42.59334 71.000
42.61328 71.000
42.63323 53.000
42.65318 56.000
42.67312 84.000
42.69307 51.000
42.71302 75.000
42.73296 82.000
42.75291 81.000
42.77286 54.000
42.79281 62.000
42.81275 82.000
42.83270 82.000
42.85265 95.000
42.87259 88.000
42.89254 89.000
42.91249 88.000
42.93243 120.000
42.95238 112.000
42.97233 130.000
42.99227 137.000
43.01222 142.000
43.03217 159.000
43.05212 212.000
43.07206 211.000
43.09201 248.000
43.11196 315.000
43.13190 294.000
43.15185 355.000
43.17180 392.000
43.19174 431.000
43.21169 415.000
43.23164 390.000
43.25159 454.000
43.27153 416.000
43.29148 413.000
43.31143 367.000
43.33137 354.000
43.35132 287.000
43.37127 246.000
43.39121 233.000
43.41116 196.000
43.43111 148.000
43.45105 148.000
43.47100 105.000
43.49095 96.000
43.51090 86.000
43.53084 76.000
43.55079 87.000
43.57074 69.000
43.59068 66.000
43.61063 65.000
43.63058 63.000
43.65052 67.000
43.67047 60.000
43.69042 62.000
43.71037 69.000
43.73031 53.000
43.75026 65.000
43.77021 63.000
43.79015 53.000
43.81010 54.000
43.83005 58.000
43.84999 58.000
43.86994 58.000
43.88989 59.000
43.90984 59.000
43.92978 52.000
43.94973 56.000
43.96968 63.000
43.98962 59.000
44.00957 53.000
44.02952 46.000
44.04946 45.000
44.06941 58.000
44.08936 56.000
44.10930 53.000
44.12925 61.000
44.14920 56.000
44.16915 61.000
44.18909 52.000
44.20904 59.000
44.22899 58.000
44.24893 62.000
44.26888 49.000
44.28883 53.000
44.30877 46.000
44.32872 50.000
44.34867 69.000
44.36862 65.000
44.38856 54.000
44.40851 47.000
44.42846 61.000
44.44840 47.000
44.46835 71.000
44.48830 71.000
44.50824 73.000
44.52819 59.000
44.54814 64.000
44.56808 74.000
44.58803 80.000
44.60798 83.000
44.62793 97.000
44.64787 91.000
44.66782 99.000
44.68777 95.000
44.70771 105.000
44.72766 96.000
44.74761 90.000
44.76755 104.000
44.78750 96.000
44.80745 84.000
44.82740 73.000
44.84734 76.000
44.86729 74.000
44.88724 56.000
44.90718 55.000
44.92713 68.000
44.94708 67.000
44.96702 52.000
44.98697 57.000
45.00692 55.000
45.02686 55.000
45.04681 58.000
45.06676 57.000
45.08671 56.000
45.10665 53.000
45.12660 59.000
45.14655 49.000
45.16649 48.000
45.18644 45.000
45.20639 56.000
45.22633 51.000
45.24628 41.000
45.26623 46.000
45.28618 35.000
45.30612 38.000
45.32607 40.000
45.34602 52.000
45.36596 51.000
45.38591 45.000
45.40586 46.000
45.42580 66.000
45.44575 51.000
45.46570 36.000
45.48565 30.000
45.50559 40.000
45.52554 48.000
45.54549 44.000
45.56543 61.000
45.58538 39.000
45.60533 42.000
45.62527 38.000
45.64522 59.000
45.66517 48.000
45.68511 35.000
45.70506 42.000
45.72501 39.000
45.74496 49.000
45.76490 43.000
45.78485 39.000
45.80480 48.000
45.82474 41.000
45.84469 43.000
45.86464 46.000
45.88458 44.000
45.90453 47.000
45.92448 38.000
45.94443 42.000
45.96437 50.000
45.98432 40.000
46.00427 48.000
46.02421 30.000
46.04416 44.000
46.06411 48.000
46.08405 39.000
46.10400 44.000
46.12395 49.000
46.14389 41.000
46.16384 45.000
46.18379 41.000
46.20374 44.000
46.22368 37.000
46.24363 36.000
46.26358 40.000
46.28352 46.000
46.30347 48.000
46.32342 44.000
46.34336 38.000
46.36331 39.000
46.38326 33.000
46.40321 41.000
46.42315 39.000
46.44310 48.000
46.46305 54.000
46.48299 41.000
46.50294 43.000
46.52289 53.000
46.54283 45.000
46.56278 52.000
46.58273 34.000
46.60267 36.000
46.62262 40.000
46.64257 41.000
46.66252 40.000
46.68246 50.000
46.70241 34.000
46.72236 37.000
46.74230 50.000
46.76225 36.000
46.78220 46.000
46.80214 49.000
46.82209 41.000
46.84204 45.000
46.86199 44.000
46.88193 56.000
46.90188 38.000
46.92183 32.000
46.94177 40.000
46.96172 58.000
46.98167 35.000
47.00161 64.000
47.02156 46.000
47.04151 44.000
47.06146 34.000
47.08140 38.000
47.10135 47.000
47.12130 52.000
47.14124 50.000
47.16119 49.000
47.18114 43.000
47.20108 58.000
47.22103 55.000
47.24098 47.000
47.26092 48.000
47.28087 61.000
47.30082 48.000
47.32077 45.000
47.34071 57.000
47.36066 47.000
47.38061 54.000
47.40055 45.000
47.42050 50.000
47.44045 42.000
47.46039 66.000
47.48034 55.000
47.50029 57.000
47.52024 61.000
47.54018 40.000
47.56013 41.000
47.58008 36.000
47.60002 45.000
47.61997 31.000
47.63992 42.000
47.65986 36.000
47.67981 35.000
47.69976 38.000
47.71970 42.000
47.73965 38.000
47.75960 43.000
47.77955 47.000
47.79949 42.000
47.81944 32.000
47.83939 34.000
47.85933 53.000
47.87928 46.000
47.89923 57.000
47.91917 43.000
47.93912 46.000
47.95907 39.000
47.97902 40.000
47.99896 48.000
48.01891 52.000
48.03886 40.000
48.05880 41.000
48.07875 43.000
48.09870 43.000
48.11864 40.000
48.13859 60.000
48.15854 41.000
48.17848 46.000
48.19843 44.000
48.21838 42.000
48.23833 47.000
48.25827 55.000
48.27822 59.000
48.29817 68.000
48.31811 62.000
48.33806 75.000
48.35801 64.000
48.37795 56.000
48.39790 58.000
48.41785 54.000
48.43780 56.000
48.45774 81.000
48.47769 67.000
48.49764 62.000
48.51758 60.000
48.53753 54.000
48.55748 47.000
48.57742 50.000
48.59737 43.000
48.61732 37.000
48.63726 44.000
48.65721 37.000
48.67716 43.000
48.69711 51.000
48.71705 53.000
48.73700 38.000
48.75695 44.000
48.77689 56.000
48.79684 55.000
48.81679 42.000
48.83673 49.000
48.85668 48.000
48.87663 58.000
48.89658 38.000
48.91652 37.000
48.93647 55.000
48.95642 56.000
48.97636 38.000
48.99631 46.000
49.01626 50.000
49.03620 48.000
49.05615 41.000
49.07610 49.000
49.09605 51.000
49.11599 37.000
49.13594 49.000
49.15589 47.000
49.17583 42.000
49.19578 43.000
49.21573 49.000
49.23567 39.000
49.25562 42.000
49.27557 44.000
49.29551 43.000
49.31546 53.000
49.33541 42.000
49.35536 54.000
49.37530 48.000
49.39525 49.000
49.41520 46.000
49.43514 50.000
49.45509 51.000
49.47504 48.000
49.49498 37.000
49.51493 43.000
49.53488 60.000
49.55483 59.000
49.57477 54.000
49.59472 48.000
49.61467 48.000
49.63461 39.000
49.65456 42.000
49.67451 48.000
49.69445 39.000
49.71440 45.000
49.73435 43.000
49.75429 54.000
49.77424 47.000
49.79419 40.000
49.81414 41.000
49.83408 50.000
49.85403 41.000
49.87398 49.000
49.89392 38.000
49.91387 57.000
49.93382 53.000
49.95376 46.000
49.97371 48.000
49.99366 50.000
50.01361 45.000
50.03355 49.000
50.05350 59.000
50.07345 40.000
50.09339 44.000
50.11334 45.000
50.13329 41.000
50.15323 42.000
50.17318 38.000
50.19313 39.000
50.21307 49.000
50.23302 34.000
50.25297 45.000
50.27292 33.000
50.29286 47.000
50.31281 33.000
50.33276 45.000
50.35270 34.000
50.37265 38.000
50.39260 31.000
50.41254 41.000
50.43249 31.000
50.45244 32.000
50.47239 28.000
50.49233 54.000
50.51228 35.000
50.53223 33.000
50.55217 47.000
50.57212 50.000
50.59207 38.000
50.61201 32.000
50.63196 41.000
50.65191 41.000
50.67186 37.000
50.69180 44.000
50.71175 51.000
50.73170 42.000
50.75164 44.000
50.77159 42.000
50.79154 35.000
50.81148 53.000
50.83143 50.000
50.85138 46.000
50.87132 34.000
50.89127 38.000
50.91122 41.000
50.93117 34.000
50.95111 53.000
50.97106 47.000
50.99101 57.000
51.01095 48.000
51.03090 32.000
51.05085 49.000
51.07079 50.000
51.09074 42.000
51.11069 43.000
51.13064 37.000
51.15058 35.000
51.17053 38.000
51.19048 45.000
51.21042 44.000
51.23037 60.000
51.25032 46.000
51.27026 45.000
51.29021 43.000
51.31016 37.000
51.33010 47.000
51.35005 45.000
51.37000 46.000
51.38995 43.000
51.40989 33.000
51.42984 37.000
51.44979 45.000
51.46973 35.000
51.48968 44.000
51.50963 44.000
51.52957 48.000
51.54952 45.000
51.56947 40.000
51.58942 48.000
51.60936 47.000
51.62931 51.000
51.64926 39.000
51.66920 48.000
51.68915 42.000
51.70910 35.000
51.72904 52.000
51.74899 44.000
51.76894 48.000
51.78888 47.000
51.80883 41.000
51.82878 45.000
51.84873 47.000
51.86867 39.000
51.88862 37.000
51.90857 37.000
51.92851 42.000
51.94846 36.000
51.96841 37.000
51.98835 55.000
52.00830 41.000
52.02825 49.000
52.04820 44.000
52.06814 39.000
52.08809 42.000
52.10804 44.000
52.12798 47.000
52.14793 45.000
52.16788 49.000
52.18782 62.000
52.20777 52.000
52.22772 59.000
52.24767 54.000
52.26761 68.000
52.28756 62.000
52.30751 71.000
52.32745 60.000
52.34740 69.000
52.36735 61.000
52.38729 59.000
52.40724 74.000
52.42719 83.000
52.44713 83.000
52.46708 79.000
52.48703 100.000
52.50698 94.000
52.52692 113.000
52.54687 107.000
52.56682 130.000
52.58676 117.000
52.60671 117.000
52.62666 129.000
52.64660 138.000
52.66655 138.000
52.68650 133.000
52.70645 118.000
52.72639 120.000
52.74634 125.000
52.76629 127.000
52.78623 97.000
52.80618 107.000
52.82613 99.000
52.84607 121.000
52.86602 74.000
52.88597 91.000
52.90591 94.000
52.92586 81.000
52.94581 91.000
52.96576 78.000
52.98570 65.000
53.00565 62.000
53.02560 64.000
53.04554 57.000
53.06549 63.000
53.08544 48.000
53.10538 67.000
53.12533 57.000
53.14528 53.000
53.16523 74.000
53.18517 66.000
53.20512 73.000
53.22507 68.000
53.24501 73.000
53.26496 68.000
53.28491 75.000
53.30485 68.000
53.32480 72.000
53.34475 74.000
53.36469 78.000
53.38464 83.000
53.40459 90.000
53.42454 87.000
53.44448 66.000
53.46443 112.000
53.48438 121.000
53.50432 126.000
53.52427 98.000
53.54422 128.000
53.56416 179.000
53.58411 146.000
53.60406 160.000
53.62401 175.000
53.64395 182.000
53.66390 185.000
53.68385 166.000
53.70379 169.000
53.72374 186.000
53.74369 156.000
53.76363 160.000
53.78358 149.000
53.80353 114.000
53.82348 101.000
53.84342 98.000
53.86337 100.000
53.88332 76.000
53.90326 85.000
53.92321 78.000
53.94316 93.000
53.96310 69.000
53.98305 54.000
54.00300 55.000
54.02294 55.000
54.04289 48.000
54.06284 55.000
54.08279 54.000
54.10273 38.000
54.12268 54.000
54.14263 57.000
54.16257 50.000
54.18252 53.000
54.20247 42.000
54.22241 50.000
54.24236 47.000
54.26231 49.000
54.28226 49.000
54.30220 46.000
54.32215 48.000
54.34210 56.000
54.36204 51.000
54.38199 47.000
54.40194 54.000
54.42188 48.000
54.44183 53.000
54.46178 53.000
54.48172 56.000
54.50167 47.000
54.52162 45.000
54.54157 40.000
54.56151 49.000
54.58146 45.000
54.60141 45.000
54.62135 45.000
54.64130 42.000
54.66125 54.000
54.68119 47.000
54.70114 50.000
54.72109 43.000
54.74104 53.000
54.76098 44.000
54.78093 40.000
54.80088 39.000
54.82082 42.000
54.84077 57.000
54.86072 34.000
54.88066 58.000
54.90061 46.000
54.92056 35.000
54.94050 41.000
54.96045 55.000
54.98040 50.000
55.00035 44.000
55.02029 48.000
55.04024 59.000
55.06019 50.000
55.08013 46.000
55.10008 35.000
55.12003 32.000
55.13997 50.000
55.15992 38.000
55.17987 37.000
55.19982 36.000
55.21976 47.000
55.23971 44.000
55.25966 42.000
55.27960 44.000
55.29955 47.000
55.31950 42.000
55.33944 44.000
55.35939 45.000
55.37934 56.000
55.39929 45.000
55.41923 40.000
55.43918 43.000
55.45913 41.000
55.47907 38.000
55.49902 38.000
55.51897 44.000
55.53891 48.000
55.55886 41.000
55.57881 45.000
55.59875 48.000
55.61870 44.000
55.63865 47.000
55.65860 34.000
55.67854 48.000
55.69849 44.000
55.71844 46.000
55.73838 49.000
55.75833 48.000
55.77828 43.000
55.79822 54.000
55.81817 56.000
55.83812 51.000
55.85807 39.000
55.87801 51.000
55.89796 39.000
55.91791 45.000
55.93785 49.000
55.95780 58.000
55.97775 57.000
55.99769 41.000
56.01764 42.000
56.03759 40.000
56.05753 53.000
56.07748 49.000
56.09743 57.000
56.11738 46.000
56.13732 61.000
56.15727 38.000
56.17722 67.000
56.19716 50.000
56.21711 47.000
56.23706 55.000
56.25700 58.000
56.27695 52.000
56.29690 46.000
56.31685 53.000
56.33679 60.000
56.35674 39.000
56.37669 62.000
56.39663 63.000
56.41658 52.000
56.43653 61.000
56.45647 50.000
56.47642 52.000
56.49637 54.000
56.51631 67.000
56.53626 57.000
56.55621 56.000
56.57616 63.000
56.59610 67.000
56.61605 77.000
56.63600 79.000
56.65594 82.000
56.67589 75.000
56.69584 79.000
56.71578 93.000
56.73573 79.000
56.75568 95.000
56.77563 88.000
56.79557 107.000
56.81552 141.000
56.83547 126.000
56.85541 127.000
56.87536 136.000
56.89531 168.000
56.91525 193.000
56.93520 200.000
56.95515 246.000
56.97510 248.000
56.99504 281.000
57.01499 332.000
57.03494 330.000
57.05488 415.000
57.07483 408.000
57.09478 430.000
57.11472 495.000
57.13467 483.000
57.15462 490.000
57.17456 527.000
57.19451 535.000
57.21446 557.000
57.23441 546.000
57.25435 506.000
57.27430 517.000
57.29425 485.000
57.31419 454.000
57.33414 409.000
57.35409 374.000
57.37403 308.000
57.39398 339.000
57.41393 294.000
57.43388 246.000
57.45382 217.000
57.47377 184.000
57.49372 171.000
57.51366 142.000
57.53361 136.000
57.55356 105.000
57.57350 117.000
57.59345 114.000
57.61340 91.000
57.63334 84.000
57.65329 78.000
57.67324 63.000
57.69319 57.000
57.71313 88.000
57.73308 64.000
57.75303 54.000
57.77297 59.000
57.79292 61.000
57.81287 75.000
57.83281 59.000
57.85276 59.000
57.87271 76.000
57.89266 51.000
57.91260 59.000
57.93255 60.000
57.95250 54.000
57.97244 51.000
57.99239 55.000
58.01234 50.000
58.03228 65.000
58.05223 48.000
58.07218 45.000
58.09212 52.000
58.11207 50.000
58.13202 57.000
58.15197 50.000
58.17191 43.000
58.19186 47.000
58.21181 47.000
58.23175 48.000
58.25170 32.000
58.27165 35.000
58.29159 51.000
58.31154 49.000
58.33149 49.000
58.35144 53.000
58.37138 45.000
58.39133 49.000
58.41128 42.000
58.43122 48.000
58.45117 42.000
58.47112 47.000
58.49106 55.000
58.51101 42.000
58.53096 56.000
58.55090 37.000
58.57085 44.000
58.59080 49.000
58.61075 36.000
58.63069 40.000
58.65064 49.000
58.67059 56.000
58.69053 47.000
58.71048 55.000
58.73043 36.000
58.75037 52.000
58.77032 57.000
58.79027 58.000
58.81022 45.000
58.83016 57.000
58.85011 56.000
58.87006 44.000
58.89000 57.000
58.90995 47.000
58.92990 46.000
58.94984 53.000
58.96979 45.000
58.98974 44.000
59.00969 51.000
59.02963 34.000
59.04958 39.000
59.06953 44.000
59.08947 47.000
59.10942 40.000
59.12937 50.000
59.14931 44.000
59.16926 60.000
59.18921 44.000
59.20915 50.000
59.22910 53.000
59.24905 39.000
59.26900 45.000
59.28894 39.000
59.30889 44.000
59.32884 44.000
59.34878 50.000
59.36873 57.000
59.38868 47.000
59.40862 36.000
59.42857 56.000
59.44852 55.000
59.46847 44.000
59.48841 52.000
59.50836 58.000
59.52831 49.000
59.54825 57.000
59.56820 56.000
59.58815 49.000
59.60809 31.000
59.62804 42.000
59.64799 46.000
59.66793 49.000
59.68788 40.000
59.70783 47.000
59.72778 45.000
59.74772 44.000
59.76767 60.000
59.78762 46.000
59.80756 47.000
59.82751 40.000
59.84746 32.000
59.86740 41.000
59.88735 46.000
59.90730 48.000
59.92725 48.000
59.94719 49.000
59.96714 44.000
59.98709 49.000
60.00703 54.000
60.02698 42.000
60.04693 51.000
60.06687 38.000
60.08682 44.000
60.10677 40.000
60.12671 55.000
60.14666 52.000
60.16661 58.000
60.18656 52.000
60.20650 58.000
60.22645 55.000
60.24640 42.000
60.26634 59.000
60.28629 50.000
60.30624 57.000
60.32618 53.000
60.34613 38.000
60.36608 42.000
60.38603 59.000
60.40597 45.000
60.42592 53.000
60.44587 47.000
60.46581 41.000
60.48576 32.000
60.50571 54.000
60.52565 46.000
60.54560 49.000
60.56555 58.000
60.58550 47.000
60.60544 36.000
60.62539 46.000
60.64534 51.000
60.66528 73.000
60.68523 54.000
60.70518 54.000
60.72512 48.000
60.74507 46.000
60.76502 42.000
60.78496 41.000
60.80491 44.000
60.82486 57.000
60.84481 49.000
60.86475 58.000
60.88470 52.000
60.90465 53.000
60.92459 47.000
60.94454 45.000
60.96449 47.000
60.98443 41.000
61.00438 49.000
61.02433 48.000
61.04428 53.000
61.06422 65.000
61.08417 40.000
61.10412 51.000
61.12406 49.000
61.14401 48.000
61.16396 60.000
61.18390 45.000
61.20385 60.000
61.22380 43.000
61.24374 45.000
61.26369 60.000
61.28364 52.000
61.30359 64.000
61.32353 54.000
61.34348 64.000
61.36343 76.000
61.38337 60.000
61.40332 71.000
61.42327 62.000
61.44321 68.000
61.46316 74.000
61.48311 64.000
61.50306 68.000
61.52300 56.000
61.54295 56.000
61.56290 66.000
61.58284 60.000
61.60279 53.000
61.62274 54.000
61.64268 75.000
61.66263 55.000
61.68258 69.000
61.70252 65.000
61.72247 60.000
61.74242 65.000
61.76237 62.000
61.78231 54.000
61.80226 53.000
61.82221 58.000
61.84215 50.000
61.86210 65.000
61.88205 71.000
61.90199 49.000
61.92194 53.000
61.94189 52.000
61.96184 73.000
61.98178 51.000
62.00173 71.000
62.02168 62.000
62.04162 62.000
62.06157 46.000
62.08152 75.000
62.10146 59.000
62.12141 57.000
62.14136 62.000
62.16131 69.000
62.18125 58.000
62.20120 56.000
62.22115 72.000
62.24109 92.000
62.26104 94.000
62.28099 92.000
62.30093 80.000
62.32088 96.000
62.34083 88.000
62.36077 112.000
62.38072 130.000
62.40067 104.000
62.42062 146.000
62.44056 159.000
62.46051 149.000
62.48046 202.000
62.50040 194.000
62.52035 230.000
62.54030 251.000
62.56024 293.000
62.58019 305.000
62.60014 335.000
62.62009 404.000
62.64003 429.000
62.65998 473.000
62.67993 478.000
62.69987 514.000
62.71982 540.000
62.73977 520.000
62.75971 595.000
62.77966 556.000
62.79961 596.000
62.81955 617.000
62.83950 646.000
62.85945 653.000
62.87940 595.000
62.89934 601.000
62.91929 615.000
62.93924 561.000
62.95918 486.000
62.97913 435.000
62.99908 438.000
63.01902 402.000
63.03897 345.000
63.05892 321.000
63.07887 310.000
63.09881 246.000
63.11876 245.000
63.13871 228.000
63.15865 226.000
63.17860 159.000
63.19855 145.000
63.21849 127.000
63.23844 120.000
63.25839 96.000
63.27833 91.000
63.29828 95.000
63.31823 99.000
63.33818 107.000
63.35812 85.000
63.37807 90.000
63.39802 71.000
63.41796 74.000
63.43791 77.000
63.45786 57.000
63.47780 77.000
63.49775 74.000
63.51770 85.000
63.53765 64.000
63.55759 77.000
63.57754 73.000
63.59749 64.000
63.61743 70.000
63.63738 58.000
63.65733 64.000
63.67727 53.000
63.69722 82.000
63.71717 70.000
63.73712 76.000
63.75706 75.000
63.77701 60.000
63.79696 78.000
63.81690 57.000
63.83685 54.000
63.85680 48.000
63.87674 61.000
63.89669 57.000
63.91664 64.000
63.93658 55.000
63.95653 51.000
63.97648 42.000
63.99643 47.000
64.01637 58.000
64.03632 44.000
64.05627 44.000
64.07621 43.000
64.09616 46.000
64.11611 45.000
64.13605 50.000
64.15600 55.000
64.17595 44.000
64.19590 41.000
64.21584 46.000
64.23579 36.000
64.25574 49.000
64.27568 50.000
64.29563 36.000
64.31558 47.000
64.33552 42.000
64.35547 38.000
64.37542 38.000
64.39536 46.000
64.41531 52.000
64.43526 53.000
64.45521 32.000
64.47515 48.000
64.49510 47.000
64.51505 49.000
64.53499 55.000
64.55494 44.000
64.57489 46.000
64.59483 38.000
64.61478 47.000
64.63473 55.000
64.65468 53.000
64.67462 52.000
64.69457 49.000
64.71452 42.000
64.73446 51.000
64.75441 50.000
64.77436 40.000
64.79430 35.000
64.81425 46.000
64.83420 59.000
64.85414 50.000
64.87409 49.000
64.89404 53.000
64.91399 41.000
64.93393 66.000
64.95388 49.000
64.97383 60.000
64.99377 61.000
65.01372 73.000
65.03367 81.000
65.05361 58.000
65.07356 71.000
65.09351 73.000
65.11346 63.000
65.13340 65.000
65.15335 85.000
65.17330 98.000
65.19324 90.000
65.21319 81.000
65.23314 105.000
65.25308 107.000
65.27303 104.000
65.29298 90.000
65.31293 89.000
65.33287 106.000
65.35282 127.000
65.37277 118.000
65.39271 108.000
65.41266 97.000
65.43261 106.000
65.45255 109.000
65.47250 118.000
65.49245 78.000
65.51239 93.000
65.53234 95.000
65.55229 74.000
65.57224 71.000
65.59218 73.000
65.61213 74.000
65.63208 70.000
65.65202 72.000
65.67197 72.000
65.69192 84.000
65.71186 67.000
65.73181 69.000
65.75176 56.000
65.77171 47.000
65.79165 60.000
65.81160 75.000
65.83155 70.000
65.85149 58.000
65.87144 59.000
65.89139 74.000
65.91133 79.000
65.93128 76.000
65.95123 66.000
65.97117 71.000
65.99112 81.000
66.01107 88.000
66.03102 73.000
66.05096 65.000
66.07091 67.000
66.09086 66.000
66.11080 59.000
66.13075 67.000
66.15070 69.000
66.17064 64.000
66.19059 52.000
66.21054 55.000
66.23049 61.000
66.25043 59.000
66.27038 51.000
66.29033 50.000
66.31027 58.000
66.33022 57.000
66.35017 58.000
66.37011 59.000
66.39006 60.000
66.41001 57.000
66.42995 60.000
66.44990 67.000
66.46985 54.000
66.48980 47.000
66.50974 45.000
66.52969 47.000
66.54964 47.000
66.56958 45.000
66.58953 51.000
66.60948 43.000
66.62942 47.000
66.64937 45.000
66.66932 54.000
66.68927 45.000
66.70921 44.000
66.72916 55.000
66.74911 59.000
66.76905 42.000
66.78900 51.000
66.80895 51.000
66.82889 38.000
66.84884 44.000
66.86879 52.000
66.88874 40.000
66.90868 43.000
66.92863 44.000
66.94858 49.000
66.96852 56.000
66.98847 58.000
67.00842 52.000
67.02836 67.000
67.04831 58.000
67.06826 67.000
67.08820 55.000
67.10815 72.000
67.12810 55.000
67.14805 67.000
67.16799 71.000
67.18794 59.000
67.20789 58.000
67.22783 73.000
67.24778 62.000
67.26773 49.000
67.28767 72.000
67.30762 57.000
67.32757 59.000
67.34752 59.000
67.36746 76.000
67.38741 67.000
67.40736 62.000
67.42730 58.000
67.44725 59.000
67.46720 70.000
67.48714 64.000
67.50709 57.000
67.52704 61.000
67.54698 66.000
67.56693 67.000
67.58688 54.000
67.60683 56.000
67.62677 44.000
67.64672 51.000
67.66667 47.000
67.68661 52.000
67.70656 68.000
67.72651 48.000
67.74645 65.000
67.76640 55.000
67.78635 46.000
67.80630 50.000
67.82624 46.000
67.84619 43.000
67.86614 60.000
67.88608 33.000
67.90603 57.000
67.92598 63.000
67.94592 44.000
67.96587 38.000
67.98582 54.000
68.00576 65.000
68.02571 45.000
68.04566 42.000
68.06561 47.000
68.08555 54.000
68.10550 49.000
68.12545 47.000
68.14539 50.000
68.16534 71.000
68.18529 38.000
68.20523 53.000
68.22518 59.000
68.24513 46.000
68.26508 47.000
68.28502 54.000
68.30497 45.000
68.32492 39.000
68.34486 45.000
68.36481 44.000
68.38476 44.000
68.40470 37.000
68.42465 50.000
68.44460 31.000
68.46455 40.000
68.48449 39.000
68.50444 33.000
68.52439 39.000
68.54433 39.000
68.56428 43.000
68.58423 46.000
68.60417 41.000
68.62412 31.000
68.64407 46.000
68.66401 39.000
68.68396 56.000
68.70391 37.000
68.72386 46.000
68.74380 45.000
68.76375 43.000
68.78370 38.000
68.80364 33.000
68.82359 50.000
68.84354 42.000
68.86348 38.000
68.88343 45.000
68.90338 40.000
68.92333 39.000
68.94327 35.000
68.96322 41.000
68.98317 37.000
69.00311 51.000
69.02306 40.000
69.04301 48.000
69.06295 42.000
69.08290 34.000
69.10285 31.000
69.12279 41.000
69.14274 45.000
69.16269 32.000
69.18264 49.000
69.20258 51.000
69.22253 38.000
69.24248 51.000
69.26242 52.000
69.28237 41.000
69.30232 44.000
69.32226 43.000
69.34221 44.000
69.36216 43.000
69.38211 48.000
69.40205 46.000
69.42200 42.000
69.44195 47.000
69.46189 49.000
69.48184 40.000
69.50179 38.000
69.52173 27.000
69.54168 50.000
69.56163 36.000
69.58157 36.000
69.60152 42.000
69.62147 45.000
69.64142 39.000
69.66136 43.000
69.68131 36.000
69.70126 51.000
69.72120 36.000
69.74115 41.000
69.76110 39.000
69.78104 43.000
69.80099 34.000
69.82094 40.000
69.84089 38.000
69.86083 44.000
69.88078 42.000
69.90073 45.000
69.92067 44.000
69.94062 44.000
69.96057 43.000
69.98051 59.000
70.00046 47.000
70.02041 36.000
70.04035 41.000
70.06030 38.000
70.08025 39.000
70.10020 38.000
70.12014 40.000
70.14009 35.000
70.16004 38.000
70.17998 31.000
70.19993 40.000
70.21988 42.000
70.23982 45.000
70.25977 51.000
70.27972 43.000
70.29967 47.000
70.31961 40.000
70.33956 42.000
70.35951 36.000
70.37945 41.000
70.39940 39.000
70.41935 41.000
70.43929 31.000
70.45924 41.000
70.47919 29.000
70.49914 40.000
70.51908 40.000
70.53903 57.000
70.55898 45.000
70.57892 45.000
70.59887 49.000
70.61882 42.000
70.63876 33.000
70.65871 42.000
70.67866 36.000
70.69860 45.000
70.71855 45.000
70.73850 53.000
70.75845 35.000
70.77839 54.000
70.79834 58.000
70.81829 41.000
70.83823 53.000
70.85818 41.000
70.87813 36.000
70.89807 48.000
70.91802 56.000
70.93797 52.000
70.95792 55.000
70.97786 56.000
70.99781 54.000
71.01776 58.000
71.03770 45.000
71.05765 66.000
71.07760 55.000
71.09754 67.000
71.11749 59.000
71.13744 59.000
71.15738 55.000
71.17733 73.000
71.19728 64.000
71.21723 56.000
71.23717 77.000
71.25712 69.000
71.27707 77.000
71.29701 77.000
71.31696 78.000
71.33691 67.000
71.35685 74.000
71.37680 88.000
71.39675 87.000
71.41670 60.000
71.43664 73.000
71.45659 66.000
71.47654 67.000
71.49648 66.000
71.51643 63.000
71.53638 56.000
71.55632 54.000
71.57627 48.000
71.59622 61.000
71.61616 58.000
71.63611 52.000
71.65606 49.000
71.67601 47.000
71.69595 43.000
71.71590 53.000
71.73585 57.000
71.75579 39.000
71.77574 48.000
71.79569 40.000
71.81563 40.000
71.83558 50.000
71.85553 52.000
71.87548 41.000
71.89542 38.000
71.91537 40.000
71.93532 45.000
71.95526 49.000
71.97521 52.000
71.99516 38.000
72.01510 48.000
72.03505 54.000
72.05500 31.000
72.07495 51.000
72.09489 49.000
72.11484 57.000
72.13479 45.000
72.15473 58.000
72.17468 54.000
72.19463 46.000
72.21457 42.000
72.23452 47.000
72.25447 52.000
72.27441 76.000
72.29436 57.000
72.31431 65.000
72.33426 59.000
72.35420 72.000
72.37415 63.000
72.39410 79.000
72.41404 61.000
72.43399 53.000
72.45394 75.000
72.47388 81.000
72.49383 78.000
72.51378 84.000
72.53373 83.000
72.55367 101.000
72.57362 76.000
72.59357 77.000
72.61351 70.000
72.63346 61.000
72.65341 94.000
72.67335 87.000
72.69330 91.000
72.71325 79.000
72.73319 90.000
72.75314 68.000
72.77309 91.000
72.79304 82.000
72.81298 64.000
72.83293 63.000
72.85288 78.000
72.87282 73.000
72.89277 86.000
72.91272 77.000
72.93266 70.000
72.95261 68.000
72.97256 57.000
72.99251 59.000
73.01245 68.000
73.03240 67.000
73.05235 54.000
73.07229 63.000
73.09224 62.000
73.11219 65.000
73.13213 51.000
73.15208 43.000
73.17203 46.000
73.19197 50.000
73.21192 62.000
73.23187 59.000
73.25182 59.000
73.27176 39.000
73.29171 42.000
73.31166 49.000
73.33160 42.000
73.35155 62.000
73.37150 42.000
73.39144 44.000
73.41139 45.000
73.43134 46.000
73.45129 37.000
73.47123 45.000
73.49118 64.000
73.51113 39.000
73.53107 51.000
73.55102 46.000
73.57097 47.000
73.59091 47.000
73.61086 37.000
73.63081 58.000
73.65076 46.000
73.67070 41.000
73.69065 48.000
73.71060 53.000
73.73054 50.000
73.75049 40.000
73.77044 49.000
73.79038 58.000
73.81033 51.000
73.83028 43.000
73.85022 58.000
73.87017 61.000
73.89012 51.000
73.91007 66.000
73.93001 58.000
73.94996 70.000
73.96991 69.000
73.98985 75.000
74.00980 66.000
74.02975 80.000
74.04969 89.000
74.06964 95.000
74.08959 99.000
74.10954 99.000
74.12948 109.000
74.14943 98.000
74.16938 107.000
74.18932 99.000
74.20927 100.000
74.22922 135.000
74.24916 133.000
74.26911 134.000
74.28906 132.000
74.30900 112.000
74.32895 137.000
74.34890 138.000
74.36885 114.000
74.38879 130.000
74.40874 132.000
74.42869 115.000
74.44863 109.000
74.46858 104.000
74.48853 130.000
74.50847 125.000
74.52842 101.000
74.54837 101.000
74.56832 93.000
74.58826 108.000
74.60821 86.000
74.62816 92.000
74.64810 79.000
74.66805 91.000
74.68800 77.000
74.70794 66.000
74.72789 81.000
74.74784 60.000
74.76778 77.000
74.78773 58.000
74.80768 64.000
74.82763 64.000
74.84757 55.000
74.86752 63.000
74.88747 63.000
74.90741 62.000
74.92736 65.000
74.94731 62.000
74.96725 59.000
74.98720 59.000
75.00715 61.000
75.02710 79.000
75.04704 63.000
75.06699 66.000
75.08694 71.000
75.10688 67.000
75.12683 64.000
75.14678 69.000
75.16672 63.000
75.18667 73.000
75.20662 94.000
75.22657 70.000
75.24651 97.000
75.26646 77.000
75.28641 69.000
75.30635 70.000
75.32630 91.000
75.34625 79.000
75.36619 78.000
75.38614 74.000
75.40609 73.000
75.42603 66.000
75.44598 82.000
75.46593 88.000
75.48588 62.000
75.50582 67.000
75.52577 82.000
75.54572 55.000
75.56566 84.000
75.58561 61.000
75.60556 46.000
75.62550 67.000
75.64545 59.000
75.66540 66.000
75.68535 41.000
75.70529 47.000
75.72524 44.000
75.74519 46.000
75.76513 51.000
75.78508 55.000
75.80503 46.000
75.82497 38.000
75.84492 37.000
75.86487 51.000
75.88481 49.000
75.90476 48.000
75.92471 37.000
75.94466 38.000
75.96460 51.000
75.98455 34.000
76.00450 43.000
76.02444 45.000
76.04439 39.000
76.06434 44.000
76.08428 48.000
76.10423 38.000
76.12418 43.000
76.14413 43.000
76.16407 52.000
76.18402 41.000
76.20397 43.000
76.22391 50.000
76.24386 32.000
76.26381 49.000
76.28375 46.000
76.30370 31.000
76.32365 32.000
76.34359 31.000
76.36354 51.000
76.38349 49.000
76.40344 45.000
76.42338 37.000
76.44333 52.000
76.46328 62.000
76.48322 40.000
76.50317 38.000
76.52312 34.000
76.54306 34.000
76.56301 42.000
76.58296 34.000
76.60291 40.000
76.62285 36.000
76.64280 40.000
76.66275 34.000
76.68269 31.000
76.70264 35.000
76.72259 37.000
76.74253 38.000
76.76248 43.000
76.78243 41.000
76.80238 38.000
76.82232 40.000
76.84227 48.000
76.86222 36.000
76.88216 41.000
76.90211 41.000
76.92206 44.000
76.94200 29.000
76.96195 40.000
76.98190 42.000
77.00184 42.000
77.02179 42.000
77.04174 32.000
77.06169 39.000
77.08163 41.000
77.10158 38.000
77.12153 37.000
77.14147 30.000
77.16142 53.000
77.18137 42.000
77.20131 48.000
77.22126 36.000
77.24121 43.000
77.26116 36.000
77.28110 43.000
77.30105 36.000
77.32100 35.000
77.34094 32.000
77.36089 49.000
77.38084 42.000
77.40078 49.000
77.42073 53.000
77.44068 39.000
77.46062 47.000
77.48057 45.000
77.50052 39.000
77.52047 42.000
77.54041 47.000
77.56036 48.000
77.58031 45.000
77.60025 52.000
77.62020 47.000
77.64015 37.000
77.66009 51.000
77.68004 45.000
77.69999 59.000
77.71994 49.000
77.73988 58.000
77.75983 44.000
77.77978 41.000
77.79972 58.000
77.81967 63.000
77.83962 52.000
77.85956 64.000
77.87951 50.000
77.89946 55.000
77.91940 72.000
77.93935 58.000
77.95930 66.000
77.97925 69.000
77.99919 65.000
78.01914 70.000
78.03909 57.000
78.05903 71.000
78.07898 70.000
78.09893 73.000
78.11887 56.000
78.13882 67.000
78.15877 68.000
78.17872 67.000
78.19866 74.000
78.21861 65.000
78.23856 82.000
78.25850 70.000
78.27845 59.000
78.29840 60.000
78.31834 64.000
78.33829 55.000
78.35824 84.000
78.37819 58.000
78.39813 59.000
78.41808 51.000
78.43803 43.000
78.45797 48.000
78.47792 55.000
78.49787 58.000
78.51781 57.000
78.53776 58.000
78.55771 51.000
78.57765 49.000
78.59760 53.000
78.61755 51.000
78.63750 49.000
78.65744 39.000
78.67739 45.000
78.69734 55.000
78.71728 41.000
78.73723 36.000
78.75718 35.000
78.77712 42.000
78.79707 43.000
78.81702 42.000
78.83697 55.000
78.85691 50.000
78.87686 54.000
78.89681 34.000
78.91675 43.000
78.93670 49.000
78.95665 62.000
78.97659 49.000
78.99654 54.000
79.01649 46.000
79.03643 48.000
79.05638 60.000
79.07633 56.000
79.09628 45.000
79.11622 55.000
79.13617 63.000
79.15612 53.000
79.17606 58.000
79.19601 73.000
79.21596 49.000
79.23590 61.000
79.25585 61.000
79.27580 63.000
79.29575 77.000
79.31569 62.000
79.33564 73.000
79.35559 61.000
79.37553 68.000
79.39548 73.000
79.41543 60.000
79.43537 48.000
79.45532 60.000
79.47527 58.000
79.49521 66.000
79.51516 44.000
79.53511 59.000
79.55506 60.000
79.57500 51.000
79.59495 55.000
79.61490 55.000
79.63484 52.000
79.65479 36.000
79.67474 43.000
79.69468 42.000
79.71463 47.000
79.73458 39.000
79.75453 37.000
79.77447 47.000
79.79442 36.000
79.81437 37.000
79.83431 52.000
79.85426 56.000
79.87421 38.000
79.89415 39.000
79.91410 48.000
79.93405 52.000
79.95399 44.000
79.97394 44.000
79.99389 46.000
80.01384 36.000
80.03378 48.000
80.05373 36.000
80.07368 34.000
80.09362 41.000
80.11357 51.000
80.13352 36.000
80.15346 50.000
80.17341 36.000
80.19336 36.000
80.21331 23.000
80.23325 44.000
80.25320 36.000
80.27315 48.000
80.29309 33.000
80.31304 38.000
80.33299 46.000
80.35293 44.000
80.37288 31.000
80.39283 37.000
80.41278 44.000
80.43272 43.000
80.45267 44.000
80.47262 39.000
80.49256 29.000
80.51251 34.000
80.53246 40.000
80.55240 45.000
80.57235 39.000
80.59230 32.000
80.61224 37.000
80.63219 38.000
80.65214 40.000
80.67209 44.000
80.69203 55.000
80.71198 50.000
80.73193 49.000
80.75187 36.000
80.77182 33.000
80.79177 34.000
80.81171 37.000
80.83166 33.000
80.85161 32.000
80.87156 37.000
80.89150 27.000
80.91145 41.000
80.93140 35.000
80.95134 44.000
80.97129 40.000
80.99124 35.000
81.01118 33.000
81.03113 40.000
81.05108 43.000
81.07102 42.000
81.09097 35.000
81.11092 46.000
81.13087 37.000
81.15081 44.000
81.17076 38.000
81.19071 39.000
81.21065 52.000
81.23060 36.000
81.25055 51.000
81.27049 35.000
81.29044 43.000
81.31039 33.000
81.33034 32.000
81.35028 41.000
81.37023 30.000
81.39018 47.000
81.41012 42.000
81.43007 35.000
81.45002 33.000
81.46996 41.000
81.48991 39.000
81.50986 37.000
81.52980 45.000
81.54975 34.000
81.56970 38.000
81.58965 34.000
81.60959 51.000
81.62954 36.000
81.64949 34.000
81.66943 35.000
81.68938 31.000
81.70933 42.000
81.72927 40.000
81.74922 39.000
81.76917 51.000
81.78912 43.000
81.80906 42.000
81.82901 29.000
81.84896 38.000
81.86890 40.000
81.88885 41.000
81.90880 44.000
81.92874 43.000
81.94869 33.000
81.96864 39.000
81.98859 43.000
82.00853 45.000
82.02848 40.000
82.04843 39.000
82.06837 48.000
82.08832 41.000
82.10827 40.000
82.12821 26.000
82.14816 33.000
82.16811 43.000
82.18805 32.000
82.20800 51.000
82.22795 38.000
82.24790 40.000
82.26784 36.000
82.28779 40.000
82.30774 48.000
82.32768 50.000
82.34763 45.000
82.36758 40.000
82.38752 39.000
82.40747 52.000
82.42742 38.000
82.44737 44.000
82.46731 45.000
82.48726 50.000
82.50721 35.000
82.52715 49.000
82.54710 45.000
82.56705 40.000
82.58699 49.000
82.60694 44.000
82.62689 49.000
82.64683 42.000
82.66678 42.000
82.68673 42.000
82.70668 29.000
82.72662 44.000
82.74657 44.000
82.76652 32.000
82.78646 40.000
82.80641 35.000
82.82636 35.000
82.84630 51.000
82.86625 35.000
82.88620 36.000
82.90615 33.000
82.92609 54.000
82.94604 42.000
82.96599 51.000
82.98593 36.000
83.00588 48.000
83.02583 35.000
83.04577 38.000
83.06572 37.000
83.08567 37.000
83.10561 34.000
83.12556 28.000
83.14551 30.000
83.16546 37.000
83.18540 35.000
83.20535 34.000
83.22530 52.000
83.24524 46.000
83.26519 36.000
83.28514 44.000
83.30508 42.000
83.32503 44.000
83.34498 45.000
83.36493 40.000
83.38487 37.000
83.40482 42.000
83.42477 42.000
83.44471 39.000
83.46466 38.000
83.48461 41.000
83.50455 35.000
83.52450 28.000
83.54445 32.000
83.56440 49.000
83.58434 32.000
83.60429 30.000
83.62424 42.000
83.64418 41.000
83.66413 30.000
83.68408 51.000
83.70402 42.000
83.72397 46.000
83.74392 44.000
83.76386 42.000
83.78381 40.000
83.80376 44.000
83.82371 54.000
83.84365 30.000
83.86360 50.000
83.88355 45.000
83.90349 35.000
83.92344 40.000
83.94339 45.000
83.96333 41.000
83.98328 49.000
84.00323 46.000
84.02318 58.000
84.04312 50.000
84.06307 40.000
84.08302 44.000
84.10296 36.000
84.12291 49.000
84.14286 44.000
84.16280 30.000
84.18275 51.000
84.20270 35.000
84.22264 44.000
84.24259 40.000
84.26254 34.000
84.28249 39.000
84.30243 30.000
84.32238 32.000
84.34233 34.000
84.36227 39.000
84.38222 35.000
84.40217 39.000
84.42211 37.000
84.44206 36.000
84.46201 29.000
84.48196 24.000
84.50190 33.000
84.52185 28.000
84.54180 39.000
84.56174 44.000
84.58169 42.000
84.60164 36.000
84.62158 35.000
84.64153 37.000
84.66148 56.000
84.68142 45.000
84.70137 35.000
84.72132 48.000
84.74127 48.000
84.76121 33.000
84.78116 35.000
84.80111 40.000
84.82105 38.000
84.84100 38.000
84.86095 40.000
84.88089 51.000
84.90084 50.000
84.92079 45.000
84.94074 43.000
84.96068 39.000
84.98063 35.000
85.00058 28.000
85.02052 44.000
85.04047 39.000
85.06042 56.000
85.08036 29.000
85.10031 31.000
85.12026 46.000
85.14021 31.000
85.16015 31.000
85.18010 33.000
85.20005 29.000
85.21999 40.000
85.23994 36.000
85.25989 44.000
85.27983 39.000
85.29978 36.000
85.31973 43.000
85.33967 37.000
85.35962 41.000
85.37957 39.000
85.39952 45.000
85.41946 43.000
85.43941 46.000
85.45936 43.000
85.47930 42.000
85.49925 38.000
85.51920 27.000
85.53914 35.000
85.55909 40.000
85.57904 44.000
85.59899 47.000
85.61893 43.000
85.63888 40.000
85.65883 44.000
85.67877 32.000
85.69872 40.000
85.71867 40.000
85.73861 40.000
85.75856 44.000
85.77851 44.000
85.79845 37.000
85.81840 38.000
85.83835 42.000
85.85830 38.000
85.87824 43.000
85.89819 36.000
85.91814 46.000
85.93808 49.000
85.95803 39.000
85.97798 42.000
85.99792 40.000
86.01787 51.000
86.03782 38.000
86.05777 46.000
86.07771 49.000
86.09766 39.000
86.11761 50.000
86.13755 43.000
86.15750 54.000
86.17745 40.000
86.19739 58.000
86.21734 46.000
86.23729 55.000
86.25723 53.000
86.27718 48.000
86.29713 47.000
86.31708 50.000
86.33702 56.000
86.35697 56.000
86.37692 49.000
86.39686 35.000
86.41681 59.000
86.43676 47.000
86.45670 65.000
86.47665 63.000
86.49660 52.000
86.51655 58.000
86.53649 46.000
86.55644 50.000
86.57639 45.000
86.59633 61.000
86.61628 46.000
86.63623 50.000
86.65617 60.000
86.67612 52.000
86.69607 45.000
86.71602 46.000
86.73596 48.000
86.75591 66.000
86.77586 73.000
86.79580 61.000
86.81575 45.000
86.83570 39.000
86.85564 47.000
86.87559 54.000
86.89554 46.000
86.91548 59.000
86.93543 68.000
86.95538 71.000
86.97533 67.000
86.99527 64.000
87.01522 75.000
87.03517 67.000
87.05511 56.000
87.07506 63.000
87.09501 64.000
87.11495 66.000
87.13490 73.000
87.15485 70.000
87.17480 65.000
87.19474 69.000
87.21469 62.000
87.23464 63.000
87.25458 72.000
87.27453 59.000
87.29448 65.000
87.31442 59.000
87.33437 73.000
87.35432 64.000
87.37426 64.000
87.39421 65.000
87.41416 63.000
87.43411 55.000
87.45405 53.000
87.47400 42.000
87.49395 57.000
87.51389 59.000
87.53384 49.000
87.55379 48.000
87.57373 48.000
87.59368 48.000
87.61363 61.000
87.63358 44.000
87.65352 51.000
87.67347 47.000
87.69342 35.000
87.71336 42.000
87.73331 50.000
87.75326 45.000
87.77320 42.000
87.79315 49.000
87.81310 38.000
87.83304 35.000
87.85299 42.000
87.87294 39.000
87.89289 27.000
87.91283 45.000
87.93278 44.000
87.95273 41.000
87.97267 38.000
87.99262 43.000
88.01257 34.000
88.03251 46.000
88.05246 38.000
88.07241 42.000
88.09236 49.000
88.11230 28.000
88.13225 43.000
88.15220 39.000
88.17214 39.000
88.19209 46.000
88.21204 42.000
88.23198 40.000
88.25193 32.000
88.27188 30.000
88.29183 43.000
88.31177 43.000
88.33172 37.000
88.35167 28.000
88.37161 37.000
88.39156 34.000
88.41151 44.000
88.43145 47.000
88.45140 44.000
88.47135 40.000
88.49129 44.000
88.51124 29.000
88.53119 33.000
88.55114 50.000
88.57108 50.000
88.59103 41.000
88.61098 45.000
88.63092 29.000
88.65087 30.000
88.67082 34.000
88.69076 38.000
88.71071 37.000
88.73066 38.000
88.75061 40.000
88.77055 37.000
88.79050 51.000
88.81045 46.000
88.83039 24.000
88.85034 37.000
88.87029 49.000
88.89023 58.000
88.91018 33.000
88.93013 41.000
88.95007 31.000
88.97002 40.000
88.98997 62.000
89.00992 46.000
89.02986 42.000
89.04981 36.000
89.06976 45.000
89.08970 44.000
89.10965 23.000
89.12960 43.000
89.14954 31.000
89.16949 40.000
89.18944 45.000
89.20939 39.000
89.22933 47.000
89.24928 45.000
89.26923 39.000
89.28917 46.000
89.30912 36.000
89.32907 43.000
89.34901 36.000
89.36896 58.000
89.38891 46.000
89.40885 42.000
89.42880 47.000
89.44875 47.000
89.46870 46.000
89.48864 57.000
89.50859 66.000
89.52854 54.000
89.54848 57.000
89.56843 55.000
89.58838 61.000
89.60832 79.000
89.62827 70.000
89.64822 87.000
89.66817 72.000
89.68811 85.000
89.70806 82.000
89.72801 85.000
89.74795 77.000
89.76790 99.000
89.78785 106.000
89.80779 90.000
89.82774 131.000
89.84769 118.000
89.86764 131.000
89.88758 116.000
89.90753 122.000
89.92748 133.000
89.94742 136.000
89.96737 158.000
89.98732 159.000
90.00726 132.000
