10.00000 307.000
10.01995 300.000
10.03989 298.000
10.05984 291.000
10.07979 264.000
10.09973 297.000
10.11968 279.000
10.13963 273.000
10.15958 298.000
10.17952 327.000
10.19947 305.000
10.21942 275.000
10.23936 282.000
10.25931 302.000
10.27926 303.000
10.29920 276.000
10.31915 311.000
10.33910 302.000
10.35905 301.000
10.37899 278.000
10.39894 289.000
10.41889 292.000
10.43883 289.000
10.45878 282.000
10.47873 275.000
10.49867 279.000
10.51862 282.000
10.53857 281.000
10.55851 305.000
10.57846 306.000
10.59841 256.000
10.61836 309.000
10.63830 316.000
10.65825 299.000
10.67820 294.000
10.69814 292.000
10.71809 280.000
10.73804 309.000
10.75798 315.000
10.77793 293.000
10.79788 310.000
10.81783 295.000
10.83777 289.000
10.85772 255.000
10.87767 303.000
10.89761 304.000
10.91756 283.000
10.93751 288.000
10.95745 329.000
10.97740 278.000
10.99735 283.000
11.01730 271.000
11.03724 292.000
11.05719 259.000
11.07714 283.000
11.09708 330.000
11.11703 278.000
11.13698 280.000
11.15692 298.000
11.17687 327.000
11.19682 307.000
11.21676 326.000
11.23671 338.000
11.25666 298.000
11.27661 297.000
11.29655 284.000
11.31650 289.000
11.33645 295.000
11.35639 292.000
11.37634 281.000
11.39629 283.000
11.41623 279.000
11.43618 320.000
11.45613 296.000
11.47608 315.000
11.49602 313.000
11.51597 290.000
11.53592 279.000
11.55586 315.000
11.57581 286.000
11.59576 308.000
11.61570 271.000
11.63565 313.000
11.65560 297.000
11.67554 286.000
11.69549 294.000
11.71544 276.000
11.73539 328.000
11.75533 296.000
11.77528 293.000
11.79523 280.000
11.81517 300.000
11.83512 294.000
11.85507 317.000
11.87501 309.000
11.89496 303.000
11.91491 299.000
11.93486 311.000
11.95480 291.000
11.97475 293.000
11.99470 284.000
12.01464 283.000
12.03459 299.000
12.05454 316.000
12.07448 282.000
12.09443 282.000
12.11438 299.000
12.13432 265.000
12.15427 310.000
12.17422 303.000
12.19417 308.000
12.21411 295.000
12.23406 281.000
12.25401 283.000
12.27395 283.000
12.29390 289.000
12.31385 287.000
12.33379 296.000
12.35374 276.000
12.37369 287.000
12.39364 306.000
12.41358 298.000
12.43353 297.000
12.45348 307.000
12.47342 284.000
12.49337 269.000
12.51332 295.000
12.53326 298.000
12.55321 316.000
12.57316 314.000
12.59311 309.000
12.61305 284.000
12.63300 294.000
12.65295 293.000
12.67289 287.000
12.69284 301.000
12.71279 308.000
12.73273 315.000
12.75268 299.000
12.77263 291.000
12.79257 302.000
12.81252 291.000
12.83247 324.000
12.85242 304.000
12.87236 273.000
12.89231 277.000
12.91226 287.000
12.93220 304.000
12.95215 313.000
12.97210 303.000
12.99204 290.000
13.01199 286.000
13.03194 269.000
13.05189 294.000
13.07183 319.000
13.09178 326.000
13.11173 296.000
13.13167 308.000
13.15162 305.000
13.17157 332.000
13.19151 294.000
13.21146 303.000
13.23141 331.000
13.25135 321.000
13.27130 306.000
13.29125 279.000
13.31120 282.000
13.33114 275.000
13.35109 282.000
13.37104 285.000
13.39098 293.000
13.41093 303.000
13.43088 318.000
13.45082 312.000
13.47077 326.000
13.49072 318.000
13.51067 287.000
13.53061 309.000
13.55056 323.000
13.57051 287.000
13.59045 288.000
13.61040 318.000
13.63035 337.000
13.65029 303.000
13.67024 292.000
13.69019 313.000
13.71013 299.000
13.73008 289.000
13.75003 319.000
13.76998 307.000
13.78992 322.000
13.80987 296.000
13.82982 312.000
13.84976 299.000
13.86971 297.000
13.88966 306.000
13.90960 322.000
13.92955 300.000
13.94950 297.000
13.96945 316.000
13.98939 333.000
14.00934 346.000
14.02929 310.000
14.04923 300.000
14.06918 313.000
14.08913 304.000
14.10907 313.000
14.12902 313.000
14.14897 333.000
14.16892 323.000
14.18886 322.000
14.20881 320.000
14.22876 294.000
14.24870 306.000
14.26865 262.000
14.28860 319.000
14.30854 306.000
14.32849 290.000
14.34844 328.000
14.36838 313.000
14.38833 328.000
14.40828 295.000
14.42823 279.000
14.44817 318.000
14.46812 296.000
14.48807 329.000
14.50801 310.000
14.52796 305.000
14.54791 321.000
14.56785 264.000
14.58780 304.000
14.60775 330.000
14.62770 323.000
14.64764 325.000
14.66759 295.000
14.68754 304.000
14.70748 319.000
14.72743 303.000
14.74738 285.000
14.76732 301.000
14.78727 320.000
14.80722 314.000
14.82716 320.000
14.84711 308.000
14.86706 308.000
14.88701 288.000
14.90695 298.000
14.92690 331.000
14.94685 331.000
14.96679 313.000
14.98674 304.000
15.00669 310.000
15.02663 343.000
15.04658 331.000
15.06653 326.000
15.08648 296.000
15.10642 288.000
15.12637 309.000
15.14632 332.000
15.16626 339.000
15.18621 323.000
15.20616 340.000
15.22610 299.000
15.24605 317.000
15.26600 323.000
15.28594 326.000
15.30589 315.000
15.32584 371.000
15.34579 353.000
15.36573 327.000
15.38568 361.000
15.40563 321.000
15.42557 329.000
15.44552 385.000
15.46547 372.000
15.48541 360.000
15.50536 334.000
15.52531 405.000
15.54526 361.000
15.56520 421.000
15.58515 364.000
15.60510 465.000
15.62504 414.000
15.64499 441.000
15.66494 465.000
15.68488 503.000
15.70483 537.000
15.72478 631.000
15.74472 788.000
15.76467 1034.000
15.78462 1392.000
15.80457 2179.000
15.82451 3127.000
15.84446 4499.000
15.86441 5623.000
15.88435 6047.000
15.90430 5869.000
15.92425 4807.000
15.94419 3063.000
15.96414 1934.000
15.98409 1133.000
16.00404 760.000
16.02398 543.000
16.04393 520.000
16.06388 503.000
16.08382 444.000
16.10377 430.000
16.12372 391.000
16.14366 390.000
16.16361 359.000
16.18356 410.000
16.20351 364.000
16.22345 397.000
16.24340 334.000
16.26335 386.000
16.28329 344.000
16.30324 352.000
16.32319 341.000
16.34313 321.000
16.36308 366.000
16.38303 291.000
16.40297 319.000
16.42292 313.000
16.44287 338.000
16.46282 335.000
16.48276 343.000
16.50271 344.000
16.52266 350.000
16.54260 293.000
16.56255 336.000
16.58250 314.000
16.60244 354.000
16.62239 337.000
16.64234 337.000
16.66229 364.000
16.68223 325.000
16.70218 326.000
16.72213 340.000
16.74207 354.000
16.76202 360.000
16.78197 374.000
16.80191 460.000
16.82186 503.000
16.84181 511.000
16.86175 537.000
16.88170 515.000
16.90165 504.000
16.92160 434.000
16.94154 372.000
16.96149 404.000
16.98144 324.000
17.00138 309.000
17.02133 321.000
17.04128 305.000
17.06122 292.000
17.08117 324.000
17.10112 311.000
17.12107 302.000
17.14101 305.000
17.16096 323.000
17.18091 324.000
17.20085 297.000
17.22080 302.000
17.24075 322.000
17.26069 326.000
17.28064 291.000
17.30059 305.000
17.32053 345.000
17.34048 319.000
17.36043 308.000
17.38038 316.000
17.40032 305.000
17.42027 291.000
17.44022 315.000
17.46016 310.000
17.48011 283.000
17.50006 311.000
17.52000 306.000
17.53995 326.000
17.55990 294.000
17.57985 336.000
17.59979 319.000
17.61974 312.000
17.63969 329.000
17.65963 316.000
17.67958 315.000
17.69953 313.000
17.71947 305.000
17.73942 300.000
17.75937 338.000
17.77932 307.000
17.79926 317.000
17.81921 298.000
17.83916 331.000
17.85910 294.000
17.87905 294.000
17.89900 297.000
17.91894 318.000
17.93889 319.000
17.95884 330.000
17.97878 305.000
17.99873 325.000
18.01868 307.000
18.03863 288.000
18.05857 299.000
18.07852 313.000
18.09847 311.000
18.11841 311.000
18.13836 319.000
18.15831 291.000
18.17825 315.000
18.19820 305.000
18.21815 311.000
18.23810 303.000
18.25804 327.000
18.27799 291.000
18.29794 302.000
18.31788 291.000
18.33783 342.000
18.35778 305.000
18.37772 313.000
18.39767 310.000
18.41762 277.000
18.43756 269.000
18.45751 322.000
18.47746 349.000
18.49741 290.000
18.51735 318.000
18.53730 354.000
18.55725 337.000
18.57719 292.000
18.59714 320.000
18.61709 307.000
18.63703 330.000
18.65698 305.000
18.67693 320.000
18.69688 307.000
18.71682 306.000
18.73677 334.000
18.75672 297.000
18.77666 330.000
18.79661 296.000
18.81656 323.000
18.83650 325.000
18.85645 318.000
18.87640 317.000
18.89634 311.000
18.91629 307.000
18.93624 341.000
18.95619 325.000
18.97613 330.000
18.99608 328.000
19.01603 299.000
19.03597 300.000
19.05592 324.000
19.07587 306.000
19.09581 312.000
19.11576 319.000
19.13571 310.000
19.15566 316.000
19.17560 306.000
19.19555 313.000
19.21550 314.000
19.23544 321.000
19.25539 323.000
19.27534 317.000
19.29528 343.000
19.31523 299.000
19.33518 293.000
19.35513 317.000
19.37507 314.000
19.39502 299.000
19.41497 302.000
19.43491 333.000
19.45486 313.000
19.47481 310.000
19.49475 295.000
19.51470 319.000
19.53465 322.000
19.55459 301.000
19.57454 303.000
19.59449 299.000
19.61444 329.000
19.63438 313.000
19.65433 329.000
19.67428 311.000
19.69422 314.000
19.71417 331.000
19.73412 307.000
19.75406 309.000
19.77401 290.000
19.79396 302.000
19.81391 321.000
19.83385 283.000
19.85380 300.000
19.87375 278.000
19.89369 295.000
19.91364 341.000
19.93359 308.000
19.95353 318.000
19.97348 316.000
19.99343 289.000
20.01337 301.000
20.03332 325.000
20.05327 312.000
20.07322 287.000
20.09316 265.000
20.11311 292.000
20.13306 303.000
20.15300 323.000
20.17295 321.000
20.19290 334.000
20.21284 363.000
20.23279 354.000
20.25274 297.000
20.27269 317.000
20.29263 323.000
20.31258 303.000
20.33253 336.000
20.35247 341.000
20.37242 338.000
20.39237 287.000
20.41231 322.000
20.43226 352.000
20.45221 288.000
20.47215 323.000
20.49210 339.000
20.51205 304.000
20.53200 343.000
20.55194 312.000
20.57189 329.000
20.59184 330.000
20.61178 328.000
20.63173 329.000
20.65168 354.000
20.67162 322.000
20.69157 355.000
20.71152 310.000
20.73147 321.000
20.75141 342.000
20.77136 358.000
20.79131 345.000
20.81125 355.000
20.83120 330.000
20.85115 349.000
20.87109 348.000
20.89104 358.000
20.91099 357.000
20.93094 416.000
20.95088 382.000
20.97083 396.000
20.99078 439.000
21.01072 464.000
21.03067 432.000
21.05062 476.000
21.07056 439.000
21.09051 486.000
21.11046 467.000
21.13040 470.000
21.15035 417.000
21.17030 428.000
21.19025 463.000
21.21019 405.000
21.23014 411.000
21.25009 361.000
21.27003 349.000
21.28998 369.000
21.30993 340.000
21.32987 332.000
21.34982 328.000
21.36977 351.000
21.38972 340.000
21.40966 307.000
21.42961 304.000
21.44956 343.000
21.46950 298.000
21.48945 307.000
21.50940 328.000
21.52934 337.000
21.54929 310.000
21.56924 314.000
21.58918 292.000
21.60913 332.000
21.62908 328.000
21.64903 273.000
21.66897 302.000
21.68892 301.000
21.70887 325.000
21.72881 308.000
21.74876 339.000
21.76871 345.000
21.78865 334.000
21.80860 283.000
21.82855 298.000
21.84850 343.000
21.86844 324.000
21.88839 339.000
21.90834 323.000
21.92828 339.000
21.94823 312.000
21.96818 299.000
21.98812 325.000
22.00807 334.000
22.02802 286.000
22.04796 330.000
22.06791 302.000
22.08786 316.000
22.10781 328.000
22.12775 299.000
22.14770 335.000
22.16765 332.000
22.18759 343.000
22.20754 330.000
22.22749 330.000
22.24743 307.000
22.26738 346.000
22.28733 316.000
22.30728 335.000
22.32722 326.000
22.34717 327.000
22.36712 362.000
22.38706 336.000
22.40701 340.000
22.42696 339.000
22.44690 317.000
22.46685 335.000
22.48680 300.000
22.50675 322.000
22.52669 280.000
22.54664 315.000
22.56659 323.000
22.58653 318.000
22.60648 315.000
22.62643 336.000
22.64637 318.000
22.66632 309.000
22.68627 316.000
22.70621 333.000
22.72616 306.000
22.74611 332.000
22.76606 304.000
22.78600 323.000
22.80595 320.000
22.82590 302.000
22.84584 311.000
22.86579 318.000
22.88574 336.000
22.90568 327.000
22.92563 315.000
22.94558 311.000
22.96553 328.000
22.98547 330.000
23.00542 343.000
23.02537 340.000
23.04531 329.000
23.06526 353.000
23.08521 367.000
23.10515 363.000
23.12510 350.000
23.14505 313.000
23.16499 308.000
23.18494 328.000
23.20489 367.000
23.22484 327.000
23.24478 309.000
23.26473 333.000
23.28468 318.000
23.30462 307.000
23.32457 335.000
23.34452 308.000
23.36446 337.000
23.38441 330.000
23.40436 280.000
23.42431 320.000
23.44425 287.000
23.46420 316.000
23.48415 334.000
23.50409 315.000
23.52404 296.000
23.54399 334.000
23.56393 340.000
23.58388 323.000
23.60383 302.000
23.62377 307.000
23.64372 329.000
23.66367 318.000
23.68362 353.000
23.70356 290.000
23.72351 331.000
23.74346 326.000
23.76340 311.000
23.78335 333.000
23.80330 327.000
23.82324 289.000
23.84319 332.000
23.86314 311.000
23.88309 315.000
23.90303 314.000
23.92298 320.000
23.94293 287.000
23.96287 305.000
23.98282 326.000
24.00277 307.000
24.02271 328.000
24.04266 323.000
24.06261 314.000
24.08256 321.000
24.10250 318.000
24.12245 302.000
24.14240 348.000
24.16234 316.000
24.18229 307.000
24.20224 330.000
24.22218 317.000
24.24213 316.000
24.26208 303.000
24.28202 333.000
24.30197 340.000
24.32192 375.000
24.34187 316.000
24.36181 343.000
24.38176 298.000
24.40171 323.000
24.42165 330.000
24.44160 316.000
24.46155 308.000
24.48149 339.000
24.50144 348.000
24.52139 340.000
24.54134 306.000
24.56128 320.000
24.58123 320.000
24.60118 332.000
24.62112 318.000
24.64107 343.000
24.66102 327.000
24.68096 304.000
24.70091 328.000
24.72086 355.000
24.74080 336.000
24.76075 317.000
24.78070 330.000
24.80065 330.000
24.82059 320.000
24.84054 342.000
24.86049 306.000
24.88043 306.000
24.90038 362.000
24.92033 366.000
24.94027 406.000
24.96022 385.000
24.98017 382.000
25.00012 420.000
25.02006 421.000
25.04001 399.000
25.05996 412.000
25.07990 386.000
25.09985 365.000
25.11980 368.000
25.13974 346.000
25.15969 323.000
25.17964 342.000
25.19958 314.000
25.21953 310.000
25.23948 337.000
25.25943 343.000
25.27937 319.000
25.29932 354.000
25.31927 325.000
25.33921 342.000
25.35916 338.000
25.37911 290.000
25.39905 352.000
25.41900 344.000
25.43895 351.000
25.45890 326.000
25.47884 357.000
25.49879 328.000
25.51874 350.000
25.53868 317.000
25.55863 348.000
25.57858 346.000
25.59852 327.000
25.61847 293.000
25.63842 314.000
25.65837 347.000
25.67831 344.000
25.69826 358.000
25.71821 347.000
25.73815 318.000
25.75810 340.000
25.77805 324.000
25.79799 356.000
25.81794 328.000
25.83789 310.000
25.85783 329.000
25.87778 340.000
25.89773 346.000
25.91768 321.000
25.93762 322.000
25.95757 310.000
25.97752 328.000
25.99746 311.000
26.01741 327.000
26.03736 330.000
26.05730 302.000
26.07725 323.000
26.09720 325.000
26.11715 344.000
26.13709 326.000
26.15704 361.000
26.17699 358.000
26.19693 337.000
26.21688 317.000
26.23683 294.000
26.25677 328.000
26.27672 336.000
26.29667 312.000
26.31661 334.000
26.33656 306.000
26.35651 335.000
26.37646 347.000
26.39640 298.000
26.41635 336.000
26.43630 304.000
26.45624 277.000
26.47619 377.000
26.49614 298.000
26.51608 323.000
26.53603 341.000
26.55598 353.000
26.57593 339.000
26.59587 312.000
26.61582 347.000
26.63577 339.000
26.65571 345.000
26.67566 312.000
26.69561 354.000
26.71555 300.000
26.73550 335.000
26.75545 313.000
26.77539 328.000
26.79534 333.000
26.81529 330.000
26.83524 326.000
26.85518 303.000
26.87513 337.000
26.89508 325.000
26.91502 311.000
26.93497 338.000
26.95492 318.000
26.97486 321.000
26.99481 367.000
27.01476 326.000
27.03471 348.000
27.05465 313.000
27.07460 365.000
27.09455 345.000
27.11449 377.000
27.13444 345.000
27.15439 392.000
27.17433 336.000
27.19428 370.000
27.21423 403.000
27.23417 377.000
27.25412 389.000
27.27407 360.000
27.29402 376.000
27.31396 392.000
27.33391 344.000
27.35386 320.000
27.37380 300.000
27.39375 344.000
27.41370 335.000
27.43364 330.000
27.45359 337.000
27.47354 353.000
27.49349 317.000
27.51343 345.000
27.53338 313.000
27.55333 315.000
27.57327 356.000
27.59322 335.000
27.61317 314.000
27.63311 322.000
27.65306 316.000
27.67301 325.000
27.69296 309.000
27.71290 371.000
27.73285 337.000
27.75280 315.000
27.77274 330.000
27.79269 362.000
27.81264 323.000
27.83258 298.000
27.85253 347.000
27.87248 332.000
27.89242 314.000
27.91237 354.000
27.93232 302.000
27.95227 347.000
27.97221 326.000
27.99216 339.000
28.01211 334.000
28.03205 335.000
28.05200 355.000
28.07195 333.000
28.09189 336.000
28.11184 359.000
28.13179 330.000
28.15174 345.000
28.17168 353.000
28.19163 365.000
28.21158 359.000
28.23152 344.000
28.25147 344.000
28.27142 378.000
28.29136 394.000
28.31131 384.000
28.33126 354.000
28.35120 359.000
28.37115 369.000
28.39110 347.000
28.41105 381.000
28.43099 346.000
28.45094 413.000
28.47089 370.000
28.49083 389.000
28.51078 357.000
28.53073 393.000
28.55067 375.000
28.57062 354.000
28.59057 338.000
28.61052 378.000
28.63046 339.000
28.65041 360.000
28.67036 354.000
28.69030 382.000
28.71025 367.000
28.73020 390.000
28.75014 354.000
28.77009 393.000
28.79004 340.000
28.80998 344.000
28.82993 378.000
28.84988 343.000
28.86983 358.000
28.88977 358.000
28.90972 335.000
28.92967 329.000
28.94961 364.000
28.96956 350.000
28.98951 361.000
29.00945 339.000
29.02940 341.000
29.04935 358.000
29.06930 326.000
29.08924 387.000
29.10919 379.000
29.12914 336.000
29.14908 376.000
29.16903 401.000
29.18898 368.000
29.20892 418.000
29.22887 389.000
29.24882 407.000
29.26877 473.000
29.28871 516.000
29.30866 600.000
29.32861 654.000
29.34855 782.000
29.36850 800.000
29.38845 820.000
29.40839 865.000
29.42834 856.000
29.44829 766.000
29.46823 686.000
29.48818 659.000
29.50813 554.000
29.52808 532.000
29.54802 472.000
29.56797 443.000
29.58792 441.000
29.60786 441.000
29.62781 408.000
29.64776 426.000
29.66770 379.000
29.68765 382.000
29.70760 357.000
29.72755 351.000
29.74749 349.000
29.76744 359.000
29.78739 374.000
29.80733 353.000
29.82728 351.000
29.84723 378.000
29.86717 327.000
29.88712 369.000
29.90707 364.000
29.92701 383.000
29.94696 362.000
29.96691 350.000
29.98686 360.000
30.00680 352.000
30.02675 322.000
30.04670 356.000
30.06664 373.000
30.08659 351.000
30.10654 387.000
30.12648 390.000
30.14643 351.000
30.16638 341.000
30.18633 322.000
30.20627 348.000
30.22622 362.000
30.24617 328.000
30.26611 340.000
30.28606 371.000
30.30601 394.000
30.32595 395.000
30.34590 393.000
30.36585 365.000
30.38579 343.000
30.40574 356.000
30.42569 346.000
30.44564 356.000
30.46558 369.000
30.48553 348.000
30.50548 340.000
30.52542 328.000
30.54537 342.000
30.56532 367.000
30.58526 322.000
30.60521 363.000
30.62516 322.000
30.64511 316.000
30.66505 348.000
30.68500 362.000
30.70495 348.000
30.72489 371.000
30.74484 356.000
30.76479 378.000
30.78473 348.000
30.80468 355.000
30.82463 376.000
30.84458 362.000
30.86452 386.000
30.88447 385.000
30.90442 360.000
30.92436 341.000
30.94431 387.000
30.96426 353.000
30.98420 382.000
31.00415 348.000
31.02410 348.000
31.04404 330.000
31.06399 335.000
31.08394 381.000
31.10389 335.000
31.12383 334.000
31.14378 337.000
31.16373 349.000
31.18367 310.000
31.20362 366.000
31.22357 368.000
31.24351 339.000
31.26346 357.000
31.28341 349.000
31.30336 321.000
31.32330 337.000
31.34325 354.000
31.36320 324.000
31.38314 370.000
31.40309 400.000
31.42304 334.000
31.44298 354.000
31.46293 366.000
31.48288 345.000
31.50282 321.000
31.52277 347.000
31.54272 340.000
31.56267 391.000
31.58261 352.000
31.60256 362.000
31.62251 355.000
31.64245 356.000
31.66240 383.000
31.68235 347.000
31.70229 359.000
31.72224 391.000
31.74219 405.000
31.76214 373.000
31.78208 372.000
31.80203 349.000
31.82198 387.000
31.84192 356.000
31.86187 374.000
31.88182 378.000
31.90176 378.000
31.92171 445.000
31.94166 446.000
31.96160 469.000
31.98155 552.000
32.00150 582.000
32.02145 750.000
32.04139 828.000
32.06134 923.000
32.08129 912.000
32.10123 812.000
32.12118 768.000
32.14113 660.000
32.16107 607.000
32.18102 546.000
32.20097 471.000
32.22092 415.000
32.24086 386.000
32.26081 405.000
32.28076 370.000
32.30070 333.000
32.32065 342.000
32.34060 374.000
32.36054 305.000
32.38049 356.000
32.40044 355.000
32.42039 339.000
32.44033 366.000
32.46028 337.000
32.48023 402.000
32.50017 348.000
32.52012 376.000
32.54007 386.000
32.56001 397.000
32.57996 356.000
32.59991 343.000
32.61985 363.000
32.63980 345.000
32.65975 381.000
32.67970 323.000
32.69964 355.000
32.71959 353.000
32.73954 381.000
32.75948 339.000
32.77943 350.000
32.79938 351.000
32.81932 350.000
32.83927 353.000
32.85922 330.000
32.87917 337.000
32.89911 368.000
32.91906 368.000
32.93901 358.000
32.95895 305.000
32.97890 354.000
32.99885 369.000
33.01879 358.000
33.03874 333.000
33.05869 348.000
33.07863 348.000
33.09858 350.000
33.11853 350.000
33.13848 375.000
33.15842 334.000
33.17837 353.000
33.19832 356.000
33.21826 364.000
33.23821 336.000
33.25816 330.000
33.27810 396.000
33.29805 321.000
33.31800 348.000
33.33795 336.000
33.35789 339.000
33.37784 399.000
33.39779 355.000
33.41773 325.000
33.43768 357.000
33.45763 360.000
33.47757 377.000
33.49752 388.000
33.51747 407.000
33.53741 345.000
33.55736 383.000
33.57731 367.000
33.59726 370.000
33.61720 367.000
33.63715 385.000
33.65710 372.000
33.67704 395.000
33.69699 393.000
33.71694 378.000
33.73688 372.000
33.75683 348.000
33.77678 367.000
33.79673 412.000
33.81667 350.000
33.83662 372.000
33.85657 319.000
33.87651 377.000
33.89646 370.000
33.91641 371.000
33.93635 373.000
33.95630 363.000
33.97625 365.000
33.99620 363.000
34.01614 341.000
34.03609 383.000
34.05604 393.000
34.07598 392.000
34.09593 337.000
34.11588 387.000
34.13582 360.000
34.15577 389.000
34.17572 375.000
34.19566 360.000
34.21561 375.000
34.23556 367.000
34.25551 360.000
34.27545 388.000
34.29540 375.000
34.31535 353.000
34.33529 391.000
34.35524 394.000
34.37519 392.000
34.39513 388.000
34.41508 383.000
34.43503 407.000
34.45498 435.000
34.47492 395.000
34.49487 407.000
34.51482 390.000
34.53476 431.000
34.55471 376.000
34.57466 415.000
34.59460 407.000
34.61455 417.000
34.63450 445.000
34.65444 467.000
34.67439 481.000
34.69434 471.000
34.71429 501.000
34.73423 504.000
34.75418 551.000
34.77413 582.000
34.79407 613.000
34.81402 683.000
34.83397 686.000
34.85391 639.000
34.87386 694.000
34.89381 637.000
34.91376 637.000
34.93370 558.000
34.95365 492.000
34.97360 504.000
34.99354 502.000
35.01349 440.000
35.03344 446.000
35.05338 406.000
35.07333 398.000
35.09328 400.000
35.11322 375.000
35.13317 378.000
35.15312 382.000
35.17307 385.000
35.19301 394.000
35.21296 388.000
35.23291 391.000
35.25285 389.000
35.27280 351.000
35.29275 433.000
35.31269 394.000
35.33264 366.000
35.35259 446.000
35.37254 428.000
35.39248 414.000
35.41243 407.000
35.43238 401.000
35.45232 478.000
35.47227 450.000
35.49222 475.000
35.51216 444.000
35.53211 472.000
35.55206 507.000
35.57201 463.000
35.59195 475.000
35.61190 508.000
35.63185 463.000
35.65179 483.000
35.67174 484.000
35.69169 522.000
35.71163 495.000
35.73158 474.000
35.75153 492.000
35.77147 552.000
35.79142 604.000
35.81137 661.000
35.83132 697.000
35.85126 766.000
35.87121 808.000
35.89116 869.000
35.91110 885.000
35.93105 877.000
35.95100 791.000
35.97094 708.000
35.99089 672.000
36.01084 689.000
36.03079 609.000
36.05073 512.000
36.07068 453.000
36.09063 477.000
36.11057 454.000
36.13052 429.000
36.15047 419.000
36.17041 406.000
36.19036 422.000
36.21031 401.000
36.23025 427.000
36.25020 416.000
36.27015 436.000
36.29010 412.000
36.31004 439.000
36.32999 462.000
36.34994 460.000
36.36988 485.000
36.38983 451.000
36.40978 445.000
36.42972 432.000
36.44967 419.000
36.46962 443.000
36.48957 446.000
36.50951 445.000
36.52946 452.000
36.54941 425.000
36.56935 454.000
36.58930 413.000
36.60925 490.000
36.62919 447.000
36.64914 483.000
36.66909 486.000
36.68903 449.000
36.70898 468.000
36.72893 478.000
36.74888 476.000
36.76882 512.000
36.78877 528.000
36.80872 499.000
36.82866 586.000
36.84861 650.000
36.86856 670.000
36.88850 664.000
36.90845 724.000
36.92840 852.000
36.94835 907.000
36.96829 1028.000
36.98824 1228.000
37.00819 1616.000
37.02813 2250.000
37.04808 3101.000
37.06803 4478.000
37.08797 5852.000
37.10792 6970.000
37.12787 7380.000
37.14781 7231.000
37.16776 6707.000
37.18771 6003.000
37.20766 5389.000
37.22760 4703.000
37.24755 4007.000
37.26750 3117.000
37.28744 2296.000
37.30739 1702.000
37.32734 1304.000
37.34728 1037.000
37.36723 855.000
37.38718 758.000
37.40713 723.000
37.42707 667.000
37.44702 619.000
37.46697 558.000
37.48691 598.000
37.50686 542.000
37.52681 584.000
37.54675 532.000
37.56670 536.000
37.58665 537.000
37.60660 499.000
37.62654 482.000
37.64649 454.000
37.66644 455.000
37.68638 436.000
37.70633 438.000
37.72628 434.000
37.74622 392.000
37.76617 435.000
37.78612 415.000
37.80606 453.000
37.82601 400.000
37.84596 381.000
37.86591 375.000
37.88585 395.000
37.90580 405.000
37.92575 374.000
37.94569 414.000
37.96564 406.000
37.98559 379.000
38.00553 398.000
38.02548 375.000
38.04543 418.000
38.06538 390.000
38.08532 406.000
38.10527 386.000
38.12522 402.000
38.14516 387.000
38.16511 416.000
38.18506 411.000
38.20500 364.000
38.22495 405.000
38.24490 415.000
38.26484 381.000
38.28479 410.000
38.30474 398.000
38.32469 387.000
38.34463 413.000
38.36458 408.000
38.38453 410.000
38.40447 435.000
38.42442 405.000
38.44437 399.000
38.46431 386.000
38.48426 361.000
38.50421 432.000
38.52416 417.000
38.54410 393.000
38.56405 402.000
38.58400 427.000
38.60394 396.000
38.62389 445.000
38.64384 409.000
38.66378 442.000
38.68373 458.000
38.70368 452.000
38.72362 479.000
38.74357 445.000
38.76352 491.000
38.78347 497.000
38.80341 482.000
38.82336 501.000
38.84331 463.000
38.86325 459.000
38.88320 452.000
38.90315 490.000
38.92309 490.000
38.94304 474.000
38.96299 482.000
38.98294 453.000
39.00288 438.000
39.02283 447.000
39.04278 424.000
39.06272 465.000
39.08267 500.000
39.10262 470.000
39.12256 442.000
39.14251 468.000
39.16246 387.000
39.18241 428.000
39.20235 407.000
39.22230 458.000
39.24225 479.000
39.26219 504.000
39.28214 512.000
39.30209 537.000
39.32203 601.000
39.34198 689.000
39.36193 818.000
39.38187 922.000
39.40182 987.000
39.42177 1080.000
39.44172 1188.000
39.46166 1237.000
39.48161 1324.000
39.50156 1212.000
39.52150 1213.000
39.54145 1050.000
39.56140 974.000
39.58134 939.000
39.60129 894.000
39.62124 719.000
39.64119 728.000
39.66113 523.000
39.68108 545.000
39.70103 511.000
39.72097 500.000
39.74092 483.000
39.76087 424.000
39.78081 400.000
39.80076 410.000
39.82071 460.000
39.84065 435.000
39.86060 395.000
39.88055 408.000
39.90050 389.000
39.92044 384.000
39.94039 400.000
39.96034 400.000
39.98028 358.000
40.00023 388.000
40.02018 380.000
40.04012 377.000
40.06007 399.000
40.08002 345.000
40.09997 345.000
40.11991 353.000
40.13986 356.000
40.15981 394.000
40.17975 397.000
40.19970 364.000
40.21965 378.000
40.23959 404.000
40.25954 333.000
40.27949 402.000
40.29943 345.000
40.31938 382.000
40.33933 332.000
40.35928 351.000
40.37922 335.000
40.39917 346.000
40.41912 379.000
40.43906 356.000
40.45901 362.000
40.47896 350.000
40.49890 345.000
40.51885 377.000
40.53880 366.000
40.55875 347.000
40.57869 347.000
40.59864 411.000
40.61859 347.000
40.63853 398.000
40.65848 359.000
40.67843 363.000
40.69837 376.000
40.71832 376.000
40.73827 361.000
40.75822 357.000
40.77816 362.000
40.79811 343.000
40.81806 370.000
40.83800 343.000
40.85795 371.000
40.87790 364.000
40.89784 350.000
40.91779 380.000
40.93774 354.000
40.95768 379.000
40.97763 393.000
40.99758 334.000
41.01753 326.000
41.03747 365.000
41.05742 342.000
41.07737 376.000
41.09731 372.000
41.11726 389.000
41.13721 380.000
41.15715 392.000
41.17710 380.000
41.19705 356.000
41.21700 349.000
41.23694 361.000
41.25689 355.000
41.27684 378.000
41.29678 357.000
41.31673 383.000
41.33668 338.000
41.35662 401.000
41.37657 363.000
41.39652 378.000
41.41646 366.000
41.43641 371.000
41.45636 387.000
41.47631 406.000
41.49625 399.000
41.51620 407.000
41.53615 373.000
41.55609 356.000
41.57604 402.000
41.59599 378.000
41.61593 386.000
41.63588 371.000
41.65583 394.000
41.67578 392.000
41.69572 377.000
41.71567 383.000
41.73562 375.000
41.75556 375.000
41.77551 351.000
41.79546 411.000
41.81540 397.000
41.83535 375.000
41.85530 366.000
41.87524 370.000
41.89519 378.000
41.91514 421.000
41.93509 404.000
41.95503 370.000
41.97498 416.000
41.99493 350.000
42.01487 350.000
42.03482 397.000
42.05477 388.000
42.07471 390.000
42.09466 378.000
42.11461 415.000
42.13456 452.000
42.15450 415.000
42.17445 412.000
42.19440 424.000
42.21434 441.000
42.23429 423.000
42.25424 395.000
42.27418 444.000
42.29413 424.000
42.31408 413.000
42.33403 416.000
42.35397 438.000
42.37392 428.000
42.39387 425.000
42.41381 428.000
42.43376 506.000
42.45371 445.000
42.47365 488.000
42.49360 488.000
42.51355 467.000
42.53349 497.000
42.55344 479.000
42.57339 492.000
42.59334 491.000
42.61328 533.000
42.63323 505.000
42.65318 517.000
42.67312 558.000
42.69307 544.000
42.71302 582.000
42.73296 595.000
42.75291 620.000
42.77286 662.000
42.79281 725.000
42.81275 734.000
42.83270 797.000
42.85265 874.000
42.87259 962.000
42.89254 1097.000
42.91249 1236.000
42.93243 1415.000
42.95238 1653.000
42.97233 1991.000
42.99227 2448.000
43.01222 3081.000
43.03217 3707.000
43.05212 4497.000
43.07206 5495.000
43.09201 6388.000
43.11196 7219.000
43.13190 7532.000
43.15185 7818.000
43.17180 7754.000
43.19174 7489.000
43.21169 7120.000
43.23164 6455.000
43.25159 5778.000
43.27153 4907.000
43.29148 4407.000
43.31143 3669.000
43.33137 3029.000
43.35132 2526.000
43.37127 2010.000
43.39121 1612.000
43.41116 1425.000
43.43111 1186.000
43.45105 1112.000
43.47100 981.000
43.49095 950.000
43.51090 972.000
43.53084 1009.000
43.55079 944.000
43.57074 955.000
43.59068 895.000
43.61063 807.000
43.63058 791.000
43.65052 799.000
43.67047 709.000
43.69042 733.000
43.71037 646.000
43.73031 673.000
43.75026 554.000
43.77021 627.000
43.79015 531.000
43.81010 519.000
43.83005 511.000
43.84999 482.000
43.86994 512.000
43.88989 449.000
43.90984 492.000
43.92978 439.000
43.94973 468.000
43.96968 425.000
43.98962 456.000
44.00957 414.000
44.02952 430.000
44.04946 416.000
44.06941 471.000
44.08936 402.000
44.10930 421.000
44.12925 428.000
44.14920 345.000
44.16915 382.000
44.18909 382.000
44.20904 386.000
44.22899 399.000
44.24893 397.000
44.26888 430.000
44.28883 427.000
44.30877 368.000
44.32872 406.000
44.34867 355.000
44.36862 399.000
44.38856 362.000
44.40851 408.000
44.42846 372.000
44.44840 385.000
44.46835 411.000
44.48830 401.000
44.50824 362.000
44.52819 364.000
44.54814 400.000
44.56808 397.000
44.58803 378.000
44.60798 402.000
44.62793 397.000
44.64787 415.000
44.66782 363.000
44.68777 358.000
44.70771 386.000
44.72766 377.000
44.74761 385.000
44.76755 389.000
44.78750 383.000
44.80745 408.000
44.82740 412.000
44.84734 350.000
44.86729 377.000
44.88724 342.000
44.90718 364.000
44.92713 394.000
44.94708 398.000
44.96702 384.000
44.98697 359.000
45.00692 392.000
45.02686 389.000
45.04681 403.000
45.06676 408.000
45.08671 416.000
45.10665 391.000
45.12660 406.000
45.14655 414.000
45.16649 436.000
45.18644 457.000
45.20639 446.000
45.22633 444.000
45.24628 427.000
45.26623 455.000
45.28618 431.000
45.30612 414.000
45.32607 409.000
45.34602 408.000
45.36596 437.000
45.38591 369.000
45.40586 436.000
45.42580 399.000
45.44575 408.000
45.46570 402.000
45.48565 367.000
45.50559 398.000
45.52554 431.000
45.54549 428.000
45.56543 397.000
45.58538 399.000
45.60533 399.000
45.62527 420.000
45.64522 343.000
45.66517 363.000
45.68511 368.000
45.70506 364.000
45.72501 397.000
45.74496 370.000
45.76490 362.000
45.78485 371.000
45.80480 383.000
45.82474 336.000
45.84469 333.000
45.86464 336.000
45.88458 370.000
45.90453 365.000
45.92448 355.000
45.94443 387.000
45.96437 353.000
45.98432 357.000
46.00427 364.000
46.02421 353.000
46.04416 373.000
46.06411 385.000
46.08405 369.000
46.10400 350.000
46.12395 357.000
46.14389 374.000
46.16384 390.000
46.18379 336.000
46.20374 370.000
46.22368 339.000
46.24363 359.000
46.26358 346.000
46.28352 346.000
46.30347 354.000
46.32342 336.000
46.34336 349.000
46.36331 329.000
46.38326 368.000
46.40321 328.000
46.42315 341.000
46.44310 348.000
46.46305 358.000
46.48299 345.000
46.50294 354.000
46.52289 316.000
46.54283 365.000
46.56278 338.000
46.58273 361.000
46.60267 371.000
46.62262 356.000
46.64257 350.000
46.66252 353.000
46.68246 339.000
46.70241 337.000
46.72236 330.000
46.74230 350.000
46.76225 348.000
46.78220 335.000
46.80214 356.000
46.82209 391.000
46.84204 375.000
46.86199 349.000
46.88193 313.000
46.90188 355.000
46.92183 332.000
46.94177 347.000
46.96172 340.000
46.98167 370.000
47.00161 362.000
47.02156 333.000
47.04151 363.000
47.06146 317.000
47.08140 359.000
47.10135 350.000
47.12130 370.000
47.14124 312.000
47.16119 358.000
47.18114 337.000
47.20108 337.000
47.22103 360.000
47.24098 368.000
47.26092 344.000
47.28087 347.000
47.30082 326.000
47.32077 327.000
47.34071 358.000
47.36066 316.000
47.38061 344.000
47.40055 347.000
47.42050 331.000
47.44045 338.000
47.46039 358.000
47.48034 360.000
47.50029 334.000
47.52024 317.000
47.54018 370.000
47.56013 360.000
47.58008 353.000
47.60002 402.000
47.61997 310.000
47.63992 352.000
47.65986 378.000
47.67981 372.000
47.69976 354.000
47.71970 346.000
47.73965 336.000
47.75960 334.000
47.77955 369.000
47.79949 348.000
47.81944 383.000
47.83939 354.000
47.85933 378.000
47.87928 360.000
47.89923 344.000
47.91917 365.000
47.93912 366.000
47.95907 394.000
47.97902 379.000
47.99896 397.000
48.01891 393.000
48.03886 447.000
48.05880 439.000
48.07875 456.000
48.09870 438.000
48.11864 443.000
48.13859 421.000
48.15854 420.000
48.17848 420.000
48.19843 402.000
48.21838 391.000
48.23833 394.000
48.25827 348.000
48.27822 428.000
48.29817 404.000
48.31811 406.000
48.33806 399.000
48.35801 397.000
48.37795 394.000
48.39790 418.000
48.41785 423.000
48.43780 383.000
48.45774 430.000
48.47769 409.000
48.49764 388.000
48.51758 422.000
48.53753 424.000
48.55748 445.000
48.57742 433.000
48.59737 450.000
48.61732 467.000
48.63726 472.000
48.65721 474.000
48.67716 518.000
48.69711 505.000
48.71705 588.000
48.73700 589.000
48.75695 711.000
48.77689 771.000
48.79684 862.000
48.81679 946.000
48.83673 1046.000
48.85668 1018.000
48.87663 1126.000
48.89658 1018.000
48.91652 1105.000
48.93647 1018.000
48.95642 975.000
48.97636 905.000
48.99631 859.000
49.01626 840.000
49.03620 789.000
49.05615 727.000
49.07610 619.000
49.09605 556.000
49.11599 505.000
49.13594 495.000
49.15589 521.000
49.17583 472.000
49.19578 464.000
49.21573 437.000
49.23567 422.000
49.25562 406.000
49.27557 395.000
49.29551 418.000
49.31546 410.000
49.33541 426.000
49.35536 400.000
49.37530 366.000
49.39525 409.000
49.41520 399.000
49.43514 388.000
49.45509 408.000
49.47504 424.000
49.49498 440.000
49.51493 404.000
49.53488 420.000
49.55483 376.000
49.57477 413.000
49.59472 382.000
49.61467 388.000
49.63461 407.000
49.65456 381.000
49.67451 374.000
49.69445 356.000
49.71440 378.000
49.73435 383.000
49.75429 386.000
49.77424 368.000
49.79419 352.000
49.81414 352.000
49.83408 370.000
49.85403 376.000
49.87398 360.000
49.89392 358.000
49.91387 359.000
49.93382 347.000
49.95376 359.000
49.97371 332.000
49.99366 353.000
50.01361 379.000
50.03355 379.000
50.05350 334.000
50.07345 358.000
50.09339 321.000
50.11334 355.000
50.13329 316.000
50.15323 342.000
50.17318 355.000
50.19313 354.000
50.21307 321.000
50.23302 363.000
50.25297 368.000
50.27292 351.000
50.29286 352.000
50.31281 345.000
50.33276 361.000
50.35270 363.000
50.37265 357.000
50.39260 351.000
50.41254 349.000
50.43249 335.000
50.45244 345.000
50.47239 343.000
50.49233 347.000
50.51228 341.000
50.53223 355.000
50.55217 338.000
50.57212 335.000
50.59207 383.000
50.61201 377.000
50.63196 366.000
50.65191 337.000
50.67186 354.000
50.69180 338.000
50.71175 350.000
50.73170 343.000
50.75164 330.000
50.77159 345.000
50.79154 368.000
50.81148 365.000
50.83143 354.000
50.85138 330.000
50.87132 333.000
50.89127 365.000
50.91122 355.000
50.93117 312.000
50.95111 341.000
50.97106 313.000
50.99101 322.000
51.01095 367.000
51.03090 342.000
51.05085 331.000
51.07079 334.000
51.09074 338.000
51.11069 338.000
51.13064 350.000
51.15058 329.000
51.17053 309.000
51.19048 331.000
51.21042 331.000
51.23037 358.000
51.25032 322.000
51.27026 369.000
51.29021 340.000
51.31016 340.000
51.33010 349.000
51.35005 370.000
51.37000 347.000
51.38995 335.000
51.40989 326.000
51.42984 325.000
51.44979 357.000
51.46973 348.000
51.48968 361.000
51.50963 358.000
51.52957 340.000
51.54952 348.000
51.56947 377.000
51.58942 354.000
51.60936 336.000
51.62931 338.000
51.64926 378.000
51.66920 401.000
51.68915 372.000
51.70910 347.000
51.72904 372.000
51.74899 367.000
51.76894 356.000
51.78888 339.000
51.80883 355.000
51.82878 357.000
51.84873 345.000
51.86867 362.000
51.88862 350.000
51.90857 346.000
51.92851 376.000
51.94846 390.000
51.96841 367.000
51.98835 361.000
52.00830 433.000
52.02825 455.000
52.04820 442.000
52.06814 456.000
52.08809 450.000
52.10804 483.000
52.12798 420.000
52.14793 432.000
52.16788 463.000
52.18782 443.000
52.20777 420.000
52.22772 398.000
52.24767 448.000
52.26761 413.000
52.28756 411.000
52.30751 407.000
52.32745 385.000
52.34740 383.000
52.36735 375.000
52.38729 383.000
52.40724 357.000
52.42719 364.000
52.44713 339.000
52.46708 369.000
52.48703 372.000
52.50698 356.000
52.52692 341.000
52.54687 371.000
52.56682 339.000
52.58676 335.000
52.60671 359.000
52.62666 333.000
52.64660 374.000
52.66655 330.000
52.68650 358.000
52.70645 360.000
52.72639 314.000
52.74634 351.000
52.76629 346.000
52.78623 363.000
52.80618 363.000
52.82613 354.000
52.84607 389.000
52.86602 354.000
52.88597 351.000
52.90591 380.000
52.92586 357.000
52.94581 340.000
52.96576 388.000
52.98570 338.000
53.00565 350.000
53.02560 346.000
53.04554 384.000
53.06549 342.000
53.08544 334.000
53.10538 370.000
53.12533 389.000
53.14528 338.000
53.16523 358.000
53.18517 355.000
53.20512 355.000
53.22507 329.000
53.24501 357.000
53.26496 344.000
53.28491 307.000
53.30485 315.000
53.32480 310.000
53.34475 359.000
53.36469 347.000
53.38464 341.000
53.40459 290.000
53.42454 316.000
53.44448 343.000
53.46443 391.000
53.48438 380.000
53.50432 357.000
53.52427 357.000
53.54422 337.000
53.56416 307.000
53.58411 355.000
53.60406 332.000
53.62401 358.000
53.64395 354.000
53.66390 327.000
53.68385 367.000
53.70379 342.000
53.72374 321.000
53.74369 397.000
53.76363 347.000
53.78358 310.000
53.80353 339.000
53.82348 373.000
53.84342 303.000
53.86337 318.000
53.88332 347.000
53.90326 326.000
53.92321 336.000
53.94316 360.000
53.96310 351.000
53.98305 346.000
54.00300 341.000
54.02294 331.000
54.04289 370.000
54.06284 308.000
54.08279 342.000
54.10273 333.000
54.12268 362.000
54.14263 335.000
54.16257 334.000
54.18252 335.000
54.20247 324.000
54.22241 353.000
54.24236 339.000
54.26231 341.000
54.28226 333.000
54.30220 330.000
54.32215 347.000
54.34210 365.000
54.36204 314.000
54.38199 335.000
54.40194 319.000
54.42188 331.000
54.44183 354.000
54.46178 362.000
54.48172 352.000
54.50167 340.000
54.52162 343.000
54.54157 362.000
54.56151 336.000
54.58146 332.000
54.60141 340.000
54.62135 332.000
54.64130 355.000
54.66125 351.000
54.68119 344.000
54.70114 375.000
54.72109 346.000
54.74104 382.000
54.76098 334.000
54.78093 355.000
54.80088 381.000
54.82082 356.000
54.84077 346.000
54.86072 367.000
54.88066 334.000
54.90061 314.000
54.92056 337.000
54.94050 320.000
54.96045 351.000
54.98040 352.000
55.00035 325.000
55.02029 320.000
55.04024 325.000
55.06019 363.000
55.08013 327.000
55.10008 356.000
55.12003 334.000
55.13997 309.000
55.15992 330.000
55.17987 328.000
55.19982 341.000
55.21976 322.000
55.23971 380.000
55.25966 362.000
55.27960 314.000
55.29955 334.000
55.31950 355.000
55.33944 352.000
55.35939 340.000
55.37934 320.000
55.39929 315.000
55.41923 336.000
55.43918 334.000
55.45913 365.000
55.47907 370.000
55.49902 337.000
55.51897 366.000
55.53891 343.000
55.55886 353.000
55.57881 340.000
55.59875 327.000
55.61870 352.000
55.63865 354.000
55.65860 356.000
55.67854 329.000
55.69849 319.000
55.71844 372.000
55.73838 345.000
55.75833 316.000
55.77828 327.000
55.79822 302.000
55.81817 363.000
55.83812 345.000
55.85807 325.000
55.87801 376.000
55.89796 278.000
55.91791 344.000
55.93785 340.000
55.95780 321.000
55.97775 314.000
55.99769 351.000
56.01764 348.000
56.03759 351.000
56.05753 327.000
56.07748 352.000
56.09743 326.000
56.11738 346.000
56.13732 374.000
56.15727 319.000
56.17722 339.000
56.19716 384.000
56.21711 338.000
56.23706 347.000
56.25700 377.000
56.27695 340.000
56.29690 344.000
56.31685 321.000
56.33679 328.000
56.35674 354.000
56.37669 335.000
56.39663 389.000
56.41658 348.000
56.43653 381.000
56.45647 364.000
56.47642 332.000
56.49637 359.000
56.51631 349.000
56.53626 328.000
56.55621 347.000
56.57616 324.000
56.59610 324.000
56.61605 317.000
56.63600 342.000
56.65594 326.000
56.67589 346.000
56.69584 357.000
56.71578 370.000
56.73573 348.000
56.75568 334.000
56.77563 343.000
56.79557 349.000
56.81552 324.000
56.83547 339.000
56.85541 339.000
56.87536 339.000
56.89531 326.000
56.91525 347.000
56.93520 355.000
56.95515 327.000
56.97510 338.000
56.99504 357.000
57.01499 331.000
57.03494 330.000
57.05488 340.000
57.07483 344.000
57.09478 324.000
57.11472 355.000
57.13467 368.000
57.15462 330.000
57.17456 314.000
57.19451 328.000
57.21446 345.000
57.23441 352.000
57.25435 369.000
57.27430 380.000
57.29425 340.000
57.31419 377.000
57.33414 352.000
57.35409 347.000
57.37403 331.000
57.39398 336.000
57.41393 345.000
57.43388 353.000
57.45382 348.000
57.47377 338.000
57.49372 370.000
57.51366 353.000
57.53361 346.000
57.55356 358.000
57.57350 351.000
57.59345 368.000
57.61340 332.000
57.63334 353.000
57.65329 370.000
57.67324 337.000
57.69319 350.000
57.71313 323.000
57.73308 332.000
57.75303 351.000
57.77297 321.000
57.79292 335.000
57.81287 353.000
57.83281 366.000
57.85276 356.000
57.87271 345.000
57.89266 352.000
57.91260 359.000
57.93255 346.000
57.95250 338.000
57.97244 334.000
57.99239 347.000
58.01234 348.000
58.03228 343.000
58.05223 338.000
58.07218 339.000
58.09212 375.000
58.11207 377.000
58.13202 357.000
58.15197 349.000
58.17191 369.000
58.19186 341.000
58.21181 335.000
58.23175 359.000
58.25170 350.000
58.27165 357.000
58.29159 381.000
58.31154 356.000
58.33149 352.000
58.35144 344.000
58.37138 347.000
58.39133 370.000
58.41128 373.000
58.43122 371.000
58.45117 368.000
58.47112 337.000
58.49106 380.000
58.51101 338.000
58.53096 328.000
58.55090 377.000
58.57085 361.000
58.59080 361.000
58.61075 320.000
58.63069 344.000
58.65064 358.000
58.67059 336.000
58.69053 365.000
58.71048 363.000
58.73043 314.000
58.75037 343.000
58.77032 374.000
58.79027 366.000
58.81022 332.000
58.83016 364.000
58.85011 318.000
58.87006 370.000
58.89000 349.000
58.90995 364.000
58.92990 352.000
58.94984 355.000
58.96979 366.000
58.98974 338.000
59.00969 348.000
59.02963 333.000
59.04958 331.000
59.06953 367.000
59.08947 359.000
59.10942 341.000
59.12937 331.000
59.14931 347.000
59.16926 338.000
59.18921 327.000
59.20915 355.000
59.22910 365.000
59.24905 347.000
59.26900 361.000
59.28894 350.000
59.30889 288.000
59.32884 342.000
59.34878 343.000
59.36873 323.000
59.38868 321.000
59.40862 338.000
59.42857 366.000
59.44852 317.000
59.46847 321.000
59.48841 350.000
59.50836 356.000
59.52831 342.000
59.54825 334.000
59.56820 357.000
59.58815 364.000
59.60809 328.000
59.62804 336.000
59.64799 345.000
59.66793 321.000
59.68788 333.000
59.70783 314.000
59.72778 351.000
59.74772 317.000
59.76767 322.000
59.78762 348.000
59.80756 328.000
59.82751 351.000
59.84746 358.000
59.86740 349.000
59.88735 352.000
59.90730 384.000
59.92725 313.000
59.94719 379.000
59.96714 390.000
59.98709 339.000
60.00703 359.000
60.02698 339.000
60.04693 373.000
60.06687 344.000
60.08682 323.000
60.10677 374.000
60.12671 388.000
60.14666 372.000
60.16661 370.000
60.18656 343.000
60.20650 346.000
60.22645 365.000
60.24640 363.000
60.26634 370.000
60.28629 355.000
60.30624 347.000
60.32618 334.000
60.34613 389.000
60.36608 380.000
60.38603 367.000
60.40597 347.000
60.42592 343.000
60.44587 336.000
60.46581 336.000
60.48576 369.000
60.50571 374.000
60.52565 379.000
60.54560 372.000
60.56555 339.000
60.58550 365.000
60.60544 361.000
60.62539 340.000
60.64534 350.000
60.66528 330.000
60.68523 359.000
60.70518 370.000
60.72512 368.000
60.74507 352.000
60.76502 313.000
60.78496 349.000
60.80491 371.000
60.82486 381.000
60.84481 378.000
60.86475 369.000
60.88470 363.000
60.90465 357.000
60.92459 331.000
60.94454 370.000
60.96449 342.000
60.98443 373.000
61.00438 415.000
61.02433 370.000
61.04428 330.000
61.06422 377.000
61.08417 342.000
61.10412 358.000
61.12406 359.000
61.14401 400.000
61.16396 377.000
61.18390 342.000
61.20385 363.000
61.22380 369.000
61.24374 355.000
61.26369 425.000
61.28364 379.000
61.30359 345.000
61.32353 369.000
61.34348 371.000
61.36343 373.000
61.38337 379.000
61.40332 367.000
61.42327 365.000
61.44321 353.000
61.46316 393.000
61.48311 395.000
61.50306 397.000
61.52300 418.000
61.54295 388.000
61.56290 383.000
61.58284 406.000
61.60279 443.000
61.62274 401.000
61.64268 447.000
61.66263 402.000
61.68258 404.000
61.70252 421.000
61.72247 430.000
61.74242 433.000
61.76237 423.000
61.78231 433.000
61.80226 397.000
61.82221 443.000
61.84215 439.000
61.86210 462.000
61.88205 477.000
61.90199 449.000
61.92194 469.000
61.94189 452.000
61.96184 495.000
61.98178 528.000
62.00173 518.000
62.02168 537.000
62.04162 597.000
62.06157 604.000
62.08152 678.000
62.10146 721.000
62.12141 729.000
62.14136 766.000
62.16131 757.000
62.18125 749.000
62.20120 738.000
62.22115 731.000
62.24109 755.000
62.26104 775.000
62.28099 745.000
62.30093 792.000
62.32088 769.000
62.34083 783.000
62.36077 870.000
62.38072 862.000
62.40067 946.000
62.42062 928.000
62.44056 1062.000
62.46051 1262.000
62.48046 1459.000
62.50040 1614.000
62.52035 1918.000
62.54030 2220.000
62.56024 2578.000
62.58019 2884.000
62.60014 3188.000
62.62009 3435.000
62.64003 3442.000
62.65998 3376.000
62.67993 3360.000
62.69987 3240.000
62.71982 3011.000
62.73977 3000.000
62.75971 2815.000
62.77966 2741.000
62.79961 2535.000
62.81955 2390.000
62.83950 2121.000
62.85945 1927.000
62.87940 1717.000
62.89934 1514.000
62.91929 1345.000
62.93924 1202.000
62.95918 979.000
62.97913 869.000
62.99908 762.000
63.01902 748.000
63.03897 665.000
63.05892 583.000
63.07887 622.000
63.09881 550.000
63.11876 504.000
63.13871 487.000
63.15865 508.000
63.17860 523.000
63.19855 452.000
63.21849 449.000
63.23844 465.000
63.25839 460.000
63.27833 409.000
63.29828 453.000
63.31823 414.000
63.33818 403.000
63.35812 392.000
63.37807 441.000
63.39802 409.000
63.41796 400.000
63.43791 402.000
63.45786 429.000
63.47780 418.000
63.49775 419.000
63.51770 364.000
63.53765 432.000
63.55759 406.000
63.57754 396.000
63.59749 388.000
63.61743 406.000
63.63738 404.000
63.65733 382.000
63.67727 382.000
63.69722 396.000
63.71717 382.000
63.73712 339.000
63.75706 360.000
63.77701 405.000
63.79696 429.000
63.81690 377.000
63.83685 347.000
63.85680 365.000
63.87674 388.000
63.89669 392.000
63.91664 408.000
63.93658 376.000
63.95653 376.000
63.97648 400.000
63.99643 410.000
64.01637 396.000
64.03632 364.000
64.05627 406.000
64.07621 412.000
64.09616 428.000
64.11611 371.000
64.13605 414.000
64.15600 400.000
64.17595 437.000
64.19590 434.000
64.21584 438.000
64.23579 415.000
64.25574 459.000
64.27568 477.000
64.29563 432.000
64.31558 436.000
64.33552 505.000
64.35547 467.000
64.37542 598.000
64.39536 537.000
64.41531 598.000
64.43526 629.000
64.45521 657.000
64.47515 565.000
64.49510 602.000
64.51505 598.000
64.53499 614.000
64.55494 530.000
64.57489 624.000
64.59483 575.000
64.61478 539.000
64.63473 542.000
64.65468 589.000
64.67462 492.000
64.69457 484.000
64.71452 479.000
64.73446 501.000
64.75441 456.000
64.77436 475.000
64.79430 450.000
64.81425 423.000
64.83420 410.000
64.85414 401.000
64.87409 411.000
64.89404 393.000
64.91399 353.000
64.93393 379.000
64.95388 374.000
64.97383 358.000
64.99377 361.000
65.01372 379.000
65.03367 371.000
65.05361 378.000
65.07356 363.000
65.09351 402.000
65.11346 382.000
65.13340 347.000
65.15335 396.000
65.17330 366.000
65.19324 366.000
65.21319 386.000
65.23314 361.000
65.25308 336.000
65.27303 364.000
65.29298 397.000
65.31293 347.000
65.33287 398.000
65.35282 383.000
65.37277 384.000
65.39271 359.000
65.41266 350.000
65.43261 356.000
65.45255 374.000
65.47250 401.000
65.49245 370.000
65.51239 410.000
65.53234 387.000
65.55229 403.000
65.57224 422.000
65.59218 427.000
65.61213 394.000
65.63208 422.000
65.65202 420.000
65.67197 412.000
65.69192 468.000
65.71186 421.000
65.73181 471.000
65.75176 466.000
65.77171 418.000
65.79165 462.000
65.81160 421.000
65.83155 427.000
65.85149 385.000
65.87144 438.000
65.89139 414.000
65.91133 384.000
65.93128 395.000
65.95123 423.000
65.97117 420.000
65.99112 368.000
66.01107 397.000
66.03102 374.000
66.05096 411.000
66.07091 427.000
66.09086 420.000
66.11080 363.000
66.13075 360.000
66.15070 364.000
66.17064 369.000
66.19059 382.000
66.21054 363.000
66.23049 352.000
66.25043 387.000
66.27038 392.000
66.29033 358.000
66.31027 376.000
66.33022 338.000
66.35017 370.000
66.37011 357.000
66.39006 351.000
66.41001 371.000
66.42995 378.000
66.44990 369.000
66.46985 389.000
66.48980 386.000
66.50974 367.000
66.52969 388.000
66.54964 362.000
66.56958 413.000
66.58953 383.000
66.60948 434.000
66.62942 360.000
66.64937 420.000
66.66932 383.000
66.68927 401.000
66.70921 400.000
66.72916 422.000
66.74911 407.000
66.76905 467.000
66.78900 494.000
66.80895 507.000
66.82889 474.000
66.84884 527.000
66.86879 554.000
66.88874 530.000
66.90868 488.000
66.92863 573.000
66.94858 499.000
66.96852 581.000
66.98847 542.000
67.00842 533.000
67.02836 578.000
67.04831 511.000
67.06826 544.000
67.08820 469.000
67.10815 505.000
67.12810 475.000
67.14805 438.000
67.16799 469.000
67.18794 418.000
67.20789 448.000
67.22783 425.000
67.24778 409.000
67.26773 388.000
67.28767 434.000
67.30762 392.000
67.32757 395.000
67.34752 400.000
67.36746 350.000
67.38741 366.000
67.40736 354.000
67.42730 394.000
67.44725 342.000
67.46720 403.000
67.48714 349.000
67.50709 334.000
67.52704 364.000
67.54698 347.000
67.56693 342.000
67.58688 352.000
67.60683 342.000
67.62677 363.000
67.64672 336.000
67.66667 357.000
67.68661 343.000
67.70656 367.000
67.72651 367.000
67.74645 340.000
67.76640 352.000
67.78635 369.000
67.80630 343.000
67.82624 326.000
67.84619 364.000
67.86614 369.000
67.88608 346.000
67.90603 348.000
67.92598 369.000
67.94592 363.000
67.96587 358.000
67.98582 344.000
68.00576 340.000
68.02571 356.000
68.04566 337.000
68.06561 322.000
68.08555 354.000
68.10550 336.000
68.12545 380.000
68.14539 342.000
68.16534 369.000
68.18529 354.000
68.20523 353.000
68.22518 349.000
68.24513 368.000
68.26508 332.000
68.28502 370.000
68.30497 343.000
68.32492 381.000
68.34486 346.000
68.36481 344.000
68.38476 356.000
68.40470 382.000
68.42465 359.000
68.44460 347.000
68.46455 372.000
68.48449 357.000
68.50444 340.000
68.52439 358.000
68.54433 339.000
68.56428 350.000
68.58423 354.000
68.60417 338.000
68.62412 350.000
68.64407 362.000
68.66401 358.000
68.68396 348.000
68.70391 340.000
68.72386 364.000
68.74380 356.000
68.76375 374.000
68.78370 321.000
68.80364 341.000
68.82359 315.000
68.84354 344.000
68.86348 338.000
68.88343 338.000
68.90338 329.000
68.92333 339.000
68.94327 369.000
68.96322 334.000
68.98317 347.000
69.00311 358.000
69.02306 345.000
69.04301 361.000
69.06295 359.000
69.08290 335.000
69.10285 367.000
69.12279 367.000
69.14274 376.000
69.16269 350.000
69.18264 377.000
69.20258 354.000
69.22253 351.000
69.24248 338.000
69.26242 357.000
69.28237 363.000
69.30232 356.000
69.32226 363.000
69.34221 316.000
69.36216 372.000
69.38211 331.000
69.40205 338.000
69.42200 352.000
69.44195 322.000
69.46189 353.000
69.48184 374.000
69.50179 341.000
69.52173 347.000
69.54168 303.000
69.56163 324.000
69.58157 366.000
69.60152 350.000
69.62147 324.000
69.64142 337.000
69.66136 325.000
69.68131 329.000
69.70126 325.000
69.72120 360.000
69.74115 313.000
69.76110 320.000
69.78104 363.000
69.80099 379.000
69.82094 319.000
69.84089 346.000
69.86083 346.000
69.88078 362.000
69.90073 357.000
69.92067 358.000
69.94062 349.000
69.96057 326.000
69.98051 320.000
70.00046 347.000
70.02041 350.000
70.04035 364.000
70.06030 341.000
70.08025 361.000
70.10020 318.000
70.12014 329.000
70.14009 366.000
70.16004 335.000
70.17998 352.000
70.19993 340.000
70.21988 366.000
70.23982 354.000
70.25977 334.000
70.27972 321.000
70.29967 318.000
70.31961 347.000
70.33956 357.000
70.35951 347.000
70.37945 321.000
70.39940 330.000
70.41935 337.000
70.43929 361.000
70.45924 327.000
70.47919 321.000
70.49914 319.000
70.51908 341.000
70.53903 357.000
70.55898 365.000
70.57892 339.000
70.59887 315.000
70.61882 347.000
70.63876 351.000
70.65871 305.000
70.67866 375.000
70.69860 334.000
70.71855 351.000
70.73850 347.000
70.75845 340.000
70.77839 353.000
70.79834 322.000
70.81829 325.000
70.83823 334.000
70.85818 348.000
70.87813 334.000
70.89807 339.000
70.91802 329.000
70.93797 350.000
70.95792 358.000
70.97786 335.000
70.99781 322.000
71.01776 347.000
71.03770 318.000
71.05765 345.000
71.07760 311.000
71.09754 342.000
71.11749 333.000
71.13744 317.000
71.15738 346.000
71.17733 341.000
71.19728 314.000
71.21723 329.000
71.23717 351.000
71.25712 343.000
71.27707 336.000
71.29701 337.000
71.31696 320.000
71.33691 326.000
71.35685 332.000
71.37680 353.000
71.39675 381.000
71.41670 373.000
71.43664 358.000
71.45659 351.000
71.47654 354.000
71.49648 346.000
71.51643 318.000
71.53638 329.000
71.55632 371.000
71.57627 347.000
71.59622 327.000
71.61616 361.000
71.63611 357.000
71.65606 353.000
71.67601 354.000
71.69595 383.000
71.71590 367.000
71.73585 347.000
71.75579 360.000
71.77574 358.000
71.79569 342.000
71.81563 335.000
71.83558 353.000
71.85553 348.000
71.87548 358.000
71.89542 326.000
71.91537 360.000
71.93532 363.000
71.95526 339.000
71.97521 349.000
71.99516 352.000
72.01510 335.000
72.03505 328.000
72.05500 379.000
72.07495 338.000
72.09489 345.000
72.11484 372.000
72.13479 326.000
72.15473 380.000
72.17468 338.000
72.19463 353.000
72.21457 352.000
72.23452 346.000
72.25447 328.000
72.27441 371.000
72.29436 318.000
72.31431 358.000
72.33426 333.000
72.35420 335.000
72.37415 336.000
72.39410 331.000
72.41404 355.000
72.43399 360.000
72.45394 349.000
72.47388 336.000
72.49383 365.000
72.51378 374.000
72.53373 364.000
72.55367 360.000
72.57362 355.000
72.59357 376.000
72.61351 355.000
72.63346 351.000
72.65341 359.000
72.67335 336.000
72.69330 381.000
72.71325 353.000
72.73319 343.000
72.75314 301.000
72.77309 333.000
72.79304 329.000
72.81298 319.000
72.83293 332.000
72.85288 330.000
72.87282 334.000
72.89277 321.000
72.91272 337.000
72.93266 346.000
72.95261 349.000
72.97256 340.000
72.99251 340.000
73.01245 368.000
73.03240 357.000
73.05235 347.000
73.07229 345.000
73.09224 360.000
73.11219 363.000
73.13213 359.000
73.15208 357.000
73.17203 317.000
73.19197 364.000
73.21192 350.000
73.23187 373.000
73.25182 347.000
73.27176 340.000
73.29171 362.000
73.31166 385.000
73.33160 346.000
73.35155 356.000
73.37150 360.000
73.39144 369.000
73.41139 331.000
73.43134 322.000
73.45129 355.000
73.47123 345.000
73.49118 401.000
73.51113 380.000
73.53107 404.000
73.55102 363.000
73.57097 358.000
73.59091 398.000
73.61086 388.000
73.63081 358.000
73.65076 381.000
73.67070 379.000
73.69065 377.000
73.71060 411.000
73.73054 413.000
73.75049 377.000
73.77044 406.000
73.79038 419.000
73.81033 429.000
73.83028 383.000
73.85022 442.000
73.87017 398.000
73.89012 410.000
73.91007 417.000
73.93001 454.000
73.94996 429.000
73.96991 397.000
73.98985 396.000
74.00980 413.000
74.02975 406.000
74.04969 405.000
74.06964 394.000
74.08959 387.000
74.10954 416.000
74.12948 386.000
74.14943 379.000
74.16938 389.000
74.18932 373.000
74.20927 376.000
74.22922 420.000
74.24916 381.000
74.26911 349.000
74.28906 371.000
74.30900 343.000
74.32895 389.000
74.34890 381.000
74.36885 360.000
74.38879 365.000
74.40874 435.000
74.42869 364.000
74.44863 400.000
74.46858 376.000
74.48853 350.000
74.50847 363.000
74.52842 376.000
74.54837 357.000
74.56832 363.000
74.58826 368.000
74.60821 374.000
74.62816 418.000
74.64810 416.000
74.66805 424.000
74.68800 413.000
74.70794 449.000
74.72789 442.000
74.74784 452.000
74.76778 496.000
74.78773 480.000
74.80768 505.000
74.82763 514.000
74.84757 540.000
74.86752 561.000
74.88747 643.000
74.90741 677.000
74.92736 716.000
74.94731 760.000
74.96725 846.000
74.98720 926.000
75.00715 1032.000
75.02710 1086.000
75.04704 1152.000
75.06699 1194.000
75.08694 1221.000
75.10688 1254.000
75.12683 1310.000
75.14678 1278.000
75.16672 1243.000
75.18667 1311.000
75.20662 1162.000
75.22657 1160.000
75.24651 1117.000
75.26646 1066.000
75.28641 1068.000
75.30635 1008.000
75.32630 956.000
75.34625 947.000
75.36619 883.000
75.38614 842.000
75.40609 803.000
75.42603 730.000
75.44598 679.000
75.46593 680.000
75.48588 633.000
75.50582 597.000
75.52577 548.000
75.54572 522.000
75.56566 514.000
75.58561 472.000
75.60556 449.000
75.62550 420.000
75.64545 412.000
75.66540 367.000
75.68535 436.000
75.70529 393.000
75.72524 400.000
75.74519 436.000
75.76513 379.000
75.78508 383.000
75.80503 378.000
75.82497 386.000
75.84492 410.000
75.86487 413.000
75.88481 388.000
75.90476 409.000
75.92471 412.000
75.94466 396.000
75.96460 377.000
75.98455 387.000
76.00450 382.000
76.02444 371.000
76.04439 399.000
76.06434 410.000
76.08428 377.000
76.10423 370.000
76.12418 389.000
76.14413 384.000
76.16407 391.000
76.18402 400.000
76.20397 432.000
76.22391 375.000
76.24386 387.000
76.26381 379.000
76.28375 357.000
76.30370 369.000
76.32365 387.000
76.34359 387.000
76.36354 390.000
76.38349 370.000
76.40344 382.000
76.42338 370.000
76.44333 326.000
76.46328 376.000
76.48322 337.000
76.50317 348.000
76.52312 376.000
76.54306 374.000
76.56301 376.000
76.58296 372.000
76.60291 386.000
76.62285 369.000
76.64280 359.000
76.66275 368.000
76.68269 335.000
76.70264 354.000
76.72259 315.000
76.74253 366.000
76.76248 346.000
76.78243 345.000
76.80238 340.000
76.82232 310.000
76.84227 350.000
76.86222 332.000
76.88216 327.000
76.90211 375.000
76.92206 349.000
76.94200 329.000
76.96195 375.000
76.98190 340.000
77.00184 331.000
77.02179 352.000
77.04174 392.000
77.06169 344.000
77.08163 338.000
77.10158 368.000
77.12153 371.000
77.14147 338.000
77.16142 380.000
77.18137 375.000
77.20131 356.000
77.22126 331.000
77.24121 358.000
77.26116 352.000
77.28110 340.000
77.30105 342.000
77.32100 344.000
77.34094 339.000
77.36089 366.000
77.38084 336.000
77.40078 350.000
77.42073 353.000
77.44068 350.000
77.46062 307.000
77.48057 346.000
77.50052 388.000
77.52047 357.000
77.54041 355.000
77.56036 333.000
77.58031 365.000
77.60025 311.000
77.62020 360.000
77.64015 349.000
77.66009 352.000
77.68004 360.000
77.69999 363.000
77.71994 336.000
77.73988 340.000
77.75983 368.000
77.77978 365.000
77.79972 339.000
77.81967 337.000
77.83962 377.000
77.85956 345.000
77.87951 360.000
77.89946 364.000
77.91940 403.000
77.93935 368.000
77.95930 368.000
77.97925 377.000
77.99919 365.000
78.01914 384.000
78.03909 382.000
78.05903 385.000
78.07898 375.000
78.09893 419.000
78.11887 402.000
78.13882 377.000
78.15877 421.000
78.17872 419.000
78.19866 374.000
78.21861 374.000
78.23856 390.000
78.25850 401.000
78.27845 421.000
78.29840 440.000
78.31834 480.000
78.33829 464.000
78.35824 484.000
78.37819 507.000
78.39813 498.000
78.41808 515.000
78.43803 465.000
78.45797 486.000
78.47792 452.000
78.49787 472.000
78.51781 439.000
78.53776 471.000
78.55771 443.000
78.57765 436.000
78.59760 420.000
78.61755 453.000
78.63750 461.000
78.65744 436.000
78.67739 474.000
78.69734 485.000
78.71728 428.000
78.73723 472.000
78.75718 467.000
78.77712 444.000
78.79707 476.000
78.81702 489.000
78.83697 517.000
78.85691 504.000
78.87686 557.000
78.89681 560.000
78.91675 589.000
78.93670 725.000
78.95665 785.000
78.97659 875.000
78.99654 876.000
79.01649 999.000
79.03643 1063.000
79.05638 1153.000
79.07633 1062.000
79.09628 1052.000
79.11622 1026.000
79.13617 981.000
79.15612 966.000
79.17606 876.000
79.19601 872.000
79.21596 937.000
79.23590 878.000
79.25585 890.000
79.27580 858.000
79.29575 828.000
79.31569 830.000
79.33564 778.000
79.35559 696.000
79.37553 680.000
79.39548 661.000
79.41543 573.000
79.43537 544.000
79.45532 539.000
79.47527 522.000
79.49521 470.000
79.51516 471.000
79.53511 421.000
79.55506 438.000
79.57500 445.000
79.59495 425.000
79.61490 365.000
79.63484 404.000
79.65479 407.000
79.67474 413.000
79.69468 395.000
79.71463 351.000
79.73458 352.000
79.75453 359.000
79.77447 394.000
79.79442 380.000
79.81437 375.000
79.83431 362.000
79.85426 377.000
79.87421 366.000
79.89415 377.000
79.91410 356.000
79.93405 345.000
79.95399 337.000
79.97394 331.000
79.99389 380.000
80.01384 371.000
80.03378 341.000
80.05373 341.000
80.07368 303.000
80.09362 340.000
80.11357 356.000
80.13352 367.000
80.15346 316.000
80.17341 331.000
80.19336 353.000
80.21331 365.000
80.23325 382.000
80.25320 353.000
80.27315 339.000
80.29309 390.000
80.31304 377.000
80.33299 366.000
80.35293 386.000
80.37288 329.000
80.39283 342.000
80.41278 328.000
80.43272 322.000
80.45267 335.000
80.47262 357.000
80.49256 386.000
80.51251 351.000
80.53246 373.000
80.55240 334.000
80.57235 360.000
80.59230 338.000
80.61224 356.000
80.63219 362.000
80.65214 347.000
80.67209 334.000
80.69203 335.000
80.71198 334.000
80.73193 312.000
80.75187 365.000
80.77182 377.000
80.79177 349.000
80.81171 352.000
80.83166 327.000
80.85161 326.000
80.87156 358.000
80.89150 327.000
80.91145 343.000
80.93140 341.000
80.95134 348.000
80.97129 371.000
80.99124 377.000
81.01118 341.000
81.03113 357.000
81.05108 318.000
81.07102 319.000
81.09097 344.000
81.11092 371.000
81.13087 354.000
81.15081 332.000
81.17076 348.000
81.19071 335.000
81.21065 371.000
81.23060 319.000
81.25055 364.000
81.27049 353.000
81.29044 347.000
81.31039 324.000
81.33034 343.000
81.35028 342.000
81.37023 314.000
81.39018 339.000
81.41012 320.000
81.43007 376.000
81.45002 342.000
81.46996 354.000
81.48991 353.000
81.50986 351.000
81.52980 337.000
81.54975 362.000
81.56970 341.000
81.58965 333.000
81.60959 325.000
81.62954 365.000
81.64949 349.000
81.66943 370.000
81.68938 337.000
81.70933 368.000
81.72927 338.000
81.74922 351.000
81.76917 354.000
81.78912 371.000
81.80906 376.000
81.82901 354.000
81.84896 359.000
81.86890 345.000
81.88885 335.000
81.90880 331.000
81.92874 330.000
81.94869 375.000
81.96864 341.000
81.98859 326.000
82.00853 351.000
82.02848 354.000
82.04843 385.000
82.06837 337.000
82.08832 327.000
82.10827 313.000
82.12821 401.000
82.14816 341.000
82.16811 338.000
82.18805 353.000
82.20800 375.000
82.22795 371.000
82.24790 354.000
82.26784 346.000
82.28779 342.000
82.30774 349.000
82.32768 369.000
82.34763 351.000
82.36758 312.000
82.38752 337.000
82.40747 331.000
82.42742 323.000
82.44737 331.000
82.46731 340.000
82.48726 321.000
82.50721 358.000
82.52715 326.000
82.54710 343.000
82.56705 340.000
82.58699 368.000
82.60694 355.000
82.62689 364.000
82.64683 326.000
82.66678 337.000
82.68673 326.000
82.70668 336.000
82.72662 322.000
82.74657 348.000
82.76652 341.000
82.78646 321.000
82.80641 357.000
82.82636 327.000
82.84630 331.000
82.86625 351.000
82.88620 340.000
82.90615 362.000
82.92609 328.000
82.94604 377.000
82.96599 336.000
82.98593 352.000
83.00588 312.000
83.02583 363.000
83.04577 359.000
83.06572 360.000
83.08567 348.000
83.10561 332.000
83.12556 317.000
83.14551 344.000
83.16546 308.000
83.18540 360.000
83.20535 349.000
83.22530 322.000
83.24524 326.000
83.26519 360.000
83.28514 355.000
83.30508 333.000
83.32503 353.000
83.34498 344.000
83.36493 306.000
83.38487 349.000
83.40482 335.000
83.42477 344.000
83.44471 341.000
83.46466 320.000
83.48461 348.000
83.50455 349.000
83.52450 346.000
83.54445 309.000
83.56440 343.000
83.58434 339.000
83.60429 355.000
83.62424 331.000
83.64418 368.000
83.66413 343.000
83.68408 367.000
83.70402 361.000
83.72397 347.000
83.74392 383.000
83.76386 369.000
83.78381 340.000
83.80376 318.000
83.82371 378.000
83.84365 360.000
83.86360 342.000
83.88355 344.000
83.90349 345.000
83.92344 335.000
83.94339 362.000
83.96333 350.000
83.98328 374.000
84.00323 330.000
84.02318 329.000
84.04312 353.000
84.06307 362.000
84.08302 352.000
84.10296 330.000
84.12291 358.000
84.14286 363.000
84.16280 346.000
84.18275 319.000
84.20270 365.000
84.22264 367.000
84.24259 339.000
84.26254 345.000
84.28249 365.000
84.30243 330.000
84.32238 354.000
84.34233 345.000
84.36227 342.000
84.38222 345.000
84.40217 343.000
84.42211 369.000
84.44206 363.000
84.46201 342.000
84.48196 366.000
84.50190 381.000
84.52185 369.000
84.54180 366.000
84.56174 329.000
84.58169 353.000
84.60164 334.000
84.62158 360.000
84.64153 350.000
84.66148 358.000
84.68142 366.000
84.70137 355.000
84.72132 373.000
84.74127 367.000
84.76121 429.000
84.78116 371.000
84.80111 381.000
84.82105 385.000
84.84100 406.000
84.86095 392.000
84.88089 385.000
84.90084 395.000
84.92079 389.000
84.94074 342.000
84.96068 421.000
84.98063 390.000
85.00058 430.000
85.02052 380.000
85.04047 390.000
85.06042 400.000
85.08036 386.000
85.10031 371.000
85.12026 362.000
85.14021 383.000
85.16015 343.000
85.18010 359.000
85.20005 406.000
85.21999 361.000
85.23994 374.000
85.25989 342.000
85.27983 379.000
85.29978 362.000
85.31973 368.000
85.33967 385.000
85.35962 367.000
85.37957 356.000
85.39952 352.000
85.41946 349.000
85.43941 321.000
85.45936 338.000
85.47930 344.000
85.49925 331.000
85.51920 320.000
85.53914 364.000
85.55909 342.000
85.57904 318.000
85.59899 372.000
85.61893 369.000
85.63888 319.000
85.65883 319.000
85.67877 344.000
85.69872 356.000
85.71867 356.000
85.73861 344.000
85.75856 309.000
85.77851 311.000
85.79845 291.000
85.81840 367.000
85.83835 326.000
85.85830 377.000
85.87824 333.000
85.89819 335.000
85.91814 331.000
85.93808 369.000
85.95803 340.000
85.97798 346.000
85.99792 349.000
86.01787 336.000
86.03782 349.000
86.05777 336.000
86.07771 341.000
86.09766 362.000
86.11761 349.000
86.13755 336.000
86.15750 320.000
86.17745 327.000
86.19739 320.000
86.21734 337.000
86.23729 342.000
86.25723 350.000
86.27718 328.000
86.29713 349.000
86.31708 337.000
86.33702 311.000
86.35697 349.000
86.37692 333.000
86.39686 333.000
86.41681 300.000
86.43676 349.000
86.45670 326.000
86.47665 333.000
86.49660 359.000
86.51655 323.000
86.53649 340.000
86.55644 317.000
86.57639 322.000
86.59633 339.000
86.61628 371.000
86.63623 325.000
86.65617 343.000
86.67612 333.000
86.69607 316.000
86.71602 316.000
86.73596 378.000
86.75591 346.000
86.77586 342.000
86.79580 318.000
86.81575 330.000
86.83570 342.000
86.85564 386.000
86.87559 359.000
86.89554 344.000
86.91548 339.000
86.93543 336.000
86.95538 356.000
86.97533 346.000
86.99527 366.000
87.01522 362.000
87.03517 380.000
87.05511 347.000
87.07506 362.000
87.09501 343.000
87.11495 348.000
87.13490 396.000
87.15485 388.000
87.17480 367.000
87.19474 354.000
87.21469 397.000
87.23464 360.000
87.25458 434.000
87.27453 393.000
87.29448 372.000
87.31442 412.000
87.33437 348.000
87.35432 374.000
87.37426 356.000
87.39421 345.000
87.41416 385.000
87.43411 365.000
87.45405 360.000
87.47400 345.000
87.49395 340.000
87.51389 352.000
87.53384 342.000
87.55379 338.000
87.57373 341.000
87.59368 342.000
87.61363 369.000
87.63358 369.000
87.65352 384.000
87.67347 353.000
87.69342 345.000
87.71336 349.000
87.73331 323.000
87.75326 367.000
87.77320 341.000
87.79315 358.000
87.81310 360.000
87.83304 333.000
87.85299 336.000
87.87294 361.000
87.89289 353.000
87.91283 380.000
87.93278 353.000
87.95273 345.000
87.97267 350.000
87.99262 292.000
88.01257 337.000
88.03251 289.000
88.05246 358.000
88.07241 331.000
88.09236 331.000
88.11230 332.000
88.13225 341.000
88.15220 328.000
88.17214 378.000
88.19209 360.000
88.21204 344.000
88.23198 356.000
88.25193 339.000
88.27188 320.000
88.29183 336.000
88.31177 323.000
88.33172 347.000
88.35167 333.000
88.37161 356.000
88.39156 347.000
88.41151 337.000
88.43145 335.000
88.45140 317.000
88.47135 358.000
88.49129 310.000
88.51124 346.000
88.53119 373.000
88.55114 306.000
88.57108 340.000
88.59103 364.000
88.61098 363.000
88.63092 307.000
88.65087 356.000
88.67082 351.000
88.69076 353.000
88.71071 344.000
88.73066 332.000
88.75061 336.000
88.77055 336.000
88.79050 333.000
88.81045 373.000
88.83039 330.000
88.85034 317.000
88.87029 342.000
88.89023 342.000
88.91018 333.000
88.93013 332.000
88.95007 331.000
88.97002 316.000
88.98997 348.000
89.00992 312.000
89.02986 316.000
89.04981 379.000
89.06976 337.000
89.08970 349.000
89.10965 330.000
89.12960 328.000
89.14954 317.000
89.16949 334.000
89.18944 354.000
89.20939 331.000
89.22933 346.000
89.24928 304.000
89.26923 359.000
89.28917 314.000
89.30912 336.000
89.32907 358.000
89.34901 341.000
89.36896 351.000
89.38891 338.000
89.40885 363.000
89.42880 324.000
89.44875 345.000
89.46870 354.000
89.48864 336.000
89.50859 337.000
89.52854 342.000
89.54848 324.000
89.56843 346.000
89.58838 353.000
89.60832 327.000
89.62827 357.000
89.64822 350.000
89.66817 345.000
89.68811 330.000
89.70806 346.000
89.72801 347.000
89.74795 340.000
89.76790 335.000
89.78785 372.000
89.80779 304.000
89.82774 311.000
89.84769 344.000
89.86764 394.000
89.88758 361.000
89.90753 354.000
89.92748 294.000
89.94742 318.000
89.96737 320.000
89.98732 349.000
90.00726 354.000
