10.00000 195.000
10.01995 209.000
10.03989 188.000
10.05984 217.000
10.07979 212.000
10.09973 198.000
10.11968 187.000
10.13963 196.000
10.15958 201.000
10.17952 169.000
10.19947 197.000
10.21942 189.000
10.23936 212.000
10.25931 211.000
10.27926 197.000
10.29920 217.000
10.31915 220.000
10.33910 210.000
10.35905 215.000
10.37899 203.000
10.39894 198.000
10.41889 216.000
10.43883 207.000
10.45878 187.000
10.47873 204.000
10.49867 209.000
10.51862 208.000
10.53857 237.000
10.55851 195.000
10.57846 202.000
10.59841 228.000
10.61836 194.000
10.63830 221.000
10.65825 214.000
10.67820 249.000
10.69814 220.000
10.71809 218.000
10.73804 237.000
10.75798 195.000
10.77793 196.000
10.79788 211.000
10.81783 177.000
10.83777 193.000
10.85772 208.000
10.87767 176.000
10.89761 230.000
10.91756 220.000
10.93751 222.000
10.95745 176.000
10.97740 193.000
10.99735 209.000
11.01730 219.000
11.03724 204.000
11.05719 181.000
11.07714 198.000
11.09708 204.000
11.11703 192.000
11.13698 197.000
11.15692 198.000
11.17687 223.000
11.19682 206.000
11.21676 207.000
11.23671 215.000
11.25666 199.000
11.27661 214.000
11.29655 230.000
11.31650 237.000
11.33645 216.000
11.35639 208.000
11.37634 188.000
11.39629 238.000
11.41623 190.000
11.43618 201.000
11.45613 211.000
11.47608 229.000
11.49602 228.000
11.51597 214.000
11.53592 230.000
11.55586 223.000
11.57581 226.000
11.59576 228.000
11.61570 195.000
11.63565 204.000
11.65560 221.000
11.67554 245.000
11.69549 218.000
11.71544 225.000
11.73539 219.000
11.75533 226.000
11.77528 207.000
11.79523 223.000
11.81517 243.000
11.83512 215.000
11.85507 242.000
11.87501 225.000
11.89496 216.000
11.91491 212.000
11.93486 222.000
11.95480 206.000
11.97475 239.000
11.99470 198.000
12.01464 213.000
12.03459 229.000
12.05454 234.000
12.07448 190.000
12.09443 228.000
12.11438 228.000
12.13432 212.000
12.15427 210.000
12.17422 252.000
12.19417 213.000
12.21411 230.000
12.23406 234.000
12.25401 202.000
12.27395 228.000
12.29390 212.000
12.31385 231.000
12.33379 224.000
12.35374 227.000
12.37369 229.000
12.39364 207.000
12.41358 222.000
12.43353 218.000
12.45348 236.000
12.47342 238.000
12.49337 220.000
12.51332 228.000
12.53326 224.000
12.55321 199.000
12.57316 228.000
12.59311 239.000
12.61305 241.000
12.63300 220.000
12.65295 229.000
12.67289 219.000
12.69284 229.000
12.71279 257.000
12.73273 225.000
12.75268 226.000
12.77263 248.000
12.79257 216.000
12.81252 224.000
12.83247 231.000
12.85242 213.000
12.87236 224.000
12.89231 235.000
12.91226 244.000
12.93220 197.000
12.95215 247.000
12.97210 215.000
12.99204 244.000
13.01199 253.000
13.03194 240.000
13.05189 235.000
13.07183 250.000
13.09178 259.000
13.11173 231.000
13.13167 234.000
13.15162 241.000
13.17157 237.000
13.19151 247.000
13.21146 263.000
13.23141 247.000
13.25135 229.000
13.27130 237.000
13.29125 231.000
13.31120 266.000
13.33114 222.000
13.35109 232.000
13.37104 204.000
13.39098 254.000
13.41093 232.000
13.43088 232.000
13.45082 221.000
13.47077 221.000
13.49072 219.000
13.51067 208.000
13.53061 253.000
13.55056 244.000
13.57051 231.000
13.59045 214.000
13.61040 256.000
13.63035 211.000
13.65029 249.000
13.67024 238.000
13.69019 203.000
13.71013 220.000
13.73008 227.000
13.75003 243.000
13.76998 240.000
13.78992 231.000
13.80987 209.000
13.82982 242.000
13.84976 249.000
13.86971 253.000
13.88966 239.000
13.90960 251.000
13.92955 213.000
13.94950 219.000
13.96945 232.000
13.98939 245.000
14.00934 242.000
14.02929 235.000
14.04923 212.000
14.06918 226.000
14.08913 215.000
14.10907 223.000
14.12902 247.000
14.14897 205.000
14.16892 264.000
14.18886 256.000
14.20881 238.000
14.22876 228.000
14.24870 251.000
14.26865 224.000
14.28860 239.000
14.30854 250.000
14.32849 253.000
14.34844 237.000
14.36838 203.000
14.38833 232.000
14.40828 220.000
14.42823 247.000
14.44817 249.000
14.46812 245.000
14.48807 219.000
14.50801 231.000
14.52796 220.000
14.54791 226.000
14.56785 227.000
14.58780 228.000
14.60775 279.000
14.62770 229.000
14.64764 232.000
14.66759 206.000
14.68754 228.000
14.70748 209.000
14.72743 238.000
14.74738 239.000
14.76732 240.000
14.78727 235.000
14.80722 256.000
14.82716 225.000
14.84711 244.000
14.86706 233.000
14.88701 209.000
14.90695 232.000
14.92690 257.000
14.94685 210.000
14.96679 233.000
14.98674 245.000
15.00669 268.000
15.02663 249.000
15.04658 234.000
15.06653 237.000
15.08648 241.000
15.10642 245.000
15.12637 219.000
15.14632 250.000
15.16626 254.000
15.18621 252.000
15.20616 269.000
15.22610 260.000
15.24605 254.000
15.26600 225.000
15.28594 233.000
15.30589 252.000
15.32584 279.000
15.34579 219.000
15.36573 241.000
15.38568 255.000
15.40563 235.000
15.42557 269.000
15.44552 254.000
15.46547 225.000
15.48541 253.000
15.50536 274.000
15.52531 248.000
15.54526 269.000
15.56520 249.000
15.58515 239.000
15.60510 269.000
15.62504 275.000
15.64499 271.000
15.66494 245.000
15.68488 267.000
15.70483 281.000
15.72478 232.000
15.74472 262.000
15.76467 215.000
15.78462 218.000
15.80457 253.000
15.82451 253.000
15.84446 218.000
15.86441 251.000
15.88435 209.000
15.90430 241.000
15.92425 221.000
15.94419 233.000
15.96414 258.000
15.98409 247.000
16.00404 217.000
16.02398 236.000
16.04393 235.000
16.06388 243.000
16.08382 228.000
16.10377 226.000
16.12372 215.000
16.14366 245.000
16.16361 255.000
16.18356 208.000
16.20351 219.000
16.22345 239.000
16.24340 252.000
16.26335 218.000
16.28329 248.000
16.30324 235.000
16.32319 252.000
16.34313 256.000
16.36308 269.000
16.38303 223.000
16.40297 244.000
16.42292 255.000
16.44287 252.000
16.46282 281.000
16.48276 225.000
16.50271 226.000
16.52266 233.000
16.54260 244.000
16.56255 237.000
16.58250 262.000
16.60244 195.000
16.62239 263.000
16.64234 242.000
16.66229 238.000
16.68223 260.000
16.70218 233.000
16.72213 264.000
16.74207 282.000
16.76202 266.000
16.78197 272.000
16.80191 263.000
16.82186 263.000
16.84181 240.000
16.86175 292.000
16.88170 270.000
16.90165 268.000
16.92160 269.000
16.94154 270.000
16.96149 232.000
16.98144 253.000
17.00138 264.000
17.02133 273.000
17.04128 243.000
17.06122 229.000
17.08117 253.000
17.10112 233.000
17.12107 261.000
17.14101 229.000
17.16096 244.000
17.18091 217.000
17.20085 277.000
17.22080 246.000
17.24075 267.000
17.26069 272.000
17.28064 243.000
17.30059 238.000
17.32053 272.000
17.34048 248.000
17.36043 243.000
17.38038 242.000
17.40032 240.000
17.42027 268.000
17.44022 243.000
17.46016 239.000
17.48011 246.000
17.50006 200.000
17.52000 241.000
17.53995 256.000
17.55990 258.000
17.57985 234.000
17.59979 244.000
17.61974 256.000
17.63969 225.000
17.65963 232.000
17.67958 259.000
17.69953 226.000
17.71947 268.000
17.73942 239.000
17.75937 259.000
17.77932 261.000
17.79926 271.000
17.81921 248.000
17.83916 258.000
17.85910 260.000
17.87905 260.000
17.89900 262.000
17.91894 260.000
17.93889 234.000
17.95884 262.000
17.97878 236.000
17.99873 234.000
18.01868 249.000
18.03863 262.000
18.05857 245.000
18.07852 269.000
18.09847 242.000
18.11841 266.000
18.13836 210.000
18.15831 273.000
18.17825 256.000
18.19820 279.000
18.21815 266.000
18.23810 295.000
18.25804 286.000
18.27799 261.000
18.29794 342.000
18.31788 307.000
18.33783 305.000
18.35778 350.000
18.37772 352.000
18.39767 324.000
18.41762 334.000
18.43756 301.000
18.45751 282.000
18.47746 271.000
18.49741 238.000
18.51735 220.000
18.53730 259.000
18.55725 249.000
18.57719 237.000
18.59714 248.000
18.61709 250.000
18.63703 223.000
18.65698 253.000
18.67693 254.000
18.69688 269.000
18.71682 260.000
18.73677 252.000
18.75672 244.000
18.77666 258.000
18.79661 225.000
18.81656 252.000
18.83650 226.000
18.85645 265.000
18.87640 250.000
18.89634 261.000
18.91629 262.000
18.93624 249.000
18.95619 251.000
18.97613 246.000
18.99608 243.000
19.01603 277.000
19.03597 251.000
19.05592 254.000
19.07587 283.000
19.09581 207.000
19.11576 241.000
19.13571 241.000
19.15566 271.000
19.17560 258.000
19.19555 254.000
19.21550 258.000
19.23544 260.000
19.25539 256.000
19.27534 248.000
19.29528 253.000
19.31523 230.000
19.33518 245.000
19.35513 229.000
19.37507 232.000
19.39502 241.000
19.41497 287.000
19.43491 252.000
19.45486 264.000
19.47481 251.000
19.49475 244.000
19.51470 269.000
19.53465 264.000
19.55459 252.000
19.57454 262.000
19.59449 264.000
19.61444 253.000
19.63438 279.000
19.65433 261.000
19.67428 244.000
19.69422 276.000
19.71417 266.000
19.73412 240.000
19.75406 247.000
19.77401 240.000
19.79396 261.000
19.81391 288.000
19.83385 265.000
19.85380 249.000
19.87375 262.000
19.89369 295.000
19.91364 265.000
19.93359 262.000
19.95353 251.000
19.97348 274.000
19.99343 253.000
20.01337 234.000
20.03332 251.000
20.05327 272.000
20.07322 257.000
20.09316 229.000
20.11311 250.000
20.13306 277.000
20.15300 297.000
20.17295 235.000
20.19290 284.000
20.21284 255.000
20.23279 264.000
20.25274 273.000
20.27269 253.000
20.29263 242.000
20.31258 273.000
20.33253 265.000
20.35247 262.000
20.37242 261.000
20.39237 272.000
20.41231 291.000
20.43226 264.000
20.45221 297.000
20.47215 279.000
20.49210 306.000
20.51205 287.000
20.53200 309.000
20.55194 304.000
20.57189 307.000
20.59184 303.000
20.61178 314.000
20.63173 332.000
20.65168 359.000
20.67162 388.000
20.69157 413.000
20.71152 506.000
20.73147 535.000
20.75141 587.000
20.77136 621.000
20.79131 630.000
20.81125 679.000
20.83120 701.000
20.85115 727.000
20.87109 763.000
20.89104 713.000
20.91099 715.000
20.93094 759.000
20.95088 791.000
20.97083 760.000
20.99078 736.000
21.01072 705.000
21.03067 740.000
21.05062 677.000
21.07056 601.000
21.09051 536.000
21.11046 503.000
21.13040 401.000
21.15035 361.000
21.17030 365.000
21.19025 302.000
21.21019 316.000
21.23014 291.000
21.25009 242.000
21.27003 297.000
21.28998 261.000
21.30993 263.000
21.32987 270.000
21.34982 289.000
21.36977 280.000
21.38972 260.000
21.40966 280.000
21.42961 271.000
21.44956 276.000
21.46950 269.000
21.48945 286.000
21.50940 272.000
21.52934 312.000
21.54929 278.000
21.56924 272.000
21.58918 291.000
21.60913 261.000
21.62908 252.000
21.64903 271.000
21.66897 285.000
21.68892 253.000
21.70887 257.000
21.72881 296.000
21.74876 260.000
21.76871 281.000
21.78865 246.000
21.80860 287.000
21.82855 267.000
21.84850 256.000
21.86844 251.000
21.88839 300.000
21.90834 298.000
21.92828 284.000
21.94823 229.000
21.96818 268.000
21.98812 277.000
22.00807 288.000
22.02802 247.000
22.04796 255.000
22.06791 281.000
22.08786 288.000
22.10781 267.000
22.12775 264.000
22.14770 273.000
22.16765 266.000
22.18759 270.000
22.20754 278.000
22.22749 239.000
22.24743 286.000
22.26738 245.000
22.28733 276.000
22.30728 260.000
22.32722 264.000
22.34717 269.000
22.36712 298.000
22.38706 274.000
22.40701 273.000
22.42696 253.000
22.44690 292.000
22.46685 249.000
22.48680 274.000
22.50675 247.000
22.52669 275.000
22.54664 272.000
22.56659 271.000
22.58653 303.000
22.60648 283.000
22.62643 254.000
22.64637 274.000
22.66632 274.000
22.68627 300.000
22.70621 258.000
22.72616 287.000
22.74611 262.000
22.76606 301.000
22.78600 263.000
22.80595 289.000
22.82590 295.000
22.84584 299.000
22.86579 276.000
22.88574 264.000
22.90568 320.000
22.92563 277.000
22.94558 280.000
22.96553 261.000
22.98547 309.000
23.00542 278.000
23.02537 308.000
23.04531 281.000
23.06526 306.000
23.08521 287.000
23.10515 244.000
23.12510 286.000
23.14505 293.000
23.16499 289.000
23.18494 292.000
23.20489 243.000
23.22484 271.000
23.24478 287.000
23.26473 256.000
23.28468 271.000
23.30462 269.000
23.32457 279.000
23.34452 284.000
23.36446 291.000
23.38441 278.000
23.40436 308.000
23.42431 280.000
23.44425 284.000
23.46420 267.000
23.48415 294.000
23.50409 279.000
23.52404 305.000
23.54399 298.000
23.56393 289.000
23.58388 291.000
23.60383 268.000
23.62377 271.000
23.64372 292.000
23.66367 314.000
23.68362 302.000
23.70356 286.000
23.72351 300.000
23.74346 260.000
23.76340 284.000
23.78335 260.000
23.80330 282.000
23.82324 294.000
23.84319 292.000
23.86314 317.000
23.88309 282.000
23.90303 308.000
23.92298 293.000
23.94293 311.000
23.96287 301.000
23.98282 299.000
24.00277 301.000
24.02271 283.000
24.04266 301.000
24.06261 318.000
24.08256 284.000
24.10250 286.000
24.12245 287.000
24.14240 293.000
24.16234 332.000
24.18229 327.000
24.20224 269.000
24.22218 288.000
24.24213 279.000
24.26208 318.000
24.28202 281.000
24.30197 287.000
24.32192 311.000
24.34187 286.000
24.36181 306.000
24.38176 300.000
24.40171 314.000
24.42165 277.000
24.44160 274.000
24.46155 312.000
24.48149 286.000
24.50144 284.000
24.52139 310.000
24.54134 290.000
24.56128 256.000
24.58123 304.000
24.60118 279.000
24.62112 280.000
24.64107 307.000
24.66102 294.000
24.68096 293.000
24.70091 321.000
24.72086 308.000
24.74080 314.000
24.76075 300.000
24.78070 306.000
24.80065 316.000
24.82059 309.000
24.84054 283.000
24.86049 322.000
24.88043 359.000
24.90038 282.000
24.92033 331.000
24.94027 350.000
24.96022 308.000
24.98017 311.000
25.00012 321.000
25.02006 343.000
25.04001 357.000
25.05996 280.000
25.07990 336.000
25.09985 299.000
25.11980 329.000
25.13974 316.000
25.15969 275.000
25.17964 311.000
25.19958 316.000
25.21953 319.000
25.23948 303.000
25.25943 313.000
25.27937 301.000
25.29932 267.000
25.31927 346.000
25.33921 355.000
25.35916 340.000
25.37911 264.000
25.39905 323.000
25.41900 297.000
25.43895 296.000
25.45890 314.000
25.47884 310.000
25.49879 311.000
25.51874 314.000
25.53868 316.000
25.55863 319.000
25.57858 280.000
25.59852 336.000
25.61847 280.000
25.63842 311.000
25.65837 301.000
25.67831 291.000
25.69826 314.000
25.71821 348.000
25.73815 267.000
25.75810 305.000
25.77805 290.000
25.79799 331.000
25.81794 310.000
25.83789 315.000
25.85783 327.000
25.87778 282.000
25.89773 318.000
25.91768 315.000
25.93762 309.000
25.95757 316.000
25.97752 324.000
25.99746 354.000
26.01741 306.000
26.03736 314.000
26.05730 328.000
26.07725 314.000
26.09720 308.000
26.11715 336.000
26.13709 320.000
26.15704 312.000
26.17699 319.000
26.19693 335.000
26.21688 314.000
26.23683 308.000
26.25677 326.000
26.27672 331.000
26.29667 312.000
26.31661 326.000
26.33656 321.000
26.35651 311.000
26.37646 314.000
26.39640 338.000
26.41635 318.000
26.43630 324.000
26.45624 318.000
26.47619 340.000
26.49614 321.000
26.51608 323.000
26.53603 322.000
26.55598 325.000
26.57593 344.000
26.59587 348.000
26.61582 366.000
26.63577 332.000
26.65571 344.000
26.67566 321.000
26.69561 305.000
26.71555 373.000
26.73550 334.000
26.75545 332.000
26.77539 328.000
26.79534 379.000
26.81529 347.000
26.83524 296.000
26.85518 314.000
26.87513 321.000
26.89508 364.000
26.91502 316.000
26.93497 338.000
26.95492 356.000
26.97486 361.000
26.99481 335.000
27.01476 351.000
27.03471 350.000
27.05465 364.000
27.07460 362.000
27.09455 337.000
27.11449 324.000
27.13444 353.000
27.15439 340.000
27.17433 368.000
27.19428 354.000
27.21423 331.000
27.23417 341.000
27.25412 327.000
27.27407 356.000
27.29402 326.000
27.31396 328.000
27.33391 343.000
27.35386 358.000
27.37380 341.000
27.39375 349.000
27.41370 344.000
27.43364 356.000
27.45359 340.000
27.47354 339.000
27.49349 351.000
27.51343 330.000
27.53338 327.000
27.55333 360.000
27.57327 353.000
27.59322 344.000
27.61317 325.000
27.63311 358.000
27.65306 332.000
27.67301 324.000
27.69296 344.000
27.71290 355.000
27.73285 373.000
27.75280 338.000
27.77274 367.000
27.79269 339.000
27.81264 383.000
27.83258 344.000
27.85253 352.000
27.87248 330.000
27.89242 346.000
27.91237 345.000
27.93232 356.000
27.95227 380.000
27.97221 339.000
27.99216 334.000
28.01211 376.000
28.03205 362.000
28.05200 371.000
28.07195 333.000
28.09189 358.000
28.11184 371.000
28.13179 352.000
28.15174 345.000
28.17168 367.000
28.19163 343.000
28.21158 323.000
28.23152 370.000
28.25147 361.000
28.27142 340.000
28.29136 358.000
28.31131 363.000
28.33126 337.000
28.35120 389.000
28.37115 325.000
28.39110 328.000
28.41105 381.000
28.43099 356.000
28.45094 390.000
28.47089 333.000
28.49083 330.000
28.51078 379.000
28.53073 363.000
28.55067 363.000
28.57062 355.000
28.59057 388.000
28.61052 373.000
28.63046 360.000
28.65041 361.000
28.67036 356.000
28.69030 340.000
28.71025 340.000
28.73020 344.000
28.75014 368.000
28.77009 377.000
28.79004 327.000
28.80998 350.000
28.82993 391.000
28.84988 394.000
28.86983 384.000
28.88977 352.000
28.90972 354.000
28.92967 367.000
28.94961 388.000
28.96956 337.000
28.98951 376.000
29.00945 373.000
29.02940 374.000
29.04935 367.000
29.06930 356.000
29.08924 387.000
29.10919 389.000
29.12914 362.000
29.14908 428.000
29.16903 349.000
29.18898 386.000
29.20892 423.000
29.22887 410.000
29.24882 413.000
29.26877 397.000
29.28871 443.000
29.30866 430.000
29.32861 459.000
29.34855 455.000
29.36850 440.000
29.38845 498.000
29.40839 467.000
29.42834 437.000
29.44829 461.000
29.46823 418.000
29.48818 409.000
29.50813 464.000
29.52808 405.000
29.54802 404.000
29.56797 378.000
29.58792 430.000
29.60786 388.000
29.62781 392.000
29.64776 367.000
29.66770 374.000
29.68765 405.000
29.70760 366.000
29.72755 387.000
29.74749 389.000
29.76744 380.000
29.78739 358.000
29.80733 359.000
29.82728 393.000
29.84723 404.000
29.86717 376.000
29.88712 387.000
29.90707 380.000
29.92701 361.000
29.94696 388.000
29.96691 406.000
29.98686 436.000
30.00680 360.000
30.02675 409.000
30.04670 404.000
30.06664 411.000
30.08659 430.000
30.10654 459.000
30.12648 455.000
30.14643 481.000
30.16638 512.000
30.18633 537.000
30.20627 599.000
30.22622 589.000
30.24617 612.000
30.26611 679.000
30.28606 678.000
30.30601 589.000
30.32595 613.000
30.34590 575.000
30.36585 513.000
30.38579 441.000
30.40574 417.000
30.42569 428.000
30.44564 404.000
30.46558 391.000
30.48553 433.000
30.50548 409.000
30.52542 378.000
30.54537 393.000
30.56532 377.000
30.58526 381.000
30.60521 359.000
30.62516 367.000
30.64511 360.000
30.66505 374.000
30.68500 371.000
30.70495 371.000
30.72489 382.000
30.74484 369.000
30.76479 360.000
30.78473 375.000
30.80468 365.000
30.82463 372.000
30.84458 367.000
30.86452 376.000
30.88447 350.000
30.90442 394.000
30.92436 384.000
30.94431 378.000
30.96426 395.000
30.98420 349.000
31.00415 371.000
31.02410 403.000
31.04404 381.000
31.06399 360.000
31.08394 391.000
31.10389 341.000
31.12383 388.000
31.14378 356.000
31.16373 382.000
31.18367 360.000
31.20362 378.000
31.22357 388.000
31.24351 400.000
31.26346 389.000
31.28341 360.000
31.30336 394.000
31.32330 350.000
31.34325 399.000
31.36320 386.000
31.38314 348.000
31.40309 381.000
31.42304 371.000
31.44298 395.000
31.46293 339.000
31.48288 370.000
31.50282 358.000
31.52277 344.000
31.54272 373.000
31.56267 366.000
31.58261 370.000
31.60256 378.000
31.62251 333.000
31.64245 360.000
31.66240 368.000
31.68235 393.000
31.70229 363.000
31.72224 352.000
31.74219 360.000
31.76214 379.000
31.78208 383.000
31.80203 372.000
31.82198 386.000
31.84192 363.000
31.86187 367.000
31.88182 391.000
31.90176 358.000
31.92171 377.000
31.94166 387.000
31.96160 375.000
31.98155 356.000
32.00150 366.000
32.02145 361.000
32.04139 378.000
32.06134 350.000
32.08129 377.000
32.10123 349.000
32.12118 372.000
32.14113 396.000
32.16107 397.000
32.18102 364.000
32.20097 378.000
32.22092 332.000
32.24086 357.000
32.26081 349.000
32.28076 369.000
32.30070 332.000
32.32065 342.000
32.34060 377.000
32.36054 344.000
32.38049 346.000
32.40044 332.000
32.42039 364.000
32.44033 396.000
32.46028 349.000
32.48023 369.000
32.50017 334.000
32.52012 359.000
32.54007 376.000
32.56001 351.000
32.57996 334.000
32.59991 367.000
32.61985 328.000
32.63980 345.000
32.65975 372.000
32.67970 321.000
32.69964 337.000
32.71959 363.000
32.73954 382.000
32.75948 338.000
32.77943 365.000
32.79938 342.000
32.81932 352.000
32.83927 366.000
32.85922 389.000
32.87917 355.000
32.89911 350.000
32.91906 329.000
32.93901 369.000
32.95895 346.000
32.97890 327.000
32.99885 324.000
33.01879 376.000
33.03874 347.000
33.05869 380.000
33.07863 390.000
33.09858 333.000
33.11853 363.000
33.13848 370.000
33.15842 356.000
33.17837 356.000
33.19832 379.000
33.21826 381.000
33.23821 385.000
33.25816 355.000
33.27810 325.000
33.29805 344.000
33.31800 375.000
33.33795 356.000
33.35789 358.000
33.37784 360.000
33.39779 377.000
33.41773 354.000
33.43768 367.000
33.45763 344.000
33.47757 358.000
33.49752 345.000
33.51747 355.000
33.53741 336.000
33.55736 366.000
33.57731 377.000
33.59726 418.000
33.61720 368.000
33.63715 380.000
33.65710 332.000
33.67704 378.000
33.69699 378.000
33.71694 368.000
33.73688 355.000
33.75683 390.000
33.77678 377.000
33.79673 390.000
33.81667 392.000
33.83662 387.000
33.85657 428.000
33.87651 355.000
33.89646 385.000
33.91641 430.000
33.93635 392.000
33.95630 403.000
33.97625 374.000
33.99620 405.000
34.01614 439.000
34.03609 464.000
34.05604 448.000
34.07598 429.000
34.09593 496.000
34.11588 523.000
34.13582 492.000
34.15577 581.000
34.17572 541.000
34.19566 574.000
34.21561 646.000
34.23556 647.000
34.25551 707.000
34.27545 674.000
34.29540 738.000
34.31535 771.000
34.33529 853.000
34.35524 755.000
34.37519 786.000
34.39513 828.000
34.41508 798.000
34.43503 839.000
34.45498 831.000
34.47492 834.000
34.49487 842.000
34.51482 827.000
34.53476 767.000
34.55471 820.000
34.57466 798.000
34.59460 783.000
34.61455 695.000
34.63450 733.000
34.65444 669.000
34.67439 681.000
34.69434 668.000
34.71429 653.000
34.73423 597.000
34.75418 610.000
34.77413 562.000
34.79407 534.000
34.81402 484.000
34.83397 477.000
34.85391 505.000
34.87386 485.000
34.89381 453.000
34.91376 450.000
34.93370 437.000
34.95365 445.000
34.97360 393.000
34.99354 413.000
35.01349 390.000
35.03344 409.000
35.05338 399.000
35.07333 386.000
35.09328 396.000
35.11322 387.000
35.13317 363.000
35.15312 357.000
35.17307 457.000
35.19301 414.000
35.21296 410.000
35.23291 365.000
35.25285 423.000
35.27280 410.000
35.29275 440.000
35.31269 433.000
35.33264 416.000
35.35259 444.000
35.37254 463.000
35.39248 452.000
35.41243 500.000
35.43238 492.000
35.45232 505.000
35.47227 519.000
35.49222 613.000
35.51216 676.000
35.53211 706.000
35.55206 800.000
35.57201 844.000
35.59195 980.000
35.61190 1028.000
35.63185 1218.000
35.65179 1237.000
35.67174 1256.000
35.69169 1239.000
35.71163 1069.000
35.73158 1041.000
35.75153 874.000
35.77147 772.000
35.79142 727.000
35.81137 597.000
35.83132 499.000
35.85126 463.000
35.87121 433.000
35.89116 399.000
35.91110 394.000
35.93105 400.000
35.95100 396.000
35.97094 390.000
35.99089 423.000
36.01084 398.000
36.03079 387.000
36.05073 398.000
36.07068 400.000
36.09063 397.000
36.11057 401.000
36.13052 380.000
36.15047 383.000
36.17041 366.000
36.19036 415.000
36.21031 426.000
36.23025 376.000
36.25020 424.000
36.27015 387.000
36.29010 441.000
36.31004 429.000
36.32999 411.000
36.34994 421.000
36.36988 406.000
36.38983 437.000
36.40978 430.000
36.42972 437.000
36.44967 430.000
36.46962 424.000
36.48957 411.000
36.50951 427.000
36.52946 414.000
36.54941 449.000
36.56935 458.000
36.58930 470.000
36.60925 445.000
36.62919 506.000
36.64914 522.000
36.66909 535.000
36.68903 531.000
36.70898 557.000
36.72893 546.000
36.74888 559.000
36.76882 629.000
36.78877 614.000
36.80872 626.000
36.82866 703.000
36.84861 721.000
36.86856 772.000
36.88850 892.000
36.90845 1020.000
36.92840 1151.000
36.94835 1363.000
36.96829 1569.000
36.98824 1805.000
37.00819 2137.000
37.02813 2493.000
37.04808 2828.000
37.06803 3109.000
37.08797 3603.000
37.10792 3805.000
37.12787 3832.000
37.14781 3802.000
37.16776 3632.000
37.18771 3261.000
37.20766 2790.000
37.22760 2384.000
37.24755 1998.000
37.26750 1646.000
37.28744 1318.000
37.30739 1046.000
37.32734 902.000
37.34728 715.000
37.36723 596.000
37.38718 560.000
37.40713 488.000
37.42707 443.000
37.44702 421.000
37.46697 432.000
37.48691 412.000
37.50686 376.000
37.52681 388.000
37.54675 359.000
37.56670 354.000
37.58665 343.000
37.60660 358.000
37.62654 369.000
37.64649 374.000
37.66644 347.000
37.68638 334.000
37.70633 331.000
37.72628 332.000
37.74622 355.000
37.76617 360.000
37.78612 350.000
37.80606 349.000
37.82601 311.000
37.84596 360.000
37.86591 334.000
37.88585 362.000
37.90580 350.000
37.92575 314.000
37.94569 342.000
37.96564 322.000
37.98559 381.000
38.00553 327.000
38.02548 330.000
38.04543 358.000
38.06538 338.000
38.08532 331.000
38.10527 337.000
38.12522 313.000
38.14516 341.000
38.16511 350.000
38.18506 314.000
38.20500 349.000
38.22495 357.000
38.24490 361.000
38.26484 332.000
38.28479 356.000
38.30474 322.000
38.32469 346.000
38.34463 344.000
38.36458 348.000
38.38453 340.000
38.40447 304.000
38.42442 343.000
38.44437 380.000
38.46431 340.000
38.48426 338.000
38.50421 316.000
38.52416 330.000
38.54410 357.000
38.56405 324.000
38.58400 349.000
38.60394 341.000
38.62389 296.000
38.64384 329.000
38.66378 345.000
38.68373 329.000
38.70368 322.000
38.72362 346.000
38.74357 320.000
38.76352 348.000
38.78347 335.000
38.80341 324.000
38.82336 343.000
38.84331 346.000
38.86325 325.000
38.88320 315.000
38.90315 339.000
38.92309 348.000
38.94304 328.000
38.96299 321.000
38.98294 342.000
39.00288 303.000
39.02283 299.000
39.04278 297.000
39.06272 327.000
39.08267 335.000
39.10262 318.000
39.12256 306.000
39.14251 353.000
39.16246 344.000
39.18241 346.000
39.20235 339.000
39.22230 323.000
39.24225 342.000
39.26219 346.000
39.28214 315.000
39.30209 313.000
39.32203 357.000
39.34198 328.000
39.36193 316.000
39.38187 323.000
39.40182 315.000
39.42177 358.000
39.44172 336.000
39.46166 335.000
39.48161 310.000
39.50156 329.000
39.52150 295.000
39.54145 329.000
39.56140 293.000
39.58134 322.000
39.60129 314.000
39.62124 318.000
39.64119 300.000
39.66113 334.000
39.68108 311.000
39.70103 301.000
39.72097 309.000
39.74092 315.000
39.76087 306.000
39.78081 320.000
39.80076 319.000
39.82071 322.000
39.84065 330.000
39.86060 339.000
39.88055 339.000
39.90050 346.000
39.92044 320.000
39.94039 310.000
39.96034 336.000
39.98028 307.000
40.00023 325.000
40.02018 288.000
40.04012 292.000
40.06007 346.000
40.08002 355.000
40.09997 344.000
40.11991 321.000
40.13986 309.000
40.15981 300.000
40.17975 317.000
40.19970 347.000
40.21965 328.000
40.23959 304.000
40.25954 286.000
40.27949 306.000
40.29943 299.000
40.31938 336.000
40.33933 314.000
40.35928 310.000
40.37922 334.000
40.39917 330.000
40.41912 330.000
40.43906 316.000
40.45901 293.000
40.47896 331.000
40.49890 330.000
40.51885 328.000
40.53880 292.000
40.55875 327.000
40.57869 320.000
40.59864 319.000
40.61859 306.000
40.63853 331.000
40.65848 355.000
40.67843 320.000
40.69837 337.000
40.71832 323.000
40.73827 348.000
40.75822 334.000
40.77816 284.000
40.79811 282.000
40.81806 348.000
40.83800 333.000
40.85795 306.000
40.87790 297.000
40.89784 302.000
40.91779 347.000
40.93774 341.000
40.95768 325.000
40.97763 333.000
40.99758 327.000
41.01753 312.000
41.03747 331.000
41.05742 317.000
41.07737 314.000
41.09731 328.000
41.11726 358.000
41.13721 310.000
41.15715 309.000
41.17710 347.000
41.19705 327.000
41.21700 320.000
41.23694 338.000
41.25689 314.000
41.27684 324.000
41.29678 328.000
41.31673 326.000
41.33668 337.000
41.35662 316.000
41.37657 343.000
41.39652 324.000
41.41646 369.000
41.43641 325.000
41.45636 329.000
41.47631 351.000
41.49625 298.000
41.51620 320.000
41.53615 317.000
41.55609 325.000
41.57604 284.000
41.59599 334.000
41.61593 302.000
41.63588 333.000
41.65583 342.000
41.67578 335.000
41.69572 333.000
41.71567 328.000
41.73562 308.000
41.75556 331.000
41.77551 285.000
41.79546 314.000
41.81540 331.000
41.83535 334.000
41.85530 314.000
41.87524 313.000
41.89519 362.000
41.91514 351.000
41.93509 313.000
41.95503 354.000
41.97498 365.000
41.99493 337.000
42.01487 357.000
42.03482 385.000
42.05477 345.000
42.07471 382.000
42.09466 329.000
42.11461 347.000
42.13456 337.000
42.15450 388.000
42.17445 374.000
42.19440 389.000
42.21434 341.000
42.23429 390.000
42.25424 407.000
42.27418 379.000
42.29413 371.000
42.31408 400.000
42.33403 401.000
42.35397 418.000
42.37392 422.000
42.39387 467.000
42.41381 431.000
42.43376 467.000
42.45371 466.000
42.47365 488.000
42.49360 509.000
42.51355 455.000
42.53349 536.000
42.55344 528.000
42.57339 546.000
42.59334 549.000
42.61328 598.000
42.63323 566.000
42.65318 638.000
42.67312 645.000
42.69307 677.000
42.71302 711.000
42.73296 719.000
42.75291 785.000
42.77286 877.000
42.79281 921.000
42.81275 893.000
42.83270 1066.000
42.85265 1098.000
42.87259 1278.000
42.89254 1421.000
42.91249 1503.000
42.93243 1770.000
42.95238 2013.000
42.97233 2296.000
42.99227 2550.000
43.01222 2866.000
43.03217 3196.000
43.05212 3595.000
43.07206 3995.000
43.09201 4300.000
43.11196 4623.000
43.13190 5022.000
43.15185 5126.000
43.17180 5051.000
43.19174 4887.000
43.21169 4583.000
43.23164 4031.000
43.25159 3684.000
43.27153 3180.000
43.29148 2812.000
43.31143 2453.000
43.33137 2030.000
43.35132 1743.000
43.37127 1356.000
43.39121 1162.000
43.41116 951.000
43.43111 775.000
43.45105 709.000
43.47100 621.000
43.49095 583.000
43.51090 540.000
43.53084 493.000
43.55079 445.000
43.57074 462.000
43.59068 404.000
43.61063 417.000
43.63058 406.000
43.65052 361.000
43.67047 405.000
43.69042 404.000
43.71037 379.000
43.73031 377.000
43.75026 388.000
43.77021 370.000
43.79015 354.000
43.81010 360.000
43.83005 354.000
43.84999 351.000
43.86994 349.000
43.88989 343.000
43.90984 320.000
43.92978 336.000
43.94973 319.000
43.96968 354.000
43.98962 353.000
44.00957 326.000
44.02952 345.000
44.04946 352.000
44.06941 329.000
44.08936 336.000
44.10930 336.000
44.12925 322.000
44.14920 313.000
44.16915 328.000
44.18909 323.000
44.20904 336.000
44.22899 326.000
44.24893 349.000
44.26888 335.000
44.28883 308.000
44.30877 352.000
44.32872 358.000
44.34867 313.000
44.36862 318.000
44.38856 351.000
44.40851 318.000
44.42846 295.000
44.44840 329.000
44.46835 337.000
44.48830 297.000
44.50824 327.000
44.52819 313.000
44.54814 305.000
44.56808 270.000
44.58803 324.000
44.60798 314.000
44.62793 298.000
44.64787 320.000
44.66782 332.000
44.68777 327.000
44.70771 313.000
44.72766 296.000
44.74761 299.000
44.76755 295.000
44.78750 296.000
44.80745 291.000
44.82740 292.000
44.84734 333.000
44.86729 277.000
44.88724 269.000
44.90718 334.000
44.92713 297.000
44.94708 320.000
44.96702 289.000
44.98697 297.000
45.00692 307.000
45.02686 294.000
45.04681 324.000
45.06676 304.000
45.08671 334.000
45.10665 320.000
45.12660 299.000
45.14655 319.000
45.16649 280.000
45.18644 301.000
45.20639 295.000
45.22633 301.000
45.24628 329.000
45.26623 273.000
45.28618 310.000
45.30612 311.000
45.32607 300.000
45.34602 301.000
45.36596 318.000
45.38591 295.000
45.40586 288.000
45.42580 295.000
45.44575 293.000
45.46570 294.000
45.48565 303.000
45.50559 302.000
45.52554 297.000
45.54549 298.000
45.56543 287.000
45.58538 320.000
45.60533 295.000
45.62527 320.000
45.64522 312.000
45.66517 322.000
45.68511 264.000
45.70506 321.000
45.72501 292.000
45.74496 338.000
45.76490 264.000
45.78485 279.000
45.80480 328.000
45.82474 280.000
45.84469 296.000
45.86464 288.000
45.88458 306.000
45.90453 253.000
45.92448 313.000
45.94443 292.000
45.96437 317.000
45.98432 287.000
46.00427 308.000
46.02421 254.000
46.04416 279.000
46.06411 297.000
46.08405 277.000
46.10400 304.000
46.12395 296.000
46.14389 283.000
46.16384 286.000
46.18379 291.000
46.20374 263.000
46.22368 303.000
46.24363 289.000
46.26358 306.000
46.28352 295.000
46.30347 307.000
46.32342 276.000
46.34336 307.000
46.36331 307.000
46.38326 300.000
46.40321 311.000
46.42315 314.000
46.44310 297.000
46.46305 294.000
46.48299 298.000
46.50294 301.000
46.52289 287.000
46.54283 303.000
46.56278 282.000
46.58273 255.000
46.60267 276.000
46.62262 308.000
46.64257 291.000
46.66252 312.000
46.68246 301.000
46.70241 273.000
46.72236 302.000
46.74230 273.000
46.76225 306.000
46.78220 307.000
46.80214 278.000
46.82209 326.000
46.84204 311.000
46.86199 281.000
46.88193 263.000
46.90188 310.000
46.92183 273.000
46.94177 307.000
46.96172 278.000
46.98167 335.000
47.00161 298.000
47.02156 320.000
47.04151 307.000
47.06146 282.000
47.08140 351.000
47.10135 307.000
47.12130 291.000
47.14124 298.000
47.16119 288.000
47.18114 298.000
47.20108 295.000
47.22103 290.000
47.24098 290.000
47.26092 287.000
47.28087 304.000
47.30082 284.000
47.32077 278.000
47.34071 289.000
47.36066 315.000
47.38061 283.000
47.40055 304.000
47.42050 292.000
47.44045 305.000
47.46039 282.000
47.48034 305.000
47.50029 244.000
47.52024 302.000
47.54018 293.000
47.56013 315.000
47.58008 269.000
47.60002 268.000
47.61997 293.000
47.63992 289.000
47.65986 306.000
47.67981 281.000
47.69976 301.000
47.71970 293.000
47.73965 288.000
47.75960 293.000
47.77955 291.000
47.79949 309.000
47.81944 302.000
47.83939 291.000
47.85933 290.000
47.87928 260.000
47.89923 287.000
47.91917 306.000
47.93912 322.000
47.95907 299.000
47.97902 285.000
47.99896 265.000
48.01891 317.000
48.03886 302.000
48.05880 317.000
48.07875 318.000
48.09870 289.000
48.11864 303.000
48.13859 313.000
48.15854 285.000
48.17848 292.000
48.19843 290.000
48.21838 300.000
48.23833 303.000
48.25827 293.000
48.27822 281.000
48.29817 282.000
48.31811 295.000
48.33806 294.000
48.35801 292.000
48.37795 296.000
48.39790 261.000
48.41785 284.000
48.43780 286.000
48.45774 273.000
48.47769 265.000
48.49764 281.000
48.51758 287.000
48.53753 281.000
48.55748 279.000
48.57742 279.000
48.59737 306.000
48.61732 264.000
48.63726 262.000
48.65721 273.000
48.67716 284.000
48.69711 259.000
48.71705 292.000
48.73700 271.000
48.75695 276.000
48.77689 318.000
48.79684 280.000
48.81679 295.000
48.83673 303.000
48.85668 277.000
48.87663 278.000
48.89658 282.000
48.91652 272.000
48.93647 311.000
48.95642 300.000
48.97636 298.000
48.99631 301.000
49.01626 338.000
49.03620 302.000
49.05615 283.000
49.07610 309.000
49.09605 305.000
49.11599 284.000
49.13594 345.000
49.15589 338.000
49.17583 290.000
49.19578 309.000
49.21573 316.000
49.23567 325.000
49.25562 312.000
49.27557 323.000
49.29551 332.000
49.31546 304.000
49.33541 346.000
49.35536 294.000
49.37530 296.000
49.39525 288.000
49.41520 324.000
49.43514 343.000
49.45509 381.000
49.47504 301.000
49.49498 310.000
49.51493 334.000
49.53488 297.000
49.55483 356.000
49.57477 322.000
49.59472 303.000
49.61467 311.000
49.63461 338.000
49.65456 311.000
49.67451 314.000
49.69445 355.000
49.71440 324.000
49.73435 308.000
49.75429 297.000
49.77424 306.000
49.79419 304.000
49.81414 325.000
49.83408 298.000
49.85403 341.000
49.87398 290.000
49.89392 321.000
49.91387 308.000
49.93382 245.000
49.95376 270.000
49.97371 291.000
49.99366 298.000
50.01361 304.000
50.03355 260.000
50.05350 264.000
50.07345 273.000
50.09339 280.000
50.11334 289.000
50.13329 284.000
50.15323 278.000
50.17318 284.000
50.19313 277.000
50.21307 290.000
50.23302 267.000
50.25297 266.000
50.27292 253.000
50.29286 268.000
50.31281 286.000
50.33276 300.000
50.35270 295.000
50.37265 289.000
50.39260 276.000
50.41254 279.000
50.43249 305.000
50.45244 282.000
50.47239 286.000
50.49233 274.000
50.51228 270.000
50.53223 300.000
50.55217 271.000
50.57212 317.000
50.59207 283.000
50.61201 279.000
50.63196 301.000
50.65191 297.000
50.67186 273.000
50.69180 283.000
50.71175 281.000
50.73170 303.000
50.75164 304.000
50.77159 254.000
50.79154 268.000
50.81148 267.000
50.83143 262.000
50.85138 262.000
50.87132 313.000
50.89127 279.000
50.91122 289.000
50.93117 292.000
50.95111 279.000
50.97106 267.000
50.99101 276.000
51.01095 282.000
51.03090 264.000
51.05085 293.000
51.07079 257.000
51.09074 278.000
51.11069 281.000
51.13064 288.000
51.15058 277.000
51.17053 279.000
51.19048 260.000
51.21042 302.000
51.23037 298.000
51.25032 301.000
51.27026 290.000
51.29021 301.000
51.31016 280.000
51.33010 251.000
51.35005 261.000
51.37000 283.000
51.38995 297.000
51.40989 284.000
51.42984 269.000
51.44979 292.000
51.46973 290.000
51.48968 277.000
51.50963 268.000
51.52957 257.000
51.54952 291.000
51.56947 271.000
51.58942 302.000
51.60936 282.000
51.62931 313.000
51.64926 264.000
51.66920 292.000
51.68915 239.000
51.70910 298.000
51.72904 289.000
51.74899 284.000
51.76894 252.000
51.78888 289.000
51.80883 316.000
51.82878 275.000
51.84873 316.000
51.86867 325.000
51.88862 292.000
51.90857 320.000
51.92851 289.000
51.94846 301.000
51.96841 271.000
51.98835 296.000
52.00830 312.000
52.02825 260.000
52.04820 307.000
52.06814 312.000
52.08809 309.000
52.10804 280.000
52.12798 322.000
52.14793 275.000
52.16788 283.000
52.18782 267.000
52.20777 326.000
52.22772 309.000
52.24767 296.000
52.26761 325.000
52.28756 284.000
52.30751 300.000
52.32745 272.000
52.34740 293.000
52.36735 288.000
52.38729 273.000
52.40724 304.000
52.42719 285.000
52.44713 298.000
52.46708 287.000
52.48703 283.000
52.50698 282.000
52.52692 300.000
52.54687 260.000
52.56682 266.000
52.58676 278.000
52.60671 298.000
52.62666 317.000
52.64660 300.000
52.66655 295.000
52.68650 302.000
52.70645 299.000
52.72639 256.000
52.74634 287.000
52.76629 256.000
52.78623 258.000
52.80618 266.000
52.82613 283.000
52.84607 310.000
52.86602 270.000
52.88597 262.000
52.90591 260.000
52.92586 316.000
52.94581 308.000
52.96576 270.000
52.98570 284.000
53.00565 314.000
53.02560 300.000
53.04554 276.000
53.06549 290.000
53.08544 296.000
53.10538 284.000
53.12533 288.000
53.14528 278.000
53.16523 294.000
53.18517 262.000
53.20512 281.000
53.22507 309.000
53.24501 287.000
53.26496 295.000
53.28491 270.000
53.30485 300.000
53.32480 258.000
53.34475 313.000
53.36469 272.000
53.38464 285.000
53.40459 305.000
53.42454 299.000
53.44448 267.000
53.46443 303.000
53.48438 306.000
53.50432 292.000
53.52427 287.000
53.54422 299.000
53.56416 325.000
53.58411 319.000
53.60406 274.000
53.62401 328.000
53.64395 315.000
53.66390 334.000
53.68385 352.000
53.70379 339.000
53.72374 339.000
53.74369 320.000
53.76363 352.000
53.78358 354.000
53.80353 361.000
53.82348 319.000
53.84342 320.000
53.86337 323.000
53.88332 355.000
53.90326 344.000
53.92321 317.000
53.94316 330.000
53.96310 298.000
53.98305 321.000
54.00300 297.000
54.02294 335.000
54.04289 270.000
54.06284 314.000
54.08279 274.000
54.10273 324.000
54.12268 287.000
54.14263 257.000
54.16257 259.000
54.18252 277.000
54.20247 271.000
54.22241 294.000
54.24236 283.000
54.26231 267.000
54.28226 277.000
54.30220 304.000
54.32215 326.000
54.34210 303.000
54.36204 298.000
54.38199 306.000
54.40194 278.000
54.42188 291.000
54.44183 259.000
54.46178 271.000
54.48172 278.000
54.50167 268.000
54.52162 265.000
54.54157 290.000
54.56151 297.000
54.58146 299.000
54.60141 282.000
54.62135 254.000
54.64130 288.000
54.66125 313.000
54.68119 307.000
54.70114 266.000
54.72109 290.000
54.74104 288.000
54.76098 270.000
54.78093 249.000
54.80088 289.000
54.82082 277.000
54.84077 283.000
54.86072 261.000
54.88066 311.000
54.90061 278.000
54.92056 294.000
54.94050 286.000
54.96045 261.000
54.98040 279.000
55.00035 269.000
55.02029 291.000
55.04024 272.000
55.06019 259.000
55.08013 284.000
55.10008 290.000
55.12003 310.000
55.13997 305.000
55.15992 252.000
55.17987 261.000
55.19982 272.000
55.21976 285.000
55.23971 276.000
55.25966 280.000
55.27960 288.000
55.29955 271.000
55.31950 243.000
55.33944 291.000
55.35939 261.000
55.37934 276.000
55.39929 266.000
55.41923 303.000
55.43918 280.000
55.45913 291.000
55.47907 305.000
55.49902 278.000
55.51897 264.000
55.53891 294.000
55.55886 302.000
55.57881 270.000
55.59875 265.000
55.61870 270.000
55.63865 265.000
55.65860 262.000
55.67854 282.000
55.69849 270.000
55.71844 285.000
55.73838 288.000
55.75833 303.000
55.77828 278.000
55.79822 296.000
55.81817 294.000
55.83812 298.000
55.85807 290.000
55.87801 282.000
55.89796 283.000
55.91791 268.000
55.93785 280.000
55.95780 300.000
55.97775 279.000
55.99769 282.000
56.01764 301.000
56.03759 265.000
56.05753 297.000
56.07748 315.000
56.09743 256.000
56.11738 303.000
56.13732 282.000
56.15727 268.000
56.17722 303.000
56.19716 276.000
56.21711 291.000
56.23706 260.000
56.25700 273.000
56.27695 291.000
56.29690 277.000
56.31685 315.000
56.33679 288.000
56.35674 258.000
56.37669 249.000
56.39663 238.000
56.41658 288.000
56.43653 294.000
56.45647 282.000
56.47642 295.000
56.49637 271.000
56.51631 259.000
56.53626 270.000
56.55621 284.000
56.57616 295.000
56.59610 312.000
56.61605 308.000
56.63600 281.000
56.65594 296.000
56.67589 269.000
56.69584 279.000
56.71578 291.000
56.73573 270.000
56.75568 282.000
56.77563 292.000
56.79557 285.000
56.81552 280.000
56.83547 281.000
56.85541 297.000
56.87536 306.000
56.89531 301.000
56.91525 286.000
56.93520 334.000
56.95515 274.000
56.97510 326.000
56.99504 308.000
57.01499 311.000
57.03494 343.000
57.05488 329.000
57.07483 351.000
57.09478 334.000
57.11472 318.000
57.13467 341.000
57.15462 356.000
57.17456 349.000
57.19451 359.000
57.21446 367.000
57.23441 396.000
57.25435 407.000
57.27430 442.000
57.29425 430.000
57.31419 487.000
57.33414 479.000
57.35409 465.000
57.37403 508.000
57.39398 490.000
57.41393 425.000
57.43388 458.000
57.45382 442.000
57.47377 384.000
57.49372 395.000
57.51366 405.000
57.53361 374.000
57.55356 390.000
57.57350 351.000
57.59345 333.000
57.61340 347.000
57.63334 329.000
57.65329 320.000
57.67324 293.000
57.69319 336.000
57.71313 301.000
57.73308 310.000
57.75303 294.000
57.77297 299.000
57.79292 288.000
57.81287 264.000
57.83281 299.000
57.85276 282.000
57.87271 287.000
57.89266 281.000
57.91260 289.000
57.93255 315.000
57.95250 282.000
57.97244 274.000
57.99239 249.000
58.01234 282.000
58.03228 282.000
58.05223 294.000
58.07218 307.000
58.09212 266.000
58.11207 300.000
58.13202 292.000
58.15197 273.000
58.17191 271.000
58.19186 263.000
58.21181 306.000
58.23175 273.000
58.25170 293.000
58.27165 301.000
58.29159 278.000
58.31154 327.000
58.33149 268.000
58.35144 245.000
58.37138 295.000
58.39133 275.000
58.41128 292.000
58.43122 291.000
58.45117 286.000
58.47112 267.000
58.49106 280.000
58.51101 277.000
58.53096 254.000
58.55090 276.000
58.57085 302.000
58.59080 278.000
58.61075 287.000
58.63069 265.000
58.65064 300.000
58.67059 289.000
58.69053 274.000
58.71048 294.000
58.73043 290.000
58.75037 277.000
58.77032 292.000
58.79027 271.000
58.81022 294.000
58.83016 259.000
58.85011 299.000
58.87006 263.000
58.89000 238.000
58.90995 307.000
58.92990 279.000
58.94984 260.000
58.96979 259.000
58.98974 290.000
59.00969 296.000
59.02963 277.000
59.04958 284.000
59.06953 241.000
59.08947 268.000
59.10942 269.000
59.12937 265.000
59.14931 289.000
59.16926 268.000
59.18921 282.000
59.20915 281.000
59.22910 318.000
59.24905 278.000
59.26900 271.000
59.28894 297.000
59.30889 289.000
59.32884 279.000
59.34878 260.000
59.36873 297.000
59.38868 300.000
59.40862 303.000
59.42857 287.000
59.44852 264.000
59.46847 251.000
59.48841 298.000
59.50836 282.000
59.52831 291.000
59.54825 295.000
59.56820 290.000
59.58815 269.000
59.60809 287.000
59.62804 280.000
59.64799 256.000
59.66793 275.000
59.68788 277.000
59.70783 283.000
59.72778 251.000
59.74772 263.000
59.76767 292.000
59.78762 296.000
59.80756 274.000
59.82751 282.000
59.84746 314.000
59.86740 301.000
59.88735 307.000
59.90730 271.000
59.92725 266.000
59.94719 326.000
59.96714 278.000
59.98709 297.000
60.00703 297.000
60.02698 338.000
60.04693 326.000
60.06687 284.000
60.08682 317.000
60.10677 282.000
60.12671 266.000
60.14666 277.000
60.16661 276.000
60.18656 298.000
60.20650 284.000
60.22645 296.000
60.24640 340.000
60.26634 288.000
60.28629 291.000
60.30624 273.000
60.32618 266.000
60.34613 269.000
60.36608 305.000
60.38603 288.000
60.40597 301.000
60.42592 304.000
60.44587 273.000
60.46581 309.000
60.48576 283.000
60.50571 283.000
60.52565 291.000
60.54560 261.000
60.56555 241.000
60.58550 259.000
60.60544 280.000
60.62539 262.000
60.64534 289.000
60.66528 288.000
60.68523 271.000
60.70518 281.000
60.72512 301.000
60.74507 279.000
60.76502 303.000
60.78496 287.000
60.80491 299.000
60.82486 278.000
60.84481 309.000
60.86475 291.000
60.88470 285.000
60.90465 282.000
60.92459 296.000
60.94454 305.000
60.96449 292.000
60.98443 299.000
61.00438 283.000
61.02433 293.000
61.04428 308.000
61.06422 279.000
61.08417 298.000
61.10412 290.000
61.12406 322.000
61.14401 303.000
61.16396 309.000
61.18390 306.000
61.20385 324.000
61.22380 305.000
61.24374 329.000
61.26369 320.000
61.28364 311.000
61.30359 338.000
61.32353 320.000
61.34348 326.000
61.36343 358.000
61.38337 314.000
61.40332 348.000
61.42327 333.000
61.44321 368.000
61.46316 317.000
61.48311 335.000
61.50306 367.000
61.52300 336.000
61.54295 355.000
61.56290 342.000
61.58284 363.000
61.60279 375.000
61.62274 360.000
61.64268 368.000
61.66263 356.000
61.68258 340.000
61.70252 412.000
61.72247 377.000
61.74242 363.000
61.76237 359.000
61.78231 414.000
61.80226 390.000
61.82221 378.000
61.84215 375.000
61.86210 409.000
61.88205 378.000
61.90199 387.000
61.92194 407.000
61.94189 419.000
61.96184 423.000
61.98178 377.000
62.00173 405.000
62.02168 430.000
62.04162 427.000
62.06157 446.000
62.08152 459.000
62.10146 410.000
62.12141 470.000
62.14136 496.000
62.16131 464.000
62.18125 531.000
62.20120 557.000
62.22115 561.000
62.24109 585.000
62.26104 616.000
62.28099 616.000
62.30093 634.000
62.32088 671.000
62.34083 737.000
62.36077 801.000
62.38072 843.000
62.40067 871.000
62.42062 974.000
62.44056 1087.000
62.46051 1179.000
62.48046 1234.000
62.50040 1326.000
62.52035 1446.000
62.54030 1566.000
62.56024 1628.000
62.58019 1835.000
62.60014 1875.000
62.62009 1987.000
62.64003 2069.000
62.65998 2210.000
62.67993 2186.000
62.69987 2216.000
62.71982 2154.000
62.73977 2180.000
62.75971 2049.000
62.77966 1986.000
62.79961 1891.000
62.81955 1836.000
62.83950 1604.000
62.85945 1519.000
62.87940 1417.000
62.89934 1405.000
62.91929 1259.000
62.93924 1183.000
62.95918 1073.000
62.97913 1098.000
62.99908 983.000
63.01902 896.000
63.03897 762.000
63.05892 682.000
63.07887 636.000
63.09881 544.000
63.11876 569.000
63.13871 544.000
63.15865 536.000
63.17860 486.000
63.19855 477.000
63.21849 446.000
63.23844 438.000
63.25839 364.000
63.27833 385.000
63.29828 367.000
63.31823 361.000
63.33818 355.000
63.35812 342.000
63.37807 319.000
63.39802 318.000
63.41796 337.000
63.43791 310.000
63.45786 291.000
63.47780 279.000
63.49775 337.000
63.51770 325.000
63.53765 305.000
63.55759 311.000
63.57754 331.000
63.59749 295.000
63.61743 316.000
63.63738 266.000
63.65733 288.000
63.67727 309.000
63.69722 280.000
63.71717 296.000
63.73712 318.000
63.75706 306.000
63.77701 297.000
63.79696 307.000
63.81690 286.000
63.83685 259.000
63.85680 271.000
63.87674 327.000
63.89669 287.000
63.91664 282.000
63.93658 323.000
63.95653 295.000
63.97648 321.000
63.99643 283.000
64.01637 310.000
64.03632 290.000
64.05627 321.000
64.07621 301.000
64.09616 285.000
64.11611 299.000
64.13605 287.000
64.15600 308.000
64.17595 280.000
64.19590 303.000
64.21584 272.000
64.23579 297.000
64.25574 329.000
64.27568 304.000
64.29563 296.000
64.31558 291.000
64.33552 311.000
64.35547 282.000
64.37542 302.000
64.39536 322.000
64.41531 299.000
64.43526 281.000
64.45521 287.000
64.47515 297.000
64.49510 286.000
64.51505 300.000
64.53499 313.000
64.55494 326.000
64.57489 250.000
64.59483 306.000
64.61478 261.000
64.63473 284.000
64.65468 263.000
64.67462 294.000
64.69457 295.000
64.71452 297.000
64.73446 303.000
64.75441 296.000
64.77436 278.000
64.79430 292.000
64.81425 295.000
64.83420 288.000
64.85414 283.000
64.87409 312.000
64.89404 299.000
64.91399 303.000
64.93393 293.000
64.95388 274.000
64.97383 300.000
64.99377 296.000
65.01372 290.000
65.03367 250.000
65.05361 300.000
65.07356 266.000
65.09351 268.000
65.11346 281.000
65.13340 286.000
65.15335 280.000
65.17330 285.000
65.19324 269.000
65.21319 311.000
65.23314 319.000
65.25308 300.000
65.27303 271.000
65.29298 297.000
65.31293 307.000
65.33287 261.000
65.35282 292.000
65.37277 271.000
65.39271 280.000
65.41266 300.000
65.43261 308.000
65.45255 291.000
65.47250 342.000
65.49245 282.000
65.51239 307.000
65.53234 307.000
65.55229 275.000
65.57224 320.000
65.59218 336.000
65.61213 332.000
65.63208 300.000
65.65202 280.000
65.67197 263.000
65.69192 329.000
65.71186 299.000
65.73181 309.000
65.75176 294.000
65.77171 296.000
65.79165 308.000
65.81160 289.000
65.83155 322.000
65.85149 335.000
65.87144 270.000
65.89139 306.000
65.91133 288.000
65.93128 282.000
65.95123 295.000
65.97117 291.000
65.99112 289.000
66.01107 283.000
66.03102 273.000
66.05096 290.000
66.07091 283.000
66.09086 322.000
66.11080 284.000
66.13075 308.000
66.15070 281.000
66.17064 285.000
66.19059 300.000
66.21054 295.000
66.23049 284.000
66.25043 297.000
66.27038 293.000
66.29033 265.000
66.31027 244.000
66.33022 296.000
66.35017 279.000
66.37011 271.000
66.39006 307.000
66.41001 278.000
66.42995 278.000
66.44990 277.000
66.46985 274.000
66.48980 278.000
66.50974 297.000
66.52969 301.000
66.54964 292.000
66.56958 294.000
66.58953 291.000
66.60948 293.000
66.62942 293.000
66.64937 301.000
66.66932 278.000
66.68927 273.000
66.70921 262.000
66.72916 285.000
66.74911 254.000
66.76905 274.000
66.78900 254.000
66.80895 287.000
66.82889 270.000
66.84884 268.000
66.86879 264.000
66.88874 255.000
66.90868 270.000
66.92863 275.000
66.94858 279.000
66.96852 302.000
66.98847 278.000
67.00842 279.000
67.02836 263.000
67.04831 273.000
67.06826 278.000
67.08820 254.000
67.10815 273.000
67.12810 260.000
67.14805 295.000
67.16799 257.000
67.18794 271.000
67.20789 241.000
67.22783 280.000
67.24778 255.000
67.26773 287.000
67.28767 295.000
67.30762 275.000
67.32757 262.000
67.34752 254.000
67.36746 277.000
67.38741 282.000
67.40736 281.000
67.42730 288.000
67.44725 266.000
67.46720 286.000
67.48714 266.000
67.50709 278.000
67.52704 267.000
67.54698 299.000
67.56693 247.000
67.58688 268.000
67.60683 266.000
67.62677 282.000
67.64672 275.000
67.66667 274.000
67.68661 292.000
67.70656 259.000
67.72651 274.000
67.74645 302.000
67.76640 261.000
67.78635 281.000
67.80630 270.000
67.82624 280.000
67.84619 263.000
67.86614 269.000
67.88608 269.000
67.90603 246.000
67.92598 264.000
67.94592 248.000
67.96587 264.000
67.98582 245.000
68.00576 274.000
68.02571 263.000
68.04566 248.000
68.06561 266.000
68.08555 305.000
68.10550 279.000
68.12545 259.000
68.14539 257.000
68.16534 276.000
68.18529 309.000
68.20523 297.000
68.22518 267.000
68.24513 255.000
68.26508 262.000
68.28502 246.000
68.30497 237.000
68.32492 264.000
68.34486 250.000
68.36481 237.000
68.38476 230.000
68.40470 235.000
68.42465 271.000
68.44460 270.000
68.46455 250.000
68.48449 265.000
68.50444 274.000
68.52439 274.000
68.54433 292.000
68.56428 254.000
68.58423 261.000
68.60417 287.000
68.62412 238.000
68.64407 270.000
68.66401 242.000
68.68396 267.000
68.70391 248.000
68.72386 265.000
68.74380 268.000
68.76375 299.000
68.78370 296.000
68.80364 285.000
68.82359 267.000
68.84354 268.000
68.86348 278.000
68.88343 294.000
68.90338 259.000
68.92333 262.000
68.94327 275.000
68.96322 271.000
68.98317 276.000
69.00311 245.000
69.02306 250.000
69.04301 257.000
69.06295 273.000
69.08290 248.000
69.10285 259.000
69.12279 261.000
69.14274 278.000
69.16269 266.000
69.18264 238.000
69.20258 284.000
69.22253 295.000
69.24248 277.000
69.26242 273.000
69.28237 232.000
69.30232 237.000
69.32226 282.000
69.34221 279.000
69.36216 271.000
69.38211 280.000
69.40205 312.000
69.42200 275.000
69.44195 272.000
69.46189 275.000
69.48184 273.000
69.50179 268.000
69.52173 262.000
69.54168 257.000
69.56163 275.000
69.58157 255.000
69.60152 265.000
69.62147 259.000
69.64142 245.000
69.66136 242.000
69.68131 264.000
69.70126 293.000
69.72120 265.000
69.74115 253.000
69.76110 284.000
69.78104 245.000
69.80099 246.000
69.82094 248.000
69.84089 260.000
69.86083 245.000
69.88078 252.000
69.90073 268.000
69.92067 268.000
69.94062 258.000
69.96057 269.000
69.98051 251.000
70.00046 251.000
70.02041 255.000
70.04035 271.000
70.06030 266.000
70.08025 257.000
70.10020 258.000
70.12014 276.000
70.14009 271.000
70.16004 300.000
70.17998 245.000
70.19993 241.000
70.21988 264.000
70.23982 244.000
70.25977 259.000
70.27972 315.000
70.29967 271.000
70.31961 252.000
70.33956 257.000
70.35951 271.000
70.37945 268.000
70.39940 306.000
70.41935 237.000
70.43929 256.000
70.45924 259.000
70.47919 302.000
70.49914 257.000
70.51908 267.000
70.53903 239.000
70.55898 235.000
70.57892 246.000
70.59887 275.000
70.61882 276.000
70.63876 236.000
70.65871 269.000
70.67866 279.000
70.69860 292.000
70.71855 260.000
70.73850 267.000
70.75845 254.000
70.77839 235.000
70.79834 258.000
70.81829 270.000
70.83823 254.000
70.85818 254.000
70.87813 254.000
70.89807 258.000
70.91802 271.000
70.93797 244.000
70.95792 259.000
70.97786 291.000
70.99781 266.000
71.01776 283.000
71.03770 262.000
71.05765 293.000
71.07760 275.000
71.09754 267.000
71.11749 250.000
71.13744 265.000
71.15738 257.000
71.17733 261.000
71.19728 261.000
71.21723 274.000
71.23717 289.000
71.25712 272.000
71.27707 285.000
71.29701 267.000
71.31696 297.000
71.33691 290.000
71.35685 275.000
71.37680 255.000
71.39675 254.000
71.41670 288.000
71.43664 276.000
71.45659 263.000
71.47654 259.000
71.49648 292.000
71.51643 301.000
71.53638 292.000
71.55632 299.000
71.57627 298.000
71.59622 278.000
71.61616 281.000
71.63611 290.000
71.65606 277.000
71.67601 275.000
71.69595 243.000
71.71590 244.000
71.73585 278.000
71.75579 288.000
71.77574 274.000
71.79569 255.000
71.81563 255.000
71.83558 271.000
71.85553 272.000
71.87548 266.000
71.89542 267.000
71.91537 257.000
71.93532 253.000
71.95526 253.000
71.97521 250.000
71.99516 311.000
72.01510 245.000
72.03505 267.000
72.05500 233.000
72.07495 239.000
72.09489 285.000
72.11484 275.000
72.13479 286.000
72.15473 301.000
72.17468 255.000
72.19463 256.000
72.21457 282.000
72.23452 271.000
72.25447 315.000
72.27441 267.000
72.29436 292.000
72.31431 257.000
72.33426 283.000
72.35420 263.000
72.37415 275.000
72.39410 249.000
72.41404 285.000
72.43399 281.000
72.45394 300.000
72.47388 286.000
72.49383 282.000
72.51378 276.000
72.53373 248.000
72.55367 273.000
72.57362 297.000
72.59357 268.000
72.61351 278.000
72.63346 281.000
72.65341 299.000
72.67335 290.000
72.69330 286.000
72.71325 266.000
72.73319 286.000
72.75314 277.000
72.77309 279.000
72.79304 266.000
72.81298 264.000
72.83293 301.000
72.85288 238.000
72.87282 261.000
72.89277 277.000
72.91272 249.000
72.93266 265.000
72.95261 252.000
72.97256 275.000
72.99251 251.000
73.01245 276.000
73.03240 273.000
73.05235 281.000
73.07229 283.000
73.09224 273.000
73.11219 268.000
73.13213 277.000
73.15208 276.000
73.17203 320.000
73.19197 305.000
73.21192 252.000
73.23187 272.000
73.25182 279.000
73.27176 254.000
73.29171 269.000
73.31166 286.000
73.33160 236.000
73.35155 255.000
73.37150 288.000
73.39144 276.000
73.41139 274.000
73.43134 268.000
73.45129 281.000
73.47123 259.000
73.49118 276.000
73.51113 272.000
73.53107 283.000
73.55102 279.000
73.57097 259.000
73.59091 304.000
73.61086 255.000
73.63081 290.000
73.65076 274.000
73.67070 294.000
73.69065 262.000
73.71060 258.000
73.73054 292.000
73.75049 290.000
73.77044 289.000
73.79038 268.000
73.81033 255.000
73.83028 261.000
73.85022 253.000
73.87017 271.000
73.89012 270.000
73.91007 238.000
73.93001 288.000
73.94996 262.000
73.96991 285.000
73.98985 278.000
74.00980 267.000
74.02975 267.000
74.04969 250.000
74.06964 256.000
74.08959 245.000
74.10954 304.000
74.12948 317.000
74.14943 288.000
74.16938 250.000
74.18932 258.000
74.20927 288.000
74.22922 295.000
74.24916 276.000
74.26911 309.000
74.28906 316.000
74.30900 280.000
74.32895 308.000
74.34890 286.000
74.36885 323.000
74.38879 294.000
74.40874 306.000
74.42869 333.000
74.44863 312.000
74.46858 309.000
74.48853 355.000
74.50847 352.000
74.52842 361.000
74.54837 360.000
74.56832 326.000
74.58826 362.000
74.60821 347.000
74.62816 386.000
74.64810 386.000
74.66805 374.000
74.68800 392.000
74.70794 363.000
74.72789 401.000
74.74784 410.000
74.76778 451.000
74.78773 450.000
74.80768 447.000
74.82763 509.000
74.84757 477.000
74.86752 539.000
74.88747 526.000
74.90741 550.000
74.92736 625.000
74.94731 584.000
74.96725 584.000
74.98720 660.000
75.00715 690.000
75.02710 665.000
75.04704 741.000
75.06699 690.000
75.08694 801.000
75.10688 790.000
75.12683 752.000
75.14678 789.000
75.16672 847.000
75.18667 896.000
75.20662 820.000
75.22657 867.000
75.24651 838.000
75.26646 854.000
75.28641 835.000
75.30635 738.000
75.32630 757.000
75.34625 732.000
75.36619 641.000
75.38614 652.000
75.40609 637.000
75.42603 623.000
75.44598 582.000
75.46593 536.000
75.48588 528.000
75.50582 472.000
75.52577 433.000
75.54572 443.000
75.56566 414.000
75.58561 387.000
75.60556 354.000
75.62550 375.000
75.64545 341.000
75.66540 332.000
75.68535 337.000
75.70529 308.000
75.72524 305.000
75.74519 290.000
75.76513 300.000
75.78508 346.000
75.80503 314.000
75.82497 293.000
75.84492 252.000
75.86487 293.000
75.88481 272.000
75.90476 299.000
75.92471 279.000
75.94466 262.000
75.96460 253.000
75.98455 279.000
76.00450 316.000
76.02444 297.000
76.04439 251.000
76.06434 275.000
76.08428 270.000
76.10423 302.000
76.12418 286.000
76.14413 284.000
76.16407 258.000
76.18402 265.000
76.20397 262.000
76.22391 293.000
76.24386 255.000
76.26381 246.000
76.28375 267.000
76.30370 276.000
76.32365 261.000
76.34359 298.000
76.36354 275.000
76.38349 257.000
76.40344 274.000
76.42338 283.000
76.44333 258.000
76.46328 300.000
76.48322 257.000
76.50317 278.000
76.52312 273.000
76.54306 291.000
76.56301 266.000
76.58296 267.000
76.60291 269.000
76.62285 283.000
76.64280 273.000
76.66275 274.000
76.68269 284.000
76.70264 272.000
76.72259 264.000
76.74253 273.000
76.76248 274.000
76.78243 256.000
76.80238 246.000
76.82232 282.000
76.84227 265.000
76.86222 296.000
76.88216 278.000
76.90211 273.000
76.92206 264.000
76.94200 263.000
76.96195 264.000
76.98190 283.000
77.00184 267.000
77.02179 275.000
77.04174 301.000
77.06169 299.000
77.08163 277.000
77.10158 248.000
77.12153 269.000
77.14147 234.000
77.16142 264.000
77.18137 283.000
77.20131 275.000
77.22126 271.000
77.24121 270.000
77.26116 283.000
77.28110 271.000
77.30105 221.000
77.32100 256.000
77.34094 292.000
77.36089 274.000
77.38084 267.000
77.40078 276.000
77.42073 262.000
77.44068 249.000
77.46062 264.000
77.48057 290.000
77.50052 283.000
77.52047 261.000
77.54041 263.000
77.56036 274.000
77.58031 252.000
77.60025 253.000
77.62020 252.000
77.64015 283.000
77.66009 270.000
77.68004 304.000
77.69999 258.000
77.71994 270.000
77.73988 260.000
77.75983 249.000
77.77978 255.000
77.79972 266.000
77.81967 262.000
77.83962 280.000
77.85956 268.000
77.87951 279.000
77.89946 275.000
77.91940 290.000
77.93935 229.000
77.95930 254.000
77.97925 264.000
77.99919 259.000
78.01914 286.000
78.03909 266.000
78.05903 290.000
78.07898 251.000
78.09893 252.000
78.11887 262.000
78.13882 257.000
78.15877 271.000
78.17872 274.000
78.19866 255.000
78.21861 249.000
78.23856 280.000
78.25850 261.000
78.27845 283.000
78.29840 245.000
78.31834 277.000
78.33829 269.000
78.35824 255.000
78.37819 286.000
78.39813 277.000
78.41808 279.000
78.43803 308.000
78.45797 285.000
78.47792 307.000
78.49787 282.000
78.51781 271.000
78.53776 320.000
78.55771 274.000
78.57765 296.000
78.59760 299.000
78.61755 321.000
78.63750 320.000
78.65744 329.000
78.67739 329.000
78.69734 342.000
78.71728 343.000
78.73723 350.000
78.75718 369.000
78.77712 393.000
78.79707 387.000
78.81702 361.000
78.83697 391.000
78.85691 424.000
78.87686 419.000
78.89681 461.000
78.91675 456.000
78.93670 492.000
78.95665 500.000
78.97659 555.000
78.99654 529.000
79.01649 571.000
79.03643 612.000
79.05638 605.000
79.07633 651.000
79.09628 655.000
79.11622 704.000
79.13617 716.000
79.15612 740.000
79.17606 662.000
79.19601 669.000
79.21596 644.000
79.23590 677.000
79.25585 672.000
79.27580 637.000
79.29575 622.000
79.31569 598.000
79.33564 580.000
79.35559 577.000
79.37553 531.000
79.39548 531.000
79.41543 479.000
79.43537 465.000
79.45532 469.000
79.47527 447.000
79.49521 446.000
79.51516 397.000
79.53511 374.000
79.55506 390.000
79.57500 338.000
79.59495 346.000
79.61490 338.000
79.63484 290.000
79.65479 295.000
79.67474 300.000
79.69468 291.000
79.71463 280.000
79.73458 288.000
79.75453 276.000
79.77447 299.000
79.79442 272.000
79.81437 277.000
79.83431 252.000
79.85426 288.000
79.87421 289.000
79.89415 282.000
79.91410 296.000
79.93405 236.000
79.95399 259.000
79.97394 250.000
79.99389 243.000
80.01384 272.000
80.03378 268.000
80.05373 294.000
80.07368 253.000
80.09362 282.000
80.11357 278.000
80.13352 269.000
80.15346 250.000
80.17341 253.000
80.19336 255.000
80.21331 234.000
80.23325 275.000
80.25320 252.000
80.27315 258.000
80.29309 239.000
80.31304 283.000
80.33299 247.000
80.35293 260.000
80.37288 271.000
80.39283 231.000
80.41278 262.000
80.43272 278.000
80.45267 277.000
80.47262 293.000
80.49256 283.000
80.51251 265.000
80.53246 246.000
80.55240 247.000
80.57235 287.000
80.59230 255.000
80.61224 257.000
80.63219 259.000
80.65214 257.000
80.67209 252.000
80.69203 244.000
80.71198 270.000
80.73193 293.000
80.75187 258.000
80.77182 251.000
80.79177 253.000
80.81171 264.000
80.83166 295.000
80.85161 272.000
80.87156 279.000
80.89150 294.000
80.91145 268.000
80.93140 265.000
80.95134 277.000
80.97129 249.000
80.99124 261.000
81.01118 272.000
81.03113 314.000
81.05108 256.000
81.07102 263.000
81.09097 271.000
81.11092 265.000
81.13087 244.000
81.15081 254.000
81.17076 267.000
81.19071 253.000
81.21065 247.000
81.23060 248.000
81.25055 261.000
81.27049 260.000
81.29044 270.000
81.31039 286.000
81.33034 226.000
81.35028 275.000
81.37023 245.000
81.39018 249.000
81.41012 270.000
81.43007 293.000
81.45002 227.000
81.46996 254.000
81.48991 257.000
81.50986 261.000
81.52980 263.000
81.54975 282.000
81.56970 272.000
81.58965 268.000
81.60959 247.000
81.62954 220.000
81.64949 269.000
81.66943 266.000
81.68938 286.000
81.70933 280.000
81.72927 294.000
81.74922 263.000
81.76917 253.000
81.78912 228.000
81.80906 276.000
81.82901 271.000
81.84896 257.000
81.86890 286.000
81.88885 261.000
81.90880 245.000
81.92874 254.000
81.94869 258.000
81.96864 268.000
81.98859 265.000
82.00853 261.000
82.02848 274.000
82.04843 269.000
82.06837 248.000
82.08832 249.000
82.10827 229.000
82.12821 247.000
82.14816 272.000
82.16811 252.000
82.18805 289.000
82.20800 290.000
82.22795 263.000
82.24790 275.000
82.26784 269.000
82.28779 282.000
82.30774 242.000
82.32768 272.000
82.34763 276.000
82.36758 229.000
82.38752 265.000
82.40747 243.000
82.42742 262.000
82.44737 281.000
82.46731 270.000
82.48726 255.000
82.50721 288.000
82.52715 231.000
82.54710 265.000
82.56705 265.000
82.58699 255.000
82.60694 277.000
82.62689 274.000
82.64683 263.000
82.66678 258.000
82.68673 251.000
82.70668 261.000
82.72662 258.000
82.74657 265.000
82.76652 249.000
82.78646 261.000
82.80641 236.000
82.82636 256.000
82.84630 268.000
82.86625 266.000
82.88620 291.000
82.90615 242.000
82.92609 282.000
82.94604 241.000
82.96599 241.000
82.98593 281.000
83.00588 282.000
83.02583 275.000
83.04577 255.000
83.06572 255.000
83.08567 290.000
83.10561 269.000
83.12556 247.000
83.14551 265.000
83.16546 273.000
83.18540 299.000
83.20535 248.000
83.22530 289.000
83.24524 270.000
83.26519 277.000
83.28514 274.000
83.30508 256.000
83.32503 233.000
83.34498 285.000
83.36493 219.000
83.38487 276.000
83.40482 297.000
83.42477 248.000
83.44471 264.000
83.46466 255.000
83.48461 274.000
83.50455 265.000
83.52450 254.000
83.54445 299.000
83.56440 296.000
83.58434 267.000
83.60429 265.000
83.62424 259.000
83.64418 285.000
83.66413 261.000
83.68408 258.000
83.70402 267.000
83.72397 256.000
83.74392 265.000
83.76386 240.000
83.78381 267.000
83.80376 261.000
83.82371 275.000
83.84365 273.000
83.86360 257.000
83.88355 251.000
83.90349 275.000
83.92344 298.000
83.94339 265.000
83.96333 281.000
83.98328 270.000
84.00323 257.000
84.02318 271.000
84.04312 274.000
84.06307 266.000
84.08302 242.000
84.10296 252.000
84.12291 270.000
84.14286 277.000
84.16280 266.000
84.18275 269.000
84.20270 267.000
84.22264 245.000
84.24259 275.000
84.26254 273.000
84.28249 267.000
84.30243 264.000
84.32238 290.000
84.34233 253.000
84.36227 231.000
84.38222 258.000
84.40217 249.000
84.42211 259.000
84.44206 250.000
84.46201 259.000
84.48196 285.000
84.50190 272.000
84.52185 269.000
84.54180 283.000
84.56174 244.000
84.58169 272.000
84.60164 259.000
84.62158 222.000
84.64153 249.000
84.66148 255.000
84.68142 278.000
84.70137 248.000
84.72132 269.000
84.74127 264.000
84.76121 264.000
84.78116 248.000
84.80111 244.000
84.82105 275.000
84.84100 278.000
84.86095 256.000
84.88089 250.000
84.90084 209.000
84.92079 270.000
84.94074 261.000
84.96068 258.000
84.98063 267.000
85.00058 258.000
85.02052 253.000
85.04047 258.000
85.06042 255.000
85.08036 277.000
85.10031 255.000
85.12026 290.000
85.14021 215.000
85.16015 253.000
85.18010 245.000
85.20005 284.000
85.21999 251.000
85.23994 236.000
85.25989 272.000
85.27983 291.000
85.29978 266.000
85.31973 252.000
85.33967 245.000
85.35962 253.000
85.37957 277.000
85.39952 255.000
85.41946 266.000
85.43941 267.000
85.45936 263.000
85.47930 231.000
85.49925 259.000
85.51920 248.000
85.53914 235.000
85.55909 273.000
85.57904 236.000
85.59899 253.000
85.61893 283.000
85.63888 247.000
85.65883 274.000
85.67877 237.000
85.69872 251.000
85.71867 248.000
85.73861 281.000
85.75856 230.000
85.77851 265.000
85.79845 246.000
85.81840 267.000
85.83835 262.000
85.85830 242.000
85.87824 224.000
85.89819 248.000
85.91814 267.000
85.93808 257.000
85.95803 266.000
85.97798 255.000
85.99792 223.000
86.01787 258.000
86.03782 251.000
86.05777 221.000
86.07771 251.000
86.09766 228.000
86.11761 244.000
86.13755 296.000
86.15750 279.000
86.17745 248.000
86.19739 296.000
86.21734 289.000
86.23729 249.000
86.25723 252.000
86.27718 289.000
86.29713 246.000
86.31708 236.000
86.33702 254.000
86.35697 257.000
86.37692 235.000
86.39686 270.000
86.41681 249.000
86.43676 286.000
86.45670 251.000
86.47665 261.000
86.49660 255.000
86.51655 269.000
86.53649 241.000
86.55644 276.000
86.57639 271.000
86.59633 260.000
86.61628 270.000
86.63623 240.000
86.65617 294.000
86.67612 275.000
86.69607 257.000
86.71602 270.000
86.73596 250.000
86.75591 257.000
86.77586 261.000
86.79580 243.000
86.81575 218.000
86.83570 282.000
86.85564 260.000
86.87559 250.000
86.89554 282.000
86.91548 294.000
86.93543 272.000
86.95538 271.000
86.97533 257.000
86.99527 285.000
87.01522 253.000
87.03517 292.000
87.05511 268.000
87.07506 271.000
87.09501 258.000
87.11495 251.000
87.13490 271.000
87.15485 260.000
87.17480 271.000
87.19474 281.000
87.21469 286.000
87.23464 274.000
87.25458 256.000
87.27453 239.000
87.29448 281.000
87.31442 265.000
87.33437 293.000
87.35432 313.000
87.37426 276.000
87.39421 259.000
87.41416 257.000
87.43411 261.000
87.45405 261.000
87.47400 265.000
87.49395 281.000
87.51389 298.000
87.53384 277.000
87.55379 296.000
87.57373 274.000
87.59368 258.000
87.61363 295.000
87.63358 264.000
87.65352 276.000
87.67347 274.000
87.69342 290.000
87.71336 271.000
87.73331 234.000
87.75326 252.000
87.77320 264.000
87.79315 252.000
87.81310 241.000
87.83304 260.000
87.85299 275.000
87.87294 229.000
87.89289 259.000
87.91283 259.000
87.93278 290.000
87.95273 285.000
87.97267 231.000
87.99262 269.000
88.01257 262.000
88.03251 263.000
88.05246 258.000
88.07241 267.000
88.09236 258.000
88.11230 270.000
88.13225 250.000
88.15220 257.000
88.17214 280.000
88.19209 269.000
88.21204 264.000
88.23198 257.000
88.25193 250.000
88.27188 269.000
88.29183 252.000
88.31177 250.000
88.33172 251.000
88.35167 241.000
88.37161 278.000
88.39156 252.000
88.41151 283.000
88.43145 235.000
88.45140 226.000
88.47135 242.000
88.49129 259.000
88.51124 241.000
88.53119 218.000
88.55114 251.000
88.57108 258.000
88.59103 257.000
88.61098 254.000
88.63092 255.000
88.65087 271.000
88.67082 279.000
88.69076 286.000
88.71071 258.000
88.73066 260.000
88.75061 239.000
88.77055 257.000
88.79050 272.000
88.81045 263.000
88.83039 259.000
88.85034 250.000
88.87029 259.000
88.89023 288.000
88.91018 273.000
88.93013 261.000
88.95007 273.000
88.97002 233.000
88.98997 231.000
89.00992 260.000
89.02986 243.000
89.04981 233.000
89.06976 259.000
89.08970 237.000
89.10965 270.000
89.12960 264.000
89.14954 241.000
89.16949 241.000
89.18944 256.000
89.20939 249.000
89.22933 243.000
89.24928 259.000
89.26923 258.000
89.28917 250.000
89.30912 235.000
89.32907 213.000
89.34901 256.000
89.36896 256.000
89.38891 263.000
89.40885 252.000
89.42880 263.000
89.44875 236.000
89.46870 324.000
89.48864 254.000
89.50859 248.000
89.52854 268.000
89.54848 253.000
89.56843 258.000
89.58838 236.000
89.60832 246.000
89.62827 266.000
89.64822 251.000
89.66817 248.000
89.68811 277.000
89.70806 266.000
89.72801 250.000
89.74795 256.000
89.76790 258.000
89.78785 298.000
89.80779 276.000
89.82774 272.000
89.84769 247.000
89.86764 271.000
89.88758 282.000
89.90753 233.000
89.92748 276.000
89.94742 282.000
89.96737 273.000
89.98732 273.000
90.00726 264.000
