10.00000 154.000
10.01995 158.000
10.03989 177.000
10.05984 162.000
10.07979 151.000
10.09973 135.000
10.11968 148.000
10.13963 147.000
10.15958 162.000
10.17952 166.000
10.19947 150.000
10.21942 155.000
10.23936 148.000
10.25931 159.000
10.27926 160.000
10.29920 144.000
10.31915 152.000
10.33910 166.000
10.35905 140.000
10.37899 144.000
10.39894 151.000
10.41889 138.000
10.43883 173.000
10.45878 175.000
10.47873 138.000
10.49867 146.000
10.51862 182.000
10.53857 153.000
10.55851 127.000
10.57846 176.000
10.59841 155.000
10.61836 143.000
10.63830 169.000
10.65825 167.000
10.67820 162.000
10.69814 160.000
10.71809 186.000
10.73804 136.000
10.75798 181.000
10.77793 160.000
10.79788 166.000
10.81783 157.000
10.83777 145.000
10.85772 154.000
10.87767 166.000
10.89761 140.000
10.91756 154.000
10.93751 138.000
10.95745 175.000
10.97740 139.000
10.99735 148.000
11.01730 166.000
11.03724 148.000
11.05719 151.000
11.07714 158.000
11.09708 155.000
11.11703 165.000
11.13698 161.000
11.15692 144.000
11.17687 163.000
11.19682 170.000
11.21676 146.000
11.23671 150.000
11.25666 148.000
11.27661 167.000
11.29655 153.000
11.31650 166.000
11.33645 148.000
11.35639 127.000
11.37634 176.000
11.39629 154.000
11.41623 182.000
11.43618 152.000
11.45613 154.000
11.47608 165.000
11.49602 153.000
11.51597 160.000
11.53592 141.000
11.55586 154.000
11.57581 158.000
11.59576 150.000
11.61570 169.000
11.63565 166.000
11.65560 156.000
11.67554 161.000
11.69549 159.000
11.71544 147.000
11.73539 165.000
11.75533 135.000
11.77528 143.000
11.79523 172.000
11.81517 154.000
11.83512 154.000
11.85507 146.000
11.87501 169.000
11.89496 189.000
11.91491 162.000
11.93486 141.000
11.95480 158.000
11.97475 157.000
11.99470 134.000
12.01464 154.000
12.03459 137.000
12.05454 157.000
12.07448 162.000
12.09443 152.000
12.11438 154.000
12.13432 153.000
12.15427 148.000
12.17422 159.000
12.19417 182.000
12.21411 145.000
12.23406 144.000
12.25401 176.000
12.27395 161.000
12.29390 146.000
12.31385 152.000
12.33379 163.000
12.35374 153.000
12.37369 152.000
12.39364 144.000
12.41358 161.000
12.43353 163.000
12.45348 144.000
12.47342 177.000
12.49337 157.000
12.51332 157.000
12.53326 162.000
12.55321 163.000
12.57316 153.000
12.59311 159.000
12.61305 165.000
12.63300 169.000
12.65295 146.000
12.67289 168.000
12.69284 156.000
12.71279 137.000
12.73273 148.000
12.75268 148.000
12.77263 157.000
12.79257 153.000
12.81252 167.000
12.83247 142.000
12.85242 159.000
12.87236 135.000
12.89231 151.000
12.91226 160.000
12.93220 146.000
12.95215 148.000
12.97210 155.000
12.99204 131.000
13.01199 167.000
13.03194 153.000
13.05189 155.000
13.07183 166.000
13.09178 160.000
13.11173 183.000
13.13167 161.000
13.15162 147.000
13.17157 165.000
13.19151 155.000
13.21146 144.000
13.23141 170.000
13.25135 148.000
13.27130 148.000
13.29125 144.000
13.31120 164.000
13.33114 145.000
13.35109 160.000
13.37104 160.000
13.39098 154.000
13.41093 190.000
13.43088 149.000
13.45082 159.000
13.47077 177.000
13.49072 138.000
13.51067 181.000
13.53061 144.000
13.55056 167.000
13.57051 156.000
13.59045 150.000
13.61040 161.000
13.63035 141.000
13.65029 160.000
13.67024 159.000
13.69019 170.000
13.71013 144.000
13.73008 135.000
13.75003 141.000
13.76998 153.000
13.78992 149.000
13.80987 166.000
13.82982 146.000
13.84976 154.000
13.86971 134.000
13.88966 147.000
13.90960 154.000
13.92955 156.000
13.94950 167.000
13.96945 139.000
13.98939 145.000
14.00934 172.000
14.02929 165.000
14.04923 170.000
14.06918 172.000
14.08913 169.000
14.10907 140.000
14.12902 142.000
14.14897 169.000
14.16892 169.000
14.18886 159.000
14.20881 151.000
14.22876 168.000
14.24870 155.000
14.26865 140.000
14.28860 148.000
14.30854 174.000
14.32849 170.000
14.34844 179.000
14.36838 163.000
14.38833 162.000
14.40828 146.000
14.42823 185.000
14.44817 167.000
14.46812 155.000
14.48807 176.000
14.50801 136.000
14.52796 184.000
14.54791 154.000
14.56785 156.000
14.58780 136.000
14.60775 165.000
14.62770 177.000
14.64764 160.000
14.66759 163.000
14.68754 155.000
14.70748 148.000
14.72743 154.000
14.74738 172.000
14.76732 150.000
14.78727 158.000
14.80722 145.000
14.82716 182.000
14.84711 150.000
14.86706 161.000
14.88701 170.000
14.90695 174.000
14.92690 167.000
14.94685 172.000
14.96679 173.000
14.98674 190.000
15.00669 166.000
15.02663 157.000
15.04658 168.000
15.06653 175.000
15.08648 184.000
15.10642 157.000
15.12637 165.000
15.14632 199.000
15.16626 151.000
15.18621 154.000
15.20616 152.000
15.22610 155.000
15.24605 149.000
15.26600 179.000
15.28594 176.000
15.30589 152.000
15.32584 166.000
15.34579 160.000
15.36573 185.000
15.38568 164.000
15.40563 152.000
15.42557 170.000
15.44552 163.000
15.46547 150.000
15.48541 169.000
15.50536 176.000
15.52531 181.000
15.54526 184.000
15.56520 189.000
15.58515 163.000
15.60510 174.000
15.62504 194.000
15.64499 204.000
15.66494 207.000
15.68488 206.000
15.70483 211.000
15.72478 225.000
15.74472 259.000
15.76467 317.000
15.78462 367.000
15.80457 456.000
15.82451 532.000
15.84446 643.000
15.86441 653.000
15.88435 571.000
15.90430 432.000
15.92425 350.000
15.94419 291.000
15.96414 271.000
15.98409 259.000
16.00404 261.000
16.02398 243.000
16.04393 264.000
16.06388 293.000
16.08382 339.000
16.10377 341.000
16.12372 451.000
16.14366 480.000
16.16361 574.000
16.18356 763.000
16.20351 741.000
16.22345 814.000
16.24340 872.000
16.26335 875.000
16.28329 950.000
16.30324 1160.000
16.32319 1128.000
16.34313 1091.000
16.36308 977.000
16.38303 755.000
16.40297 658.000
16.42292 502.000
16.44287 479.000
16.46282 406.000
16.48276 344.000
16.50271 290.000
16.52266 287.000
16.54260 284.000
16.56255 260.000
16.58250 283.000
16.60244 251.000
16.62239 231.000
16.64234 230.000
16.66229 226.000
16.68223 210.000
16.70218 240.000
16.72213 214.000
16.74207 202.000
16.76202 208.000
16.78197 238.000
16.80191 237.000
16.82186 179.000
16.84181 205.000
16.86175 232.000
16.88170 215.000
16.90165 218.000
16.92160 202.000
16.94154 197.000
16.96149 199.000
16.98144 209.000
17.00138 175.000
17.02133 191.000
17.04128 210.000
17.06122 206.000
17.08117 174.000
17.10112 203.000
17.12107 207.000
17.14101 211.000
17.16096 214.000
17.18091 192.000
17.20085 222.000
17.22080 215.000
17.24075 214.000
17.26069 219.000
17.28064 179.000
17.30059 201.000
17.32053 205.000
17.34048 186.000
17.36043 179.000
17.38038 182.000
17.40032 161.000
17.42027 174.000
17.44022 189.000
17.46016 168.000
17.48011 180.000
17.50006 163.000
17.52000 155.000
17.53995 175.000
17.55990 194.000
17.57985 171.000
17.59979 172.000
17.61974 165.000
17.63969 167.000
17.65963 177.000
17.67958 145.000
17.69953 164.000
17.71947 165.000
17.73942 145.000
17.75937 159.000
17.77932 148.000
17.79926 169.000
17.81921 161.000
17.83916 191.000
17.85910 150.000
17.87905 159.000
17.89900 150.000
17.91894 167.000
17.93889 169.000
17.95884 186.000
17.97878 175.000
17.99873 152.000
18.01868 130.000
18.03863 170.000
18.05857 160.000
18.07852 169.000
18.09847 167.000
18.11841 174.000
18.13836 155.000
18.15831 180.000
18.17825 180.000
18.19820 153.000
18.21815 185.000
18.23810 152.000
18.25804 180.000
18.27799 168.000
18.29794 217.000
18.31788 228.000
18.33783 312.000
18.35778 404.000
18.37772 548.000
18.39767 490.000
18.41762 422.000
18.43756 327.000
18.45751 226.000
18.47746 199.000
18.49741 158.000
18.51735 177.000
18.53730 162.000
18.55725 181.000
18.57719 160.000
18.59714 161.000
18.61709 158.000
18.63703 176.000
18.65698 147.000
18.67693 169.000
18.69688 166.000
18.71682 149.000
18.73677 123.000
18.75672 152.000
18.77666 166.000
18.79661 180.000
18.81656 144.000
18.83650 159.000
18.85645 158.000
18.87640 150.000
18.89634 182.000
18.91629 146.000
18.93624 143.000
18.95619 186.000
18.97613 159.000
18.99608 146.000
19.01603 147.000
19.03597 161.000
19.05592 144.000
19.07587 162.000
19.09581 179.000
19.11576 154.000
19.13571 164.000
19.15566 168.000
19.17560 152.000
19.19555 179.000
19.21550 142.000
19.23544 135.000
19.25539 165.000
19.27534 146.000
19.29528 156.000
19.31523 167.000
19.33518 145.000
19.35513 143.000
19.37507 140.000
19.39502 156.000
19.41497 135.000
19.43491 168.000
19.45486 162.000
19.47481 169.000
19.49475 152.000
19.51470 126.000
19.53465 141.000
19.55459 162.000
19.57454 189.000
19.59449 146.000
19.61444 155.000
19.63438 169.000
19.65433 143.000
19.67428 153.000
19.69422 164.000
19.71417 175.000
19.73412 157.000
19.75406 142.000
19.77401 148.000
19.79396 149.000
19.81391 167.000
19.83385 132.000
19.85380 147.000
19.87375 147.000
19.89369 141.000
19.91364 163.000
19.93359 136.000
19.95353 145.000
19.97348 146.000
19.99343 154.000
20.01337 157.000
20.03332 147.000
20.05327 136.000
20.07322 157.000
20.09316 153.000
20.11311 160.000
20.13306 151.000
20.15300 151.000
20.17295 151.000
20.19290 162.000
20.21284 173.000
20.23279 161.000
20.25274 143.000
20.27269 154.000
20.29263 158.000
20.31258 152.000
20.33253 152.000
20.35247 150.000
20.37242 177.000
20.39237 164.000
20.41231 152.000
20.43226 158.000
20.45221 138.000
20.47215 141.000
20.49210 154.000
20.51205 145.000
20.53200 156.000
20.55194 151.000
20.57189 160.000
20.59184 161.000
20.61178 152.000
20.63173 150.000
20.65168 160.000
20.67162 159.000
20.69157 159.000
20.71152 161.000
20.73147 197.000
20.75141 185.000
20.77136 202.000
20.79131 241.000
20.81125 243.000
20.83120 290.000
20.85115 249.000
20.87109 244.000
20.89104 238.000
20.91099 237.000
20.93094 241.000
20.95088 238.000
20.97083 259.000
20.99078 198.000
21.01072 218.000
21.03067 247.000
21.05062 220.000
21.07056 216.000
21.09051 224.000
21.11046 199.000
21.13040 185.000
21.15035 168.000
21.17030 153.000
21.19025 192.000
21.21019 160.000
21.23014 164.000
21.25009 147.000
21.27003 168.000
21.28998 150.000
21.30993 153.000
21.32987 140.000
21.34982 163.000
21.36977 156.000
21.38972 151.000
21.40966 158.000
21.42961 166.000
21.44956 166.000
21.46950 154.000
21.48945 148.000
21.50940 159.000
21.52934 155.000
21.54929 169.000
21.56924 186.000
21.58918 164.000
21.60913 165.000
21.62908 140.000
21.64903 157.000
21.66897 137.000
21.68892 142.000
21.70887 170.000
21.72881 152.000
21.74876 164.000
21.76871 158.000
21.78865 150.000
21.80860 160.000
21.82855 187.000
21.84850 171.000
21.86844 150.000
21.88839 153.000
21.90834 155.000
21.92828 152.000
21.94823 155.000
21.96818 161.000
21.98812 190.000
22.00807 154.000
22.02802 146.000
22.04796 155.000
22.06791 150.000
22.08786 174.000
22.10781 159.000
22.12775 147.000
22.14770 152.000
22.16765 155.000
22.18759 169.000
22.20754 135.000
22.22749 169.000
22.24743 148.000
22.26738 147.000
22.28733 158.000
22.30728 174.000
22.32722 145.000
22.34717 147.000
22.36712 159.000
22.38706 186.000
22.40701 177.000
22.42696 145.000
22.44690 152.000
22.46685 162.000
22.48680 130.000
22.50675 171.000
22.52669 136.000
22.54664 143.000
22.56659 150.000
22.58653 126.000
22.60648 142.000
22.62643 161.000
22.64637 138.000
22.66632 148.000
22.68627 145.000
22.70621 144.000
22.72616 154.000
22.74611 130.000
22.76606 158.000
22.78600 148.000
22.80595 155.000
22.82590 159.000
22.84584 145.000
22.86579 157.000
22.88574 160.000
22.90568 158.000
22.92563 153.000
22.94558 169.000
22.96553 152.000
22.98547 152.000
23.00542 163.000
23.02537 166.000
23.04531 155.000
23.06526 164.000
23.08521 177.000
23.10515 157.000
23.12510 159.000
23.14505 160.000
23.16499 148.000
23.18494 151.000
23.20489 166.000
23.22484 156.000
23.24478 157.000
23.26473 127.000
23.28468 139.000
23.30462 161.000
23.32457 156.000
23.34452 169.000
23.36446 159.000
23.38441 150.000
23.40436 155.000
23.42431 170.000
23.44425 141.000
23.46420 154.000
23.48415 164.000
23.50409 147.000
23.52404 156.000
23.54399 141.000
23.56393 145.000
23.58388 145.000
23.60383 142.000
23.62377 167.000
23.64372 170.000
23.66367 143.000
23.68362 147.000
23.70356 167.000
23.72351 146.000
23.74346 161.000
23.76340 153.000
23.78335 153.000
23.80330 166.000
23.82324 169.000
23.84319 146.000
23.86314 156.000
23.88309 156.000
23.90303 192.000
23.92298 144.000
23.94293 148.000
23.96287 163.000
23.98282 167.000
24.00277 158.000
24.02271 171.000
24.04266 187.000
24.06261 168.000
24.08256 147.000
24.10250 149.000
24.12245 181.000
24.14240 136.000
24.16234 159.000
24.18229 166.000
24.20224 135.000
24.22218 170.000
24.24213 136.000
24.26208 151.000
24.28202 171.000
24.30197 139.000
24.32192 165.000
24.34187 158.000
24.36181 150.000
24.38176 140.000
24.40171 181.000
24.42165 161.000
24.44160 149.000
24.46155 161.000
24.48149 164.000
24.50144 167.000
24.52139 186.000
24.54134 139.000
24.56128 166.000
24.58123 161.000
24.60118 168.000
24.62112 164.000
24.64107 159.000
24.66102 164.000
24.68096 154.000
24.70091 155.000
24.72086 161.000
24.74080 178.000
24.76075 146.000
24.78070 154.000
24.80065 152.000
24.82059 161.000
24.84054 185.000
24.86049 171.000
24.88043 154.000
24.90038 181.000
24.92033 173.000
24.94027 154.000
24.96022 170.000
24.98017 191.000
25.00012 149.000
25.02006 164.000
25.04001 164.000
25.05996 159.000
25.07990 170.000
25.09985 158.000
25.11980 169.000
25.13974 164.000
25.15969 153.000
25.17964 175.000
25.19958 183.000
25.21953 160.000
25.23948 163.000
25.25943 184.000
25.27937 156.000
25.29932 161.000
25.31927 160.000
25.33921 175.000
25.35916 166.000
25.37911 167.000
25.39905 159.000
25.41900 139.000
25.43895 161.000
25.45890 155.000
25.47884 144.000
25.49879 137.000
25.51874 145.000
25.53868 177.000
25.55863 171.000
25.57858 147.000
25.59852 164.000
25.61847 162.000
25.63842 172.000
25.65837 150.000
25.67831 182.000
25.69826 150.000
25.71821 156.000
25.73815 151.000
25.75810 190.000
25.77805 165.000
25.79799 149.000
25.81794 144.000
25.83789 165.000
25.85783 148.000
25.87778 147.000
25.89773 159.000
25.91768 153.000
25.93762 169.000
25.95757 165.000
25.97752 196.000
25.99746 183.000
26.01741 135.000
26.03736 177.000
26.05730 166.000
26.07725 169.000
26.09720 152.000
26.11715 178.000
26.13709 178.000
26.15704 159.000
26.17699 177.000
26.19693 151.000
26.21688 158.000
26.23683 153.000
26.25677 169.000
26.27672 172.000
26.29667 181.000
26.31661 182.000
26.33656 166.000
26.35651 161.000
26.37646 174.000
26.39640 200.000
26.41635 175.000
26.43630 179.000
26.45624 156.000
26.47619 167.000
26.49614 144.000
26.51608 181.000
26.53603 213.000
26.55598 168.000
26.57593 149.000
26.59587 159.000
26.61582 164.000
26.63577 164.000
26.65571 187.000
26.67566 152.000
26.69561 183.000
26.71555 169.000
26.73550 184.000
26.75545 195.000
26.77539 163.000
26.79534 142.000
26.81529 166.000
26.83524 165.000
26.85518 178.000
26.87513 169.000
26.89508 166.000
26.91502 179.000
26.93497 171.000
26.95492 168.000
26.97486 189.000
26.99481 157.000
27.01476 177.000
27.03471 158.000
27.05465 183.000
27.07460 146.000
27.09455 202.000
27.11449 157.000
27.13444 189.000
27.15439 191.000
27.17433 171.000
27.19428 152.000
27.21423 174.000
27.23417 168.000
27.25412 179.000
27.27407 162.000
27.29402 179.000
27.31396 158.000
27.33391 172.000
27.35386 180.000
27.37380 179.000
27.39375 184.000
27.41370 156.000
27.43364 193.000
27.45359 137.000
27.47354 191.000
27.49349 184.000
27.51343 186.000
27.53338 168.000
27.55333 188.000
27.57327 141.000
27.59322 196.000
27.61317 168.000
27.63311 159.000
27.65306 185.000
27.67301 195.000
27.69296 172.000
27.71290 180.000
27.73285 149.000
27.75280 183.000
27.77274 183.000
27.79269 173.000
27.81264 175.000
27.83258 170.000
27.85253 188.000
27.87248 186.000
27.89242 166.000
27.91237 181.000
27.93232 161.000
27.95227 190.000
27.97221 188.000
27.99216 180.000
28.01211 175.000
28.03205 182.000
28.05200 169.000
28.07195 178.000
28.09189 172.000
28.11184 187.000
28.13179 152.000
28.15174 172.000
28.17168 173.000
28.19163 196.000
28.21158 164.000
28.23152 177.000
28.25147 184.000
28.27142 187.000
28.29136 182.000
28.31131 188.000
28.33126 199.000
28.35120 174.000
28.37115 148.000
28.39110 166.000
28.41105 190.000
28.43099 176.000
28.45094 198.000
28.47089 178.000
28.49083 185.000
28.51078 176.000
28.53073 191.000
28.55067 193.000
28.57062 173.000
28.59057 195.000
28.61052 178.000
28.63046 177.000
28.65041 193.000
28.67036 164.000
28.69030 191.000
28.71025 161.000
28.73020 182.000
28.75014 185.000
28.77009 189.000
28.79004 167.000
28.80998 178.000
28.82993 180.000
28.84988 184.000
28.86983 161.000
28.88977 185.000
28.90972 170.000
28.92967 179.000
28.94961 170.000
28.96956 153.000
28.98951 184.000
29.00945 191.000
29.02940 189.000
29.04935 193.000
29.06930 184.000
29.08924 186.000
29.10919 159.000
29.12914 201.000
29.14908 193.000
29.16903 190.000
29.18898 200.000
29.20892 183.000
29.22887 200.000
29.24882 163.000
29.26877 208.000
29.28871 191.000
29.30866 222.000
29.32861 207.000
29.34855 177.000
29.36850 199.000
29.38845 216.000
29.40839 193.000
29.42834 202.000
29.44829 185.000
29.46823 186.000
29.48818 208.000
29.50813 193.000
29.52808 213.000
29.54802 200.000
29.56797 177.000
29.58792 178.000
29.60786 177.000
29.62781 187.000
29.64776 182.000
29.66770 192.000
29.68765 214.000
29.70760 171.000
29.72755 203.000
29.74749 201.000
29.76744 194.000
29.78739 211.000
29.80733 213.000
29.82728 197.000
29.84723 206.000
29.86717 193.000
29.88712 201.000
29.90707 185.000
29.92701 191.000
29.94696 191.000
29.96691 206.000
29.98686 192.000
30.00680 217.000
30.02675 201.000
30.04670 224.000
30.06664 238.000
30.08659 237.000
30.10654 247.000
30.12648 277.000
30.14643 289.000
30.16638 320.000
30.18633 389.000
30.20627 486.000
30.22622 699.000
30.24617 989.000
30.26611 1002.000
30.28606 866.000
30.30601 730.000
30.32595 730.000
30.34590 626.000
30.36585 466.000
30.38579 361.000
30.40574 289.000
30.42569 274.000
30.44564 242.000
30.46558 221.000
30.48553 213.000
30.50548 193.000
30.52542 223.000
30.54537 178.000
30.56532 212.000
30.58526 185.000
30.60521 209.000
30.62516 205.000
30.64511 187.000
30.66505 202.000
30.68500 179.000
30.70495 207.000
30.72489 188.000
30.74484 174.000
30.76479 207.000
30.78473 188.000
30.80468 170.000
30.82463 204.000
30.84458 213.000
30.86452 194.000
30.88447 181.000
30.90442 184.000
30.92436 193.000
30.94431 186.000
30.96426 181.000
30.98420 206.000
31.00415 190.000
31.02410 164.000
31.04404 182.000
31.06399 183.000
31.08394 172.000
31.10389 193.000
31.12383 201.000
31.14378 189.000
31.16373 178.000
31.18367 207.000
31.20362 180.000
31.22357 184.000
31.24351 182.000
31.26346 182.000
31.28341 180.000
31.30336 195.000
31.32330 188.000
31.34325 187.000
31.36320 152.000
31.38314 165.000
31.40309 178.000
31.42304 176.000
31.44298 188.000
31.46293 195.000
31.48288 188.000
31.50282 178.000
31.52277 170.000
31.54272 200.000
31.56267 181.000
31.58261 183.000
31.60256 196.000
31.62251 158.000
31.64245 188.000
31.66240 194.000
31.68235 174.000
31.70229 186.000
31.72224 190.000
31.74219 179.000
31.76214 168.000
31.78208 179.000
31.80203 171.000
31.82198 188.000
31.84192 179.000
31.86187 213.000
31.88182 187.000
31.90176 203.000
31.92171 199.000
31.94166 202.000
31.96160 201.000
31.98155 194.000
32.00150 188.000
32.02145 216.000
32.04139 200.000
32.06134 235.000
32.08129 219.000
32.10123 224.000
32.12118 210.000
32.14113 213.000
32.16107 224.000
32.18102 212.000
32.20097 168.000
32.22092 187.000
32.24086 199.000
32.26081 185.000
32.28076 181.000
32.30070 229.000
32.32065 183.000
32.34060 206.000
32.36054 200.000
32.38049 168.000
32.40044 191.000
32.42039 215.000
32.44033 201.000
32.46028 180.000
32.48023 189.000
32.50017 213.000
32.52012 203.000
32.54007 183.000
32.56001 198.000
32.57996 172.000
32.59991 185.000
32.61985 184.000
32.63980 205.000
32.65975 201.000
32.67970 224.000
32.69964 190.000
32.71959 218.000
32.73954 233.000
32.75948 211.000
32.77943 218.000
32.79938 216.000
32.81932 234.000
32.83927 208.000
32.85922 250.000
32.87917 229.000
32.89911 247.000
32.91906 264.000
32.93901 281.000
32.95895 272.000
32.97890 272.000
32.99885 273.000
33.01879 288.000
33.03874 299.000
33.05869 290.000
33.07863 274.000
33.09858 277.000
33.11853 272.000
33.13848 239.000
33.15842 262.000
33.17837 260.000
33.19832 216.000
33.21826 252.000
33.23821 225.000
33.25816 198.000
33.27810 210.000
33.29805 228.000
33.31800 200.000
33.33795 200.000
33.35789 220.000
33.37784 194.000
33.39779 205.000
33.41773 207.000
33.43768 184.000
33.45763 186.000
33.47757 193.000
33.49752 196.000
33.51747 182.000
33.53741 199.000
33.55736 186.000
33.57731 228.000
33.59726 193.000
33.61720 188.000
33.63715 195.000
33.65710 201.000
33.67704 196.000
33.69699 174.000
33.71694 196.000
33.73688 205.000
33.75683 200.000
33.77678 199.000
33.79673 206.000
33.81667 191.000
33.83662 181.000
33.85657 226.000
33.87651 200.000
33.89646 192.000
33.91641 206.000
33.93635 188.000
33.95630 177.000
33.97625 191.000
33.99620 203.000
34.01614 219.000
34.03609 192.000
34.05604 220.000
34.07598 199.000
34.09593 213.000
34.11588 208.000
34.13582 244.000
34.15577 194.000
34.17572 201.000
34.19566 222.000
34.21561 237.000
34.23556 273.000
34.25551 242.000
34.27545 286.000
34.29540 275.000
34.31535 299.000
34.33529 294.000
34.35524 294.000
34.37519 355.000
34.39513 303.000
34.41508 324.000
34.43503 299.000
34.45498 331.000
34.47492 286.000
34.49487 329.000
34.51482 267.000
34.53476 282.000
34.55471 275.000
34.57466 258.000
34.59460 265.000
34.61455 271.000
34.63450 276.000
34.65444 268.000
34.67439 288.000
34.69434 261.000
34.71429 258.000
34.73423 280.000
34.75418 270.000
34.77413 257.000
34.79407 277.000
34.81402 282.000
34.83397 270.000
34.85391 271.000
34.87386 270.000
34.89381 295.000
34.91376 279.000
34.93370 290.000
34.95365 312.000
34.97360 279.000
34.99354 283.000
35.01349 306.000
35.03344 268.000
35.05338 326.000
35.07333 280.000
35.09328 325.000
35.11322 325.000
35.13317 313.000
35.15312 324.000
35.17307 344.000
35.19301 377.000
35.21296 345.000
35.23291 403.000
35.25285 372.000
35.27280 391.000
35.29275 420.000
35.31269 363.000
35.33264 386.000
35.35259 403.000
35.37254 400.000
35.39248 397.000
35.41243 434.000
35.43238 450.000
35.45232 470.000
35.47227 469.000
35.49222 514.000
35.51216 620.000
35.53211 614.000
35.55206 782.000
35.57201 939.000
35.59195 1297.000
35.61190 1872.000
35.63185 2489.000
35.65179 2859.000
35.67174 2695.000
35.69169 2075.000
35.71163 1824.000
35.73158 1874.000
35.75153 1690.000
35.77147 1335.000
35.79142 911.000
35.81137 681.000
35.83132 543.000
35.85126 455.000
35.87121 418.000
35.89116 380.000
35.91110 329.000
35.93105 298.000
35.95100 301.000
35.97094 289.000
35.99089 294.000
36.01084 265.000
36.03079 282.000
36.05073 277.000
36.07068 285.000
36.09063 290.000
36.11057 267.000
36.13052 260.000
36.15047 288.000
36.17041 274.000
36.19036 266.000
36.21031 295.000
36.23025 273.000
36.25020 303.000
36.27015 306.000
36.29010 298.000
36.31004 343.000
36.32999 330.000
36.34994 369.000
36.36988 379.000
36.38983 376.000
36.40978 423.000
36.42972 440.000
36.44967 418.000
36.46962 415.000
36.48957 419.000
36.50951 460.000
36.52946 449.000
36.54941 461.000
36.56935 452.000
36.58930 434.000
36.60925 445.000
36.62919 470.000
36.64914 442.000
36.66909 446.000
36.68903 446.000
36.70898 397.000
36.72893 396.000
36.74888 487.000
36.76882 418.000
36.78877 425.000
36.80872 508.000
36.82866 547.000
36.84861 602.000
36.86856 660.000
36.88850 718.000
36.90845 785.000
36.92840 824.000
36.94835 881.000
36.96829 879.000
36.98824 960.000
37.00819 922.000
37.02813 914.000
37.04808 906.000
37.06803 840.000
37.08797 819.000
37.10792 783.000
37.12787 753.000
37.14781 705.000
37.16776 632.000
37.18771 612.000
37.20766 522.000
37.22760 513.000
37.24755 550.000
37.26750 487.000
37.28744 515.000
37.30739 473.000
37.32734 422.000
37.34728 376.000
37.36723 318.000
37.38718 361.000
37.40713 336.000
37.42707 301.000
37.44702 277.000
37.46697 251.000
37.48691 243.000
37.50686 259.000
37.52681 247.000
37.54675 214.000
37.56670 219.000
37.58665 242.000
37.60660 204.000
37.62654 227.000
37.64649 224.000
37.66644 199.000
37.68638 218.000
37.70633 206.000
37.72628 185.000
37.74622 215.000
37.76617 189.000
37.78612 217.000
37.80606 205.000
37.82601 210.000
37.84596 211.000
37.86591 213.000
37.88585 194.000
37.90580 218.000
37.92575 232.000
37.94569 203.000
37.96564 205.000
37.98559 200.000
38.00553 186.000
38.02548 204.000
38.04543 193.000
38.06538 214.000
38.08532 202.000
38.10527 202.000
38.12522 195.000
38.14516 223.000
38.16511 197.000
38.18506 173.000
38.20500 195.000
38.22495 206.000
38.24490 199.000
38.26484 207.000
38.28479 177.000
38.30474 219.000
38.32469 197.000
38.34463 185.000
38.36458 211.000
38.38453 191.000
38.40447 180.000
38.42442 186.000
38.44437 196.000
38.46431 196.000
38.48426 192.000
38.50421 208.000
38.52416 201.000
38.54410 183.000
38.56405 194.000
38.58400 211.000
38.60394 205.000
38.62389 180.000
38.64384 221.000
38.66378 215.000
38.68373 183.000
38.70368 195.000
38.72362 229.000
38.74357 212.000
38.76352 208.000
38.78347 170.000
38.80341 214.000
38.82336 200.000
38.84331 191.000
38.86325 197.000
38.88320 211.000
38.90315 185.000
38.92309 199.000
38.94304 210.000
38.96299 200.000
38.98294 189.000
39.00288 189.000
39.02283 203.000
39.04278 188.000
39.06272 188.000
39.08267 181.000
39.10262 210.000
39.12256 215.000
39.14251 221.000
39.16246 235.000
39.18241 221.000
39.20235 232.000
39.22230 229.000
39.24225 237.000
39.26219 250.000
39.28214 257.000
39.30209 247.000
39.32203 225.000
39.34198 231.000
39.36193 227.000
39.38187 232.000
39.40182 206.000
39.42177 195.000
39.44172 188.000
39.46166 217.000
39.48161 190.000
39.50156 199.000
39.52150 209.000
39.54145 193.000
39.56140 193.000
39.58134 175.000
39.60129 205.000
39.62124 190.000
39.64119 192.000
39.66113 196.000
39.68108 175.000
39.70103 188.000
39.72097 173.000
39.74092 182.000
39.76087 207.000
39.78081 173.000
39.80076 189.000
39.82071 168.000
39.84065 169.000
39.86060 180.000
39.88055 192.000
39.90050 184.000
39.92044 163.000
39.94039 184.000
39.96034 199.000
39.98028 183.000
40.00023 177.000
40.02018 168.000
40.04012 201.000
40.06007 185.000
40.08002 192.000
40.09997 194.000
40.11991 191.000
40.13986 165.000
40.15981 189.000
40.17975 206.000
40.19970 194.000
40.21965 211.000
40.23959 185.000
40.25954 197.000
40.27949 175.000
40.29943 191.000
40.31938 187.000
40.33933 167.000
40.35928 185.000
40.37922 193.000
40.39917 177.000
40.41912 185.000
40.43906 191.000
40.45901 198.000
40.47896 182.000
40.49890 206.000
40.51885 175.000
40.53880 173.000
40.55875 199.000
40.57869 213.000
40.59864 211.000
40.61859 202.000
40.63853 206.000
40.65848 179.000
40.67843 200.000
40.69837 184.000
40.71832 178.000
40.73827 205.000
40.75822 209.000
40.77816 191.000
40.79811 202.000
40.81806 230.000
40.83800 217.000
40.85795 211.000
40.87790 215.000
40.89784 212.000
40.91779 201.000
40.93774 212.000
40.95768 231.000
40.97763 215.000
40.99758 215.000
41.01753 225.000
41.03747 259.000
41.05742 262.000
41.07737 240.000
41.09731 250.000
41.11726 255.000
41.13721 262.000
41.15715 284.000
41.17710 251.000
41.19705 297.000
41.21700 322.000
41.23694 338.000
41.25689 336.000
41.27684 315.000
41.29678 396.000
41.31673 412.000
41.33668 434.000
41.35662 494.000
41.37657 497.000
41.39652 599.000
41.41646 635.000
41.43641 740.000
41.45636 864.000
41.47631 978.000
41.49625 1020.000
41.51620 1015.000
41.53615 987.000
41.55609 996.000
41.57604 950.000
41.59599 948.000
41.61593 944.000
41.63588 908.000
41.65583 917.000
41.67578 799.000
41.69572 762.000
41.71567 700.000
41.73562 710.000
41.75556 784.000
41.77551 688.000
41.79546 717.000
41.81540 693.000
41.83535 651.000
41.85530 624.000
41.87524 593.000
41.89519 629.000
41.91514 552.000
41.93509 450.000
41.95503 450.000
41.97498 439.000
41.99493 404.000
42.01487 396.000
42.03482 324.000
42.05477 298.000
42.07471 332.000
42.09466 266.000
42.11461 263.000
42.13456 281.000
42.15450 299.000
42.17445 296.000
42.19440 247.000
42.21434 264.000
42.23429 254.000
42.25424 257.000
42.27418 265.000
42.29413 256.000
42.31408 288.000
42.33403 263.000
42.35397 265.000
42.37392 257.000
42.39387 266.000
42.41381 267.000
42.43376 281.000
42.45371 249.000
42.47365 250.000
42.49360 298.000
42.51355 293.000
42.53349 290.000
42.55344 307.000
42.57339 311.000
42.59334 315.000
42.61328 319.000
42.63323 394.000
42.65318 348.000
42.67312 366.000
42.69307 386.000
42.71302 403.000
42.73296 432.000
42.75291 456.000
42.77286 467.000
42.79281 499.000
42.81275 529.000
42.83270 547.000
42.85265 575.000
42.87259 632.000
42.89254 653.000
42.91249 733.000
42.93243 798.000
42.95238 780.000
42.97233 832.000
42.99227 847.000
43.01222 926.000
43.03217 851.000
43.05212 911.000
43.07206 975.000
43.09201 980.000
43.11196 947.000
43.13190 933.000
43.15185 893.000
43.17180 947.000
43.19174 859.000
43.21169 859.000
43.23164 860.000
43.25159 786.000
43.27153 795.000
43.29148 858.000
43.31143 920.000
43.33137 974.000
43.35132 953.000
43.37127 744.000
43.39121 701.000
43.41116 631.000
43.43111 557.000
43.45105 623.000
43.47100 577.000
43.49095 469.000
43.51090 426.000
43.53084 407.000
43.55079 339.000
43.57074 281.000
43.59068 263.000
43.61063 231.000
43.63058 251.000
43.65052 247.000
43.67047 247.000
43.69042 242.000
43.71037 181.000
43.73031 216.000
43.75026 233.000
43.77021 237.000
43.79015 210.000
43.81010 204.000
43.83005 193.000
43.84999 208.000
43.86994 193.000
43.88989 211.000
43.90984 195.000
43.92978 247.000
43.94973 183.000
43.96968 203.000
43.98962 201.000
44.00957 202.000
44.02952 204.000
44.04946 198.000
44.06941 200.000
44.08936 187.000
44.10930 194.000
44.12925 186.000
44.14920 176.000
44.16915 199.000
44.18909 194.000
44.20904 201.000
44.22899 171.000
44.24893 187.000
44.26888 199.000
44.28883 201.000
44.30877 206.000
44.32872 176.000
44.34867 206.000
44.36862 182.000
44.38856 212.000
44.40851 180.000
44.42846 188.000
44.44840 173.000
44.46835 168.000
44.48830 155.000
44.50824 176.000
44.52819 185.000
44.54814 178.000
44.56808 192.000
44.58803 223.000
44.60798 164.000
44.62793 171.000
44.64787 190.000
44.66782 178.000
44.68777 187.000
44.70771 187.000
44.72766 172.000
44.74761 209.000
44.76755 153.000
44.78750 198.000
44.80745 196.000
44.82740 203.000
44.84734 175.000
44.86729 204.000
44.88724 181.000
44.90718 198.000
44.92713 200.000
44.94708 219.000
44.96702 202.000
44.98697 214.000
45.00692 198.000
45.02686 220.000
45.04681 212.000
45.06676 162.000
45.08671 182.000
45.10665 199.000
45.12660 162.000
45.14655 199.000
45.16649 183.000
45.18644 190.000
45.20639 193.000
45.22633 192.000
45.24628 195.000
45.26623 169.000
45.28618 174.000
45.30612 177.000
45.32607 179.000
45.34602 196.000
45.36596 197.000
45.38591 183.000
45.40586 169.000
45.42580 181.000
45.44575 176.000
45.46570 166.000
45.48565 154.000
45.50559 168.000
45.52554 163.000
45.54549 160.000
45.56543 151.000
45.58538 173.000
45.60533 206.000
45.62527 185.000
45.64522 162.000
45.66517 167.000
45.68511 186.000
45.70506 171.000
45.72501 189.000
45.74496 172.000
45.76490 167.000
45.78485 166.000
45.80480 200.000
45.82474 185.000
45.84469 166.000
45.86464 165.000
45.88458 163.000
45.90453 188.000
45.92448 156.000
45.94443 181.000
45.96437 197.000
45.98432 156.000
46.00427 141.000
46.02421 198.000
46.04416 176.000
46.06411 172.000
46.08405 161.000
46.10400 173.000
46.12395 157.000
46.14389 180.000
46.16384 152.000
46.18379 172.000
46.20374 164.000
46.22368 159.000
46.24363 170.000
46.26358 178.000
46.28352 178.000
46.30347 179.000
46.32342 197.000
46.34336 179.000
46.36331 159.000
46.38326 176.000
46.40321 182.000
46.42315 173.000
46.44310 181.000
46.46305 171.000
46.48299 155.000
46.50294 174.000
46.52289 169.000
46.54283 172.000
46.56278 173.000
46.58273 188.000
46.60267 173.000
46.62262 179.000
46.64257 174.000
46.66252 189.000
46.68246 163.000
46.70241 178.000
46.72236 177.000
46.74230 199.000
46.76225 177.000
46.78220 197.000
46.80214 175.000
46.82209 163.000
46.84204 167.000
46.86199 175.000
46.88193 162.000
46.90188 151.000
46.92183 176.000
46.94177 170.000
46.96172 162.000
46.98167 169.000
47.00161 175.000
47.02156 147.000
47.04151 177.000
47.06146 167.000
47.08140 155.000
47.10135 158.000
47.12130 177.000
47.14124 164.000
47.16119 181.000
47.18114 160.000
47.20108 167.000
47.22103 183.000
47.24098 182.000
47.26092 139.000
47.28087 172.000
47.30082 150.000
47.32077 156.000
47.34071 161.000
47.36066 192.000
47.38061 162.000
47.40055 184.000
47.42050 164.000
47.44045 194.000
47.46039 183.000
47.48034 191.000
47.50029 179.000
47.52024 171.000
47.54018 173.000
47.56013 189.000
47.58008 206.000
47.60002 185.000
47.61997 184.000
47.63992 193.000
47.65986 184.000
47.67981 185.000
47.69976 161.000
47.71970 169.000
47.73965 174.000
47.75960 181.000
47.77955 169.000
47.79949 179.000
47.81944 182.000
47.83939 187.000
47.85933 172.000
47.87928 145.000
47.89923 179.000
47.91917 189.000
47.93912 196.000
47.95907 183.000
47.97902 188.000
47.99896 199.000
48.01891 186.000
48.03886 151.000
48.05880 175.000
48.07875 179.000
48.09870 165.000
48.11864 159.000
48.13859 166.000
48.15854 184.000
48.17848 184.000
48.19843 176.000
48.21838 183.000
48.23833 161.000
48.25827 182.000
48.27822 167.000
48.29817 154.000
48.31811 182.000
48.33806 192.000
48.35801 177.000
48.37795 177.000
48.39790 155.000
48.41785 146.000
48.43780 181.000
48.45774 184.000
48.47769 166.000
48.49764 170.000
48.51758 183.000
48.53753 170.000
48.55748 171.000
48.57742 204.000
48.59737 197.000
48.61732 206.000
48.63726 183.000
48.65721 204.000
48.67716 195.000
48.69711 220.000
48.71705 207.000
48.73700 209.000
48.75695 226.000
48.77689 202.000
48.79684 214.000
48.81679 223.000
48.83673 189.000
48.85668 207.000
48.87663 187.000
48.89658 176.000
48.91652 172.000
48.93647 183.000
48.95642 163.000
48.97636 160.000
48.99631 167.000
49.01626 162.000
49.03620 145.000
49.05615 178.000
49.07610 183.000
49.09605 170.000
49.11599 142.000
49.13594 171.000
49.15589 196.000
49.17583 180.000
49.19578 169.000
49.21573 174.000
49.23567 185.000
49.25562 188.000
49.27557 157.000
49.29551 177.000
49.31546 179.000
49.33541 158.000
49.35536 167.000
49.37530 183.000
49.39525 150.000
49.41520 173.000
49.43514 172.000
49.45509 164.000
49.47504 174.000
49.49498 170.000
49.51493 177.000
49.53488 166.000
49.55483 173.000
49.57477 164.000
49.59472 184.000
49.61467 160.000
49.63461 179.000
49.65456 154.000
49.67451 175.000
49.69445 164.000
49.71440 160.000
49.73435 152.000
49.75429 183.000
49.77424 162.000
49.79419 165.000
49.81414 174.000
49.83408 154.000
49.85403 188.000
49.87398 146.000
49.89392 153.000
49.91387 179.000
49.93382 177.000
49.95376 134.000
49.97371 153.000
49.99366 151.000
50.01361 179.000
50.03355 143.000
50.05350 149.000
50.07345 160.000
50.09339 174.000
50.11334 167.000
50.13329 178.000
50.15323 189.000
50.17318 163.000
50.19313 156.000
50.21307 163.000
50.23302 195.000
50.25297 157.000
50.27292 171.000
50.29286 152.000
50.31281 197.000
50.33276 162.000
50.35270 159.000
50.37265 140.000
50.39260 150.000
50.41254 158.000
50.43249 179.000
50.45244 157.000
50.47239 177.000
50.49233 153.000
50.51228 157.000
50.53223 192.000
50.55217 177.000
50.57212 169.000
50.59207 195.000
50.61201 170.000
50.63196 156.000
50.65191 147.000
50.67186 182.000
50.69180 181.000
50.71175 172.000
50.73170 171.000
50.75164 158.000
50.77159 177.000
50.79154 157.000
50.81148 155.000
50.83143 142.000
50.85138 167.000
50.87132 180.000
50.89127 169.000
50.91122 148.000
50.93117 179.000
50.95111 191.000
50.97106 162.000
50.99101 169.000
51.01095 161.000
51.03090 163.000
51.05085 196.000
51.07079 147.000
51.09074 149.000
51.11069 153.000
51.13064 166.000
51.15058 149.000
51.17053 147.000
51.19048 154.000
51.21042 151.000
51.23037 171.000
51.25032 157.000
51.27026 156.000
51.29021 161.000
51.31016 144.000
51.33010 168.000
51.35005 161.000
51.37000 180.000
51.38995 167.000
51.40989 143.000
51.42984 141.000
51.44979 175.000
51.46973 154.000
51.48968 145.000
51.50963 147.000
51.52957 164.000
51.54952 160.000
51.56947 191.000
51.58942 158.000
51.60936 153.000
51.62931 137.000
51.64926 150.000
51.66920 138.000
51.68915 181.000
51.70910 156.000
51.72904 146.000
51.74899 173.000
51.76894 151.000
51.78888 153.000
51.80883 160.000
51.82878 146.000
51.84873 160.000
51.86867 170.000
51.88862 158.000
51.90857 160.000
51.92851 184.000
51.94846 151.000
51.96841 162.000
51.98835 171.000
52.00830 153.000
52.02825 165.000
52.04820 160.000
52.06814 190.000
52.08809 152.000
52.10804 178.000
52.12798 143.000
52.14793 171.000
52.16788 133.000
52.18782 186.000
52.20777 184.000
52.22772 181.000
52.24767 162.000
52.26761 162.000
52.28756 167.000
52.30751 169.000
52.32745 170.000
52.34740 161.000
52.36735 169.000
52.38729 155.000
52.40724 150.000
52.42719 164.000
52.44713 127.000
52.46708 172.000
52.48703 182.000
52.50698 148.000
52.52692 150.000
52.54687 184.000
52.56682 160.000
52.58676 178.000
52.60671 142.000
52.62666 155.000
52.64660 197.000
52.66655 171.000
52.68650 168.000
52.70645 166.000
52.72639 185.000
52.74634 176.000
52.76629 169.000
52.78623 182.000
52.80618 192.000
52.82613 168.000
52.84607 172.000
52.86602 176.000
52.88597 177.000
52.90591 182.000
52.92586 214.000
52.94581 197.000
52.96576 214.000
52.98570 223.000
53.00565 243.000
53.02560 240.000
53.04554 252.000
53.06549 298.000
53.08544 285.000
53.10538 268.000
53.12533 279.000
53.14528 239.000
53.16523 277.000
53.18517 260.000
53.20512 232.000
53.22507 261.000
53.24501 214.000
53.26496 216.000
53.28491 225.000
53.30485 218.000
53.32480 195.000
53.34475 184.000
53.36469 200.000
53.38464 165.000
53.40459 170.000
53.42454 163.000
53.44448 189.000
53.46443 200.000
53.48438 194.000
53.50432 200.000
53.52427 169.000
53.54422 179.000
53.56416 183.000
53.58411 191.000
53.60406 173.000
53.62401 194.000
53.64395 198.000
53.66390 205.000
53.68385 218.000
53.70379 255.000
53.72374 237.000
53.74369 286.000
53.76363 364.000
53.78358 375.000
53.80353 327.000
53.82348 319.000
53.84342 263.000
53.86337 264.000
53.88332 280.000
53.90326 259.000
53.92321 263.000
53.94316 280.000
53.96310 262.000
53.98305 219.000
54.00300 206.000
54.02294 204.000
54.04289 199.000
54.06284 186.000
54.08279 184.000
54.10273 186.000
54.12268 169.000
54.14263 180.000
54.16257 168.000
54.18252 179.000
54.20247 153.000
54.22241 168.000
54.24236 169.000
54.26231 165.000
54.28226 176.000
54.30220 164.000
54.32215 159.000
54.34210 181.000
54.36204 162.000
54.38199 148.000
54.40194 167.000
54.42188 172.000
54.44183 175.000
54.46178 174.000
54.48172 160.000
54.50167 163.000
54.52162 167.000
54.54157 162.000
54.56151 166.000
54.58146 186.000
54.60141 158.000
54.62135 136.000
54.64130 147.000
54.66125 178.000
54.68119 172.000
54.70114 172.000
54.72109 182.000
54.74104 149.000
54.76098 163.000
54.78093 169.000
54.80088 150.000
54.82082 138.000
54.84077 164.000
54.86072 176.000
54.88066 145.000
54.90061 205.000
54.92056 161.000
54.94050 155.000
54.96045 169.000
54.98040 181.000
55.00035 162.000
55.02029 177.000
55.04024 154.000
55.06019 176.000
55.08013 155.000
55.10008 165.000
55.12003 172.000
55.13997 177.000
55.15992 175.000
55.17987 158.000
55.19982 145.000
55.21976 154.000
55.23971 170.000
55.25966 183.000
55.27960 155.000
55.29955 160.000
55.31950 159.000
55.33944 163.000
55.35939 181.000
55.37934 164.000
55.39929 187.000
55.41923 153.000
55.43918 179.000
55.45913 163.000
55.47907 172.000
55.49902 173.000
55.51897 161.000
55.53891 168.000
55.55886 160.000
55.57881 146.000
55.59875 171.000
55.61870 177.000
55.63865 138.000
55.65860 158.000
55.67854 171.000
55.69849 180.000
55.71844 183.000
55.73838 162.000
55.75833 174.000
55.77828 183.000
55.79822 164.000
55.81817 163.000
55.83812 179.000
55.85807 178.000
55.87801 173.000
55.89796 151.000
55.91791 168.000
55.93785 168.000
55.95780 154.000
55.97775 134.000
55.99769 166.000
56.01764 169.000
56.03759 153.000
56.05753 153.000
56.07748 185.000
56.09743 144.000
56.11738 161.000
56.13732 165.000
56.15727 184.000
56.17722 164.000
56.19716 171.000
56.21711 141.000
56.23706 155.000
56.25700 166.000
56.27695 167.000
56.29690 163.000
56.31685 174.000
56.33679 158.000
56.35674 152.000
56.37669 191.000
56.39663 192.000
56.41658 156.000
56.43653 166.000
56.45647 177.000
56.47642 187.000
56.49637 169.000
56.51631 189.000
56.53626 178.000
56.55621 185.000
56.57616 168.000
56.59610 191.000
56.61605 174.000
56.63600 165.000
56.65594 189.000
56.67589 166.000
56.69584 182.000
56.71578 176.000
56.73573 152.000
56.75568 164.000
56.77563 182.000
56.79557 166.000
56.81552 205.000
56.83547 169.000
56.85541 183.000
56.87536 168.000
56.89531 168.000
56.91525 170.000
56.93520 187.000
56.95515 193.000
56.97510 204.000
56.99504 202.000
57.01499 174.000
57.03494 233.000
57.05488 203.000
57.07483 212.000
57.09478 224.000
57.11472 226.000
57.13467 242.000
57.15462 258.000
57.17456 251.000
57.19451 306.000
57.21446 301.000
57.23441 323.000
57.25435 389.000
57.27430 488.000
57.29425 565.000
57.31419 651.000
57.33414 735.000
57.35409 710.000
57.37403 599.000
57.39398 579.000
57.41393 466.000
57.43388 415.000
57.45382 481.000
57.47377 511.000
57.49372 534.000
57.51366 450.000
57.53361 456.000
57.55356 394.000
57.57350 359.000
57.59345 307.000
57.61340 335.000
57.63334 299.000
57.65329 312.000
57.67324 332.000
57.69319 325.000
57.71313 321.000
57.73308 310.000
57.75303 382.000
57.77297 374.000
57.79292 329.000
57.81287 358.000
57.83281 344.000
57.85276 321.000
57.87271 287.000
57.89266 274.000
57.91260 288.000
57.93255 291.000
57.95250 272.000
57.97244 245.000
57.99239 253.000
58.01234 237.000
58.03228 236.000
58.05223 225.000
58.07218 225.000
58.09212 227.000
58.11207 186.000
58.13202 170.000
58.15197 197.000
58.17191 192.000
58.19186 193.000
58.21181 166.000
58.23175 182.000
58.25170 191.000
58.27165 162.000
58.29159 181.000
58.31154 173.000
58.33149 165.000
58.35144 176.000
58.37138 194.000
58.39133 157.000
58.41128 181.000
58.43122 183.000
58.45117 192.000
58.47112 171.000
58.49106 176.000
58.51101 202.000
58.53096 198.000
58.55090 207.000
58.57085 171.000
58.59080 170.000
58.61075 158.000
58.63069 180.000
58.65064 190.000
58.67059 180.000
58.69053 193.000
58.71048 191.000
58.73043 183.000
58.75037 183.000
58.77032 182.000
58.79027 194.000
58.81022 174.000
58.83016 183.000
58.85011 171.000
58.87006 169.000
58.89000 180.000
58.90995 180.000
58.92990 190.000
58.94984 174.000
58.96979 171.000
58.98974 188.000
59.00969 190.000
59.02963 190.000
59.04958 178.000
59.06953 176.000
59.08947 160.000
59.10942 180.000
59.12937 199.000
59.14931 169.000
59.16926 176.000
59.18921 168.000
59.20915 176.000
59.22910 175.000
59.24905 179.000
59.26900 195.000
59.28894 195.000
59.30889 192.000
59.32884 194.000
59.34878 189.000
59.36873 190.000
59.38868 187.000
59.40862 167.000
59.42857 190.000
59.44852 196.000
59.46847 196.000
59.48841 198.000
59.50836 205.000
59.52831 207.000
59.54825 167.000
59.56820 188.000
59.58815 181.000
59.60809 213.000
59.62804 210.000
59.64799 226.000
59.66793 207.000
59.68788 214.000
59.70783 226.000
59.72778 206.000
59.74772 181.000
59.76767 222.000
59.78762 220.000
59.80756 195.000
59.82751 213.000
59.84746 165.000
59.86740 203.000
59.88735 210.000
59.90730 186.000
59.92725 196.000
59.94719 204.000
59.96714 200.000
59.98709 175.000
60.00703 188.000
60.02698 169.000
60.04693 201.000
60.06687 174.000
60.08682 190.000
60.10677 167.000
60.12671 183.000
60.14666 178.000
60.16661 192.000
60.18656 177.000
60.20650 188.000
60.22645 172.000
60.24640 156.000
60.26634 162.000
60.28629 205.000
60.30624 187.000
60.32618 194.000
60.34613 194.000
60.36608 191.000
60.38603 172.000
60.40597 178.000
60.42592 170.000
60.44587 176.000
60.46581 169.000
60.48576 183.000
60.50571 173.000
60.52565 172.000
60.54560 207.000
60.56555 186.000
60.58550 188.000
60.60544 171.000
60.62539 174.000
60.64534 178.000
60.66528 173.000
60.68523 205.000
60.70518 160.000
60.72512 183.000
60.74507 197.000
60.76502 180.000
60.78496 188.000
60.80491 184.000
60.82486 171.000
60.84481 177.000
60.86475 194.000
60.88470 189.000
60.90465 195.000
60.92459 194.000
60.94454 181.000
60.96449 191.000
60.98443 163.000
61.00438 172.000
61.02433 186.000
61.04428 170.000
61.06422 170.000
61.08417 188.000
61.10412 182.000
61.12406 183.000
61.14401 190.000
61.16396 194.000
61.18390 190.000
61.20385 186.000
61.22380 198.000
61.24374 195.000
61.26369 160.000
61.28364 201.000
61.30359 193.000
61.32353 203.000
61.34348 186.000
61.36343 204.000
61.38337 200.000
61.40332 226.000
61.42327 217.000
61.44321 230.000
61.46316 224.000
61.48311 235.000
61.50306 219.000
61.52300 254.000
61.54295 294.000
61.56290 283.000
61.58284 270.000
61.60279 277.000
61.62274 323.000
61.64268 310.000
61.66263 320.000
61.68258 317.000
61.70252 323.000
61.72247 321.000
61.74242 317.000
61.76237 346.000
61.78231 295.000
61.80226 295.000
61.82221 297.000
61.84215 301.000
61.86210 304.000
61.88205 332.000
61.90199 264.000
61.92194 287.000
61.94189 267.000
61.96184 324.000
61.98178 287.000
62.00173 303.000
62.02168 296.000
62.04162 351.000
62.06157 298.000
62.08152 357.000
62.10146 317.000
62.12141 345.000
62.14136 333.000
62.16131 357.000
62.18125 415.000
62.20120 405.000
62.22115 411.000
62.24109 437.000
62.26104 418.000
62.28099 419.000
62.30093 451.000
62.32088 484.000
62.34083 509.000
62.36077 537.000
62.38072 546.000
62.40067 553.000
62.42062 542.000
62.44056 590.000
62.46051 567.000
62.48046 591.000
62.50040 580.000
62.52035 594.000
62.54030 571.000
62.56024 578.000
62.58019 545.000
62.60014 588.000
62.62009 552.000
62.64003 594.000
62.65998 524.000
62.67993 555.000
62.69987 559.000
62.71982 556.000
62.73977 559.000
62.75971 497.000
62.77966 508.000
62.79961 507.000
62.81955 525.000
62.83950 524.000
62.85945 499.000
62.87940 578.000
62.89934 683.000
62.91929 727.000
62.93924 865.000
62.95918 948.000
62.97913 1012.000
62.99908 949.000
63.01902 798.000
63.03897 699.000
63.05892 619.000
63.07887 619.000
63.09881 604.000
63.11876 651.000
63.13871 628.000
63.15865 609.000
63.17860 515.000
63.19855 506.000
63.21849 417.000
63.23844 371.000
63.25839 315.000
63.27833 330.000
63.29828 268.000
63.31823 241.000
63.33818 251.000
63.35812 224.000
63.37807 231.000
63.39802 214.000
63.41796 211.000
63.43791 216.000
63.45786 191.000
63.47780 193.000
63.49775 201.000
63.51770 198.000
63.53765 190.000
63.55759 187.000
63.57754 187.000
63.59749 171.000
63.61743 194.000
63.63738 203.000
63.65733 145.000
63.67727 178.000
63.69722 187.000
63.71717 175.000
63.73712 199.000
63.75706 201.000
63.77701 209.000
63.79696 207.000
63.81690 185.000
63.83685 202.000
63.85680 194.000
63.87674 192.000
63.89669 171.000
63.91664 179.000
63.93658 191.000
63.95653 181.000
63.97648 186.000
63.99643 203.000
64.01637 208.000
64.03632 172.000
64.05627 179.000
64.07621 184.000
64.09616 197.000
64.11611 189.000
64.13605 182.000
64.15600 201.000
64.17595 151.000
64.19590 168.000
64.21584 194.000
64.23579 177.000
64.25574 182.000
64.27568 171.000
64.29563 175.000
64.31558 190.000
64.33552 187.000
64.35547 207.000
64.37542 172.000
64.39536 187.000
64.41531 191.000
64.43526 174.000
64.45521 186.000
64.47515 188.000
64.49510 172.000
64.51505 152.000
64.53499 192.000
64.55494 164.000
64.57489 178.000
64.59483 175.000
64.61478 194.000
64.63473 193.000
64.65468 175.000
64.67462 199.000
64.69457 167.000
64.71452 174.000
64.73446 160.000
64.75441 208.000
64.77436 182.000
64.79430 188.000
64.81425 179.000
64.83420 184.000
64.85414 209.000
64.87409 178.000
64.89404 200.000
64.91399 205.000
64.93393 204.000
64.95388 188.000
64.97383 181.000
64.99377 209.000
65.01372 217.000
65.03367 208.000
65.05361 192.000
65.07356 188.000
65.09351 222.000
65.11346 211.000
65.13340 206.000
65.15335 198.000
65.17330 231.000
65.19324 201.000
65.21319 205.000
65.23314 198.000
65.25308 206.000
65.27303 210.000
65.29298 183.000
65.31293 176.000
65.33287 201.000
65.35282 184.000
65.37277 197.000
65.39271 184.000
65.41266 191.000
65.43261 186.000
65.45255 196.000
65.47250 194.000
65.49245 149.000
65.51239 200.000
65.53234 189.000
65.55229 219.000
65.57224 187.000
65.59218 180.000
65.61213 189.000
65.63208 196.000
65.65202 183.000
65.67197 189.000
65.69192 194.000
65.71186 172.000
65.73181 186.000
65.75176 216.000
65.77171 149.000
65.79165 202.000
65.81160 171.000
65.83155 165.000
65.85149 168.000
65.87144 159.000
65.89139 182.000
65.91133 158.000
65.93128 170.000
65.95123 168.000
65.97117 180.000
65.99112 186.000
66.01107 191.000
66.03102 183.000
66.05096 160.000
66.07091 184.000
66.09086 181.000
66.11080 172.000
66.13075 170.000
66.15070 189.000
66.17064 169.000
66.19059 174.000
66.21054 194.000
66.23049 174.000
66.25043 161.000
66.27038 189.000
66.29033 179.000
66.31027 173.000
66.33022 178.000
66.35017 184.000
66.37011 171.000
66.39006 181.000
66.41001 142.000
66.42995 167.000
66.44990 184.000
66.46985 166.000
66.48980 205.000
66.50974 195.000
66.52969 171.000
66.54964 174.000
66.56958 169.000
66.58953 146.000
66.60948 181.000
66.62942 182.000
66.64937 162.000
66.66932 157.000
66.68927 173.000
66.70921 170.000
66.72916 182.000
66.74911 139.000
66.76905 164.000
66.78900 173.000
66.80895 194.000
66.82889 165.000
66.84884 174.000
66.86879 161.000
66.88874 163.000
66.90868 186.000
66.92863 183.000
66.94858 160.000
66.96852 158.000
66.98847 159.000
67.00842 167.000
67.02836 156.000
67.04831 169.000
67.06826 158.000
67.08820 159.000
67.10815 172.000
67.12810 162.000
67.14805 162.000
67.16799 180.000
67.18794 162.000
67.20789 168.000
67.22783 188.000
67.24778 153.000
67.26773 162.000
67.28767 170.000
67.30762 160.000
67.32757 172.000
67.34752 151.000
67.36746 183.000
67.38741 163.000
67.40736 139.000
67.42730 162.000
67.44725 161.000
67.46720 132.000
67.48714 195.000
67.50709 176.000
67.52704 170.000
67.54698 183.000
67.56693 164.000
67.58688 158.000
67.60683 159.000
67.62677 168.000
67.64672 166.000
67.66667 159.000
67.68661 163.000
67.70656 151.000
67.72651 169.000
67.74645 172.000
67.76640 166.000
67.78635 169.000
67.80630 176.000
67.82624 168.000
67.84619 186.000
67.86614 164.000
67.88608 151.000
67.90603 166.000
67.92598 188.000
67.94592 189.000
67.96587 208.000
67.98582 189.000
68.00576 184.000
68.02571 189.000
68.04566 188.000
68.06561 194.000
68.08555 189.000
68.10550 180.000
68.12545 199.000
68.14539 204.000
68.16534 196.000
68.18529 201.000
68.20523 185.000
68.22518 195.000
68.24513 189.000
68.26508 199.000
68.28502 193.000
68.30497 187.000
68.32492 209.000
68.34486 210.000
68.36481 186.000
68.38476 198.000
68.40470 189.000
68.42465 204.000
68.44460 184.000
68.46455 188.000
68.48449 171.000
68.50444 185.000
68.52439 179.000
68.54433 170.000
68.56428 164.000
68.58423 172.000
68.60417 193.000
68.62412 168.000
68.64407 187.000
68.66401 171.000
68.68396 163.000
68.70391 144.000
68.72386 168.000
68.74380 164.000
68.76375 168.000
68.78370 176.000
68.80364 167.000
68.82359 178.000
68.84354 172.000
68.86348 170.000
68.88343 186.000
68.90338 166.000
68.92333 168.000
68.94327 150.000
68.96322 175.000
68.98317 187.000
69.00311 193.000
69.02306 169.000
69.04301 173.000
69.06295 176.000
69.08290 171.000
69.10285 166.000
69.12279 180.000
69.14274 168.000
69.16269 147.000
69.18264 176.000
69.20258 147.000
69.22253 166.000
69.24248 152.000
69.26242 178.000
69.28237 177.000
69.30232 169.000
69.32226 177.000
69.34221 188.000
69.36216 171.000
69.38211 185.000
69.40205 187.000
69.42200 144.000
69.44195 174.000
69.46189 172.000
69.48184 186.000
69.50179 170.000
69.52173 173.000
69.54168 168.000
69.56163 152.000
69.58157 165.000
69.60152 168.000
69.62147 172.000
69.64142 153.000
69.66136 150.000
69.68131 145.000
69.70126 175.000
69.72120 192.000
69.74115 154.000
69.76110 166.000
69.78104 175.000
69.80099 180.000
69.82094 157.000
69.84089 149.000
69.86083 176.000
69.88078 166.000
69.90073 158.000
69.92067 152.000
69.94062 162.000
69.96057 144.000
69.98051 160.000
70.00046 140.000
70.02041 144.000
70.04035 165.000
70.06030 158.000
70.08025 153.000
70.10020 162.000
70.12014 175.000
70.14009 168.000
70.16004 169.000
70.17998 141.000
70.19993 157.000
70.21988 152.000
70.23982 151.000
70.25977 150.000
70.27972 178.000
70.29967 173.000
70.31961 162.000
70.33956 160.000
70.35951 160.000
70.37945 186.000
70.39940 164.000
70.41935 191.000
70.43929 136.000
70.45924 153.000
70.47919 157.000
70.49914 138.000
70.51908 152.000
70.53903 165.000
70.55898 182.000
70.57892 156.000
70.59887 153.000
70.61882 167.000
70.63876 159.000
70.65871 150.000
70.67866 167.000
70.69860 170.000
70.71855 169.000
70.73850 171.000
70.75845 147.000
70.77839 153.000
70.79834 146.000
70.81829 168.000
70.83823 166.000
70.85818 152.000
70.87813 183.000
70.89807 158.000
70.91802 147.000
70.93797 174.000
70.95792 138.000
70.97786 196.000
70.99781 161.000
71.01776 183.000
71.03770 156.000
71.05765 172.000
71.07760 171.000
71.09754 164.000
71.11749 170.000
71.13744 180.000
71.15738 166.000
71.17733 181.000
71.19728 176.000
71.21723 178.000
71.23717 187.000
71.25712 158.000
71.27707 181.000
71.29701 183.000
71.31696 190.000
71.33691 175.000
71.35685 178.000
71.37680 171.000
71.39675 228.000
71.41670 188.000
71.43664 207.000
71.45659 204.000
71.47654 213.000
71.49648 213.000
71.51643 206.000
71.53638 193.000
71.55632 175.000
71.57627 172.000
71.59622 211.000
71.61616 188.000
71.63611 217.000
71.65606 189.000
71.67601 187.000
71.69595 201.000
71.71590 203.000
71.73585 173.000
71.75579 177.000
71.77574 167.000
71.79569 172.000
71.81563 163.000
71.83558 174.000
71.85553 182.000
71.87548 173.000
71.89542 156.000
71.91537 194.000
71.93532 164.000
71.95526 173.000
71.97521 166.000
71.99516 199.000
72.01510 175.000
72.03505 187.000
72.05500 154.000
72.07495 188.000
72.09489 174.000
72.11484 163.000
72.13479 182.000
72.15473 186.000
72.17468 185.000
72.19463 173.000
72.21457 166.000
72.23452 172.000
72.25447 159.000
72.27441 175.000
72.29436 185.000
72.31431 186.000
72.33426 193.000
72.35420 199.000
72.37415 206.000
72.39410 205.000
72.41404 189.000
72.43399 199.000
72.45394 191.000
72.47388 190.000
72.49383 190.000
72.51378 218.000
72.53373 175.000
72.55367 214.000
72.57362 198.000
72.59357 196.000
72.61351 176.000
72.63346 177.000
72.65341 181.000
72.67335 201.000
72.69330 179.000
72.71325 208.000
72.73319 182.000
72.75314 205.000
72.77309 179.000
72.79304 205.000
72.81298 182.000
72.83293 203.000
72.85288 179.000
72.87282 199.000
72.89277 204.000
72.91272 159.000
72.93266 196.000
72.95261 181.000
72.97256 183.000
72.99251 181.000
73.01245 202.000
73.03240 187.000
73.05235 185.000
73.07229 186.000
73.09224 198.000
73.11219 184.000
73.13213 207.000
73.15208 206.000
73.17203 176.000
73.19197 193.000
73.21192 176.000
73.23187 199.000
73.25182 162.000
73.27176 198.000
73.29171 174.000
73.31166 191.000
73.33160 207.000
73.35155 214.000
73.37150 167.000
73.39144 188.000
73.41139 201.000
73.43134 202.000
73.45129 186.000
73.47123 199.000
73.49118 185.000
73.51113 183.000
73.53107 178.000
73.55102 180.000
73.57097 200.000
73.59091 181.000
73.61086 232.000
73.63081 198.000
73.65076 181.000
73.67070 180.000
73.69065 199.000
73.71060 206.000
73.73054 192.000
73.75049 181.000
73.77044 207.000
73.79038 224.000
73.81033 195.000
73.83028 208.000
73.85022 233.000
73.87017 203.000
73.89012 202.000
73.91007 220.000
73.93001 201.000
73.94996 201.000
73.96991 218.000
73.98985 216.000
74.00980 219.000
74.02975 186.000
74.04969 200.000
74.06964 185.000
74.08959 193.000
74.10954 214.000
74.12948 216.000
74.14943 250.000
74.16938 213.000
74.18932 199.000
74.20927 188.000
74.22922 202.000
74.24916 196.000
74.26911 191.000
74.28906 198.000
74.30900 222.000
74.32895 231.000
74.34890 217.000
74.36885 202.000
74.38879 199.000
74.40874 274.000
74.42869 241.000
74.44863 253.000
74.46858 266.000
74.48853 313.000
74.50847 362.000
74.52842 359.000
74.54837 333.000
74.56832 299.000
74.58826 309.000
74.60821 309.000
74.62816 289.000
74.64810 263.000
74.66805 297.000
74.68800 296.000
74.70794 316.000
74.72789 326.000
74.74784 306.000
74.76778 315.000
74.78773 305.000
74.80768 287.000
74.82763 296.000
74.84757 292.000
74.86752 279.000
74.88747 255.000
74.90741 263.000
74.92736 263.000
74.94731 265.000
74.96725 264.000
74.98720 264.000
75.00715 247.000
75.02710 275.000
75.04704 260.000
75.06699 259.000
75.08694 265.000
75.10688 232.000
75.12683 251.000
75.14678 242.000
75.16672 272.000
75.18667 264.000
75.20662 273.000
75.22657 249.000
75.24651 213.000
75.26646 227.000
75.28641 236.000
75.30635 234.000
75.32630 246.000
75.34625 235.000
75.36619 224.000
75.38614 223.000
75.40609 239.000
75.42603 230.000
75.44598 234.000
75.46593 231.000
75.48588 202.000
75.50582 217.000
75.52577 233.000
75.54572 242.000
75.56566 231.000
75.58561 249.000
75.60556 193.000
75.62550 178.000
75.64545 232.000
75.66540 215.000
75.68535 214.000
75.70529 227.000
75.72524 176.000
75.74519 219.000
75.76513 200.000
75.78508 182.000
75.80503 189.000
75.82497 224.000
75.84492 203.000
75.86487 177.000
75.88481 206.000
75.90476 170.000
75.92471 174.000
75.94466 167.000
75.96460 180.000
75.98455 162.000
76.00450 142.000
76.02444 162.000
76.04439 199.000
76.06434 166.000
76.08428 148.000
76.10423 168.000
76.12418 161.000
76.14413 169.000
76.16407 195.000
76.18402 178.000
76.20397 152.000
76.22391 129.000
76.24386 183.000
76.26381 172.000
76.28375 159.000
76.30370 158.000
76.32365 158.000
76.34359 175.000
76.36354 168.000
76.38349 170.000
76.40344 181.000
76.42338 161.000
76.44333 179.000
76.46328 151.000
76.48322 175.000
76.50317 150.000
76.52312 153.000
76.54306 161.000
76.56301 153.000
76.58296 162.000
76.60291 149.000
76.62285 157.000
76.64280 167.000
76.66275 150.000
76.68269 163.000
76.70264 185.000
76.72259 168.000
76.74253 159.000
76.76248 165.000
76.78243 157.000
76.80238 160.000
76.82232 176.000
76.84227 192.000
76.86222 169.000
76.88216 159.000
76.90211 161.000
76.92206 158.000
76.94200 167.000
76.96195 179.000
76.98190 147.000
77.00184 191.000
77.02179 177.000
77.04174 165.000
77.06169 169.000
77.08163 174.000
77.10158 176.000
77.12153 164.000
77.14147 177.000
77.16142 181.000
77.18137 164.000
77.20131 195.000
77.22126 146.000
77.24121 191.000
77.26116 192.000
77.28110 197.000
77.30105 170.000
77.32100 192.000
77.34094 174.000
77.36089 204.000
77.38084 203.000
77.40078 182.000
77.42073 210.000
77.44068 172.000
77.46062 177.000
77.48057 176.000
77.50052 162.000
77.52047 222.000
77.54041 200.000
77.56036 208.000
77.58031 194.000
77.60025 214.000
77.62020 179.000
77.64015 178.000
77.66009 185.000
77.68004 192.000
77.69999 221.000
77.71994 198.000
77.73988 210.000
77.75983 180.000
77.77978 211.000
77.79972 176.000
77.81967 215.000
77.83962 214.000
77.85956 204.000
77.87951 191.000
77.89946 198.000
77.91940 206.000
77.93935 198.000
77.95930 201.000
77.97925 195.000
77.99919 171.000
78.01914 195.000
78.03909 198.000
78.05903 210.000
78.07898 191.000
78.09893 187.000
78.11887 226.000
78.13882 195.000
78.15877 188.000
78.17872 187.000
78.19866 166.000
78.21861 194.000
78.23856 172.000
78.25850 192.000
78.27845 192.000
78.29840 198.000
78.31834 185.000
78.33829 179.000
78.35824 192.000
78.37819 196.000
78.39813 201.000
78.41808 197.000
78.43803 213.000
78.45797 195.000
78.47792 184.000
78.49787 194.000
78.51781 203.000
78.53776 199.000
78.55771 215.000
78.57765 221.000
78.59760 236.000
78.61755 235.000
78.63750 196.000
78.65744 230.000
78.67739 210.000
78.69734 219.000
78.71728 227.000
78.73723 216.000
78.75718 220.000
78.77712 229.000
78.79707 221.000
78.81702 253.000
78.83697 198.000
78.85691 221.000
78.87686 240.000
78.89681 232.000
78.91675 243.000
78.93670 226.000
78.95665 235.000
78.97659 221.000
78.99654 233.000
79.01649 227.000
79.03643 242.000
79.05638 223.000
79.07633 238.000
79.09628 228.000
79.11622 231.000
79.13617 229.000
79.15612 220.000
79.17606 237.000
79.19601 224.000
79.21596 227.000
79.23590 195.000
79.25585 201.000
79.27580 192.000
79.29575 204.000
79.31569 218.000
79.33564 198.000
79.35559 179.000
79.37553 179.000
79.39548 181.000
79.41543 199.000
79.43537 205.000
79.45532 199.000
79.47527 204.000
79.49521 196.000
79.51516 200.000
79.53511 231.000
79.55506 199.000
79.57500 200.000
79.59495 207.000
79.61490 174.000
79.63484 182.000
79.65479 179.000
79.67474 188.000
79.69468 179.000
79.71463 171.000
79.73458 176.000
79.75453 157.000
79.77447 199.000
79.79442 192.000
79.81437 199.000
79.83431 191.000
79.85426 163.000
79.87421 165.000
79.89415 157.000
79.91410 178.000
79.93405 178.000
79.95399 166.000
79.97394 172.000
79.99389 155.000
80.01384 190.000
80.03378 173.000
80.05373 178.000
80.07368 153.000
80.09362 160.000
80.11357 158.000
80.13352 193.000
80.15346 172.000
80.17341 171.000
80.19336 156.000
80.21331 148.000
80.23325 185.000
80.25320 181.000
80.27315 184.000
80.29309 149.000
80.31304 162.000
80.33299 175.000
80.35293 149.000
80.37288 144.000
80.39283 151.000
80.41278 166.000
80.43272 171.000
80.45267 161.000
80.47262 175.000
80.49256 183.000
80.51251 185.000
80.53246 147.000
80.55240 149.000
80.57235 159.000
80.59230 164.000
80.61224 146.000
80.63219 162.000
80.65214 179.000
80.67209 143.000
80.69203 166.000
80.71198 156.000
80.73193 152.000
80.75187 141.000
80.77182 156.000
80.79177 156.000
80.81171 169.000
80.83166 148.000
80.85161 174.000
80.87156 142.000
80.89150 143.000
80.91145 152.000
80.93140 139.000
80.95134 145.000
80.97129 153.000
80.99124 177.000
81.01118 177.000
81.03113 163.000
81.05108 179.000
81.07102 144.000
81.09097 161.000
81.11092 151.000
81.13087 167.000
81.15081 146.000
81.17076 152.000
81.19071 147.000
81.21065 170.000
81.23060 171.000
81.25055 174.000
81.27049 163.000
81.29044 159.000
81.31039 152.000
81.33034 176.000
81.35028 135.000
81.37023 154.000
81.39018 135.000
81.41012 166.000
81.43007 158.000
81.45002 141.000
81.46996 151.000
81.48991 121.000
81.50986 143.000
81.52980 163.000
81.54975 159.000
81.56970 150.000
81.58965 142.000
81.60959 141.000
81.62954 160.000
81.64949 159.000
81.66943 169.000
81.68938 147.000
81.70933 140.000
81.72927 162.000
81.74922 140.000
81.76917 153.000
81.78912 141.000
81.80906 166.000
81.82901 138.000
81.84896 168.000
81.86890 150.000
81.88885 171.000
81.90880 158.000
81.92874 164.000
81.94869 151.000
81.96864 139.000
81.98859 160.000
82.00853 156.000
82.02848 176.000
82.04843 152.000
82.06837 142.000
82.08832 151.000
82.10827 181.000
82.12821 150.000
82.14816 157.000
82.16811 168.000
82.18805 156.000
82.20800 168.000
82.22795 153.000
82.24790 153.000
82.26784 168.000
82.28779 149.000
82.30774 143.000
82.32768 160.000
82.34763 179.000
82.36758 181.000
82.38752 165.000
82.40747 162.000
82.42742 161.000
82.44737 173.000
82.46731 148.000
82.48726 136.000
82.50721 169.000
82.52715 168.000
82.54710 176.000
82.56705 181.000
82.58699 158.000
82.60694 152.000
82.62689 154.000
82.64683 177.000
82.66678 173.000
82.68673 181.000
82.70668 185.000
82.72662 189.000
82.74657 159.000
82.76652 148.000
82.78646 151.000
82.80641 153.000
82.82636 164.000
82.84630 183.000
82.86625 133.000
82.88620 175.000
82.90615 162.000
82.92609 164.000
82.94604 168.000
82.96599 180.000
82.98593 174.000
83.00588 162.000
83.02583 162.000
83.04577 141.000
83.06572 157.000
83.08567 146.000
83.10561 163.000
83.12556 176.000
83.14551 156.000
83.16546 149.000
83.18540 153.000
83.20535 163.000
83.22530 172.000
83.24524 169.000
83.26519 174.000
83.28514 151.000
83.30508 142.000
83.32503 180.000
83.34498 149.000
83.36493 173.000
83.38487 183.000
83.40482 140.000
83.42477 160.000
83.44471 169.000
83.46466 162.000
83.48461 152.000
83.50455 170.000
83.52450 149.000
83.54445 147.000
83.56440 152.000
83.58434 155.000
83.60429 162.000
83.62424 170.000
83.64418 147.000
83.66413 156.000
83.68408 152.000
83.70402 159.000
83.72397 134.000
83.74392 158.000
83.76386 152.000
83.78381 133.000
83.80376 162.000
83.82371 150.000
83.84365 139.000
83.86360 155.000
83.88355 156.000
83.90349 162.000
83.92344 160.000
83.94339 192.000
83.96333 172.000
83.98328 145.000
84.00323 171.000
84.02318 160.000
84.04312 158.000
84.06307 159.000
84.08302 154.000
84.10296 154.000
84.12291 148.000
84.14286 149.000
84.16280 152.000
84.18275 163.000
84.20270 141.000
84.22264 172.000
84.24259 160.000
84.26254 176.000
84.28249 147.000
84.30243 152.000
84.32238 171.000
84.34233 167.000
84.36227 173.000
84.38222 143.000
84.40217 155.000
84.42211 166.000
84.44206 166.000
84.46201 165.000
84.48196 169.000
84.50190 171.000
84.52185 172.000
84.54180 167.000
84.56174 151.000
84.58169 157.000
84.60164 175.000
84.62158 154.000
84.64153 148.000
84.66148 166.000
84.68142 181.000
84.70137 163.000
84.72132 164.000
84.74127 154.000
84.76121 160.000
84.78116 150.000
84.80111 157.000
84.82105 157.000
84.84100 161.000
84.86095 166.000
84.88089 146.000
84.90084 172.000
84.92079 162.000
84.94074 139.000
84.96068 165.000
84.98063 162.000
85.00058 167.000
85.02052 163.000
85.04047 150.000
85.06042 138.000
85.08036 158.000
85.10031 153.000
85.12026 143.000
85.14021 135.000
85.16015 150.000
85.18010 174.000
85.20005 160.000
85.21999 159.000
85.23994 152.000
85.25989 156.000
85.27983 147.000
85.29978 153.000
85.31973 179.000
85.33967 161.000
85.35962 162.000
85.37957 152.000
85.39952 146.000
85.41946 146.000
85.43941 142.000
85.45936 145.000
85.47930 166.000
85.49925 160.000
85.51920 171.000
85.53914 169.000
85.55909 150.000
85.57904 148.000
85.59899 135.000
85.61893 154.000
85.63888 148.000
85.65883 150.000
85.67877 168.000
85.69872 162.000
85.71867 153.000
85.73861 145.000
85.75856 155.000
85.77851 165.000
85.79845 166.000
85.81840 157.000
85.83835 195.000
85.85830 141.000
85.87824 155.000
85.89819 139.000
85.91814 188.000
85.93808 154.000
85.95803 139.000
85.97798 152.000
85.99792 152.000
86.01787 173.000
86.03782 174.000
86.05777 151.000
86.07771 153.000
86.09766 164.000
86.11761 168.000
86.13755 154.000
86.15750 166.000
86.17745 170.000
86.19739 157.000
86.21734 170.000
86.23729 160.000
86.25723 184.000
86.27718 184.000
86.29713 157.000
86.31708 169.000
86.33702 173.000
86.35697 145.000
86.37692 160.000
86.39686 149.000
86.41681 174.000
86.43676 165.000
86.45670 168.000
86.47665 155.000
86.49660 171.000
86.51655 182.000
86.53649 176.000
86.55644 157.000
86.57639 166.000
86.59633 167.000
86.61628 160.000
86.63623 160.000
86.65617 169.000
86.67612 142.000
86.69607 168.000
86.71602 158.000
86.73596 186.000
86.75591 170.000
86.77586 159.000
86.79580 180.000
86.81575 157.000
86.83570 154.000
86.85564 163.000
86.87559 174.000
86.89554 158.000
86.91548 169.000
86.93543 165.000
86.95538 179.000
86.97533 171.000
86.99527 188.000
87.01522 152.000
87.03517 185.000
87.05511 164.000
87.07506 157.000
87.09501 167.000
87.11495 164.000
87.13490 159.000
87.15485 180.000
87.17480 167.000
87.19474 188.000
87.21469 160.000
87.23464 144.000
87.25458 146.000
87.27453 158.000
87.29448 186.000
87.31442 175.000
87.33437 187.000
87.35432 183.000
87.37426 207.000
87.39421 191.000
87.41416 216.000
87.43411 200.000
87.45405 186.000
87.47400 195.000
87.49395 190.000
87.51389 185.000
87.53384 188.000
87.55379 170.000
87.57373 182.000
87.59368 195.000
87.61363 174.000
87.63358 175.000
87.65352 163.000
87.67347 176.000
87.69342 198.000
87.71336 197.000
87.73331 173.000
87.75326 172.000
87.77320 176.000
87.79315 182.000
87.81310 140.000
87.83304 154.000
87.85299 169.000
87.87294 170.000
87.89289 162.000
87.91283 173.000
87.93278 178.000
87.95273 162.000
87.97267 155.000
87.99262 146.000
88.01257 173.000
88.03251 163.000
88.05246 133.000
88.07241 161.000
88.09236 145.000
88.11230 139.000
88.13225 177.000
88.15220 147.000
88.17214 154.000
88.19209 192.000
88.21204 160.000
88.23198 143.000
88.25193 182.000
88.27188 168.000
88.29183 148.000
88.31177 162.000
88.33172 165.000
88.35167 165.000
88.37161 156.000
88.39156 168.000
88.41151 178.000
88.43145 145.000
88.45140 167.000
88.47135 162.000
88.49129 153.000
88.51124 144.000
88.53119 152.000
88.55114 153.000
88.57108 158.000
88.59103 127.000
88.61098 147.000
88.63092 157.000
88.65087 150.000
88.67082 138.000
88.69076 146.000
88.71071 168.000
88.73066 172.000
88.75061 161.000
88.77055 153.000
88.79050 155.000
88.81045 145.000
88.83039 139.000
88.85034 169.000
88.87029 155.000
88.89023 159.000
88.91018 168.000
88.93013 165.000
88.95007 144.000
88.97002 153.000
88.98997 181.000
89.00992 171.000
89.02986 167.000
89.04981 141.000
89.06976 169.000
89.08970 161.000
89.10965 148.000
89.12960 137.000
89.14954 150.000
89.16949 164.000
89.18944 155.000
89.20939 149.000
89.22933 164.000
89.24928 167.000
89.26923 176.000
89.28917 173.000
89.30912 166.000
89.32907 148.000
89.34901 164.000
89.36896 165.000
89.38891 174.000
89.40885 154.000
89.42880 164.000
89.44875 157.000
89.46870 153.000
89.48864 167.000
89.50859 179.000
89.52854 155.000
89.54848 158.000
89.56843 156.000
89.58838 170.000
89.60832 137.000
89.62827 157.000
89.64822 161.000
89.66817 144.000
89.68811 167.000
89.70806 155.000
89.72801 149.000
89.74795 162.000
89.76790 145.000
89.78785 169.000
89.80779 158.000
89.82774 168.000
89.84769 172.000
89.86764 150.000
89.88758 154.000
89.90753 179.000
89.92748 166.000
89.94742 179.000
89.96737 173.000
89.98732 174.000
90.00726 159.000
