10.00000 229.000
10.01995 258.000
10.03989 206.000
10.05984 195.000
10.07979 210.000
10.09973 256.000
10.11968 218.000
10.13963 246.000
10.15958 264.000
10.17952 230.000
10.19947 228.000
10.21942 244.000
10.23936 223.000
10.25931 221.000
10.27926 248.000
10.29920 218.000
10.31915 227.000
10.33910 245.000
10.35905 232.000
10.37899 237.000
10.39894 240.000
10.41889 241.000
10.43883 197.000
10.45878 258.000
10.47873 254.000
10.49867 259.000
10.51862 222.000
10.53857 241.000
10.55851 248.000
10.57846 267.000
10.59841 257.000
10.61836 239.000
10.63830 268.000
10.65825 234.000
10.67820 212.000
10.69814 277.000
10.71809 242.000
10.73804 217.000
10.75798 252.000
10.77793 219.000
10.79788 252.000
10.81783 259.000
10.83777 237.000
10.85772 244.000
10.87767 243.000
10.89761 211.000
10.91756 243.000
10.93751 239.000
10.95745 235.000
10.97740 249.000
10.99735 256.000
11.01730 217.000
11.03724 228.000
11.05719 254.000
11.07714 264.000
11.09708 246.000
11.11703 268.000
11.13698 255.000
11.15692 217.000
11.17687 229.000
11.19682 247.000
11.21676 213.000
11.23671 262.000
11.25666 241.000
11.27661 243.000
11.29655 246.000
11.31650 269.000
11.33645 239.000
11.35639 245.000
11.37634 236.000
11.39629 241.000
11.41623 251.000
11.43618 258.000
11.45613 254.000
11.47608 260.000
11.49602 276.000
11.51597 254.000
11.53592 273.000
11.55586 243.000
11.57581 292.000
11.59576 235.000
11.61570 243.000
11.63565 273.000
11.65560 253.000
11.67554 272.000
11.69549 234.000
11.71544 266.000
11.73539 253.000
11.75533 239.000
11.77528 269.000
11.79523 248.000
11.81517 271.000
11.83512 257.000
11.85507 232.000
11.87501 256.000
11.89496 272.000
11.91491 272.000
11.93486 258.000
11.95480 250.000
11.97475 242.000
11.99470 256.000
12.01464 249.000
12.03459 261.000
12.05454 265.000
12.07448 255.000
12.09443 294.000
12.11438 253.000
12.13432 263.000
12.15427 252.000
12.17422 243.000
12.19417 230.000
12.21411 268.000
12.23406 241.000
12.25401 242.000
12.27395 280.000
12.29390 241.000
12.31385 255.000
12.33379 239.000
12.35374 263.000
12.37369 263.000
12.39364 252.000
12.41358 279.000
12.43353 253.000
12.45348 267.000
12.47342 252.000
12.49337 257.000
12.51332 269.000
12.53326 277.000
12.55321 256.000
12.57316 262.000
12.59311 276.000
12.61305 256.000
12.63300 275.000
12.65295 257.000
12.67289 248.000
12.69284 295.000
12.71279 265.000
12.73273 263.000
12.75268 243.000
12.77263 283.000
12.79257 251.000
12.81252 254.000
12.83247 293.000
12.85242 284.000
12.87236 248.000
12.89231 266.000
12.91226 289.000
12.93220 264.000
12.95215 276.000
12.97210 282.000
12.99204 257.000
13.01199 282.000
13.03194 271.000
13.05189 232.000
13.07183 269.000
13.09178 240.000
13.11173 250.000
13.13167 268.000
13.15162 264.000
13.17157 263.000
13.19151 276.000
13.21146 242.000
13.23141 257.000
13.25135 253.000
13.27130 288.000
13.29125 276.000
13.31120 276.000
13.33114 313.000
13.35109 277.000
13.37104 263.000
13.39098 282.000
13.41093 267.000
13.43088 279.000
13.45082 255.000
13.47077 292.000
13.49072 289.000
13.51067 286.000
13.53061 289.000
13.55056 280.000
13.57051 286.000
13.59045 279.000
13.61040 256.000
13.63035 263.000
13.65029 264.000
13.67024 244.000
13.69019 259.000
13.71013 277.000
13.73008 271.000
13.75003 272.000
13.76998 276.000
13.78992 289.000
13.80987 245.000
13.82982 276.000
13.84976 281.000
13.86971 242.000
13.88966 303.000
13.90960 305.000
13.92955 266.000
13.94950 276.000
13.96945 269.000
13.98939 281.000
14.00934 265.000
14.02929 259.000
14.04923 290.000
14.06918 258.000
14.08913 273.000
14.10907 280.000
14.12902 278.000
14.14897 263.000
14.16892 265.000
14.18886 280.000
14.20881 301.000
14.22876 264.000
14.24870 283.000
14.26865 295.000
14.28860 269.000
14.30854 264.000
14.32849 308.000
14.34844 280.000
14.36838 285.000
14.38833 287.000
14.40828 255.000
14.42823 286.000
14.44817 249.000
14.46812 289.000
14.48807 281.000
14.50801 250.000
14.52796 279.000
14.54791 268.000
14.56785 294.000
14.58780 261.000
14.60775 288.000
14.62770 292.000
14.64764 307.000
14.66759 282.000
14.68754 279.000
14.70748 246.000
14.72743 330.000
14.74738 284.000
14.76732 298.000
14.78727 275.000
14.80722 286.000
14.82716 305.000
14.84711 295.000
14.86706 307.000
14.88701 297.000
14.90695 267.000
14.92690 294.000
14.94685 290.000
14.96679 285.000
14.98674 316.000
15.00669 284.000
15.02663 290.000
15.04658 297.000
15.06653 293.000
15.08648 280.000
15.10642 308.000
15.12637 294.000
15.14632 292.000
15.16626 292.000
15.18621 302.000
15.20616 300.000
15.22610 297.000
15.24605 307.000
15.26600 313.000
15.28594 307.000
15.30589 303.000
15.32584 332.000
15.34579 281.000
15.36573 336.000
15.38568 311.000
15.40563 325.000
15.42557 320.000
15.44552 335.000
15.46547 349.000
15.48541 321.000
15.50536 355.000
15.52531 306.000
15.54526 353.000
15.56520 319.000
15.58515 351.000
15.60510 360.000
15.62504 374.000
15.64499 394.000
15.66494 387.000
15.68488 415.000
15.70483 430.000
15.72478 481.000
15.74472 541.000
15.76467 618.000
15.78462 728.000
15.80457 863.000
15.82451 953.000
15.84446 1162.000
15.86441 1199.000
15.88435 1330.000
15.90430 1320.000
15.92425 1317.000
15.94419 1164.000
15.96414 949.000
15.98409 818.000
16.00404 638.000
16.02398 536.000
16.04393 415.000
16.06388 445.000
16.08382 365.000
16.10377 358.000
16.12372 394.000
16.14366 364.000
16.16361 351.000
16.18356 363.000
16.20351 352.000
16.22345 341.000
16.24340 399.000
16.26335 353.000
16.28329 381.000
16.30324 353.000
16.32319 375.000
16.34313 307.000
16.36308 309.000
16.38303 347.000
16.40297 352.000
16.42292 353.000
16.44287 324.000
16.46282 346.000
16.48276 302.000
16.50271 294.000
16.52266 325.000
16.54260 327.000
16.56255 320.000
16.58250 332.000
16.60244 294.000
16.62239 301.000
16.64234 345.000
16.66229 320.000
16.68223 313.000
16.70218 305.000
16.72213 326.000
16.74207 324.000
16.76202 292.000
16.78197 344.000
16.80191 337.000
16.82186 314.000
16.84181 327.000
16.86175 309.000
16.88170 308.000
16.90165 333.000
16.92160 284.000
16.94154 319.000
16.96149 316.000
16.98144 307.000
17.00138 315.000
17.02133 300.000
17.04128 321.000
17.06122 321.000
17.08117 296.000
17.10112 303.000
17.12107 323.000
17.14101 320.000
17.16096 301.000
17.18091 299.000
17.20085 296.000
17.22080 316.000
17.24075 301.000
17.26069 289.000
17.28064 327.000
17.30059 320.000
17.32053 324.000
17.34048 280.000
17.36043 322.000
17.38038 362.000
17.40032 281.000
17.42027 316.000
17.44022 303.000
17.46016 289.000
17.48011 309.000
17.50006 274.000
17.52000 284.000
17.53995 299.000
17.55990 312.000
17.57985 321.000
17.59979 308.000
17.61974 305.000
17.63969 320.000
17.65963 348.000
17.67958 312.000
17.69953 321.000
17.71947 320.000
17.73942 279.000
17.75937 345.000
17.77932 339.000
17.79926 302.000
17.81921 302.000
17.83916 312.000
17.85910 301.000
17.87905 302.000
17.89900 310.000
17.91894 277.000
17.93889 292.000
17.95884 309.000
17.97878 294.000
17.99873 292.000
18.01868 326.000
18.03863 311.000
18.05857 323.000
18.07852 288.000
18.09847 282.000
18.11841 324.000
18.13836 292.000
18.15831 288.000
18.17825 321.000
18.19820 337.000
18.21815 332.000
18.23810 310.000
18.25804 308.000
18.27799 331.000
18.29794 277.000
18.31788 346.000
18.33783 343.000
18.35778 367.000
18.37772 423.000
18.39767 435.000
18.41762 424.000
18.43756 428.000
18.45751 486.000
18.47746 492.000
18.49741 474.000
18.51735 439.000
18.53730 413.000
18.55725 403.000
18.57719 357.000
18.59714 366.000
18.61709 325.000
18.63703 335.000
18.65698 318.000
18.67693 327.000
18.69688 322.000
18.71682 299.000
18.73677 321.000
18.75672 301.000
18.77666 306.000
18.79661 340.000
18.81656 335.000
18.83650 279.000
18.85645 316.000
18.87640 318.000
18.89634 343.000
18.91629 332.000
18.93624 293.000
18.95619 312.000
18.97613 345.000
18.99608 319.000
19.01603 305.000
19.03597 338.000
19.05592 290.000
19.07587 313.000
19.09581 304.000
19.11576 352.000
19.13571 284.000
19.15566 319.000
19.17560 303.000
19.19555 306.000
19.21550 334.000
19.23544 319.000
19.25539 321.000
19.27534 308.000
19.29528 363.000
19.31523 287.000
19.33518 331.000
19.35513 330.000
19.37507 299.000
19.39502 329.000
19.41497 335.000
19.43491 302.000
19.45486 318.000
19.47481 328.000
19.49475 292.000
19.51470 324.000
19.53465 329.000
19.55459 330.000
19.57454 307.000
19.59449 352.000
19.61444 333.000
19.63438 299.000
19.65433 330.000
19.67428 328.000
19.69422 324.000
19.71417 333.000
19.73412 351.000
19.75406 351.000
19.77401 334.000
19.79396 348.000
19.81391 325.000
19.83385 361.000
19.85380 278.000
19.87375 322.000
19.89369 310.000
19.91364 313.000
19.93359 317.000
19.95353 320.000
19.97348 352.000
19.99343 308.000
20.01337 355.000
20.03332 359.000
20.05327 299.000
20.07322 343.000
20.09316 298.000
20.11311 306.000
20.13306 341.000
20.15300 323.000
20.17295 302.000
20.19290 328.000
20.21284 313.000
20.23279 369.000
20.25274 360.000
20.27269 343.000
20.29263 343.000
20.31258 342.000
20.33253 315.000
20.35247 348.000
20.37242 343.000
20.39237 314.000
20.41231 347.000
20.43226 326.000
20.45221 338.000
20.47215 303.000
20.49210 334.000
20.51205 335.000
20.53200 327.000
20.55194 308.000
20.57189 329.000
20.59184 310.000
20.61178 332.000
20.63173 341.000
20.65168 317.000
20.67162 374.000
20.69157 342.000
20.71152 315.000
20.73147 331.000
20.75141 330.000
20.77136 362.000
20.79131 345.000
20.81125 324.000
20.83120 340.000
20.85115 306.000
20.87109 320.000
20.89104 349.000
20.91099 324.000
20.93094 352.000
20.95088 387.000
20.97083 376.000
20.99078 380.000
21.01072 390.000
21.03067 426.000
21.05062 402.000
21.07056 371.000
21.09051 430.000
21.11046 401.000
21.13040 445.000
21.15035 398.000
21.17030 419.000
21.19025 471.000
21.21019 411.000
21.23014 393.000
21.25009 377.000
21.27003 347.000
21.28998 340.000
21.30993 357.000
21.32987 360.000
21.34982 356.000
21.36977 318.000
21.38972 366.000
21.40966 356.000
21.42961 358.000
21.44956 324.000
21.46950 304.000
21.48945 342.000
21.50940 340.000
21.52934 341.000
21.54929 366.000
21.56924 373.000
21.58918 337.000
21.60913 363.000
21.62908 334.000
21.64903 319.000
21.66897 329.000
21.68892 305.000
21.70887 317.000
21.72881 387.000
21.74876 333.000
21.76871 339.000
21.78865 351.000
21.80860 310.000
21.82855 371.000
21.84850 357.000
21.86844 303.000
21.88839 362.000
21.90834 347.000
21.92828 336.000
21.94823 345.000
21.96818 354.000
21.98812 341.000
22.00807 345.000
22.02802 330.000
22.04796 366.000
22.06791 341.000
22.08786 330.000
22.10781 315.000
22.12775 349.000
22.14770 365.000
22.16765 326.000
22.18759 337.000
22.20754 349.000
22.22749 301.000
22.24743 359.000
22.26738 325.000
22.28733 318.000
22.30728 351.000
22.32722 347.000
22.34717 316.000
22.36712 350.000
22.38706 346.000
22.40701 330.000
22.42696 356.000
22.44690 368.000
22.46685 341.000
22.48680 351.000
22.50675 334.000
22.52669 313.000
22.54664 376.000
22.56659 339.000
22.58653 305.000
22.60648 347.000
22.62643 333.000
22.64637 362.000
22.66632 356.000
22.68627 347.000
22.70621 371.000
22.72616 321.000
22.74611 342.000
22.76606 300.000
22.78600 357.000
22.80595 284.000
22.82590 356.000
22.84584 323.000
22.86579 359.000
22.88574 371.000
22.90568 365.000
22.92563 335.000
22.94558 335.000
22.96553 332.000
22.98547 306.000
23.00542 337.000
23.02537 353.000
23.04531 332.000
23.06526 352.000
23.08521 347.000
23.10515 345.000
23.12510 313.000
23.14505 327.000
23.16499 358.000
23.18494 364.000
23.20489 331.000
23.22484 368.000
23.24478 344.000
23.26473 372.000
23.28468 334.000
23.30462 380.000
23.32457 336.000
23.34452 337.000
23.36446 367.000
23.38441 351.000
23.40436 347.000
23.42431 348.000
23.44425 316.000
23.46420 372.000
23.48415 337.000
23.50409 358.000
23.52404 363.000
23.54399 388.000
23.56393 343.000
23.58388 348.000
23.60383 371.000
23.62377 348.000
23.64372 350.000
23.66367 357.000
23.68362 347.000
23.70356 331.000
23.72351 399.000
23.74346 370.000
23.76340 348.000
23.78335 365.000
23.80330 326.000
23.82324 389.000
23.84319 357.000
23.86314 325.000
23.88309 344.000
23.90303 353.000
23.92298 356.000
23.94293 348.000
23.96287 323.000
23.98282 389.000
24.00277 337.000
24.02271 314.000
24.04266 373.000
24.06261 340.000
24.08256 351.000
24.10250 330.000
24.12245 335.000
24.14240 356.000
24.16234 337.000
24.18229 336.000
24.20224 324.000
24.22218 335.000
24.24213 335.000
24.26208 334.000
24.28202 347.000
24.30197 324.000
24.32192 346.000
24.34187 342.000
24.36181 356.000
24.38176 332.000
24.40171 381.000
24.42165 358.000
24.44160 372.000
24.46155 375.000
24.48149 357.000
24.50144 363.000
24.52139 344.000
24.54134 329.000
24.56128 365.000
24.58123 367.000
24.60118 388.000
24.62112 344.000
24.64107 370.000
24.66102 340.000
24.68096 366.000
24.70091 358.000
24.72086 359.000
24.74080 377.000
24.76075 424.000
24.78070 373.000
24.80065 366.000
24.82059 374.000
24.84054 360.000
24.86049 411.000
24.88043 364.000
24.90038 361.000
24.92033 384.000
24.94027 372.000
24.96022 372.000
24.98017 382.000
25.00012 403.000
25.02006 362.000
25.04001 353.000
25.05996 363.000
25.07990 398.000
25.09985 358.000
25.11980 356.000
25.13974 392.000
25.15969 394.000
25.17964 367.000
25.19958 347.000
25.21953 348.000
25.23948 369.000
25.25943 360.000
25.27937 355.000
25.29932 349.000
25.31927 368.000
25.33921 351.000
25.35916 394.000
25.37911 356.000
25.39905 416.000
25.41900 370.000
25.43895 349.000
25.45890 365.000
25.47884 373.000
25.49879 380.000
25.51874 375.000
25.53868 381.000
25.55863 384.000
25.57858 358.000
25.59852 389.000
25.61847 354.000
25.63842 312.000
25.65837 356.000
25.67831 372.000
25.69826 389.000
25.71821 368.000
25.73815 360.000
25.75810 379.000
25.77805 356.000
25.79799 363.000
25.81794 359.000
25.83789 361.000
25.85783 356.000
25.87778 370.000
25.89773 394.000
25.91768 389.000
25.93762 362.000
25.95757 363.000
25.97752 372.000
25.99746 364.000
26.01741 397.000
26.03736 392.000
26.05730 382.000
26.07725 360.000
26.09720 365.000
26.11715 410.000
26.13709 383.000
26.15704 379.000
26.17699 388.000
26.19693 391.000
26.21688 395.000
26.23683 347.000
26.25677 412.000
26.27672 358.000
26.29667 389.000
26.31661 374.000
26.33656 382.000
26.35651 374.000
26.37646 389.000
26.39640 373.000
26.41635 372.000
26.43630 418.000
26.45624 386.000
26.47619 390.000
26.49614 383.000
26.51608 409.000
26.53603 376.000
26.55598 414.000
26.57593 419.000
26.59587 387.000
26.61582 400.000
26.63577 392.000
26.65571 397.000
26.67566 401.000
26.69561 411.000
26.71555 396.000
26.73550 455.000
26.75545 409.000
26.77539 369.000
26.79534 379.000
26.81529 395.000
26.83524 376.000
26.85518 421.000
26.87513 424.000
26.89508 398.000
26.91502 397.000
26.93497 380.000
26.95492 367.000
26.97486 379.000
26.99481 379.000
27.01476 399.000
27.03471 391.000
27.05465 404.000
27.07460 352.000
27.09455 407.000
27.11449 369.000
27.13444 395.000
27.15439 391.000
27.17433 405.000
27.19428 370.000
27.21423 386.000
27.23417 396.000
27.25412 401.000
27.27407 411.000
27.29402 361.000
27.31396 354.000
27.33391 449.000
27.35386 391.000
27.37380 410.000
27.39375 383.000
27.41370 414.000
27.43364 449.000
27.45359 400.000
27.47354 398.000
27.49349 412.000
27.51343 426.000
27.53338 410.000
27.55333 395.000
27.57327 395.000
27.59322 425.000
27.61317 386.000
27.63311 398.000
27.65306 393.000
27.67301 402.000
27.69296 403.000
27.71290 441.000
27.73285 408.000
27.75280 393.000
27.77274 401.000
27.79269 393.000
27.81264 419.000
27.83258 409.000
27.85253 437.000
27.87248 399.000
27.89242 446.000
27.91237 401.000
27.93232 398.000
27.95227 425.000
27.97221 428.000
27.99216 443.000
28.01211 419.000
28.03205 411.000
28.05200 385.000
28.07195 427.000
28.09189 425.000
28.11184 404.000
28.13179 404.000
28.15174 387.000
28.17168 422.000
28.19163 408.000
28.21158 436.000
28.23152 410.000
28.25147 381.000
28.27142 423.000
28.29136 383.000
28.31131 426.000
28.33126 417.000
28.35120 411.000
28.37115 416.000
28.39110 428.000
28.41105 407.000
28.43099 386.000
28.45094 452.000
28.47089 430.000
28.49083 413.000
28.51078 412.000
28.53073 402.000
28.55067 410.000
28.57062 407.000
28.59057 423.000
28.61052 395.000
28.63046 436.000
28.65041 375.000
28.67036 425.000
28.69030 386.000
28.71025 421.000
28.73020 451.000
28.75014 418.000
28.77009 425.000
28.79004 436.000
28.80998 421.000
28.82993 395.000
28.84988 408.000
28.86983 458.000
28.88977 416.000
28.90972 401.000
28.92967 424.000
28.94961 403.000
28.96956 404.000
28.98951 407.000
29.00945 415.000
29.02940 430.000
29.04935 408.000
29.06930 427.000
29.08924 443.000
29.10919 409.000
29.12914 431.000
29.14908 424.000
29.16903 400.000
29.18898 450.000
29.20892 455.000
29.22887 430.000
29.24882 442.000
29.26877 437.000
29.28871 446.000
29.30866 418.000
29.32861 420.000
29.34855 413.000
29.36850 433.000
29.38845 439.000
29.40839 436.000
29.42834 435.000
29.44829 477.000
29.46823 429.000
29.48818 441.000
29.50813 469.000
29.52808 448.000
29.54802 470.000
29.56797 453.000
29.58792 449.000
29.60786 426.000
29.62781 427.000
29.64776 429.000
29.66770 412.000
29.68765 393.000
29.70760 393.000
29.72755 423.000
29.74749 446.000
29.76744 401.000
29.78739 426.000
29.80733 453.000
29.82728 410.000
29.84723 419.000
29.86717 436.000
29.88712 453.000
29.90707 487.000
29.92701 466.000
29.94696 413.000
29.96691 411.000
29.98686 457.000
30.00680 481.000
30.02675 498.000
30.04670 430.000
30.06664 497.000
30.08659 430.000
30.10654 483.000
30.12648 459.000
30.14643 488.000
30.16638 510.000
30.18633 504.000
30.20627 550.000
30.22622 631.000
30.24617 649.000
30.26611 711.000
30.28606 738.000
30.30601 773.000
30.32595 824.000
30.34590 880.000
30.36585 816.000
30.38579 748.000
30.40574 724.000
30.42569 678.000
30.44564 701.000
30.46558 633.000
30.48553 560.000
30.50548 579.000
30.52542 548.000
30.54537 503.000
30.56532 488.000
30.58526 484.000
30.60521 467.000
30.62516 436.000
30.64511 438.000
30.66505 456.000
30.68500 484.000
30.70495 472.000
30.72489 447.000
30.74484 450.000
30.76479 434.000
30.78473 455.000
30.80468 430.000
30.82463 423.000
30.84458 456.000
30.86452 457.000
30.88447 443.000
30.90442 425.000
30.92436 438.000
30.94431 450.000
30.96426 459.000
30.98420 414.000
31.00415 424.000
31.02410 471.000
31.04404 432.000
31.06399 406.000
31.08394 422.000
31.10389 435.000
31.12383 426.000
31.14378 437.000
31.16373 446.000
31.18367 448.000
31.20362 447.000
31.22357 408.000
31.24351 455.000
31.26346 454.000
31.28341 415.000
31.30336 442.000
31.32330 431.000
31.34325 444.000
31.36320 459.000
31.38314 434.000
31.40309 417.000
31.42304 408.000
31.44298 428.000
31.46293 447.000
31.48288 441.000
31.50282 417.000
31.52277 423.000
31.54272 387.000
31.56267 415.000
31.58261 458.000
31.60256 460.000
31.62251 484.000
31.64245 398.000
31.66240 447.000
31.68235 439.000
31.70229 475.000
31.72224 447.000
31.74219 453.000
31.76214 406.000
31.78208 439.000
31.80203 424.000
31.82198 450.000
31.84192 433.000
31.86187 458.000
31.88182 470.000
31.90176 495.000
31.92171 465.000
31.94166 492.000
31.96160 491.000
31.98155 541.000
32.00150 514.000
32.02145 508.000
32.04139 534.000
32.06134 547.000
32.08129 554.000
32.10123 553.000
32.12118 487.000
32.14113 554.000
32.16107 501.000
32.18102 497.000
32.20097 525.000
32.22092 466.000
32.24086 475.000
32.26081 476.000
32.28076 460.000
32.30070 495.000
32.32065 472.000
32.34060 428.000
32.36054 450.000
32.38049 446.000
32.40044 499.000
32.42039 478.000
32.44033 528.000
32.46028 502.000
32.48023 517.000
32.50017 562.000
32.52012 539.000
32.54007 565.000
32.56001 565.000
32.57996 559.000
32.59991 537.000
32.61985 543.000
32.63980 493.000
32.65975 502.000
32.67970 474.000
32.69964 476.000
32.71959 451.000
32.73954 473.000
32.75948 440.000
32.77943 507.000
32.79938 465.000
32.81932 418.000
32.83927 466.000
32.85922 462.000
32.87917 450.000
32.89911 415.000
32.91906 440.000
32.93901 419.000
32.95895 418.000
32.97890 438.000
32.99885 436.000
33.01879 457.000
33.03874 433.000
33.05869 416.000
33.07863 431.000
33.09858 410.000
33.11853 430.000
33.13848 438.000
33.15842 425.000
33.17837 430.000
33.19832 467.000
33.21826 408.000
33.23821 464.000
33.25816 405.000
33.27810 422.000
33.29805 410.000
33.31800 447.000
33.33795 422.000
33.35789 433.000
33.37784 427.000
33.39779 472.000
33.41773 391.000
33.43768 408.000
33.45763 415.000
33.47757 433.000
33.49752 452.000
33.51747 468.000
33.53741 440.000
33.55736 417.000
33.57731 460.000
33.59726 434.000
33.61720 446.000
33.63715 426.000
33.65710 389.000
33.67704 396.000
33.69699 384.000
33.71694 407.000
33.73688 451.000
33.75683 424.000
33.77678 422.000
33.79673 433.000
33.81667 467.000
33.83662 443.000
33.85657 425.000
33.87651 436.000
33.89646 414.000
33.91641 439.000
33.93635 410.000
33.95630 454.000
33.97625 402.000
33.99620 433.000
34.01614 446.000
34.03609 425.000
34.05604 448.000
34.07598 405.000
34.09593 423.000
34.11588 453.000
34.13582 432.000
34.15577 437.000
34.17572 450.000
34.19566 433.000
34.21561 411.000
34.23556 459.000
34.25551 422.000
34.27545 469.000
34.29540 458.000
34.31535 425.000
34.33529 430.000
34.35524 472.000
34.37519 458.000
34.39513 420.000
34.41508 433.000
34.43503 476.000
34.45498 476.000
34.47492 490.000
34.49487 476.000
34.51482 506.000
34.53476 480.000
34.55471 468.000
34.57466 513.000
34.59460 518.000
34.61455 509.000
34.63450 491.000
34.65444 533.000
34.67439 525.000
34.69434 582.000
34.71429 536.000
34.73423 545.000
34.75418 566.000
34.77413 548.000
34.79407 565.000
34.81402 586.000
34.83397 565.000
34.85391 615.000
34.87386 577.000
34.89381 597.000
34.91376 621.000
34.93370 590.000
34.95365 612.000
34.97360 545.000
34.99354 552.000
35.01349 536.000
35.03344 567.000
35.05338 558.000
35.07333 569.000
35.09328 567.000
35.11322 589.000
35.13317 580.000
35.15312 596.000
35.17307 589.000
35.19301 617.000
35.21296 631.000
35.23291 652.000
35.25285 661.000
35.27280 727.000
35.29275 705.000
35.31269 760.000
35.33264 926.000
35.35259 876.000
35.37254 941.000
35.39248 1076.000
35.41243 1085.000
35.43238 1235.000
35.45232 1391.000
35.47227 1460.000
35.49222 1615.000
35.51216 1641.000
35.53211 1914.000
35.55206 1964.000
35.57201 2019.000
35.59195 2061.000
35.61190 2274.000
35.63185 2340.000
35.65179 2462.000
35.67174 2479.000
35.69169 2476.000
35.71163 2509.000
35.73158 2317.000
35.75153 2084.000
35.77147 2050.000
35.79142 1943.000
35.81137 1787.000
35.83132 1647.000
35.85126 1454.000
35.87121 1252.000
35.89116 1110.000
35.91110 1079.000
35.93105 877.000
35.95100 844.000
35.97094 753.000
35.99089 740.000
36.01084 682.000
36.03079 627.000
36.05073 648.000
36.07068 592.000
36.09063 557.000
36.11057 554.000
36.13052 568.000
36.15047 533.000
36.17041 536.000
36.19036 545.000
36.21031 491.000
36.23025 528.000
36.25020 526.000
36.27015 558.000
36.29010 544.000
36.31004 510.000
36.32999 509.000
36.34994 575.000
36.36988 513.000
36.38983 528.000
36.40978 536.000
36.42972 522.000
36.44967 529.000
36.46962 497.000
36.48957 539.000
36.50951 516.000
36.52946 548.000
36.54941 544.000
36.56935 567.000
36.58930 530.000
36.60925 492.000
36.62919 474.000
36.64914 545.000
36.66909 521.000
36.68903 512.000
36.70898 526.000
36.72893 526.000
36.74888 525.000
36.76882 548.000
36.78877 588.000
36.80872 609.000
36.82866 521.000
36.84861 617.000
36.86856 627.000
36.88850 593.000
36.90845 677.000
36.92840 669.000
36.94835 777.000
36.96829 854.000
36.98824 863.000
37.00819 998.000
37.02813 1156.000
37.04808 1328.000
37.06803 1512.000
37.08797 1693.000
37.10792 1854.000
37.12787 2005.000
37.14781 2151.000
37.16776 2274.000
37.18771 2215.000
37.20766 2113.000
37.22760 2045.000
37.24755 1891.000
37.26750 1687.000
37.28744 1482.000
37.30739 1343.000
37.32734 1200.000
37.34728 1074.000
37.36723 974.000
37.38718 881.000
37.40713 839.000
37.42707 734.000
37.44702 702.000
37.46697 708.000
37.48691 645.000
37.50686 655.000
37.52681 618.000
37.54675 620.000
37.56670 588.000
37.58665 594.000
37.60660 583.000
37.62654 542.000
37.64649 535.000
37.66644 541.000
37.68638 492.000
37.70633 524.000
37.72628 501.000
37.74622 494.000
37.76617 477.000
37.78612 497.000
37.80606 536.000
37.82601 474.000
37.84596 467.000
37.86591 471.000
37.88585 468.000
37.90580 478.000
37.92575 497.000
37.94569 472.000
37.96564 528.000
37.98559 477.000
38.00553 507.000
38.02548 519.000
38.04543 507.000
38.06538 474.000
38.08532 544.000
38.10527 530.000
38.12522 518.000
38.14516 535.000
38.16511 524.000
38.18506 515.000
38.20500 564.000
38.22495 522.000
38.24490 544.000
38.26484 592.000
38.28479 600.000
38.30474 564.000
38.32469 602.000
38.34463 600.000
38.36458 613.000
38.38453 660.000
38.40447 637.000
38.42442 652.000
38.44437 675.000
38.46431 701.000
38.48426 678.000
38.50421 739.000
38.52416 852.000
38.54410 923.000
38.56405 924.000
38.58400 1032.000
38.60394 1082.000
38.62389 1162.000
38.64384 1288.000
38.66378 1462.000
38.68373 1392.000
38.70368 1513.000
38.72362 1557.000
38.74357 1609.000
38.76352 1570.000
38.78347 1504.000
38.80341 1493.000
38.82336 1436.000
38.84331 1381.000
38.86325 1317.000
38.88320 1202.000
38.90315 1135.000
38.92309 1163.000
38.94304 1044.000
38.96299 1002.000
38.98294 948.000
39.00288 976.000
39.02283 898.000
39.04278 913.000
39.06272 880.000
39.08267 808.000
39.10262 764.000
39.12256 768.000
39.14251 743.000
39.16246 744.000
39.18241 687.000
39.20235 684.000
39.22230 620.000
39.24225 623.000
39.26219 591.000
39.28214 638.000
39.30209 622.000
39.32203 633.000
39.34198 654.000
39.36193 588.000
39.38187 610.000
39.40182 568.000
39.42177 586.000
39.44172 579.000
39.46166 597.000
39.48161 513.000
39.50156 550.000
39.52150 505.000
39.54145 538.000
39.56140 501.000
39.58134 492.000
39.60129 499.000
39.62124 475.000
39.64119 500.000
39.66113 424.000
39.68108 422.000
39.70103 457.000
39.72097 477.000
39.74092 435.000
39.76087 444.000
39.78081 444.000
39.80076 469.000
39.82071 414.000
39.84065 458.000
39.86060 440.000
39.88055 430.000
39.90050 450.000
39.92044 430.000
39.94039 462.000
39.96034 459.000
39.98028 443.000
40.00023 439.000
40.02018 441.000
40.04012 429.000
40.06007 455.000
40.08002 424.000
40.09997 438.000
40.11991 398.000
40.13986 453.000
40.15981 431.000
40.17975 410.000
40.19970 443.000
40.21965 396.000
40.23959 393.000
40.25954 454.000
40.27949 408.000
40.29943 436.000
40.31938 452.000
40.33933 442.000
40.35928 410.000
40.37922 430.000
40.39917 426.000
40.41912 405.000
40.43906 448.000
40.45901 413.000
40.47896 435.000
40.49890 436.000
40.51885 378.000
40.53880 436.000
40.55875 407.000
40.57869 433.000
40.59864 415.000
40.61859 404.000
40.63853 439.000
40.65848 434.000
40.67843 390.000
40.69837 413.000
40.71832 434.000
40.73827 414.000
40.75822 437.000
40.77816 415.000
40.79811 401.000
40.81806 437.000
40.83800 410.000
40.85795 422.000
40.87790 415.000
40.89784 418.000
40.91779 420.000
40.93774 417.000
40.95768 403.000
40.97763 423.000
40.99758 419.000
41.01753 411.000
41.03747 488.000
41.05742 429.000
41.07737 408.000
41.09731 404.000
41.11726 426.000
41.13721 420.000
41.15715 439.000
41.17710 410.000
41.19705 443.000
41.21700 463.000
41.23694 393.000
41.25689 394.000
41.27684 418.000
41.29678 425.000
41.31673 409.000
41.33668 384.000
41.35662 457.000
41.37657 407.000
41.39652 435.000
41.41646 419.000
41.43641 459.000
41.45636 417.000
41.47631 409.000
41.49625 460.000
41.51620 412.000
41.53615 453.000
41.55609 416.000
41.57604 432.000
41.59599 429.000
41.61593 455.000
41.63588 446.000
41.65583 416.000
41.67578 431.000
41.69572 426.000
41.71567 404.000
41.73562 472.000
41.75556 451.000
41.77551 456.000
41.79546 430.000
41.81540 400.000
41.83535 458.000
41.85530 438.000
41.87524 454.000
41.89519 467.000
41.91514 439.000
41.93509 431.000
41.95503 435.000
41.97498 429.000
41.99493 419.000
42.01487 470.000
42.03482 494.000
42.05477 426.000
42.07471 426.000
42.09466 451.000
42.11461 428.000
42.13456 431.000
42.15450 452.000
42.17445 441.000
42.19440 466.000
42.21434 480.000
42.23429 464.000
42.25424 462.000
42.27418 436.000
42.29413 453.000
42.31408 460.000
42.33403 490.000
42.35397 453.000
42.37392 470.000
42.39387 502.000
42.41381 485.000
42.43376 468.000
42.45371 480.000
42.47365 485.000
42.49360 497.000
42.51355 438.000
42.53349 432.000
42.55344 517.000
42.57339 511.000
42.59334 571.000
42.61328 536.000
42.63323 538.000
42.65318 560.000
42.67312 557.000
42.69307 563.000
42.71302 563.000
42.73296 590.000
42.75291 613.000
42.77286 694.000
42.79281 678.000
42.81275 725.000
42.83270 711.000
42.85265 806.000
42.87259 844.000
42.89254 823.000
42.91249 893.000
42.93243 1030.000
42.95238 1110.000
42.97233 1195.000
42.99227 1297.000
43.01222 1476.000
43.03217 1518.000
43.05212 1644.000
43.07206 1839.000
43.09201 1977.000
43.11196 2152.000
43.13190 2347.000
43.15185 2289.000
43.17180 2321.000
43.19174 2407.000
43.21169 2451.000
43.23164 2352.000
43.25159 2365.000
43.27153 2120.000
43.29148 2111.000
43.31143 2066.000
43.33137 1917.000
43.35132 1787.000
43.37127 1636.000
43.39121 1510.000
43.41116 1367.000
43.43111 1333.000
43.45105 1159.000
43.47100 1075.000
43.49095 1057.000
43.51090 970.000
43.53084 927.000
43.55079 843.000
43.57074 782.000
43.59068 705.000
43.61063 702.000
43.63058 640.000
43.65052 629.000
43.67047 604.000
43.69042 537.000
43.71037 578.000
43.73031 537.000
43.75026 556.000
43.77021 534.000
43.79015 506.000
43.81010 473.000
43.83005 480.000
43.84999 469.000
43.86994 481.000
43.88989 470.000
43.90984 464.000
43.92978 433.000
43.94973 449.000
43.96968 459.000
43.98962 488.000
44.00957 456.000
44.02952 461.000
44.04946 463.000
44.06941 422.000
44.08936 416.000
44.10930 466.000
44.12925 458.000
44.14920 441.000
44.16915 442.000
44.18909 460.000
44.20904 453.000
44.22899 425.000
44.24893 443.000
44.26888 393.000
44.28883 388.000
44.30877 408.000
44.32872 479.000
44.34867 412.000
44.36862 435.000
44.38856 421.000
44.40851 362.000
44.42846 417.000
44.44840 421.000
44.46835 445.000
44.48830 447.000
44.50824 412.000
44.52819 445.000
44.54814 382.000
44.56808 429.000
44.58803 468.000
44.60798 435.000
44.62793 449.000
44.64787 437.000
44.66782 390.000
44.68777 437.000
44.70771 409.000
44.72766 425.000
44.74761 432.000
44.76755 455.000
44.78750 450.000
44.80745 435.000
44.82740 426.000
44.84734 420.000
44.86729 427.000
44.88724 458.000
44.90718 401.000
44.92713 426.000
44.94708 435.000
44.96702 474.000
44.98697 426.000
45.00692 462.000
45.02686 469.000
45.04681 456.000
45.06676 502.000
45.08671 483.000
45.10665 504.000
45.12660 478.000
45.14655 479.000
45.16649 503.000
45.18644 501.000
45.20639 454.000
45.22633 464.000
45.24628 493.000
45.26623 464.000
45.28618 485.000
45.30612 467.000
45.32607 504.000
45.34602 495.000
45.36596 501.000
45.38591 426.000
45.40586 441.000
45.42580 483.000
45.44575 444.000
45.46570 450.000
45.48565 411.000
45.50559 453.000
45.52554 436.000
45.54549 431.000
45.56543 435.000
45.58538 417.000
45.60533 421.000
45.62527 407.000
45.64522 424.000
45.66517 395.000
45.68511 398.000
45.70506 404.000
45.72501 378.000
45.74496 387.000
45.76490 409.000
45.78485 421.000
45.80480 420.000
45.82474 401.000
45.84469 430.000
45.86464 427.000
45.88458 393.000
45.90453 405.000
45.92448 394.000
45.94443 411.000
45.96437 384.000
45.98432 436.000
46.00427 392.000
46.02421 396.000
46.04416 396.000
46.06411 425.000
46.08405 403.000
46.10400 403.000
46.12395 379.000
46.14389 404.000
46.16384 406.000
46.18379 375.000
46.20374 388.000
46.22368 437.000
46.24363 374.000
46.26358 412.000
46.28352 447.000
46.30347 439.000
46.32342 409.000
46.34336 416.000
46.36331 416.000
46.38326 408.000
46.40321 414.000
46.42315 436.000
46.44310 417.000
46.46305 447.000
46.48299 415.000
46.50294 405.000
46.52289 379.000
46.54283 397.000
46.56278 374.000
46.58273 393.000
46.60267 385.000
46.62262 428.000
46.64257 398.000
46.66252 376.000
46.68246 375.000
46.70241 429.000
46.72236 385.000
46.74230 403.000
46.76225 413.000
46.78220 401.000
46.80214 401.000
46.82209 392.000
46.84204 415.000
46.86199 390.000
46.88193 349.000
46.90188 370.000
46.92183 369.000
46.94177 358.000
46.96172 386.000
46.98167 410.000
47.00161 370.000
47.02156 391.000
47.04151 397.000
47.06146 383.000
47.08140 400.000
47.10135 382.000
47.12130 390.000
47.14124 396.000
47.16119 364.000
47.18114 391.000
47.20108 403.000
47.22103 368.000
47.24098 422.000
47.26092 373.000
47.28087 423.000
47.30082 351.000
47.32077 381.000
47.34071 362.000
47.36066 371.000
47.38061 368.000
47.40055 407.000
47.42050 393.000
47.44045 416.000
47.46039 423.000
47.48034 412.000
47.50029 406.000
47.52024 388.000
47.54018 357.000
47.56013 412.000
47.58008 404.000
47.60002 399.000
47.61997 413.000
47.63992 372.000
47.65986 385.000
47.67981 424.000
47.69976 398.000
47.71970 425.000
47.73965 394.000
47.75960 397.000
47.77955 393.000
47.79949 404.000
47.81944 388.000
47.83939 383.000
47.85933 388.000
47.87928 425.000
47.89923 398.000
47.91917 443.000
47.93912 387.000
47.95907 441.000
47.97902 388.000
47.99896 408.000
48.01891 395.000
48.03886 392.000
48.05880 381.000
48.07875 456.000
48.09870 445.000
48.11864 390.000
48.13859 430.000
48.15854 422.000
48.17848 409.000
48.19843 394.000
48.21838 406.000
48.23833 366.000
48.25827 446.000
48.27822 377.000
48.29817 478.000
48.31811 416.000
48.33806 415.000
48.35801 433.000
48.37795 443.000
48.39790 468.000
48.41785 421.000
48.43780 455.000
48.45774 455.000
48.47769 477.000
48.49764 458.000
48.51758 438.000
48.53753 463.000
48.55748 465.000
48.57742 471.000
48.59737 506.000
48.61732 486.000
48.63726 519.000
48.65721 557.000
48.67716 560.000
48.69711 552.000
48.71705 622.000
48.73700 625.000
48.75695 667.000
48.77689 686.000
48.79684 713.000
48.81679 820.000
48.83673 764.000
48.85668 769.000
48.87663 805.000
48.89658 855.000
48.91652 803.000
48.93647 799.000
48.95642 753.000
48.97636 741.000
48.99631 692.000
49.01626 665.000
49.03620 646.000
49.05615 594.000
49.07610 619.000
49.09605 578.000
49.11599 511.000
49.13594 535.000
49.15589 550.000
49.17583 467.000
49.19578 458.000
49.21573 445.000
49.23567 451.000
49.25562 446.000
49.27557 419.000
49.29551 404.000
49.31546 461.000
49.33541 404.000
49.35536 419.000
49.37530 437.000
49.39525 452.000
49.41520 430.000
49.43514 416.000
49.45509 426.000
49.47504 393.000
49.49498 425.000
49.51493 384.000
49.53488 409.000
49.55483 418.000
49.57477 450.000
49.59472 356.000
49.61467 397.000
49.63461 409.000
49.65456 395.000
49.67451 395.000
49.69445 396.000
49.71440 414.000
49.73435 433.000
49.75429 441.000
49.77424 394.000
49.79419 412.000
49.81414 357.000
49.83408 438.000
49.85403 392.000
49.87398 409.000
49.89392 402.000
49.91387 393.000
49.93382 361.000
49.95376 430.000
49.97371 444.000
49.99366 406.000
50.01361 392.000
50.03355 426.000
50.05350 438.000
50.07345 424.000
50.09339 373.000
50.11334 419.000
50.13329 392.000
50.15323 411.000
50.17318 393.000
50.19313 375.000
50.21307 406.000
50.23302 418.000
50.25297 385.000
50.27292 362.000
50.29286 411.000
50.31281 387.000
50.33276 396.000
50.35270 397.000
50.37265 394.000
50.39260 412.000
50.41254 411.000
50.43249 384.000
50.45244 381.000
50.47239 384.000
50.49233 411.000
50.51228 400.000
50.53223 415.000
50.55217 345.000
50.57212 381.000
50.59207 395.000
50.61201 379.000
50.63196 385.000
50.65191 398.000
50.67186 395.000
50.69180 424.000
50.71175 405.000
50.73170 380.000
50.75164 381.000
50.77159 370.000
50.79154 373.000
50.81148 384.000
50.83143 365.000
50.85138 372.000
50.87132 384.000
50.89127 360.000
50.91122 359.000
50.93117 375.000
50.95111 407.000
50.97106 394.000
50.99101 386.000
51.01095 390.000
51.03090 413.000
51.05085 402.000
51.07079 400.000
51.09074 415.000
51.11069 384.000
51.13064 405.000
51.15058 382.000
51.17053 375.000
51.19048 437.000
51.21042 377.000
51.23037 382.000
51.25032 372.000
51.27026 396.000
51.29021 384.000
51.31016 367.000
51.33010 408.000
51.35005 380.000
51.37000 427.000
51.38995 411.000
51.40989 398.000
51.42984 395.000
51.44979 368.000
51.46973 412.000
51.48968 361.000
51.50963 400.000
51.52957 375.000
51.54952 377.000
51.56947 384.000
51.58942 390.000
51.60936 352.000
51.62931 366.000
51.64926 382.000
51.66920 439.000
51.68915 406.000
51.70910 390.000
51.72904 370.000
51.74899 391.000
51.76894 403.000
51.78888 353.000
51.80883 416.000
51.82878 396.000
51.84873 370.000
51.86867 351.000
51.88862 381.000
51.90857 376.000
51.92851 382.000
51.94846 389.000
51.96841 392.000
51.98835 401.000
52.00830 368.000
52.02825 370.000
52.04820 407.000
52.06814 417.000
52.08809 396.000
52.10804 424.000
52.12798 361.000
52.14793 367.000
52.16788 400.000
52.18782 382.000
52.20777 380.000
52.22772 404.000
52.24767 422.000
52.26761 406.000
52.28756 374.000
52.30751 385.000
52.32745 399.000
52.34740 378.000
52.36735 362.000
52.38729 425.000
52.40724 374.000
52.42719 387.000
52.44713 382.000
52.46708 399.000
52.48703 436.000
52.50698 433.000
52.52692 366.000
52.54687 386.000
52.56682 394.000
52.58676 383.000
52.60671 414.000
52.62666 420.000
52.64660 376.000
52.66655 414.000
52.68650 390.000
52.70645 395.000
52.72639 402.000
52.74634 405.000
52.76629 415.000
52.78623 424.000
52.80618 413.000
52.82613 403.000
52.84607 421.000
52.86602 398.000
52.88597 390.000
52.90591 452.000
52.92586 421.000
52.94581 419.000
52.96576 399.000
52.98570 409.000
53.00565 440.000
53.02560 444.000
53.04554 385.000
53.06549 406.000
53.08544 404.000
53.10538 415.000
53.12533 421.000
53.14528 458.000
53.16523 472.000
53.18517 433.000
53.20512 408.000
53.22507 417.000
53.24501 420.000
53.26496 446.000
53.28491 447.000
53.30485 447.000
53.32480 428.000
53.34475 430.000
53.36469 475.000
53.38464 449.000
53.40459 420.000
53.42454 432.000
53.44448 505.000
53.46443 472.000
53.48438 461.000
53.50432 430.000
53.52427 470.000
53.54422 465.000
53.56416 438.000
53.58411 446.000
53.60406 435.000
53.62401 463.000
53.64395 453.000
53.66390 446.000
53.68385 420.000
53.70379 453.000
53.72374 486.000
53.74369 450.000
53.76363 491.000
53.78358 489.000
53.80353 487.000
53.82348 519.000
53.84342 511.000
53.86337 493.000
53.88332 496.000
53.90326 473.000
53.92321 502.000
53.94316 513.000
53.96310 444.000
53.98305 472.000
54.00300 490.000
54.02294 459.000
54.04289 467.000
54.06284 417.000
54.08279 428.000
54.10273 371.000
54.12268 407.000
54.14263 426.000
54.16257 400.000
54.18252 359.000
54.20247 401.000
54.22241 370.000
54.24236 403.000
54.26231 407.000
54.28226 403.000
54.30220 402.000
54.32215 379.000
54.34210 409.000
54.36204 384.000
54.38199 378.000
54.40194 371.000
54.42188 400.000
54.44183 372.000
54.46178 401.000
54.48172 325.000
54.50167 388.000
54.52162 383.000
54.54157 394.000
54.56151 388.000
54.58146 416.000
54.60141 378.000
54.62135 371.000
54.64130 370.000
54.66125 383.000
54.68119 349.000
54.70114 355.000
54.72109 384.000
54.74104 398.000
54.76098 429.000
54.78093 413.000
54.80088 430.000
54.82082 449.000
54.84077 374.000
54.86072 402.000
54.88066 395.000
54.90061 384.000
54.92056 394.000
54.94050 411.000
54.96045 383.000
54.98040 353.000
55.00035 421.000
55.02029 378.000
55.04024 404.000
55.06019 351.000
55.08013 374.000
55.10008 407.000
55.12003 393.000
55.13997 389.000
55.15992 399.000
55.17987 379.000
55.19982 412.000
55.21976 391.000
55.23971 370.000
55.25966 387.000
55.27960 400.000
55.29955 358.000
55.31950 406.000
55.33944 393.000
55.35939 378.000
55.37934 346.000
55.39929 383.000
55.41923 387.000
55.43918 403.000
55.45913 391.000
55.47907 368.000
55.49902 401.000
55.51897 391.000
55.53891 382.000
55.55886 352.000
55.57881 384.000
55.59875 379.000
55.61870 368.000
55.63865 409.000
55.65860 371.000
55.67854 410.000
55.69849 364.000
55.71844 383.000
55.73838 368.000
55.75833 380.000
55.77828 386.000
55.79822 395.000
55.81817 410.000
55.83812 359.000
55.85807 371.000
55.87801 413.000
55.89796 422.000
55.91791 418.000
55.93785 374.000
55.95780 392.000
55.97775 366.000
55.99769 379.000
56.01764 360.000
56.03759 425.000
56.05753 369.000
56.07748 353.000
56.09743 375.000
56.11738 384.000
56.13732 375.000
56.15727 406.000
56.17722 399.000
56.19716 370.000
56.21711 401.000
56.23706 370.000
56.25700 370.000
56.27695 397.000
56.29690 417.000
56.31685 384.000
56.33679 389.000
56.35674 387.000
56.37669 389.000
56.39663 385.000
56.41658 400.000
56.43653 376.000
56.45647 358.000
56.47642 405.000
56.49637 399.000
56.51631 390.000
56.53626 403.000
56.55621 387.000
56.57616 420.000
56.59610 406.000
56.61605 414.000
56.63600 407.000
56.65594 366.000
56.67589 428.000
56.69584 368.000
56.71578 416.000
56.73573 411.000
56.75568 427.000
56.77563 419.000
56.79557 436.000
56.81552 371.000
56.83547 401.000
56.85541 408.000
56.87536 386.000
56.89531 428.000
56.91525 425.000
56.93520 379.000
56.95515 431.000
56.97510 437.000
56.99504 412.000
57.01499 423.000
57.03494 427.000
57.05488 457.000
57.07483 464.000
57.09478 464.000
57.11472 446.000
57.13467 423.000
57.15462 468.000
57.17456 488.000
57.19451 480.000
57.21446 487.000
57.23441 530.000
57.25435 523.000
57.27430 560.000
57.29425 573.000
57.31419 576.000
57.33414 640.000
57.35409 651.000
57.37403 637.000
57.39398 685.000
57.41393 657.000
57.43388 634.000
57.45382 661.000
57.47377 656.000
57.49372 625.000
57.51366 629.000
57.53361 577.000
57.55356 628.000
57.57350 624.000
57.59345 608.000
57.61340 526.000
57.63334 560.000
57.65329 492.000
57.67324 495.000
57.69319 521.000
57.71313 500.000
57.73308 491.000
57.75303 482.000
57.77297 457.000
57.79292 476.000
57.81287 431.000
57.83281 461.000
57.85276 442.000
57.87271 456.000
57.89266 440.000
57.91260 447.000
57.93255 400.000
57.95250 440.000
57.97244 449.000
57.99239 439.000
58.01234 427.000
58.03228 467.000
58.05223 445.000
58.07218 462.000
58.09212 474.000
58.11207 475.000
58.13202 452.000
58.15197 457.000
58.17191 516.000
58.19186 502.000
58.21181 513.000
58.23175 524.000
58.25170 547.000
58.27165 505.000
58.29159 521.000
58.31154 509.000
58.33149 528.000
58.35144 534.000
58.37138 534.000
58.39133 513.000
58.41128 529.000
58.43122 474.000
58.45117 439.000
58.47112 473.000
58.49106 462.000
58.51101 470.000
58.53096 433.000
58.55090 430.000
58.57085 430.000
58.59080 422.000
58.61075 437.000
58.63069 399.000
58.65064 403.000
58.67059 418.000
58.69053 400.000
58.71048 394.000
58.73043 419.000
58.75037 405.000
58.77032 380.000
58.79027 415.000
58.81022 413.000
58.83016 394.000
58.85011 391.000
58.87006 372.000
58.89000 399.000
58.90995 452.000
58.92990 385.000
58.94984 396.000
58.96979 393.000
58.98974 367.000
59.00969 380.000
59.02963 413.000
59.04958 403.000
59.06953 399.000
59.08947 372.000
59.10942 388.000
59.12937 399.000
59.14931 388.000
59.16926 375.000
59.18921 355.000
59.20915 386.000
59.22910 366.000
59.24905 370.000
59.26900 385.000
59.28894 382.000
59.30889 358.000
59.32884 355.000
59.34878 411.000
59.36873 406.000
59.38868 389.000
59.40862 393.000
59.42857 339.000
59.44852 362.000
59.46847 389.000
59.48841 359.000
59.50836 405.000
59.52831 397.000
59.54825 378.000
59.56820 413.000
59.58815 386.000
59.60809 398.000
59.62804 398.000
59.64799 404.000
59.66793 385.000
59.68788 407.000
59.70783 389.000
59.72778 389.000
59.74772 365.000
59.76767 364.000
59.78762 375.000
59.80756 390.000
59.82751 367.000
59.84746 372.000
59.86740 389.000
59.88735 408.000
59.90730 355.000
59.92725 370.000
59.94719 395.000
59.96714 402.000
59.98709 377.000
60.00703 393.000
60.02698 410.000
60.04693 412.000
60.06687 408.000
60.08682 376.000
60.10677 422.000
60.12671 375.000
60.14666 404.000
60.16661 370.000
60.18656 407.000
60.20650 424.000
60.22645 363.000
60.24640 430.000
60.26634 412.000
60.28629 385.000
60.30624 408.000
60.32618 373.000
60.34613 401.000
60.36608 400.000
60.38603 404.000
60.40597 386.000
60.42592 396.000
60.44587 390.000
60.46581 391.000
60.48576 399.000
60.50571 373.000
60.52565 395.000
60.54560 372.000
60.56555 429.000
60.58550 385.000
60.60544 335.000
60.62539 409.000
60.64534 413.000
60.66528 359.000
60.68523 413.000
60.70518 438.000
60.72512 391.000
60.74507 396.000
60.76502 446.000
60.78496 409.000
60.80491 414.000
60.82486 362.000
60.84481 379.000
60.86475 402.000
60.88470 388.000
60.90465 396.000
60.92459 399.000
60.94454 404.000
60.96449 403.000
60.98443 381.000
61.00438 395.000
61.02433 401.000
61.04428 402.000
61.06422 399.000
61.08417 414.000
61.10412 435.000
61.12406 414.000
61.14401 426.000
61.16396 404.000
61.18390 425.000
61.20385 386.000
61.22380 426.000
61.24374 453.000
61.26369 440.000
61.28364 425.000
61.30359 461.000
61.32353 439.000
61.34348 416.000
61.36343 432.000
61.38337 473.000
61.40332 464.000
61.42327 494.000
61.44321 480.000
61.46316 521.000
61.48311 482.000
61.50306 560.000
61.52300 539.000
61.54295 550.000
61.56290 576.000
61.58284 601.000
61.60279 580.000
61.62274 611.000
61.64268 587.000
61.66263 642.000
61.68258 602.000
61.70252 618.000
61.72247 579.000
61.74242 608.000
61.76237 551.000
61.78231 572.000
61.80226 532.000
61.82221 561.000
61.84215 520.000
61.86210 586.000
61.88205 475.000
61.90199 521.000
61.92194 522.000
61.94189 534.000
61.96184 517.000
61.98178 496.000
62.00173 497.000
62.02168 501.000
62.04162 499.000
62.06157 518.000
62.08152 534.000
62.10146 533.000
62.12141 563.000
62.14136 552.000
62.16131 513.000
62.18125 502.000
62.20120 561.000
62.22115 578.000
62.24109 578.000
62.26104 589.000
62.28099 599.000
62.30093 574.000
62.32088 608.000
62.34083 641.000
62.36077 657.000
62.38072 678.000
62.40067 687.000
62.42062 782.000
62.44056 784.000
62.46051 832.000
62.48046 816.000
62.50040 866.000
62.52035 994.000
62.54030 977.000
62.56024 1074.000
62.58019 1142.000
62.60014 1184.000
62.62009 1159.000
62.64003 1189.000
62.65998 1307.000
62.67993 1378.000
62.69987 1313.000
62.71982 1311.000
62.73977 1347.000
62.75971 1279.000
62.77966 1262.000
62.79961 1178.000
62.81955 1156.000
62.83950 1161.000
62.85945 1157.000
62.87940 1106.000
62.89934 1074.000
62.91929 1070.000
62.93924 1062.000
62.95918 1018.000
62.97913 1014.000
62.99908 964.000
63.01902 960.000
63.03897 866.000
63.05892 872.000
63.07887 822.000
63.09881 811.000
63.11876 832.000
63.13871 810.000
63.15865 796.000
63.17860 714.000
63.19855 713.000
63.21849 707.000
63.23844 717.000
63.25839 657.000
63.27833 612.000
63.29828 589.000
63.31823 574.000
63.33818 582.000
63.35812 574.000
63.37807 493.000
63.39802 543.000
63.41796 499.000
63.43791 503.000
63.45786 512.000
63.47780 483.000
63.49775 475.000
63.51770 474.000
63.53765 480.000
63.55759 448.000
63.57754 463.000
63.59749 426.000
63.61743 430.000
63.63738 431.000
63.65733 421.000
63.67727 493.000
63.69722 431.000
63.71717 448.000
63.73712 429.000
63.75706 437.000
63.77701 408.000
63.79696 433.000
63.81690 402.000
63.83685 402.000
63.85680 403.000
63.87674 402.000
63.89669 414.000
63.91664 399.000
63.93658 413.000
63.95653 386.000
63.97648 463.000
63.99643 414.000
64.01637 433.000
64.03632 378.000
64.05627 407.000
64.07621 429.000
64.09616 431.000
64.11611 445.000
64.13605 428.000
64.15600 426.000
64.17595 432.000
64.19590 421.000
64.21584 431.000
64.23579 414.000
64.25574 446.000
64.27568 421.000
64.29563 491.000
64.31558 430.000
64.33552 432.000
64.35547 475.000
64.37542 461.000
64.39536 419.000
64.41531 453.000
64.43526 461.000
64.45521 429.000
64.47515 470.000
64.49510 463.000
64.51505 446.000
64.53499 471.000
64.55494 421.000
64.57489 469.000
64.59483 412.000
64.61478 451.000
64.63473 434.000
64.65468 451.000
64.67462 453.000
64.69457 400.000
64.71452 449.000
64.73446 415.000
64.75441 423.000
64.77436 404.000
64.79430 463.000
64.81425 415.000
64.83420 440.000
64.85414 428.000
64.87409 415.000
64.89404 406.000
64.91399 396.000
64.93393 439.000
64.95388 431.000
64.97383 451.000
64.99377 395.000
65.01372 368.000
65.03367 408.000
65.05361 413.000
65.07356 397.000
65.09351 397.000
65.11346 420.000
65.13340 448.000
65.15335 426.000
65.17330 416.000
65.19324 383.000
65.21319 431.000
65.23314 438.000
65.25308 447.000
65.27303 395.000
65.29298 413.000
65.31293 379.000
65.33287 431.000
65.35282 422.000
65.37277 403.000
65.39271 428.000
65.41266 429.000
65.43261 457.000
65.45255 437.000
65.47250 464.000
65.49245 454.000
65.51239 475.000
65.53234 456.000
65.55229 467.000
65.57224 479.000
65.59218 441.000
65.61213 455.000
65.63208 498.000
65.65202 483.000
65.67197 464.000
65.69192 545.000
65.71186 512.000
65.73181 508.000
65.75176 526.000
65.77171 510.000
65.79165 481.000
65.81160 518.000
65.83155 515.000
65.85149 501.000
65.87144 503.000
65.89139 473.000
65.91133 456.000
65.93128 500.000
65.95123 477.000
65.97117 470.000
65.99112 482.000
66.01107 530.000
66.03102 464.000
66.05096 465.000
66.07091 519.000
66.09086 477.000
66.11080 514.000
66.13075 507.000
66.15070 497.000
66.17064 512.000
66.19059 536.000
66.21054 561.000
66.23049 574.000
66.25043 544.000
66.27038 558.000
66.29033 595.000
66.31027 606.000
66.33022 570.000
66.35017 575.000
66.37011 587.000
66.39006 602.000
66.41001 579.000
66.42995 580.000
66.44990 580.000
66.46985 585.000
66.48980 552.000
66.50974 533.000
66.52969 536.000
66.54964 554.000
66.56958 514.000
66.58953 523.000
66.60948 494.000
66.62942 512.000
66.64937 536.000
66.66932 482.000
66.68927 500.000
66.70921 451.000
66.72916 441.000
66.74911 493.000
66.76905 479.000
66.78900 467.000
66.80895 475.000
66.82889 461.000
66.84884 483.000
66.86879 467.000
66.88874 464.000
66.90868 463.000
66.92863 471.000
66.94858 500.000
66.96852 493.000
66.98847 453.000
67.00842 436.000
67.02836 445.000
67.04831 479.000
67.06826 425.000
67.08820 407.000
67.10815 418.000
67.12810 422.000
67.14805 463.000
67.16799 454.000
67.18794 485.000
67.20789 424.000
67.22783 419.000
67.24778 434.000
67.26773 430.000
67.28767 461.000
67.30762 408.000
67.32757 445.000
67.34752 427.000
67.36746 410.000
67.38741 429.000
67.40736 440.000
67.42730 468.000
67.44725 427.000
67.46720 421.000
67.48714 395.000
67.50709 453.000
67.52704 405.000
67.54698 401.000
67.56693 413.000
67.58688 429.000
67.60683 452.000
67.62677 441.000
67.64672 425.000
67.66667 472.000
67.68661 425.000
67.70656 424.000
67.72651 441.000
67.74645 437.000
67.76640 475.000
67.78635 461.000
67.80630 494.000
67.82624 483.000
67.84619 494.000
67.86614 497.000
67.88608 516.000
67.90603 530.000
67.92598 481.000
67.94592 553.000
67.96587 546.000
67.98582 554.000
68.00576 540.000
68.02571 486.000
68.04566 550.000
68.06561 587.000
68.08555 567.000
68.10550 538.000
68.12545 567.000
68.14539 537.000
68.16534 503.000
68.18529 542.000
68.20523 541.000
68.22518 508.000
68.24513 505.000
68.26508 492.000
68.28502 460.000
68.30497 468.000
68.32492 471.000
68.34486 518.000
68.36481 447.000
68.38476 453.000
68.40470 493.000
68.42465 473.000
68.44460 433.000
68.46455 426.000
68.48449 457.000
68.50444 396.000
68.52439 416.000
68.54433 418.000
68.56428 416.000
68.58423 424.000
68.60417 422.000
68.62412 414.000
68.64407 415.000
68.66401 387.000
68.68396 394.000
68.70391 367.000
68.72386 381.000
68.74380 403.000
68.76375 386.000
68.78370 391.000
68.80364 426.000
68.82359 382.000
68.84354 380.000
68.86348 411.000
68.88343 439.000
68.90338 405.000
68.92333 384.000
68.94327 379.000
68.96322 393.000
68.98317 378.000
69.00311 335.000
69.02306 389.000
69.04301 379.000
69.06295 408.000
69.08290 389.000
69.10285 371.000
69.12279 376.000
69.14274 386.000
69.16269 373.000
69.18264 370.000
69.20258 399.000
69.22253 361.000
69.24248 392.000
69.26242 381.000
69.28237 376.000
69.30232 422.000
69.32226 379.000
69.34221 352.000
69.36216 371.000
69.38211 402.000
69.40205 407.000
69.42200 393.000
69.44195 396.000
69.46189 364.000
69.48184 417.000
69.50179 380.000
69.52173 394.000
69.54168 404.000
69.56163 373.000
69.58157 381.000
69.60152 377.000
69.62147 378.000
69.64142 378.000
69.66136 390.000
69.68131 408.000
69.70126 375.000
69.72120 376.000
69.74115 395.000
69.76110 394.000
69.78104 369.000
69.80099 387.000
69.82094 380.000
69.84089 398.000
69.86083 375.000
69.88078 403.000
69.90073 408.000
69.92067 386.000
69.94062 383.000
69.96057 369.000
69.98051 388.000
70.00046 391.000
70.02041 360.000
70.04035 383.000
70.06030 362.000
70.08025 368.000
70.10020 379.000
70.12014 410.000
70.14009 364.000
70.16004 385.000
70.17998 394.000
70.19993 402.000
70.21988 375.000
70.23982 365.000
70.25977 366.000
70.27972 380.000
70.29967 353.000
70.31961 377.000
70.33956 383.000
70.35951 382.000
70.37945 357.000
70.39940 371.000
70.41935 367.000
70.43929 367.000
70.45924 374.000
70.47919 373.000
70.49914 377.000
70.51908 375.000
70.53903 369.000
70.55898 369.000
70.57892 392.000
70.59887 403.000
70.61882 385.000
70.63876 345.000
70.65871 377.000
70.67866 387.000
70.69860 382.000
70.71855 388.000
70.73850 363.000
70.75845 380.000
70.77839 376.000
70.79834 367.000
70.81829 361.000
70.83823 365.000
70.85818 403.000
70.87813 391.000
70.89807 351.000
70.91802 342.000
70.93797 350.000
70.95792 395.000
70.97786 389.000
70.99781 367.000
71.01776 369.000
71.03770 384.000
71.05765 360.000
71.07760 352.000
71.09754 394.000
71.11749 428.000
71.13744 398.000
71.15738 391.000
71.17733 365.000
71.19728 377.000
71.21723 354.000
71.23717 386.000
71.25712 360.000
71.27707 398.000
71.29701 370.000
71.31696 398.000
71.33691 387.000
71.35685 410.000
71.37680 420.000
71.39675 374.000
71.41670 391.000
71.43664 354.000
71.45659 419.000
71.47654 371.000
71.49648 367.000
71.51643 373.000
71.53638 419.000
71.55632 375.000
71.57627 421.000
71.59622 425.000
71.61616 399.000
71.63611 411.000
71.65606 423.000
71.67601 402.000
71.69595 400.000
71.71590 391.000
71.73585 393.000
71.75579 384.000
71.77574 431.000
71.79569 408.000
71.81563 407.000
71.83558 411.000
71.85553 427.000
71.87548 421.000
71.89542 410.000
71.91537 412.000
71.93532 371.000
71.95526 396.000
71.97521 359.000
71.99516 404.000
72.01510 424.000
72.03505 415.000
72.05500 385.000
72.07495 411.000
72.09489 388.000
72.11484 396.000
72.13479 381.000
72.15473 385.000
72.17468 417.000
72.19463 419.000
72.21457 393.000
72.23452 425.000
72.25447 431.000
72.27441 443.000
72.29436 406.000
72.31431 457.000
72.33426 471.000
72.35420 440.000
72.37415 472.000
72.39410 457.000
72.41404 436.000
72.43399 390.000
72.45394 423.000
72.47388 439.000
72.49383 482.000
72.51378 433.000
72.53373 434.000
72.55367 441.000
72.57362 439.000
72.59357 419.000
72.61351 465.000
72.63346 419.000
72.65341 391.000
72.67335 420.000
72.69330 384.000
72.71325 423.000
72.73319 403.000
72.75314 430.000
72.77309 386.000
72.79304 394.000
72.81298 403.000
72.83293 399.000
72.85288 360.000
72.87282 397.000
72.89277 393.000
72.91272 389.000
72.93266 401.000
72.95261 371.000
72.97256 428.000
72.99251 364.000
73.01245 393.000
73.03240 391.000
73.05235 377.000
73.07229 371.000
73.09224 380.000
73.11219 384.000
73.13213 403.000
73.15208 386.000
73.17203 397.000
73.19197 389.000
73.21192 340.000
73.23187 378.000
73.25182 380.000
73.27176 357.000
73.29171 404.000
73.31166 408.000
73.33160 346.000
73.35155 393.000
73.37150 336.000
73.39144 384.000
73.41139 393.000
73.43134 418.000
73.45129 405.000
73.47123 398.000
73.49118 411.000
73.51113 402.000
73.53107 406.000
73.55102 403.000
73.57097 378.000
73.59091 410.000
73.61086 405.000
73.63081 421.000
73.65076 403.000
73.67070 408.000
73.69065 379.000
73.71060 422.000
73.73054 418.000
73.75049 379.000
73.77044 413.000
73.79038 392.000
73.81033 418.000
73.83028 385.000
73.85022 391.000
73.87017 400.000
73.89012 401.000
73.91007 414.000
73.93001 404.000
73.94996 378.000
73.96991 414.000
73.98985 404.000
74.00980 424.000
74.02975 414.000
74.04969 404.000
74.06964 388.000
74.08959 427.000
74.10954 423.000
74.12948 395.000
74.14943 427.000
74.16938 419.000
74.18932 410.000
74.20927 399.000
74.22922 407.000
74.24916 419.000
74.26911 426.000
74.28906 401.000
74.30900 409.000
74.32895 374.000
74.34890 402.000
74.36885 400.000
74.38879 469.000
74.40874 439.000
74.42869 461.000
74.44863 458.000
74.46858 450.000
74.48853 468.000
74.50847 457.000
74.52842 471.000
74.54837 485.000
74.56832 471.000
74.58826 487.000
74.60821 443.000
74.62816 517.000
74.64810 499.000
74.66805 498.000
74.68800 524.000
74.70794 486.000
74.72789 541.000
74.74784 566.000
74.76778 544.000
74.78773 550.000
74.80768 542.000
74.82763 542.000
74.84757 566.000
74.86752 596.000
74.88747 570.000
74.90741 565.000
74.92736 617.000
74.94731 607.000
74.96725 634.000
74.98720 667.000
75.00715 676.000
75.02710 688.000
75.04704 707.000
75.06699 729.000
75.08694 688.000
75.10688 754.000
75.12683 735.000
75.14678 756.000
75.16672 725.000
75.18667 735.000
75.20662 737.000
75.22657 724.000
75.24651 740.000
75.26646 731.000
75.28641 755.000
75.30635 657.000
75.32630 657.000
75.34625 646.000
75.36619 603.000
75.38614 675.000
75.40609 609.000
75.42603 623.000
75.44598 566.000
75.46593 565.000
75.48588 583.000
75.50582 557.000
75.52577 591.000
75.54572 500.000
75.56566 520.000
75.58561 513.000
75.60556 508.000
75.62550 480.000
75.64545 500.000
75.66540 485.000
75.68535 457.000
75.70529 429.000
75.72524 440.000
75.74519 446.000
75.76513 464.000
75.78508 470.000
75.80503 444.000
75.82497 456.000
75.84492 399.000
75.86487 400.000
75.88481 408.000
75.90476 408.000
75.92471 390.000
75.94466 410.000
75.96460 438.000
75.98455 407.000
76.00450 416.000
76.02444 404.000
76.04439 383.000
76.06434 396.000
76.08428 423.000
76.10423 429.000
76.12418 403.000
76.14413 394.000
76.16407 413.000
76.18402 375.000
76.20397 384.000
76.22391 386.000
76.24386 416.000
76.26381 370.000
76.28375 402.000
76.30370 436.000
76.32365 354.000
76.34359 377.000
76.36354 401.000
76.38349 365.000
76.40344 396.000
76.42338 396.000
76.44333 372.000
76.46328 375.000
76.48322 373.000
76.50317 390.000
76.52312 386.000
76.54306 396.000
76.56301 406.000
76.58296 388.000
76.60291 397.000
76.62285 398.000
76.64280 384.000
76.66275 426.000
76.68269 425.000
76.70264 370.000
76.72259 381.000
76.74253 369.000
76.76248 407.000
76.78243 388.000
76.80238 405.000
76.82232 411.000
76.84227 427.000
76.86222 376.000
76.88216 387.000
76.90211 385.000
76.92206 410.000
76.94200 378.000
76.96195 375.000
76.98190 393.000
77.00184 351.000
77.02179 359.000
77.04174 371.000
77.06169 369.000
77.08163 398.000
77.10158 429.000
77.12153 396.000
77.14147 359.000
77.16142 361.000
77.18137 399.000
77.20131 391.000
77.22126 383.000
77.24121 350.000
77.26116 401.000
77.28110 392.000
77.30105 350.000
77.32100 352.000
77.34094 405.000
77.36089 403.000
77.38084 368.000
77.40078 386.000
77.42073 399.000
77.44068 384.000
77.46062 404.000
77.48057 407.000
77.50052 374.000
77.52047 386.000
77.54041 409.000
77.56036 389.000
77.58031 341.000
77.60025 372.000
77.62020 348.000
77.64015 372.000
77.66009 379.000
77.68004 414.000
77.69999 369.000
77.71994 377.000
77.73988 351.000
77.75983 396.000
77.77978 384.000
77.79972 353.000
77.81967 377.000
77.83962 371.000
77.85956 377.000
77.87951 383.000
77.89946 396.000
77.91940 378.000
77.93935 398.000
77.95930 364.000
77.97925 352.000
77.99919 379.000
78.01914 392.000
78.03909 416.000
78.05903 401.000
78.07898 374.000
78.09893 407.000
78.11887 394.000
78.13882 378.000
78.15877 397.000
78.17872 367.000
78.19866 386.000
78.21861 402.000
78.23856 421.000
78.25850 424.000
78.27845 389.000
78.29840 429.000
78.31834 399.000
78.33829 425.000
78.35824 389.000
78.37819 448.000
78.39813 371.000
78.41808 422.000
78.43803 401.000
78.45797 389.000
78.47792 415.000
78.49787 430.000
78.51781 442.000
78.53776 422.000
78.55771 404.000
78.57765 422.000
78.59760 413.000
78.61755 389.000
78.63750 423.000
78.65744 408.000
78.67739 394.000
78.69734 404.000
78.71728 401.000
78.73723 433.000
78.75718 460.000
78.77712 447.000
78.79707 454.000
78.81702 439.000
78.83697 485.000
78.85691 482.000
78.87686 470.000
78.89681 497.000
78.91675 497.000
78.93670 520.000
78.95665 495.000
78.97659 549.000
78.99654 502.000
79.01649 554.000
79.03643 568.000
79.05638 573.000
79.07633 593.000
79.09628 562.000
79.11622 681.000
79.13617 631.000
79.15612 576.000
79.17606 605.000
79.19601 543.000
79.21596 564.000
79.23590 549.000
79.25585 519.000
79.27580 531.000
79.29575 520.000
79.31569 580.000
79.33564 491.000
79.35559 513.000
79.37553 529.000
79.39548 531.000
79.41543 469.000
79.43537 491.000
79.45532 505.000
79.47527 457.000
79.49521 442.000
79.51516 478.000
79.53511 426.000
79.55506 474.000
79.57500 447.000
79.59495 445.000
79.61490 431.000
79.63484 405.000
79.65479 424.000
79.67474 400.000
79.69468 413.000
79.71463 432.000
79.73458 451.000
79.75453 419.000
79.77447 396.000
79.79442 369.000
79.81437 410.000
79.83431 428.000
79.85426 395.000
79.87421 392.000
79.89415 387.000
79.91410 406.000
79.93405 391.000
79.95399 398.000
79.97394 400.000
79.99389 387.000
80.01384 390.000
80.03378 393.000
80.05373 438.000
80.07368 381.000
80.09362 370.000
80.11357 371.000
80.13352 416.000
80.15346 399.000
80.17341 409.000
80.19336 372.000
80.21331 382.000
80.23325 413.000
80.25320 457.000
80.27315 408.000
80.29309 369.000
80.31304 386.000
80.33299 428.000
80.35293 368.000
80.37288 418.000
80.39283 413.000
80.41278 432.000
80.43272 420.000
80.45267 393.000
80.47262 445.000
80.49256 436.000
80.51251 410.000
80.53246 412.000
80.55240 398.000
80.57235 395.000
80.59230 417.000
80.61224 403.000
80.63219 402.000
80.65214 389.000
80.67209 368.000
80.69203 409.000
80.71198 396.000
80.73193 366.000
80.75187 354.000
80.77182 384.000
80.79177 406.000
80.81171 402.000
80.83166 391.000
80.85161 388.000
80.87156 374.000
80.89150 392.000
80.91145 395.000
80.93140 371.000
80.95134 360.000
80.97129 376.000
80.99124 390.000
81.01118 384.000
81.03113 392.000
81.05108 376.000
81.07102 384.000
81.09097 369.000
81.11092 385.000
81.13087 398.000
81.15081 375.000
81.17076 405.000
81.19071 390.000
81.21065 388.000
81.23060 396.000
81.25055 364.000
81.27049 405.000
81.29044 343.000
81.31039 391.000
81.33034 352.000
81.35028 377.000
81.37023 362.000
81.39018 412.000
81.41012 364.000
81.43007 425.000
81.45002 375.000
81.46996 357.000
81.48991 368.000
81.50986 364.000
81.52980 390.000
81.54975 372.000
81.56970 360.000
81.58965 367.000
81.60959 387.000
81.62954 364.000
81.64949 412.000
81.66943 345.000
81.68938 336.000
81.70933 404.000
81.72927 380.000
81.74922 388.000
81.76917 344.000
81.78912 388.000
81.80906 363.000
81.82901 383.000
81.84896 365.000
81.86890 374.000
81.88885 391.000
81.90880 363.000
81.92874 398.000
81.94869 382.000
81.96864 362.000
81.98859 380.000
82.00853 377.000
82.02848 415.000
82.04843 370.000
82.06837 389.000
82.08832 425.000
82.10827 363.000
82.12821 421.000
82.14816 432.000
82.16811 421.000
82.18805 409.000
82.20800 434.000
82.22795 407.000
82.24790 395.000
82.26784 410.000
82.28779 425.000
82.30774 386.000
82.32768 360.000
82.34763 399.000
82.36758 427.000
82.38752 407.000
82.40747 381.000
82.42742 416.000
82.44737 378.000
82.46731 398.000
82.48726 394.000
82.50721 431.000
82.52715 430.000
82.54710 424.000
82.56705 433.000
82.58699 387.000
82.60694 406.000
82.62689 457.000
82.64683 437.000
82.66678 421.000
82.68673 426.000
82.70668 393.000
82.72662 432.000
82.74657 449.000
82.76652 411.000
82.78646 415.000
82.80641 423.000
82.82636 431.000
82.84630 432.000
82.86625 420.000
82.88620 417.000
82.90615 420.000
82.92609 415.000
82.94604 402.000
82.96599 406.000
82.98593 392.000
83.00588 378.000
83.02583 396.000
83.04577 374.000
83.06572 440.000
83.08567 389.000
83.10561 387.000
83.12556 426.000
83.14551 426.000
83.16546 431.000
83.18540 441.000
83.20535 383.000
83.22530 412.000
83.24524 411.000
83.26519 451.000
83.28514 420.000
83.30508 408.000
83.32503 391.000
83.34498 405.000
83.36493 396.000
83.38487 387.000
83.40482 413.000
83.42477 429.000
83.44471 402.000
83.46466 373.000
83.48461 433.000
83.50455 420.000
83.52450 404.000
83.54445 428.000
83.56440 385.000
83.58434 414.000
83.60429 420.000
83.62424 418.000
83.64418 424.000
83.66413 392.000
83.68408 404.000
83.70402 390.000
83.72397 421.000
83.74392 422.000
83.76386 394.000
83.78381 445.000
83.80376 398.000
83.82371 431.000
83.84365 402.000
83.86360 420.000
83.88355 379.000
83.90349 373.000
83.92344 401.000
83.94339 406.000
83.96333 395.000
83.98328 387.000
84.00323 422.000
84.02318 409.000
84.04312 405.000
84.06307 419.000
84.08302 375.000
84.10296 397.000
84.12291 387.000
84.14286 405.000
84.16280 385.000
84.18275 385.000
84.20270 389.000
84.22264 366.000
84.24259 382.000
84.26254 385.000
84.28249 380.000
84.30243 413.000
84.32238 371.000
84.34233 400.000
84.36227 421.000
84.38222 366.000
84.40217 392.000
84.42211 404.000
84.44206 415.000
84.46201 428.000
84.48196 373.000
84.50190 351.000
84.52185 428.000
84.54180 379.000
84.56174 435.000
84.58169 386.000
84.60164 343.000
84.62158 413.000
84.64153 341.000
84.66148 405.000
84.68142 377.000
84.70137 355.000
84.72132 363.000
84.74127 378.000
84.76121 381.000
84.78116 353.000
84.80111 419.000
84.82105 399.000
84.84100 377.000
84.86095 425.000
84.88089 373.000
84.90084 407.000
84.92079 380.000
84.94074 381.000
84.96068 345.000
84.98063 397.000
85.00058 387.000
85.02052 359.000
85.04047 369.000
85.06042 379.000
85.08036 381.000
85.10031 382.000
85.12026 433.000
85.14021 413.000
85.16015 421.000
85.18010 421.000
85.20005 378.000
85.21999 364.000
85.23994 400.000
85.25989 372.000
85.27983 346.000
85.29978 362.000
85.31973 360.000
85.33967 383.000
85.35962 425.000
85.37957 402.000
85.39952 369.000
85.41946 385.000
85.43941 396.000
85.45936 385.000
85.47930 359.000
85.49925 369.000
85.51920 381.000
85.53914 367.000
85.55909 389.000
85.57904 354.000
85.59899 344.000
85.61893 385.000
85.63888 324.000
85.65883 361.000
85.67877 405.000
85.69872 378.000
85.71867 383.000
85.73861 365.000
85.75856 355.000
85.77851 386.000
85.79845 362.000
85.81840 367.000
85.83835 358.000
85.85830 363.000
85.87824 353.000
85.89819 380.000
85.91814 373.000
85.93808 388.000
85.95803 351.000
85.97798 381.000
85.99792 356.000
86.01787 363.000
86.03782 380.000
86.05777 405.000
86.07771 362.000
86.09766 383.000
86.11761 395.000
86.13755 374.000
86.15750 338.000
86.17745 388.000
86.19739 380.000
86.21734 387.000
86.23729 404.000
86.25723 347.000
86.27718 398.000
86.29713 357.000
86.31708 381.000
86.33702 393.000
86.35697 363.000
86.37692 393.000
86.39686 347.000
86.41681 351.000
86.43676 414.000
86.45670 402.000
86.47665 369.000
86.49660 365.000
86.51655 394.000
86.53649 359.000
86.55644 355.000
86.57639 373.000
86.59633 397.000
86.61628 361.000
86.63623 387.000
86.65617 415.000
86.67612 409.000
86.69607 386.000
86.71602 413.000
86.73596 383.000
86.75591 402.000
86.77586 411.000
86.79580 396.000
86.81575 374.000
86.83570 399.000
86.85564 380.000
86.87559 351.000
86.89554 409.000
86.91548 395.000
86.93543 398.000
86.95538 412.000
86.97533 364.000
86.99527 382.000
87.01522 368.000
87.03517 375.000
87.05511 386.000
87.07506 397.000
87.09501 376.000
87.11495 421.000
87.13490 380.000
87.15485 367.000
87.17480 366.000
87.19474 371.000
87.21469 401.000
87.23464 418.000
87.25458 388.000
87.27453 424.000
87.29448 386.000
87.31442 420.000
87.33437 370.000
87.35432 415.000
87.37426 409.000
87.39421 392.000
87.41416 399.000
87.43411 428.000
87.45405 383.000
87.47400 393.000
87.49395 408.000
87.51389 384.000
87.53384 449.000
87.55379 413.000
87.57373 411.000
87.59368 406.000
87.61363 378.000
87.63358 410.000
87.65352 383.000
87.67347 402.000
87.69342 388.000
87.71336 425.000
87.73331 391.000
87.75326 404.000
87.77320 370.000
87.79315 372.000
87.81310 387.000
87.83304 392.000
87.85299 389.000
87.87294 388.000
87.89289 378.000
87.91283 426.000
87.93278 390.000
87.95273 373.000
87.97267 418.000
87.99262 391.000
88.01257 365.000
88.03251 381.000
88.05246 363.000
88.07241 356.000
88.09236 402.000
88.11230 406.000
88.13225 407.000
88.15220 391.000
88.17214 383.000
88.19209 383.000
88.21204 367.000
88.23198 412.000
88.25193 378.000
88.27188 374.000
88.29183 388.000
88.31177 389.000
88.33172 360.000
88.35167 381.000
88.37161 368.000
88.39156 375.000
88.41151 402.000
88.43145 370.000
88.45140 388.000
88.47135 384.000
88.49129 381.000
88.51124 410.000
88.53119 358.000
88.55114 384.000
88.57108 351.000
88.59103 396.000
88.61098 370.000
88.63092 377.000
88.65087 403.000
88.67082 382.000
88.69076 369.000
88.71071 393.000
88.73066 376.000
88.75061 388.000
88.77055 378.000
88.79050 396.000
88.81045 379.000
88.83039 384.000
88.85034 375.000
88.87029 392.000
88.89023 377.000
88.91018 378.000
88.93013 396.000
88.95007 390.000
88.97002 406.000
88.98997 376.000
89.00992 353.000
89.02986 413.000
89.04981 404.000
89.06976 418.000
89.08970 392.000
89.10965 368.000
89.12960 371.000
89.14954 381.000
89.16949 359.000
89.18944 412.000
89.20939 367.000
89.22933 395.000
89.24928 366.000
89.26923 378.000
89.28917 398.000
89.30912 404.000
89.32907 406.000
89.34901 408.000
89.36896 421.000
89.38891 372.000
89.40885 429.000
89.42880 380.000
89.44875 391.000
89.46870 370.000
89.48864 395.000
89.50859 411.000
89.52854 390.000
89.54848 415.000
89.56843 402.000
89.58838 406.000
89.60832 379.000
89.62827 388.000
89.64822 385.000
89.66817 394.000
89.68811 363.000
89.70806 391.000
89.72801 395.000
89.74795 405.000
89.76790 394.000
89.78785 431.000
89.80779 392.000
89.82774 369.000
89.84769 406.000
89.86764 422.000
89.88758 392.000
89.90753 424.000
89.92748 397.000
89.94742 431.000
89.96737 440.000
89.98732 409.000
90.00726 397.000
