10.00000 99.000
10.01995 82.000
10.03989 102.000
10.05984 84.000
10.07979 82.000
10.09973 86.000
10.11968 90.000
10.13963 124.000
10.15958 96.000
10.17952 85.000
10.19947 86.000
10.21942 89.000
10.23936 88.000
10.25931 81.000
10.27926 72.000
10.29920 100.000
10.31915 108.000
10.33910 76.000
10.35905 83.000
10.37899 79.000
10.39894 88.000
10.41889 86.000
10.43883 83.000
10.45878 92.000
10.47873 74.000
10.49867 70.000
10.51862 89.000
10.53857 87.000
10.55851 93.000
10.57846 88.000
10.59841 94.000
10.61836 111.000
10.63830 91.000
10.65825 96.000
10.67820 103.000
10.69814 99.000
10.71809 109.000
10.73804 97.000
10.75798 93.000
10.77793 105.000
10.79788 88.000
10.81783 86.000
10.83777 94.000
10.85772 97.000
10.87767 85.000
10.89761 84.000
10.91756 88.000
10.93751 77.000
10.95745 94.000
10.97740 89.000
10.99735 99.000
11.01730 80.000
11.03724 80.000
11.05719 83.000
11.07714 87.000
11.09708 91.000
11.11703 89.000
11.13698 113.000
11.15692 92.000
11.17687 93.000
11.19682 97.000
11.21676 94.000
11.23671 105.000
11.25666 75.000
11.27661 102.000
11.29655 96.000
11.31650 97.000
11.33645 85.000
11.35639 108.000
11.37634 106.000
11.39629 89.000
11.41623 96.000
11.43618 88.000
11.45613 90.000
11.47608 87.000
11.49602 99.000
11.51597 86.000
11.53592 87.000
11.55586 88.000
11.57581 93.000
11.59576 101.000
11.61570 108.000
11.63565 83.000
11.65560 100.000
11.67554 68.000
11.69549 83.000
11.71544 93.000
11.73539 96.000
11.75533 75.000
11.77528 105.000
11.79523 83.000
11.81517 82.000
11.83512 93.000
11.85507 96.000
11.87501 99.000
11.89496 85.000
11.91491 80.000
11.93486 75.000
11.95480 90.000
11.97475 80.000
11.99470 107.000
12.01464 91.000
12.03459 102.000
12.05454 99.000
12.07448 91.000
12.09443 83.000
12.11438 93.000
12.13432 73.000
12.15427 92.000
12.17422 88.000
12.19417 98.000
12.21411 68.000
12.23406 81.000
12.25401 100.000
12.27395 85.000
12.29390 80.000
12.31385 95.000
12.33379 89.000
12.35374 99.000
12.37369 84.000
12.39364 89.000
12.41358 94.000
12.43353 103.000
12.45348 86.000
12.47342 82.000
12.49337 85.000
12.51332 93.000
12.53326 95.000
12.55321 89.000
12.57316 81.000
12.59311 85.000
12.61305 95.000
12.63300 82.000
12.65295 83.000
12.67289 95.000
12.69284 88.000
12.71279 103.000
12.73273 73.000
12.75268 90.000
12.77263 92.000
12.79257 94.000
12.81252 83.000
12.83247 84.000
12.85242 86.000
12.87236 84.000
12.89231 103.000
12.91226 93.000
12.93220 86.000
12.95215 80.000
12.97210 98.000
12.99204 81.000
13.01199 87.000
13.03194 68.000
13.05189 76.000
13.07183 85.000
13.09178 90.000
13.11173 113.000
13.13167 96.000
13.15162 95.000
13.17157 80.000
13.19151 85.000
13.21146 109.000
13.23141 80.000
13.25135 87.000
13.27130 90.000
13.29125 100.000
13.31120 107.000
13.33114 101.000
13.35109 108.000
13.37104 89.000
13.39098 102.000
13.41093 103.000
13.43088 122.000
13.45082 97.000
13.47077 99.000
13.49072 91.000
13.51067 90.000
13.53061 86.000
13.55056 79.000
13.57051 93.000
13.59045 110.000
13.61040 86.000
13.63035 98.000
13.65029 110.000
13.67024 95.000
13.69019 99.000
13.71013 102.000
13.73008 93.000
13.75003 72.000
13.76998 86.000
13.78992 105.000
13.80987 104.000
13.82982 82.000
13.84976 100.000
13.86971 103.000
13.88966 109.000
13.90960 81.000
13.92955 92.000
13.94950 96.000
13.96945 100.000
13.98939 97.000
14.00934 114.000
14.02929 83.000
14.04923 97.000
14.06918 91.000
14.08913 120.000
14.10907 107.000
14.12902 83.000
14.14897 105.000
14.16892 89.000
14.18886 97.000
14.20881 117.000
14.22876 110.000
14.24870 125.000
14.26865 99.000
14.28860 100.000
14.30854 107.000
14.32849 84.000
14.34844 112.000
14.36838 93.000
14.38833 122.000
14.40828 117.000
14.42823 109.000
14.44817 108.000
14.46812 86.000
14.48807 114.000
14.50801 88.000
14.52796 104.000
14.54791 100.000
14.56785 104.000
14.58780 109.000
14.60775 102.000
14.62770 101.000
14.64764 100.000
14.66759 117.000
14.68754 104.000
14.70748 110.000
14.72743 117.000
14.74738 124.000
14.76732 117.000
14.78727 136.000
14.80722 117.000
14.82716 98.000
14.84711 124.000
14.86706 120.000
14.88701 129.000
14.90695 115.000
14.92690 108.000
14.94685 108.000
14.96679 129.000
14.98674 151.000
15.00669 127.000
15.02663 125.000
15.04658 176.000
15.06653 171.000
15.08648 167.000
15.10642 174.000
15.12637 215.000
15.14632 167.000
15.16626 165.000
15.18621 161.000
15.20616 176.000
15.22610 205.000
15.24605 211.000
15.26600 177.000
15.28594 177.000
15.30589 200.000
15.32584 210.000
15.34579 209.000
15.36573 223.000
15.38568 247.000
15.40563 243.000
15.42557 264.000
15.44552 278.000
15.46547 308.000
15.48541 332.000
15.50536 333.000
15.52531 399.000
15.54526 406.000
15.56520 470.000
15.58515 579.000
15.60510 752.000
15.62504 1026.000
15.64499 1463.000
15.66494 2126.000
15.68488 3454.000
15.70483 5901.000
15.72478 9750.000
15.74472 14746.000
15.76467 19545.000
15.78462 20633.000
15.80457 18011.000
15.82451 12912.000
15.84446 7467.000
15.86441 4085.000
15.88435 2066.000
15.90430 1110.000
15.92425 730.000
15.94419 585.000
15.96414 486.000
15.98409 406.000
16.00404 389.000
16.02398 328.000
16.04393 285.000
16.06388 268.000
16.08382 271.000
16.10377 273.000
16.12372 269.000
16.14366 213.000
16.16361 203.000
16.18356 190.000
16.20351 190.000
16.22345 172.000
16.24340 187.000
16.26335 166.000
16.28329 191.000
16.30324 183.000
16.32319 168.000
16.34313 174.000
16.36308 156.000
16.38303 158.000
16.40297 168.000
16.42292 156.000
16.44287 140.000
16.46282 146.000
16.48276 155.000
16.50271 150.000
16.52266 131.000
16.54260 141.000
16.56255 139.000
16.58250 116.000
16.60244 144.000
16.62239 132.000
16.64234 103.000
16.66229 143.000
16.68223 116.000
16.70218 115.000
16.72213 122.000
16.74207 110.000
16.76202 122.000
16.78197 107.000
16.80191 115.000
16.82186 133.000
16.84181 122.000
16.86175 133.000
16.88170 147.000
16.90165 107.000
16.92160 120.000
16.94154 114.000
16.96149 97.000
16.98144 129.000
17.00138 107.000
17.02133 90.000
17.04128 104.000
17.06122 86.000
17.08117 89.000
17.10112 93.000
17.12107 84.000
17.14101 125.000
17.16096 95.000
17.18091 96.000
17.20085 108.000
17.22080 103.000
17.24075 81.000
17.26069 120.000
17.28064 95.000
17.30059 94.000
17.32053 89.000
17.34048 99.000
17.36043 74.000
17.38038 88.000
17.40032 73.000
17.42027 80.000
17.44022 90.000
17.46016 89.000
17.48011 100.000
17.50006 60.000
17.52000 92.000
17.53995 91.000
17.55990 90.000
17.57985 103.000
17.59979 96.000
17.61974 108.000
17.63969 84.000
17.65963 97.000
17.67958 95.000
17.69953 78.000
17.71947 84.000
17.73942 99.000
17.75937 86.000
17.77932 91.000
17.79926 95.000
17.81921 75.000
17.83916 105.000
17.85910 92.000
17.87905 93.000
17.89900 91.000
17.91894 86.000
17.93889 87.000
17.95884 89.000
17.97878 92.000
17.99873 95.000
18.01868 98.000
18.03863 90.000
18.05857 80.000
18.07852 89.000
18.09847 76.000
18.11841 85.000
18.13836 68.000
18.15831 93.000
18.17825 95.000
18.19820 92.000
18.21815 101.000
18.23810 78.000
18.25804 95.000
18.27799 86.000
18.29794 91.000
18.31788 83.000
18.33783 75.000
18.35778 76.000
18.37772 93.000
18.39767 93.000
18.41762 75.000
18.43756 98.000
18.45751 74.000
18.47746 99.000
18.49741 76.000
18.51735 82.000
18.53730 86.000
18.55725 85.000
18.57719 72.000
18.59714 97.000
18.61709 84.000
18.63703 79.000
18.65698 86.000
18.67693 86.000
18.69688 78.000
18.71682 81.000
18.73677 84.000
18.75672 94.000
18.77666 82.000
18.79661 89.000
18.81656 75.000
18.83650 78.000
18.85645 98.000
18.87640 91.000
18.89634 85.000
18.91629 92.000
18.93624 85.000
18.95619 85.000
18.97613 92.000
18.99608 95.000
19.01603 98.000
19.03597 73.000
19.05592 92.000
19.07587 101.000
19.09581 81.000
19.11576 87.000
19.13571 91.000
19.15566 74.000
19.17560 91.000
19.19555 101.000
19.21550 80.000
19.23544 83.000
19.25539 82.000
19.27534 86.000
19.29528 93.000
19.31523 99.000
19.33518 84.000
19.35513 96.000
19.37507 83.000
19.39502 94.000
19.41497 98.000
19.43491 83.000
19.45486 91.000
19.47481 99.000
19.49475 107.000
19.51470 98.000
19.53465 94.000
19.55459 90.000
19.57454 83.000
19.59449 86.000
19.61444 86.000
19.63438 91.000
19.65433 88.000
19.67428 84.000
19.69422 103.000
19.71417 99.000
19.73412 96.000
19.75406 78.000
19.77401 88.000
19.79396 87.000
19.81391 84.000
19.83385 85.000
19.85380 93.000
19.87375 80.000
19.89369 80.000
19.91364 90.000
19.93359 83.000
19.95353 80.000
19.97348 88.000
19.99343 82.000
20.01337 74.000
20.03332 96.000
20.05327 82.000
20.07322 81.000
20.09316 90.000
20.11311 80.000
20.13306 89.000
20.15300 88.000
20.17295 85.000
20.19290 103.000
20.21284 84.000
20.23279 82.000
20.25274 93.000
20.27269 96.000
20.29263 92.000
20.31258 88.000
20.33253 108.000
20.35247 96.000
20.37242 91.000
20.39237 85.000
20.41231 79.000
20.43226 88.000
20.45221 95.000
20.47215 93.000
20.49210 84.000
20.51205 77.000
20.53200 100.000
20.55194 81.000
20.57189 79.000
20.59184 94.000
20.61178 92.000
20.63173 92.000
20.65168 104.000
20.67162 75.000
20.69157 71.000
20.71152 94.000
20.73147 103.000
20.75141 88.000
20.77136 98.000
20.79131 98.000
20.81125 99.000
20.83120 103.000
20.85115 81.000
20.87109 103.000
20.89104 109.000
20.91099 109.000
20.93094 97.000
20.95088 115.000
20.97083 118.000
20.99078 130.000
21.01072 121.000
21.03067 106.000
21.05062 114.000
21.07056 99.000
21.09051 111.000
21.11046 93.000
21.13040 76.000
21.15035 92.000
21.17030 97.000
21.19025 86.000
21.21019 88.000
21.23014 86.000
21.25009 108.000
21.27003 78.000
21.28998 89.000
21.30993 85.000
21.32987 97.000
21.34982 84.000
21.36977 89.000
21.38972 89.000
21.40966 84.000
21.42961 77.000
21.44956 100.000
21.46950 89.000
21.48945 105.000
21.50940 79.000
21.52934 92.000
21.54929 88.000
21.56924 91.000
21.58918 82.000
21.60913 89.000
21.62908 87.000
21.64903 82.000
21.66897 76.000
21.68892 83.000
21.70887 96.000
21.72881 94.000
21.74876 80.000
21.76871 81.000
21.78865 86.000
21.80860 87.000
21.82855 89.000
21.84850 88.000
21.86844 88.000
21.88839 79.000
21.90834 96.000
21.92828 85.000
21.94823 77.000
21.96818 90.000
21.98812 113.000
22.00807 92.000
22.02802 98.000
22.04796 79.000
22.06791 96.000
22.08786 76.000
22.10781 78.000
22.12775 100.000
22.14770 76.000
22.16765 96.000
22.18759 84.000
22.20754 80.000
22.22749 89.000
22.24743 102.000
22.26738 90.000
22.28733 76.000
22.30728 82.000
22.32722 97.000
22.34717 87.000
22.36712 87.000
22.38706 97.000
22.40701 94.000
22.42696 83.000
22.44690 89.000
22.46685 99.000
22.48680 86.000
22.50675 83.000
22.52669 76.000
22.54664 87.000
22.56659 94.000
22.58653 79.000
22.60648 82.000
22.62643 69.000
22.64637 89.000
22.66632 85.000
22.68627 87.000
22.70621 89.000
22.72616 91.000
22.74611 73.000
22.76606 93.000
22.78600 87.000
22.80595 94.000
22.82590 79.000
22.84584 97.000
22.86579 93.000
22.88574 91.000
22.90568 80.000
22.92563 92.000
22.94558 78.000
22.96553 90.000
22.98547 80.000
23.00542 78.000
23.02537 103.000
23.04531 89.000
23.06526 86.000
23.08521 79.000
23.10515 79.000
23.12510 94.000
23.14505 94.000
23.16499 84.000
23.18494 89.000
23.20489 90.000
23.22484 80.000
23.24478 95.000
23.26473 86.000
23.28468 87.000
23.30462 99.000
23.32457 81.000
23.34452 78.000
23.36446 82.000
23.38441 84.000
23.40436 88.000
23.42431 88.000
23.44425 73.000
23.46420 93.000
23.48415 81.000
23.50409 82.000
23.52404 100.000
23.54399 76.000
23.56393 85.000
23.58388 90.000
23.60383 85.000
23.62377 77.000
23.64372 82.000
23.66367 116.000
23.68362 91.000
23.70356 82.000
23.72351 95.000
23.74346 80.000
23.76340 74.000
23.78335 97.000
23.80330 91.000
23.82324 92.000
23.84319 90.000
23.86314 81.000
23.88309 84.000
23.90303 86.000
23.92298 101.000
23.94293 100.000
23.96287 86.000
23.98282 88.000
24.00277 79.000
24.02271 87.000
24.04266 90.000
24.06261 85.000
24.08256 87.000
24.10250 93.000
24.12245 77.000
24.14240 85.000
24.16234 80.000
24.18229 104.000
24.20224 106.000
24.22218 83.000
24.24213 109.000
24.26208 100.000
24.28202 87.000
24.30197 92.000
24.32192 86.000
24.34187 83.000
24.36181 86.000
24.38176 93.000
24.40171 88.000
24.42165 96.000
24.44160 82.000
24.46155 107.000
24.48149 92.000
24.50144 86.000
24.52139 82.000
24.54134 121.000
24.56128 81.000
24.58123 108.000
24.60118 85.000
24.62112 91.000
24.64107 91.000
24.66102 104.000
24.68096 88.000
24.70091 94.000
24.72086 91.000
24.74080 89.000
24.76075 85.000
24.78070 90.000
24.80065 91.000
24.82059 87.000
24.84054 93.000
24.86049 83.000
24.88043 96.000
24.90038 112.000
24.92033 126.000
24.94027 120.000
24.96022 116.000
24.98017 112.000
25.00012 110.000
25.02006 119.000
25.04001 95.000
25.05996 103.000
25.07990 101.000
25.09985 76.000
25.11980 118.000
25.13974 94.000
25.15969 98.000
25.17964 104.000
25.19958 98.000
25.21953 105.000
25.23948 98.000
25.25943 100.000
25.27937 84.000
25.29932 85.000
25.31927 114.000
25.33921 87.000
25.35916 86.000
25.37911 81.000
25.39905 109.000
25.41900 109.000
25.43895 102.000
25.45890 96.000
25.47884 103.000
25.49879 82.000
25.51874 94.000
25.53868 109.000
25.55863 97.000
25.57858 97.000
25.59852 99.000
25.61847 87.000
25.63842 90.000
25.65837 113.000
25.67831 89.000
25.69826 96.000
25.71821 94.000
25.73815 100.000
25.75810 104.000
25.77805 89.000
25.79799 102.000
25.81794 106.000
25.83789 95.000
25.85783 81.000
25.87778 93.000
25.89773 106.000
25.91768 115.000
25.93762 82.000
25.95757 92.000
25.97752 105.000
25.99746 95.000
26.01741 118.000
26.03736 101.000
26.05730 93.000
26.07725 112.000
26.09720 96.000
26.11715 87.000
26.13709 95.000
26.15704 79.000
26.17699 107.000
26.19693 107.000
26.21688 109.000
26.23683 91.000
26.25677 105.000
26.27672 90.000
26.29667 102.000
26.31661 85.000
26.33656 89.000
26.35651 95.000
26.37646 112.000
26.39640 87.000
26.41635 90.000
26.43630 93.000
26.45624 101.000
26.47619 102.000
26.49614 111.000
26.51608 100.000
26.53603 107.000
26.55598 100.000
26.57593 71.000
26.59587 102.000
26.61582 104.000
26.63577 115.000
26.65571 101.000
26.67566 112.000
26.69561 104.000
26.71555 109.000
26.73550 115.000
26.75545 93.000
26.77539 101.000
26.79534 102.000
26.81529 86.000
26.83524 119.000
26.85518 105.000
26.87513 104.000
26.89508 96.000
26.91502 97.000
26.93497 101.000
26.95492 111.000
26.97486 71.000
26.99481 110.000
27.01476 108.000
27.03471 95.000
27.05465 90.000
27.07460 110.000
27.09455 84.000
27.11449 101.000
27.13444 107.000
27.15439 105.000
27.17433 105.000
27.19428 100.000
27.21423 100.000
27.23417 103.000
27.25412 90.000
27.27407 84.000
27.29402 113.000
27.31396 95.000
27.33391 112.000
27.35386 91.000
27.37380 98.000
27.39375 97.000
27.41370 99.000
27.43364 97.000
27.45359 102.000
27.47354 112.000
27.49349 101.000
27.51343 101.000
27.53338 97.000
27.55333 90.000
27.57327 105.000
27.59322 92.000
27.61317 85.000
27.63311 103.000
27.65306 104.000
27.67301 88.000
27.69296 102.000
27.71290 106.000
27.73285 86.000
27.75280 96.000
27.77274 93.000
27.79269 98.000
27.81264 96.000
27.83258 83.000
27.85253 87.000
27.87248 101.000
27.89242 108.000
27.91237 92.000
27.93232 114.000
27.95227 109.000
27.97221 113.000
27.99216 111.000
28.01211 101.000
28.03205 98.000
28.05200 87.000
28.07195 97.000
28.09189 86.000
28.11184 106.000
28.13179 95.000
28.15174 99.000
28.17168 92.000
28.19163 112.000
28.21158 98.000
28.23152 89.000
28.25147 92.000
28.27142 106.000
28.29136 104.000
28.31131 111.000
28.33126 88.000
28.35120 103.000
28.37115 111.000
28.39110 101.000
28.41105 124.000
28.43099 92.000
28.45094 99.000
28.47089 103.000
28.49083 118.000
28.51078 89.000
28.53073 106.000
28.55067 98.000
28.57062 100.000
28.59057 99.000
28.61052 95.000
28.63046 78.000
28.65041 94.000
28.67036 110.000
28.69030 102.000
28.71025 116.000
28.73020 92.000
28.75014 88.000
28.77009 106.000
28.79004 107.000
28.80998 92.000
28.82993 98.000
28.84988 81.000
28.86983 102.000
28.88977 80.000
28.90972 89.000
28.92967 102.000
28.94961 94.000
28.96956 97.000
28.98951 68.000
29.00945 100.000
29.02940 113.000
29.04935 88.000
29.06930 108.000
29.08924 89.000
29.10919 121.000
29.12914 118.000
29.14908 101.000
29.16903 107.000
29.18898 109.000
29.20892 114.000
29.22887 110.000
29.24882 97.000
29.26877 126.000
29.28871 122.000
29.30866 131.000
29.32861 153.000
29.34855 132.000
29.36850 155.000
29.38845 164.000
29.40839 164.000
29.42834 158.000
29.44829 168.000
29.46823 148.000
29.48818 129.000
29.50813 120.000
29.52808 118.000
29.54802 121.000
29.56797 131.000
29.58792 98.000
29.60786 113.000
29.62781 96.000
29.64776 119.000
29.66770 106.000
29.68765 92.000
29.70760 122.000
29.72755 96.000
29.74749 98.000
29.76744 102.000
29.78739 97.000
29.80733 98.000
29.82728 102.000
29.84723 111.000
29.86717 96.000
29.88712 105.000
29.90707 107.000
29.92701 104.000
29.94696 99.000
29.96691 118.000
29.98686 103.000
30.00680 107.000
30.02675 120.000
30.04670 110.000
30.06664 117.000
30.08659 85.000
30.10654 96.000
30.12648 100.000
30.14643 114.000
30.16638 108.000
30.18633 104.000
30.20627 98.000
30.22622 115.000
30.24617 97.000
30.26611 111.000
30.28606 96.000
30.30601 87.000
30.32595 113.000
30.34590 98.000
30.36585 102.000
30.38579 84.000
30.40574 79.000
30.42569 93.000
30.44564 110.000
30.46558 90.000
30.48553 104.000
30.50548 113.000
30.52542 92.000
30.54537 105.000
30.56532 90.000
30.58526 108.000
30.60521 86.000
30.62516 116.000
30.64511 89.000
30.66505 110.000
30.68500 94.000
30.70495 97.000
30.72489 98.000
30.74484 80.000
30.76479 88.000
30.78473 107.000
30.80468 102.000
30.82463 96.000
30.84458 93.000
30.86452 93.000
30.88447 97.000
30.90442 101.000
30.92436 114.000
30.94431 107.000
30.96426 91.000
30.98420 91.000
31.00415 98.000
31.02410 104.000
31.04404 98.000
31.06399 94.000
31.08394 112.000
31.10389 121.000
31.12383 108.000
31.14378 100.000
31.16373 103.000
31.18367 106.000
31.20362 119.000
31.22357 98.000
31.24351 111.000
31.26346 119.000
31.28341 114.000
31.30336 129.000
31.32330 103.000
31.34325 105.000
31.36320 129.000
31.38314 115.000
31.40309 108.000
31.42304 121.000
31.44298 105.000
31.46293 113.000
31.48288 107.000
31.50282 127.000
31.52277 94.000
31.54272 130.000
31.56267 138.000
31.58261 126.000
31.60256 134.000
31.62251 143.000
31.64245 168.000
31.66240 151.000
31.68235 169.000
31.70229 225.000
31.72224 281.000
31.74219 354.000
31.76214 455.000
31.78208 678.000
31.80203 974.000
31.82198 1080.000
31.84192 1268.000
31.86187 1315.000
31.88182 1401.000
31.90176 1302.000
31.92171 1064.000
31.94166 948.000
31.96160 753.000
31.98155 653.000
32.00150 486.000
32.02145 381.000
32.04139 285.000
32.06134 213.000
32.08129 178.000
32.10123 164.000
32.12118 137.000
32.14113 140.000
32.16107 128.000
32.18102 127.000
32.20097 115.000
32.22092 108.000
32.24086 122.000
32.26081 116.000
32.28076 111.000
32.30070 114.000
32.32065 116.000
32.34060 107.000
32.36054 115.000
32.38049 120.000
32.40044 128.000
32.42039 103.000
32.44033 104.000
32.46028 112.000
32.48023 112.000
32.50017 114.000
32.52012 94.000
32.54007 107.000
32.56001 88.000
32.57996 105.000
32.59991 115.000
32.61985 115.000
32.63980 119.000
32.65975 93.000
32.67970 90.000
32.69964 91.000
32.71959 94.000
32.73954 108.000
32.75948 103.000
32.77943 91.000
32.79938 104.000
32.81932 86.000
32.83927 91.000
32.85922 89.000
32.87917 99.000
32.89911 105.000
32.91906 91.000
32.93901 110.000
32.95895 105.000
32.97890 92.000
32.99885 95.000
33.01879 114.000
33.03874 105.000
33.05869 99.000
33.07863 115.000
33.09858 107.000
33.11853 101.000
33.13848 102.000
33.15842 104.000
33.17837 99.000
33.19832 113.000
33.21826 106.000
33.23821 93.000
33.25816 99.000
33.27810 97.000
33.29805 92.000
33.31800 96.000
33.33795 99.000
33.35789 101.000
33.37784 100.000
33.39779 84.000
33.41773 109.000
33.43768 96.000
33.45763 92.000
33.47757 110.000
33.49752 110.000
33.51747 98.000
33.53741 105.000
33.55736 100.000
33.57731 95.000
33.59726 108.000
33.61720 85.000
33.63715 80.000
33.65710 102.000
33.67704 88.000
33.69699 111.000
33.71694 103.000
33.73688 100.000
33.75683 126.000
33.77678 94.000
33.79673 97.000
33.81667 102.000
33.83662 103.000
33.85657 105.000
33.87651 90.000
33.89646 112.000
33.91641 98.000
33.93635 97.000
33.95630 101.000
33.97625 112.000
33.99620 103.000
34.01614 85.000
34.03609 96.000
34.05604 106.000
34.07598 113.000
34.09593 114.000
34.11588 106.000
34.13582 115.000
34.15577 112.000
34.17572 106.000
34.19566 129.000
34.21561 117.000
34.23556 121.000
34.25551 110.000
34.27545 99.000
34.29540 99.000
34.31535 117.000
34.33529 140.000
34.35524 106.000
34.37519 116.000
34.39513 125.000
34.41508 124.000
34.43503 122.000
34.45498 118.000
34.47492 141.000
34.49487 118.000
34.51482 124.000
34.53476 137.000
34.55471 114.000
34.57466 174.000
34.59460 140.000
34.61455 151.000
34.63450 146.000
34.65444 122.000
34.67439 131.000
34.69434 136.000
34.71429 136.000
34.73423 144.000
34.75418 125.000
34.77413 126.000
34.79407 157.000
34.81402 131.000
34.83397 118.000
34.85391 136.000
34.87386 136.000
34.89381 110.000
34.91376 144.000
34.93370 134.000
34.95365 134.000
34.97360 109.000
34.99354 136.000
35.01349 100.000
35.03344 104.000
35.05338 113.000
35.07333 128.000
35.09328 108.000
35.11322 121.000
35.13317 124.000
35.15312 109.000
35.17307 114.000
35.19301 143.000
35.21296 110.000
35.23291 123.000
35.25285 97.000
35.27280 124.000
35.29275 145.000
35.31269 140.000
35.33264 127.000
35.35259 118.000
35.37254 148.000
35.39248 130.000
35.41243 144.000
35.43238 158.000
35.45232 154.000
35.47227 160.000
35.49222 184.000
35.51216 218.000
35.53211 242.000
35.55206 214.000
35.57201 218.000
35.59195 209.000
35.61190 268.000
35.63185 216.000
35.65179 225.000
35.67174 273.000
35.69169 311.000
35.71163 386.000
35.73158 470.000
35.75153 587.000
35.77147 843.000
35.79142 1033.000
35.81137 1235.000
35.83132 1314.000
35.85126 1118.000
35.87121 1035.000
35.89116 966.000
35.91110 855.000
35.93105 701.000
35.95100 522.000
35.97094 400.000
35.99089 326.000
36.01084 261.000
36.03079 250.000
36.05073 188.000
36.07068 173.000
36.09063 170.000
36.11057 148.000
36.13052 142.000
36.15047 141.000
36.17041 134.000
36.19036 141.000
36.21031 122.000
36.23025 139.000
36.25020 139.000
36.27015 121.000
36.29010 129.000
36.31004 120.000
36.32999 117.000
36.34994 123.000
36.36988 134.000
36.38983 113.000
36.40978 103.000
36.42972 114.000
36.44967 119.000
36.46962 121.000
36.48957 127.000
36.50951 115.000
36.52946 106.000
36.54941 121.000
36.56935 119.000
36.58930 118.000
36.60925 142.000
36.62919 122.000
36.64914 143.000
36.66909 152.000
36.68903 186.000
36.70898 201.000
36.72893 221.000
36.74888 217.000
36.76882 199.000
36.78877 199.000
36.80872 182.000
36.82866 177.000
36.84861 162.000
36.86856 152.000
36.88850 140.000
36.90845 133.000
36.92840 131.000
36.94835 133.000
36.96829 115.000
36.98824 127.000
37.00819 117.000
37.02813 112.000
37.04808 129.000
37.06803 115.000
37.08797 119.000
37.10792 124.000
37.12787 155.000
37.14781 132.000
37.16776 155.000
37.18771 119.000
37.20766 144.000
37.22760 122.000
37.24755 127.000
37.26750 125.000
37.28744 124.000
37.30739 109.000
37.32734 111.000
37.34728 107.000
37.36723 108.000
37.38718 130.000
37.40713 121.000
37.42707 117.000
37.44702 125.000
37.46697 85.000
37.48691 97.000
37.50686 102.000
37.52681 108.000
37.54675 114.000
37.56670 119.000
37.58665 97.000
37.60660 112.000
37.62654 130.000
37.64649 109.000
37.66644 99.000
37.68638 131.000
37.70633 106.000
37.72628 102.000
37.74622 112.000
37.76617 114.000
37.78612 124.000
37.80606 117.000
37.82601 116.000
37.84596 91.000
37.86591 130.000
37.88585 99.000
37.90580 100.000
37.92575 123.000
37.94569 120.000
37.96564 117.000
37.98559 133.000
38.00553 120.000
38.02548 126.000
38.04543 112.000
38.06538 118.000
38.08532 126.000
38.10527 112.000
38.12522 119.000
38.14516 136.000
38.16511 96.000
38.18506 105.000
38.20500 124.000
38.22495 98.000
38.24490 104.000
38.26484 122.000
38.28479 136.000
38.30474 118.000
38.32469 98.000
38.34463 106.000
38.36458 127.000
38.38453 111.000
38.40447 116.000
38.42442 129.000
38.44437 111.000
38.46431 110.000
38.48426 110.000
38.50421 104.000
38.52416 107.000
38.54410 104.000
38.56405 140.000
38.58400 120.000
38.60394 128.000
38.62389 146.000
38.64384 156.000
38.66378 153.000
38.68373 206.000
38.70368 209.000
38.72362 181.000
38.74357 174.000
38.76352 160.000
38.78347 175.000
38.80341 170.000
38.82336 149.000
38.84331 188.000
38.86325 197.000
38.88320 155.000
38.90315 150.000
38.92309 162.000
38.94304 165.000
38.96299 170.000
38.98294 175.000
39.00288 190.000
39.02283 170.000
39.04278 190.000
39.06272 196.000
39.08267 233.000
39.10262 237.000
39.12256 261.000
39.14251 285.000
39.16246 319.000
39.18241 330.000
39.20235 440.000
39.22230 508.000
39.24225 648.000
39.26219 792.000
39.28214 1126.000
39.30209 1524.000
39.32203 1977.000
39.34198 2331.000
39.36193 2332.000
39.38187 2253.000
39.40182 1970.000
39.42177 1742.000
39.44172 1691.000
39.46166 1518.000
39.48161 1271.000
39.50156 988.000
39.52150 782.000
39.54145 637.000
39.56140 477.000
39.58134 396.000
39.60129 335.000
39.62124 302.000
39.64119 291.000
39.66113 257.000
39.68108 207.000
39.70103 200.000
39.72097 212.000
39.74092 179.000
39.76087 177.000
39.78081 153.000
39.80076 170.000
39.82071 149.000
39.84065 155.000
39.86060 148.000
39.88055 133.000
39.90050 152.000
39.92044 143.000
39.94039 136.000
39.96034 143.000
39.98028 142.000
40.00023 157.000
40.02018 151.000
40.04012 142.000
40.06007 115.000
40.08002 121.000
40.09997 119.000
40.11991 117.000
40.13986 100.000
40.15981 113.000
40.17975 136.000
40.19970 111.000
40.21965 114.000
40.23959 124.000
40.25954 123.000
40.27949 95.000
40.29943 125.000
40.31938 108.000
40.33933 103.000
40.35928 108.000
40.37922 108.000
40.39917 106.000
40.41912 100.000
40.43906 111.000
40.45901 102.000
40.47896 118.000
40.49890 119.000
40.51885 107.000
40.53880 93.000
40.55875 110.000
40.57869 92.000
40.59864 113.000
40.61859 98.000
40.63853 128.000
40.65848 86.000
40.67843 121.000
40.69837 125.000
40.71832 123.000
40.73827 97.000
40.75822 122.000
40.77816 110.000
40.79811 100.000
40.81806 104.000
40.83800 122.000
40.85795 133.000
40.87790 100.000
40.89784 100.000
40.91779 108.000
40.93774 105.000
40.95768 100.000
40.97763 101.000
40.99758 118.000
41.01753 102.000
41.03747 91.000
41.05742 103.000
41.07737 102.000
41.09731 111.000
41.11726 109.000
41.13721 110.000
41.15715 111.000
41.17710 104.000
41.19705 103.000
41.21700 115.000
41.23694 104.000
41.25689 131.000
41.27684 114.000
41.29678 88.000
41.31673 93.000
41.33668 108.000
41.35662 105.000
41.37657 103.000
41.39652 108.000
41.41646 110.000
41.43641 109.000
41.45636 104.000
41.47631 111.000
41.49625 108.000
41.51620 104.000
41.53615 102.000
41.55609 95.000
41.57604 108.000
41.59599 90.000
41.61593 112.000
41.63588 101.000
41.65583 92.000
41.67578 107.000
41.69572 114.000
41.71567 105.000
41.73562 101.000
41.75556 100.000
41.77551 110.000
41.79546 121.000
41.81540 112.000
41.83535 86.000
41.85530 106.000
41.87524 94.000
41.89519 93.000
41.91514 96.000
41.93509 119.000
41.95503 111.000
41.97498 113.000
41.99493 108.000
42.01487 95.000
42.03482 90.000
42.05477 80.000
42.07471 83.000
42.09466 97.000
42.11461 113.000
42.13456 83.000
42.15450 105.000
42.17445 90.000
42.19440 118.000
42.21434 100.000
42.23429 114.000
42.25424 99.000
42.27418 102.000
42.29413 106.000
42.31408 83.000
42.33403 87.000
42.35397 107.000
42.37392 99.000
42.39387 127.000
42.41381 128.000
42.43376 110.000
42.45371 110.000
42.47365 117.000
42.49360 105.000
42.51355 101.000
42.53349 90.000
42.55344 97.000
42.57339 121.000
42.59334 101.000
42.61328 113.000
42.63323 91.000
42.65318 104.000
42.67312 112.000
42.69307 108.000
42.71302 113.000
42.73296 114.000
42.75291 127.000
42.77286 93.000
42.79281 97.000
42.81275 106.000
42.83270 113.000
42.85265 106.000
42.87259 102.000
42.89254 104.000
42.91249 123.000
42.93243 118.000
42.95238 123.000
42.97233 121.000
42.99227 108.000
43.01222 115.000
43.03217 121.000
43.05212 137.000
43.07206 109.000
43.09201 138.000
43.11196 156.000
43.13190 148.000
43.15185 145.000
43.17180 142.000
43.19174 144.000
43.21169 169.000
43.23164 201.000
43.25159 201.000
43.27153 223.000
43.29148 257.000
43.31143 276.000
43.33137 321.000
43.35132 414.000
43.37127 545.000
43.39121 690.000
43.41116 825.000
43.43111 893.000
43.45105 916.000
43.47100 765.000
43.49095 688.000
43.51090 730.000
43.53084 681.000
43.55079 607.000
43.57074 524.000
43.59068 424.000
43.61063 353.000
43.63058 303.000
43.65052 260.000
43.67047 197.000
43.69042 184.000
43.71037 169.000
43.73031 177.000
43.75026 140.000
43.77021 159.000
43.79015 133.000
43.81010 119.000
43.83005 138.000
43.84999 119.000
43.86994 119.000
43.88989 103.000
43.90984 118.000
43.92978 116.000
43.94973 134.000
43.96968 103.000
43.98962 112.000
44.00957 94.000
44.02952 111.000
44.04946 105.000
44.06941 121.000
44.08936 101.000
44.10930 118.000
44.12925 116.000
44.14920 115.000
44.16915 107.000
44.18909 104.000
44.20904 117.000
44.22899 103.000
44.24893 96.000
44.26888 98.000
44.28883 108.000
44.30877 106.000
44.32872 101.000
44.34867 89.000
44.36862 82.000
44.38856 101.000
44.40851 98.000
44.42846 106.000
44.44840 106.000
44.46835 99.000
44.48830 99.000
44.50824 92.000
44.52819 101.000
44.54814 101.000
44.56808 108.000
44.58803 118.000
44.60798 93.000
44.62793 125.000
44.64787 100.000
44.66782 98.000
44.68777 119.000
44.70771 96.000
44.72766 75.000
44.74761 91.000
44.76755 81.000
44.78750 103.000
44.80745 92.000
44.82740 104.000
44.84734 106.000
44.86729 88.000
44.88724 103.000
44.90718 96.000
44.92713 112.000
44.94708 99.000
44.96702 103.000
44.98697 84.000
45.00692 92.000
45.02686 89.000
45.04681 102.000
45.06676 102.000
45.08671 102.000
45.10665 107.000
45.12660 84.000
45.14655 103.000
45.16649 91.000
45.18644 105.000
45.20639 95.000
45.22633 88.000
45.24628 100.000
45.26623 83.000
45.28618 109.000
45.30612 87.000
45.32607 91.000
45.34602 100.000
45.36596 109.000
45.38591 116.000
45.40586 93.000
45.42580 97.000
45.44575 111.000
45.46570 96.000
45.48565 103.000
45.50559 95.000
45.52554 110.000
45.54549 101.000
45.56543 104.000
45.58538 100.000
45.60533 102.000
45.62527 115.000
45.64522 95.000
45.66517 100.000
45.68511 91.000
45.70506 101.000
45.72501 103.000
45.74496 98.000
45.76490 84.000
45.78485 94.000
45.80480 96.000
45.82474 103.000
45.84469 97.000
45.86464 111.000
45.88458 104.000
45.90453 93.000
45.92448 101.000
45.94443 87.000
45.96437 108.000
45.98432 104.000
46.00427 87.000
46.02421 104.000
46.04416 106.000
46.06411 95.000
46.08405 95.000
46.10400 104.000
46.12395 89.000
46.14389 106.000
46.16384 91.000
46.18379 94.000
46.20374 103.000
46.22368 87.000
46.24363 120.000
46.26358 106.000
46.28352 87.000
46.30347 109.000
46.32342 101.000
46.34336 91.000
46.36331 119.000
46.38326 110.000
46.40321 101.000
46.42315 101.000
46.44310 101.000
46.46305 125.000
46.48299 116.000
46.50294 108.000
46.52289 110.000
46.54283 109.000
46.56278 103.000
46.58273 103.000
46.60267 89.000
46.62262 115.000
46.64257 98.000
46.66252 78.000
46.68246 97.000
46.70241 94.000
46.72236 101.000
46.74230 99.000
46.76225 102.000
46.78220 110.000
46.80214 106.000
46.82209 109.000
46.84204 98.000
46.86199 110.000
46.88193 117.000
46.90188 103.000
46.92183 111.000
46.94177 97.000
46.96172 94.000
46.98167 108.000
47.00161 110.000
47.02156 67.000
47.04151 101.000
47.06146 115.000
47.08140 85.000
47.10135 113.000
47.12130 104.000
47.14124 115.000
47.16119 87.000
47.18114 108.000
47.20108 103.000
47.22103 102.000
47.24098 100.000
47.26092 97.000
47.28087 99.000
47.30082 104.000
47.32077 98.000
47.34071 95.000
47.36066 79.000
47.38061 108.000
47.40055 99.000
47.42050 88.000
47.44045 114.000
47.46039 108.000
47.48034 108.000
47.50029 100.000
47.52024 118.000
47.54018 110.000
47.56013 99.000
47.58008 104.000
47.60002 95.000
47.61997 114.000
47.63992 115.000
47.65986 119.000
47.67981 122.000
47.69976 98.000
47.71970 105.000
47.73965 97.000
47.75960 110.000
47.77955 105.000
47.79949 127.000
47.81944 106.000
47.83939 96.000
47.85933 120.000
47.87928 112.000
47.89923 115.000
47.91917 107.000
47.93912 138.000
47.95907 112.000
47.97902 132.000
47.99896 154.000
48.01891 139.000
48.03886 136.000
48.05880 153.000
48.07875 143.000
48.09870 148.000
48.11864 152.000
48.13859 156.000
48.15854 145.000
48.17848 159.000
48.19843 177.000
48.21838 171.000
48.23833 148.000
48.25827 162.000
48.27822 177.000
48.29817 174.000
48.31811 194.000
48.33806 201.000
48.35801 210.000
48.37795 220.000
48.39790 231.000
48.41785 286.000
48.43780 323.000
48.45774 358.000
48.47769 353.000
48.49764 393.000
48.51758 454.000
48.53753 519.000
48.55748 715.000
48.57742 879.000
48.59737 1018.000
48.61732 1328.000
48.63726 1672.000
48.65721 1880.000
48.67716 2050.000
48.69711 2014.000
48.71705 1944.000
48.73700 1663.000
48.75695 1554.000
48.77689 1546.000
48.79684 1470.000
48.81679 1364.000
48.83673 1214.000
48.85668 997.000
48.87663 762.000
48.89658 638.000
48.91652 535.000
48.93647 431.000
48.95642 371.000
48.97636 285.000
48.99631 279.000
49.01626 274.000
49.03620 232.000
49.05615 231.000
49.07610 191.000
49.09605 195.000
49.11599 159.000
49.13594 166.000
49.15589 189.000
49.17583 166.000
49.19578 151.000
49.21573 134.000
49.23567 144.000
49.25562 154.000
49.27557 141.000
49.29551 121.000
49.31546 132.000
49.33541 123.000
49.35536 151.000
49.37530 106.000
49.39525 135.000
49.41520 124.000
49.43514 130.000
49.45509 134.000
49.47504 133.000
49.49498 103.000
49.51493 121.000
49.53488 137.000
49.55483 112.000
49.57477 121.000
49.59472 116.000
49.61467 118.000
49.63461 118.000
49.65456 125.000
49.67451 124.000
49.69445 106.000
49.71440 118.000
49.73435 133.000
49.75429 117.000
49.77424 108.000
49.79419 124.000
49.81414 123.000
49.83408 111.000
49.85403 96.000
49.87398 133.000
49.89392 116.000
49.91387 102.000
49.93382 94.000
49.95376 98.000
49.97371 98.000
49.99366 104.000
50.01361 115.000
50.03355 118.000
50.05350 81.000
50.07345 113.000
50.09339 105.000
50.11334 106.000
50.13329 121.000
50.15323 90.000
50.17318 107.000
50.19313 103.000
50.21307 110.000
50.23302 103.000
50.25297 98.000
50.27292 92.000
50.29286 107.000
50.31281 104.000
50.33276 108.000
50.35270 111.000
50.37265 99.000
50.39260 97.000
50.41254 104.000
50.43249 113.000
50.45244 103.000
50.47239 94.000
50.49233 87.000
50.51228 102.000
50.53223 80.000
50.55217 95.000
50.57212 92.000
50.59207 95.000
50.61201 97.000
50.63196 91.000
50.65191 96.000
50.67186 91.000
50.69180 93.000
50.71175 88.000
50.73170 89.000
50.75164 91.000
50.77159 111.000
50.79154 97.000
50.81148 81.000
50.83143 91.000
50.85138 105.000
50.87132 102.000
50.89127 105.000
50.91122 99.000
50.93117 75.000
50.95111 97.000
50.97106 85.000
50.99101 96.000
51.01095 94.000
51.03090 93.000
51.05085 89.000
51.07079 98.000
51.09074 92.000
51.11069 84.000
51.13064 101.000
51.15058 97.000
51.17053 74.000
51.19048 108.000
51.21042 102.000
51.23037 109.000
51.25032 83.000
51.27026 82.000
51.29021 78.000
51.31016 95.000
51.33010 102.000
51.35005 106.000
51.37000 93.000
51.38995 75.000
51.40989 108.000
51.42984 97.000
51.44979 92.000
51.46973 102.000
51.48968 87.000
51.50963 104.000
51.52957 95.000
51.54952 96.000
51.56947 102.000
51.58942 81.000
51.60936 84.000
51.62931 93.000
51.64926 95.000
51.66920 100.000
51.68915 94.000
51.70910 113.000
51.72904 92.000
51.74899 94.000
51.76894 92.000
51.78888 96.000
51.80883 89.000
51.82878 73.000
51.84873 83.000
51.86867 101.000
51.88862 106.000
51.90857 110.000
51.92851 99.000
51.94846 112.000
51.96841 101.000
51.98835 105.000
52.00830 84.000
52.02825 111.000
52.04820 104.000
52.06814 110.000
52.08809 102.000
52.10804 113.000
52.12798 114.000
52.14793 113.000
52.16788 93.000
52.18782 115.000
52.20777 92.000
52.22772 112.000
52.24767 106.000
52.26761 90.000
52.28756 122.000
52.30751 94.000
52.32745 107.000
52.34740 90.000
52.36735 110.000
52.38729 90.000
52.40724 115.000
52.42719 102.000
52.44713 111.000
52.46708 90.000
52.48703 98.000
52.50698 85.000
52.52692 90.000
52.54687 88.000
52.56682 107.000
52.58676 105.000
52.60671 103.000
52.62666 78.000
52.64660 93.000
52.66655 84.000
52.68650 85.000
52.70645 95.000
52.72639 90.000
52.74634 71.000
52.76629 97.000
52.78623 118.000
52.80618 112.000
52.82613 101.000
52.84607 90.000
52.86602 70.000
52.88597 79.000
52.90591 103.000
52.92586 97.000
52.94581 93.000
52.96576 77.000
52.98570 106.000
53.00565 88.000
53.02560 80.000
53.04554 99.000
53.06549 102.000
53.08544 92.000
53.10538 105.000
53.12533 122.000
53.14528 103.000
53.16523 95.000
53.18517 97.000
53.20512 104.000
53.22507 97.000
53.24501 92.000
53.26496 96.000
53.28491 94.000
53.30485 102.000
53.32480 95.000
53.34475 95.000
53.36469 106.000
53.38464 91.000
53.40459 93.000
53.42454 99.000
53.44448 105.000
53.46443 86.000
53.48438 100.000
53.50432 92.000
53.52427 96.000
53.54422 98.000
53.56416 99.000
53.58411 93.000
53.60406 91.000
53.62401 101.000
53.64395 90.000
53.66390 102.000
53.68385 90.000
53.70379 84.000
53.72374 84.000
53.74369 124.000
53.76363 79.000
53.78358 90.000
53.80353 84.000
53.82348 93.000
53.84342 110.000
53.86337 94.000
53.88332 90.000
53.90326 91.000
53.92321 80.000
53.94316 108.000
53.96310 96.000
53.98305 94.000
54.00300 81.000
54.02294 89.000
54.04289 87.000
54.06284 89.000
54.08279 85.000
54.10273 101.000
54.12268 103.000
54.14263 92.000
54.16257 88.000
54.18252 91.000
54.20247 90.000
54.22241 85.000
54.24236 95.000
54.26231 94.000
54.28226 87.000
54.30220 94.000
54.32215 85.000
54.34210 89.000
54.36204 98.000
54.38199 84.000
54.40194 82.000
54.42188 96.000
54.44183 94.000
54.46178 101.000
54.48172 83.000
54.50167 74.000
54.52162 103.000
54.54157 101.000
54.56151 89.000
54.58146 95.000
54.60141 81.000
54.62135 94.000
54.64130 89.000
54.66125 103.000
54.68119 105.000
54.70114 96.000
54.72109 89.000
54.74104 96.000
54.76098 85.000
54.78093 85.000
54.80088 108.000
54.82082 86.000
54.84077 100.000
54.86072 103.000
54.88066 78.000
54.90061 82.000
54.92056 97.000
54.94050 104.000
54.96045 105.000
54.98040 90.000
55.00035 88.000
55.02029 103.000
55.04024 82.000
55.06019 108.000
55.08013 77.000
55.10008 90.000
55.12003 102.000
55.13997 91.000
55.15992 90.000
55.17987 74.000
55.19982 88.000
55.21976 108.000
55.23971 88.000
55.25966 89.000
55.27960 95.000
55.29955 91.000
55.31950 83.000
55.33944 90.000
55.35939 91.000
55.37934 89.000
55.39929 91.000
55.41923 87.000
55.43918 91.000
55.45913 85.000
55.47907 99.000
55.49902 95.000
55.51897 83.000
55.53891 93.000
55.55886 85.000
55.57881 86.000
55.59875 110.000
55.61870 93.000
55.63865 89.000
55.65860 106.000
55.67854 93.000
55.69849 81.000
55.71844 85.000
55.73838 83.000
55.75833 90.000
55.77828 89.000
55.79822 79.000
55.81817 108.000
55.83812 87.000
55.85807 83.000
55.87801 103.000
55.89796 86.000
55.91791 96.000
55.93785 75.000
55.95780 94.000
55.97775 93.000
55.99769 76.000
56.01764 83.000
56.03759 97.000
56.05753 88.000
56.07748 95.000
56.09743 97.000
56.11738 100.000
56.13732 93.000
56.15727 106.000
56.17722 103.000
56.19716 77.000
56.21711 94.000
56.23706 88.000
56.25700 80.000
56.27695 82.000
56.29690 117.000
56.31685 96.000
56.33679 76.000
56.35674 82.000
56.37669 85.000
56.39663 94.000
56.41658 92.000
56.43653 85.000
56.45647 90.000
56.47642 98.000
56.49637 73.000
56.51631 97.000
56.53626 92.000
56.55621 91.000
56.57616 98.000
56.59610 74.000
56.61605 93.000
56.63600 102.000
56.65594 99.000
56.67589 102.000
56.69584 81.000
56.71578 102.000
56.73573 92.000
56.75568 74.000
56.77563 83.000
56.79557 78.000
56.81552 104.000
56.83547 72.000
56.85541 95.000
56.87536 79.000
56.89531 84.000
56.91525 95.000
56.93520 88.000
56.95515 87.000
56.97510 81.000
56.99504 84.000
57.01499 85.000
57.03494 84.000
57.05488 98.000
57.07483 85.000
57.09478 95.000
57.11472 79.000
57.13467 85.000
57.15462 79.000
57.17456 79.000
57.19451 96.000
57.21446 94.000
57.23441 73.000
57.25435 93.000
57.27430 112.000
57.29425 99.000
57.31419 90.000
57.33414 93.000
57.35409 101.000
57.37403 88.000
57.39398 88.000
57.41393 96.000
57.43388 107.000
57.45382 87.000
57.47377 86.000
57.49372 98.000
57.51366 84.000
57.53361 87.000
57.55356 104.000
57.57350 90.000
57.59345 94.000
57.61340 81.000
57.63334 104.000
57.65329 103.000
57.67324 83.000
57.69319 111.000
57.71313 71.000
57.73308 89.000
57.75303 89.000
57.77297 78.000
57.79292 81.000
57.81287 91.000
57.83281 105.000
57.85276 85.000
57.87271 82.000
57.89266 114.000
57.91260 112.000
57.93255 95.000
57.95250 106.000
57.97244 103.000
57.99239 88.000
58.01234 96.000
58.03228 90.000
58.05223 109.000
58.07218 79.000
58.09212 106.000
58.11207 79.000
58.13202 96.000
58.15197 99.000
58.17191 87.000
58.19186 109.000
58.21181 93.000
58.23175 93.000
58.25170 84.000
58.27165 90.000
58.29159 113.000
58.31154 101.000
58.33149 90.000
58.35144 84.000
58.37138 94.000
58.39133 91.000
58.41128 125.000
58.43122 95.000
58.45117 80.000
58.47112 91.000
58.49106 113.000
58.51101 100.000
58.53096 84.000
58.55090 104.000
58.57085 100.000
58.59080 108.000
58.61075 99.000
58.63069 70.000
58.65064 79.000
58.67059 94.000
58.69053 94.000
58.71048 100.000
58.73043 89.000
58.75037 102.000
58.77032 99.000
58.79027 97.000
58.81022 106.000
58.83016 112.000
58.85011 80.000
58.87006 130.000
58.89000 97.000
58.90995 102.000
58.92990 104.000
58.94984 105.000
58.96979 100.000
58.98974 109.000
59.00969 108.000
59.02963 98.000
59.04958 90.000
59.06953 95.000
59.08947 104.000
59.10942 90.000
59.12937 89.000
59.14931 85.000
59.16926 92.000
59.18921 108.000
59.20915 91.000
59.22910 90.000
59.24905 112.000
59.26900 91.000
59.28894 95.000
59.30889 96.000
59.32884 91.000
59.34878 104.000
59.36873 93.000
59.38868 114.000
59.40862 93.000
59.42857 98.000
59.44852 93.000
59.46847 106.000
59.48841 100.000
59.50836 94.000
59.52831 98.000
59.54825 88.000
59.56820 93.000
59.58815 85.000
59.60809 94.000
59.62804 89.000
59.64799 87.000
59.66793 93.000
59.68788 103.000
59.70783 116.000
59.72778 100.000
59.74772 82.000
59.76767 81.000
59.78762 101.000
59.80756 93.000
59.82751 105.000
59.84746 100.000
59.86740 107.000
59.88735 95.000
59.90730 84.000
59.92725 86.000
59.94719 96.000
59.96714 100.000
59.98709 81.000
60.00703 95.000
60.02698 88.000
60.04693 104.000
60.06687 96.000
60.08682 83.000
60.10677 93.000
60.12671 93.000
60.14666 92.000
60.16661 93.000
60.18656 93.000
60.20650 87.000
60.22645 86.000
60.24640 99.000
60.26634 100.000
60.28629 81.000
60.30624 114.000
60.32618 95.000
60.34613 118.000
60.36608 93.000
60.38603 92.000
60.40597 96.000
60.42592 91.000
60.44587 92.000
60.46581 107.000
60.48576 96.000
60.50571 81.000
60.52565 102.000
60.54560 89.000
60.56555 116.000
60.58550 89.000
60.60544 106.000
60.62539 105.000
60.64534 95.000
60.66528 119.000
60.68523 99.000
60.70518 116.000
60.72512 95.000
60.74507 104.000
60.76502 102.000
60.78496 85.000
60.80491 101.000
60.82486 105.000
60.84481 93.000
60.86475 92.000
60.88470 101.000
60.90465 94.000
60.92459 110.000
60.94454 105.000
60.96449 106.000
60.98443 123.000
61.00438 111.000
61.02433 91.000
61.04428 110.000
61.06422 124.000
61.08417 103.000
61.10412 113.000
61.12406 121.000
61.14401 93.000
61.16396 109.000
61.18390 119.000
61.20385 113.000
61.22380 106.000
61.24374 119.000
61.26369 116.000
61.28364 121.000
61.30359 113.000
61.32353 138.000
61.34348 139.000
61.36343 133.000
61.38337 115.000
61.40332 130.000
61.42327 130.000
61.44321 168.000
61.46316 147.000
61.48311 170.000
61.50306 168.000
61.52300 190.000
61.54295 181.000
61.56290 180.000
61.58284 215.000
61.60279 231.000
61.62274 242.000
61.64268 272.000
61.66263 296.000
61.68258 322.000
61.70252 358.000
61.72247 435.000
61.74242 484.000
61.76237 576.000
61.78231 652.000
61.80226 773.000
61.82221 814.000
61.84215 825.000
61.86210 835.000
61.88205 774.000
61.90199 695.000
61.92194 688.000
61.94189 644.000
61.96184 629.000
61.98178 615.000
62.00173 569.000
62.02168 522.000
62.04162 509.000
62.06157 446.000
62.08152 373.000
62.10146 370.000
62.12141 292.000
62.14136 268.000
62.16131 237.000
62.18125 260.000
62.20120 194.000
62.22115 179.000
62.24109 184.000
62.26104 145.000
62.28099 138.000
62.30093 147.000
62.32088 168.000
62.34083 143.000
62.36077 144.000
62.38072 126.000
62.40067 120.000
62.42062 122.000
62.44056 149.000
62.46051 127.000
62.48046 128.000
62.50040 127.000
62.52035 115.000
62.54030 119.000
62.56024 138.000
62.58019 119.000
62.60014 116.000
62.62009 121.000
62.64003 120.000
62.65998 114.000
62.67993 83.000
62.69987 109.000
62.71982 122.000
62.73977 116.000
62.75971 117.000
62.77966 78.000
62.79961 88.000
62.81955 114.000
62.83950 102.000
62.85945 112.000
62.87940 113.000
62.89934 84.000
62.91929 117.000
62.93924 129.000
62.95918 99.000
62.97913 95.000
62.99908 84.000
63.01902 114.000
63.03897 117.000
63.05892 107.000
63.07887 107.000
63.09881 97.000
63.11876 100.000
63.13871 99.000
63.15865 104.000
63.17860 94.000
63.19855 114.000
63.21849 105.000
63.23844 93.000
63.25839 99.000
63.27833 112.000
63.29828 104.000
63.31823 113.000
63.33818 92.000
63.35812 93.000
63.37807 110.000
63.39802 98.000
63.41796 112.000
63.43791 107.000
63.45786 104.000
63.47780 96.000
63.49775 121.000
63.51770 107.000
63.53765 108.000
63.55759 95.000
63.57754 99.000
63.59749 92.000
63.61743 86.000
63.63738 111.000
63.65733 94.000
63.67727 107.000
63.69722 127.000
63.71717 127.000
63.73712 110.000
63.75706 89.000
63.77701 109.000
63.79696 100.000
63.81690 114.000
63.83685 107.000
63.85680 119.000
63.87674 114.000
63.89669 132.000
63.91664 125.000
63.93658 133.000
63.95653 107.000
63.97648 133.000
63.99643 124.000
64.01637 126.000
64.03632 138.000
64.05627 136.000
64.07621 150.000
64.09616 160.000
64.11611 156.000
64.13605 171.000
64.15600 188.000
64.17595 208.000
64.19590 235.000
64.21584 283.000
64.23579 331.000
64.25574 355.000
64.27568 423.000
64.29563 474.000
64.31558 514.000
64.33552 536.000
64.35547 604.000
64.37542 569.000
64.39536 555.000
64.41531 512.000
64.43526 529.000
64.45521 441.000
64.47515 437.000
64.49510 480.000
64.51505 430.000
64.53499 432.000
64.55494 404.000
64.57489 352.000
64.59483 330.000
64.61478 308.000
64.63473 238.000
64.65468 220.000
64.67462 225.000
64.69457 208.000
64.71452 166.000
64.73446 163.000
64.75441 163.000
64.77436 145.000
64.79430 125.000
64.81425 118.000
64.83420 126.000
64.85414 129.000
64.87409 118.000
64.89404 124.000
64.91399 113.000
64.93393 122.000
64.95388 117.000
64.97383 115.000
64.99377 112.000
65.01372 106.000
65.03367 131.000
65.05361 110.000
65.07356 129.000
65.09351 119.000
65.11346 102.000
65.13340 103.000
65.15335 131.000
65.17330 117.000
65.19324 89.000
65.21319 99.000
65.23314 110.000
65.25308 121.000
65.27303 107.000
65.29298 108.000
65.31293 88.000
65.33287 97.000
65.35282 106.000
65.37277 117.000
65.39271 109.000
65.41266 84.000
65.43261 96.000
65.45255 97.000
65.47250 95.000
65.49245 122.000
65.51239 118.000
65.53234 99.000
65.55229 102.000
65.57224 117.000
65.59218 109.000
65.61213 128.000
65.63208 128.000
65.65202 120.000
65.67197 112.000
65.69192 118.000
65.71186 116.000
65.73181 129.000
65.75176 137.000
65.77171 106.000
65.79165 98.000
65.81160 138.000
65.83155 111.000
65.85149 135.000
65.87144 118.000
65.89139 108.000
65.91133 128.000
65.93128 112.000
65.95123 102.000
65.97117 107.000
65.99112 110.000
66.01107 101.000
66.03102 112.000
66.05096 126.000
66.07091 106.000
66.09086 119.000
66.11080 126.000
66.13075 122.000
66.15070 105.000
66.17064 121.000
66.19059 127.000
66.21054 113.000
66.23049 124.000
66.25043 123.000
66.27038 128.000
66.29033 148.000
66.31027 127.000
66.33022 135.000
66.35017 153.000
66.37011 163.000
66.39006 194.000
66.41001 190.000
66.42995 176.000
66.44990 211.000
66.46985 211.000
66.48980 239.000
66.50974 243.000
66.52969 253.000
66.54964 254.000
66.56958 276.000
66.58953 327.000
66.60948 355.000
66.62942 388.000
66.64937 442.000
66.66932 444.000
66.68927 543.000
66.70921 524.000
66.72916 533.000
66.74911 480.000
66.76905 441.000
66.78900 472.000
66.80895 414.000
66.82889 416.000
66.84884 395.000
66.86879 372.000
66.88874 346.000
66.90868 348.000
66.92863 332.000
66.94858 292.000
66.96852 281.000
66.98847 239.000
67.00842 223.000
67.02836 192.000
67.04831 210.000
67.06826 168.000
67.08820 161.000
67.10815 147.000
67.12810 123.000
67.14805 125.000
67.16799 115.000
67.18794 135.000
67.20789 123.000
67.22783 112.000
67.24778 107.000
67.26773 140.000
67.28767 84.000
67.30762 109.000
67.32757 110.000
67.34752 92.000
67.36746 114.000
67.38741 106.000
67.40736 109.000
67.42730 101.000
67.44725 106.000
67.46720 90.000
67.48714 98.000
67.50709 109.000
67.52704 122.000
67.54698 91.000
67.56693 89.000
67.58688 93.000
67.60683 93.000
67.62677 99.000
67.64672 99.000
67.66667 116.000
67.68661 101.000
67.70656 93.000
67.72651 91.000
67.74645 107.000
67.76640 87.000
67.78635 89.000
67.80630 100.000
67.82624 97.000
67.84619 92.000
67.86614 102.000
67.88608 99.000
67.90603 110.000
67.92598 94.000
67.94592 97.000
67.96587 106.000
67.98582 100.000
68.00576 105.000
68.02571 110.000
68.04566 130.000
68.06561 117.000
68.08555 112.000
68.10550 99.000
68.12545 112.000
68.14539 84.000
68.16534 117.000
68.18529 90.000
68.20523 98.000
68.22518 81.000
68.24513 111.000
68.26508 103.000
68.28502 88.000
68.30497 91.000
68.32492 89.000
68.34486 92.000
68.36481 93.000
68.38476 93.000
68.40470 90.000
68.42465 91.000
68.44460 88.000
68.46455 97.000
68.48449 85.000
68.50444 87.000
68.52439 92.000
68.54433 76.000
68.56428 104.000
68.58423 102.000
68.60417 91.000
68.62412 96.000
68.64407 84.000
68.66401 78.000
68.68396 98.000
68.70391 91.000
68.72386 92.000
68.74380 117.000
68.76375 96.000
68.78370 103.000
68.80364 85.000
68.82359 109.000
68.84354 95.000
68.86348 90.000
68.88343 90.000
68.90338 89.000
68.92333 99.000
68.94327 96.000
68.96322 97.000
68.98317 96.000
69.00311 88.000
69.02306 99.000
69.04301 86.000
69.06295 82.000
69.08290 78.000
69.10285 95.000
69.12279 83.000
69.14274 89.000
69.16269 102.000
69.18264 86.000
69.20258 102.000
69.22253 116.000
69.24248 77.000
69.26242 97.000
69.28237 75.000
69.30232 99.000
69.32226 90.000
69.34221 105.000
69.36216 87.000
69.38211 96.000
69.40205 95.000
69.42200 72.000
69.44195 90.000
69.46189 104.000
69.48184 108.000
69.50179 97.000
69.52173 103.000
69.54168 79.000
69.56163 109.000
69.58157 97.000
69.60152 107.000
69.62147 132.000
69.64142 103.000
69.66136 90.000
69.68131 79.000
69.70126 105.000
69.72120 109.000
69.74115 89.000
69.76110 117.000
69.78104 84.000
69.80099 90.000
69.82094 96.000
69.84089 90.000
69.86083 82.000
69.88078 97.000
69.90073 105.000
69.92067 91.000
69.94062 72.000
69.96057 95.000
69.98051 97.000
70.00046 95.000
70.02041 89.000
70.04035 87.000
70.06030 90.000
70.08025 82.000
70.10020 78.000
70.12014 83.000
70.14009 93.000
70.16004 86.000
70.17998 91.000
70.19993 85.000
70.21988 101.000
70.23982 95.000
70.25977 102.000
70.27972 87.000
70.29967 114.000
70.31961 82.000
70.33956 81.000
70.35951 71.000
70.37945 103.000
70.39940 76.000
70.41935 80.000
70.43929 98.000
70.45924 95.000
70.47919 99.000
70.49914 82.000
70.51908 79.000
70.53903 80.000
70.55898 79.000
70.57892 115.000
70.59887 76.000
70.61882 72.000
70.63876 90.000
70.65871 83.000
70.67866 87.000
70.69860 87.000
70.71855 80.000
70.73850 85.000
70.75845 114.000
70.77839 85.000
70.79834 103.000
70.81829 99.000
70.83823 73.000
70.85818 97.000
70.87813 86.000
70.89807 84.000
70.91802 85.000
70.93797 92.000
70.95792 74.000
70.97786 89.000
70.99781 89.000
71.01776 96.000
71.03770 68.000
71.05765 85.000
71.07760 75.000
71.09754 97.000
71.11749 88.000
71.13744 101.000
71.15738 106.000
71.17733 85.000
71.19728 95.000
71.21723 83.000
71.23717 88.000
71.25712 80.000
71.27707 103.000
71.29701 90.000
71.31696 94.000
71.33691 94.000
71.35685 92.000
71.37680 82.000
71.39675 90.000
71.41670 81.000
71.43664 73.000
71.45659 93.000
71.47654 73.000
71.49648 101.000
71.51643 113.000
71.53638 85.000
71.55632 91.000
71.57627 94.000
71.59622 98.000
71.61616 86.000
71.63611 92.000
71.65606 93.000
71.67601 82.000
71.69595 96.000
71.71590 95.000
71.73585 82.000
71.75579 93.000
71.77574 93.000
71.79569 96.000
71.81563 86.000
71.83558 88.000
71.85553 84.000
71.87548 89.000
71.89542 89.000
71.91537 92.000
71.93532 95.000
71.95526 84.000
71.97521 96.000
71.99516 90.000
72.01510 89.000
72.03505 104.000
72.05500 101.000
72.07495 112.000
72.09489 106.000
72.11484 79.000
72.13479 93.000
72.15473 88.000
72.17468 70.000
72.19463 102.000
72.21457 100.000
72.23452 94.000
72.25447 107.000
72.27441 88.000
72.29436 98.000
72.31431 85.000
72.33426 88.000
72.35420 86.000
72.37415 94.000
72.39410 90.000
72.41404 82.000
72.43399 86.000
72.45394 93.000
72.47388 93.000
72.49383 79.000
72.51378 95.000
72.53373 92.000
72.55367 84.000
72.57362 86.000
72.59357 89.000
72.61351 80.000
72.63346 96.000
72.65341 97.000
72.67335 106.000
72.69330 100.000
72.71325 87.000
72.73319 82.000
72.75314 99.000
72.77309 106.000
72.79304 83.000
72.81298 97.000
72.83293 91.000
72.85288 96.000
72.87282 93.000
72.89277 86.000
72.91272 76.000
72.93266 100.000
72.95261 88.000
72.97256 107.000
72.99251 95.000
73.01245 92.000
73.03240 104.000
73.05235 88.000
73.07229 103.000
73.09224 100.000
73.11219 105.000
73.13213 79.000
73.15208 110.000
73.17203 104.000
73.19197 100.000
73.21192 96.000
73.23187 106.000
73.25182 106.000
73.27176 125.000
73.29171 121.000
73.31166 99.000
73.33160 112.000
73.35155 101.000
73.37150 129.000
73.39144 112.000
73.41139 116.000
73.43134 159.000
73.45129 145.000
73.47123 162.000
73.49118 178.000
73.51113 190.000
73.53107 193.000
73.55102 207.000
73.57097 231.000
73.59091 246.000
73.61086 228.000
73.63081 222.000
73.65076 245.000
73.67070 193.000
73.69065 201.000
73.71060 204.000
73.73054 200.000
73.75049 186.000
73.77044 244.000
73.79038 207.000
73.81033 183.000
73.83028 173.000
73.85022 176.000
73.87017 163.000
73.89012 150.000
73.91007 160.000
73.93001 126.000
73.94996 123.000
73.96991 117.000
73.98985 108.000
74.00980 111.000
74.02975 136.000
74.04969 135.000
74.06964 104.000
74.08959 87.000
74.10954 122.000
74.12948 129.000
74.14943 100.000
74.16938 108.000
74.18932 87.000
74.20927 91.000
74.22922 95.000
74.24916 77.000
74.26911 98.000
74.28906 94.000
74.30900 102.000
74.32895 86.000
74.34890 89.000
74.36885 76.000
74.38879 94.000
74.40874 104.000
74.42869 81.000
74.44863 92.000
74.46858 96.000
74.48853 81.000
74.50847 97.000
74.52842 73.000
74.54837 90.000
74.56832 102.000
74.58826 79.000
74.60821 87.000
74.62816 75.000
74.64810 86.000
74.66805 98.000
74.68800 96.000
74.70794 87.000
74.72789 92.000
74.74784 99.000
74.76778 80.000
74.78773 91.000
74.80768 83.000
74.82763 107.000
74.84757 94.000
74.86752 92.000
74.88747 95.000
74.90741 104.000
74.92736 74.000
74.94731 103.000
74.96725 92.000
74.98720 100.000
75.00715 103.000
75.02710 96.000
75.04704 95.000
75.06699 104.000
75.08694 88.000
75.10688 106.000
75.12683 90.000
75.14678 99.000
75.16672 83.000
75.18667 96.000
75.20662 109.000
75.22657 97.000
75.24651 106.000
75.26646 97.000
75.28641 77.000
75.30635 90.000
75.32630 83.000
75.34625 93.000
75.36619 88.000
75.38614 95.000
75.40609 88.000
75.42603 97.000
75.44598 91.000
75.46593 80.000
75.48588 102.000
75.50582 98.000
75.52577 90.000
75.54572 88.000
75.56566 105.000
75.58561 86.000
75.60556 107.000
75.62550 103.000
75.64545 84.000
75.66540 107.000
75.68535 116.000
75.70529 99.000
75.72524 101.000
75.74519 108.000
75.76513 132.000
75.78508 123.000
75.80503 115.000
75.82497 133.000
75.84492 143.000
75.86487 163.000
75.88481 151.000
75.90476 142.000
75.92471 151.000
75.94466 132.000
75.96460 127.000
75.98455 132.000
76.00450 149.000
76.02444 123.000
76.04439 129.000
76.06434 135.000
76.08428 131.000
76.10423 128.000
76.12418 129.000
76.14413 128.000
76.16407 134.000
76.18402 123.000
76.20397 117.000
76.22391 121.000
76.24386 94.000
76.26381 107.000
76.28375 112.000
76.30370 109.000
76.32365 98.000
76.34359 99.000
76.36354 103.000
76.38349 98.000
76.40344 98.000
76.42338 90.000
76.44333 95.000
76.46328 121.000
76.48322 101.000
76.50317 104.000
76.52312 111.000
76.54306 86.000
76.56301 81.000
76.58296 84.000
76.60291 102.000
76.62285 101.000
76.64280 107.000
76.66275 86.000
76.68269 90.000
76.70264 98.000
76.72259 91.000
76.74253 103.000
76.76248 84.000
76.78243 91.000
76.80238 94.000
76.82232 81.000
76.84227 98.000
76.86222 96.000
76.88216 88.000
76.90211 96.000
76.92206 87.000
76.94200 102.000
76.96195 103.000
76.98190 85.000
77.00184 91.000
77.02179 98.000
77.04174 88.000
77.06169 103.000
77.08163 114.000
77.10158 92.000
77.12153 94.000
77.14147 88.000
77.16142 94.000
77.18137 90.000
77.20131 100.000
77.22126 91.000
77.24121 112.000
77.26116 82.000
77.28110 91.000
77.30105 96.000
77.32100 108.000
77.34094 100.000
77.36089 105.000
77.38084 102.000
77.40078 87.000
77.42073 99.000
77.44068 97.000
77.46062 92.000
77.48057 121.000
77.50052 113.000
77.52047 106.000
77.54041 129.000
77.56036 119.000
77.58031 110.000
77.60025 123.000
77.62020 127.000
77.64015 111.000
77.66009 125.000
77.68004 142.000
77.69999 144.000
77.71994 145.000
77.73988 143.000
77.75983 142.000
77.77978 157.000
77.79972 178.000
77.81967 159.000
77.83962 245.000
77.85956 204.000
77.87951 263.000
77.89946 265.000
77.91940 285.000
77.93935 263.000
77.95930 325.000
77.97925 334.000
77.99919 352.000
78.01914 334.000
78.03909 350.000
78.05903 342.000
78.07898 355.000
78.09893 334.000
78.11887 367.000
78.13882 312.000
78.15877 346.000
78.17872 316.000
78.19866 327.000
78.21861 295.000
78.23856 271.000
78.25850 289.000
78.27845 247.000
78.29840 244.000
78.31834 244.000
78.33829 254.000
78.35824 184.000
78.37819 213.000
78.39813 197.000
78.41808 158.000
78.43803 175.000
78.45797 140.000
78.47792 147.000
78.49787 141.000
78.51781 140.000
78.53776 106.000
78.55771 111.000
78.57765 105.000
78.59760 113.000
78.61755 109.000
78.63750 111.000
78.65744 109.000
78.67739 115.000
78.69734 114.000
78.71728 95.000
78.73723 100.000
78.75718 108.000
78.77712 133.000
78.79707 89.000
78.81702 112.000
78.83697 77.000
78.85691 87.000
78.87686 95.000
78.89681 86.000
78.91675 94.000
78.93670 100.000
78.95665 79.000
78.97659 102.000
78.99654 85.000
79.01649 91.000
79.03643 91.000
79.05638 94.000
79.07633 93.000
79.09628 109.000
79.11622 83.000
79.13617 93.000
79.15612 85.000
79.17606 77.000
79.19601 95.000
79.21596 86.000
79.23590 79.000
79.25585 93.000
79.27580 94.000
79.29575 108.000
79.31569 86.000
79.33564 112.000
79.35559 81.000
79.37553 93.000
79.39548 102.000
79.41543 80.000
79.43537 99.000
79.45532 92.000
79.47527 84.000
79.49521 104.000
79.51516 91.000
79.53511 97.000
79.55506 104.000
79.57500 98.000
79.59495 119.000
79.61490 103.000
79.63484 82.000
79.65479 87.000
79.67474 98.000
79.69468 88.000
79.71463 104.000
79.73458 84.000
79.75453 76.000
79.77447 79.000
79.79442 107.000
79.81437 91.000
79.83431 107.000
79.85426 78.000
79.87421 91.000
79.89415 103.000
79.91410 94.000
79.93405 100.000
79.95399 111.000
79.97394 96.000
79.99389 94.000
80.01384 83.000
80.03378 88.000
80.05373 84.000
80.07368 94.000
80.09362 86.000
80.11357 96.000
80.13352 88.000
80.15346 84.000
80.17341 86.000
80.19336 95.000
80.21331 105.000
80.23325 104.000
80.25320 109.000
80.27315 79.000
80.29309 93.000
80.31304 88.000
80.33299 114.000
80.35293 103.000
80.37288 98.000
80.39283 94.000
80.41278 119.000
80.43272 89.000
80.45267 91.000
80.47262 97.000
80.49256 109.000
80.51251 80.000
80.53246 94.000
80.55240 93.000
80.57235 72.000
80.59230 96.000
80.61224 95.000
80.63219 97.000
80.65214 94.000
80.67209 98.000
80.69203 90.000
80.71198 113.000
80.73193 98.000
80.75187 120.000
80.77182 103.000
80.79177 91.000
80.81171 112.000
80.83166 114.000
80.85161 110.000
80.87156 115.000
80.89150 110.000
80.91145 92.000
80.93140 115.000
80.95134 115.000
80.97129 117.000
80.99124 100.000
81.01118 98.000
81.03113 111.000
81.05108 106.000
81.07102 101.000
81.09097 104.000
81.11092 109.000
81.13087 112.000
81.15081 88.000
81.17076 97.000
81.19071 97.000
81.21065 79.000
81.23060 97.000
81.25055 84.000
81.27049 109.000
81.29044 105.000
81.31039 87.000
81.33034 92.000
81.35028 68.000
81.37023 88.000
81.39018 92.000
81.41012 97.000
81.43007 79.000
81.45002 87.000
81.46996 77.000
81.48991 91.000
81.50986 95.000
81.52980 86.000
81.54975 96.000
81.56970 87.000
81.58965 101.000
81.60959 77.000
81.62954 97.000
81.64949 73.000
81.66943 100.000
81.68938 86.000
81.70933 87.000
81.72927 76.000
81.74922 90.000
81.76917 92.000
81.78912 67.000
81.80906 89.000
81.82901 87.000
81.84896 83.000
81.86890 88.000
81.88885 100.000
81.90880 69.000
81.92874 81.000
81.94869 85.000
81.96864 98.000
81.98859 87.000
82.00853 96.000
82.02848 84.000
82.04843 97.000
82.06837 71.000
82.08832 81.000
82.10827 82.000
82.12821 80.000
82.14816 75.000
82.16811 88.000
82.18805 108.000
82.20800 94.000
82.22795 85.000
82.24790 111.000
82.26784 81.000
82.28779 97.000
82.30774 94.000
82.32768 93.000
82.34763 89.000
82.36758 75.000
82.38752 83.000
82.40747 99.000
82.42742 90.000
82.44737 97.000
82.46731 75.000
82.48726 77.000
82.50721 100.000
82.52715 67.000
82.54710 99.000
82.56705 94.000
82.58699 101.000
82.60694 90.000
82.62689 81.000
82.64683 103.000
82.66678 83.000
82.68673 81.000
82.70668 87.000
82.72662 110.000
82.74657 85.000
82.76652 88.000
82.78646 99.000
82.80641 82.000
82.82636 102.000
82.84630 101.000
82.86625 93.000
82.88620 94.000
82.90615 102.000
82.92609 90.000
82.94604 91.000
82.96599 101.000
82.98593 96.000
83.00588 87.000
83.02583 76.000
83.04577 90.000
83.06572 86.000
83.08567 95.000
83.10561 76.000
83.12556 102.000
83.14551 96.000
83.16546 95.000
83.18540 109.000
83.20535 92.000
83.22530 67.000
83.24524 75.000
83.26519 82.000
83.28514 88.000
83.30508 86.000
83.32503 100.000
83.34498 78.000
83.36493 89.000
83.38487 76.000
83.40482 82.000
83.42477 89.000
83.44471 79.000
83.46466 108.000
83.48461 98.000
83.50455 77.000
83.52450 111.000
83.54445 90.000
83.56440 89.000
83.58434 99.000
83.60429 110.000
83.62424 111.000
83.64418 98.000
83.66413 108.000
83.68408 100.000
83.70402 95.000
83.72397 98.000
83.74392 94.000
83.76386 97.000
83.78381 96.000
83.80376 99.000
83.82371 92.000
83.84365 92.000
83.86360 104.000
83.88355 85.000
83.90349 76.000
83.92344 87.000
83.94339 110.000
83.96333 88.000
83.98328 94.000
84.00323 77.000
84.02318 82.000
84.04312 95.000
84.06307 99.000
84.08302 81.000
84.10296 98.000
84.12291 94.000
84.14286 87.000
84.16280 86.000
84.18275 99.000
84.20270 111.000
84.22264 107.000
84.24259 99.000
84.26254 112.000
84.28249 102.000
84.30243 97.000
84.32238 117.000
84.34233 117.000
84.36227 109.000
84.38222 134.000
84.40217 121.000
84.42211 126.000
84.44206 147.000
84.46201 153.000
84.48196 161.000
84.50190 168.000
84.52185 164.000
84.54180 215.000
84.56174 231.000
84.58169 211.000
84.60164 237.000
84.62158 228.000
84.64153 261.000
84.66148 248.000
84.68142 230.000
84.70137 253.000
84.72132 233.000
84.74127 208.000
84.76121 205.000
84.78116 205.000
84.80111 225.000
84.82105 191.000
84.84100 179.000
84.86095 196.000
84.88089 185.000
84.90084 206.000
84.92079 181.000
84.94074 210.000
84.96068 185.000
84.98063 191.000
85.00058 154.000
85.02052 155.000
85.04047 129.000
85.06042 145.000
85.08036 131.000
85.10031 132.000
85.12026 122.000
85.14021 126.000
85.16015 110.000
85.18010 123.000
85.20005 113.000
85.21999 93.000
85.23994 105.000
85.25989 102.000
85.27983 98.000
85.29978 104.000
85.31973 98.000
85.33967 90.000
85.35962 98.000
85.37957 99.000
85.39952 87.000
85.41946 109.000
85.43941 93.000
85.45936 98.000
85.47930 86.000
85.49925 112.000
85.51920 84.000
85.53914 79.000
85.55909 99.000
85.57904 95.000
85.59899 108.000
85.61893 85.000
85.63888 88.000
85.65883 96.000
85.67877 81.000
85.69872 88.000
85.71867 97.000
85.73861 84.000
85.75856 81.000
85.77851 85.000
85.79845 93.000
85.81840 96.000
85.83835 102.000
85.85830 87.000
85.87824 90.000
85.89819 77.000
85.91814 86.000
85.93808 98.000
85.95803 87.000
85.97798 91.000
85.99792 82.000
86.01787 97.000
86.03782 89.000
86.05777 106.000
86.07771 91.000
86.09766 99.000
86.11761 101.000
86.13755 86.000
86.15750 94.000
86.17745 85.000
86.19739 93.000
86.21734 101.000
86.23729 97.000
86.25723 81.000
86.27718 85.000
86.29713 86.000
86.31708 90.000
86.33702 109.000
86.35697 109.000
86.37692 107.000
86.39686 93.000
86.41681 98.000
86.43676 102.000
86.45670 95.000
86.47665 87.000
86.49660 102.000
86.51655 96.000
86.53649 100.000
86.55644 116.000
86.57639 103.000
86.59633 132.000
86.61628 113.000
86.63623 118.000
86.65617 114.000
86.67612 109.000
86.69607 114.000
86.71602 123.000
86.73596 123.000
86.75591 121.000
86.77586 108.000
86.79580 120.000
86.81575 111.000
86.83570 104.000
86.85564 117.000
86.87559 104.000
86.89554 118.000
86.91548 105.000
86.93543 111.000
86.95538 122.000
86.97533 117.000
86.99527 103.000
87.01522 109.000
87.03517 96.000
87.05511 93.000
87.07506 105.000
87.09501 117.000
87.11495 104.000
87.13490 112.000
87.15485 124.000
87.17480 122.000
87.19474 96.000
87.21469 96.000
87.23464 133.000
87.25458 115.000
87.27453 121.000
87.29448 106.000
87.31442 110.000
87.33437 95.000
87.35432 92.000
87.37426 109.000
87.39421 108.000
87.41416 98.000
87.43411 119.000
87.45405 116.000
87.47400 92.000
87.49395 100.000
87.51389 112.000
87.53384 91.000
87.55379 104.000
87.57373 98.000
87.59368 105.000
87.61363 112.000
87.63358 98.000
87.65352 90.000
87.67347 103.000
87.69342 102.000
87.71336 95.000
87.73331 97.000
87.75326 83.000
87.77320 85.000
87.79315 79.000
87.81310 96.000
87.83304 82.000
87.85299 94.000
87.87294 97.000
87.89289 104.000
87.91283 98.000
87.93278 95.000
87.95273 88.000
87.97267 83.000
87.99262 90.000
88.01257 87.000
88.03251 79.000
88.05246 101.000
88.07241 97.000
88.09236 94.000
88.11230 77.000
88.13225 88.000
88.15220 77.000
88.17214 101.000
88.19209 76.000
88.21204 81.000
88.23198 92.000
88.25193 99.000
88.27188 94.000
88.29183 102.000
88.31177 89.000
88.33172 96.000
88.35167 76.000
88.37161 80.000
88.39156 73.000
88.41151 96.000
88.43145 94.000
88.45140 88.000
88.47135 94.000
88.49129 99.000
88.51124 77.000
88.53119 75.000
88.55114 83.000
88.57108 81.000
88.59103 87.000
88.61098 90.000
88.63092 94.000
88.65087 101.000
88.67082 87.000
88.69076 95.000
88.71071 86.000
88.73066 108.000
88.75061 83.000
88.77055 86.000
88.79050 83.000
88.81045 77.000
88.83039 82.000
88.85034 82.000
88.87029 83.000
88.89023 86.000
88.91018 86.000
88.93013 87.000
88.95007 78.000
88.97002 82.000
88.98997 98.000
89.00992 70.000
89.02986 90.000
89.04981 86.000
89.06976 81.000
89.08970 83.000
89.10965 69.000
89.12960 76.000
89.14954 80.000
89.16949 100.000
89.18944 64.000
89.20939 76.000
89.22933 76.000
89.24928 83.000
89.26923 88.000
89.28917 86.000
89.30912 94.000
89.32907 93.000
89.34901 72.000
89.36896 89.000
89.38891 87.000
89.40885 86.000
89.42880 85.000
89.44875 86.000
89.46870 94.000
89.48864 86.000
89.50859 92.000
89.52854 79.000
89.54848 90.000
89.56843 93.000
89.58838 87.000
89.60832 99.000
89.62827 91.000
89.64822 98.000
89.66817 114.000
89.68811 81.000
89.70806 87.000
89.72801 96.000
89.74795 73.000
89.76790 84.000
89.78785 108.000
89.80779 79.000
89.82774 103.000
89.84769 75.000
89.86764 81.000
89.88758 89.000
89.90753 87.000
89.92748 100.000
89.94742 76.000
89.96737 98.000
89.98732 105.000
90.00726 83.000
